# Flux units: erg / (cm m2 s)
# Wavelength units: Angstrom
wave	flux
19000.0	6.843482151496361e+17
19001.0	6.84212772545058e+17
19002.0	6.840950192777897e+17
19003.0	6.83967613449011e+17
19004.0	6.838404192927743e+17
19005.0	6.837141813679443e+17
19006.0	6.835880411703977e+17
19007.0	6.834569544903337e+17
19008.0	6.833401371120979e+17
19009.0	6.832109440204797e+17
19010.0	6.830504619802623e+17
19011.0	6.829599358975997e+17
19012.0	6.827899317387261e+17
19013.0	6.827095385352873e+17
19014.0	6.825777360972457e+17
19015.0	6.824525457697449e+17
19016.0	6.823247511289855e+17
19017.0	6.822020457168895e+17
19018.0	6.820724001996799e+17
19019.0	6.819473377984511e+17
19020.0	6.81818979443234e+17
19021.0	6.816937261312681e+17
19022.0	6.815669504267604e+17
19023.0	6.814359999217663e+17
19024.0	6.813106003684009e+17
19025.0	6.811809270289748e+17
19026.0	6.810508644581375e+17
19027.0	6.808898082876074e+17
19028.0	6.808032687510867e+17
19029.0	6.806750211254953e+17
19030.0	6.805504229638143e+17
19031.0	6.804231375115604e+17
19032.0	6.802953153282047e+17
19033.0	6.801596030298793e+17
19034.0	6.800367056584703e+17
19035.0	6.798864182935551e+17
19036.0	6.771061582462964e+17
19037.0	6.796402968843604e+17
19038.0	6.795274510226771e+17
19039.0	6.794299282117972e+17
19040.0	6.793292120675668e+17
19041.0	6.79201579466752e+17
19042.0	6.790606114957993e+17
19043.0	6.789482874754387e+17
19044.0	6.788198903928148e+17
19045.0	6.786921434273108e+17
19046.0	6.785622089924607e+17
19047.0	6.784375463783082e+17
19048.0	6.782921903265107e+17
19049.0	6.781647508034899e+17
19050.0	6.780502709807785e+17
19051.0	6.77502578904268e+17
19052.0	6.777205690466304e+17
19053.0	6.776724664614911e+17
19054.0	6.775482869612543e+17
19055.0	6.773970363744256e+17
19056.0	6.772911825573204e+17
19057.0	6.771666351467178e+17
19058.0	6.770314934834516e+17
19059.0	6.769104583830185e+17
19060.0	6.767839545393151e+17
19061.0	6.766587221988691e+17
19062.0	6.765311158124543e+17
19063.0	6.764040429415081e+17
19064.0	6.762665908458836e+17
19065.0	6.761340077080575e+17
19066.0	6.76014954975505e+17
19067.0	6.758949537011028e+17
19068.0	6.7576837191325e+17
19069.0	6.756413272839507e+17
19070.0	6.755120177304916e+17
19071.0	6.753855496781823e+17
19072.0	6.752570664725162e+17
19073.0	6.751323070398464e+17
19074.0	6.750056075318612e+17
19075.0	6.748784558779049e+17
19076.0	6.747495797358592e+17
19077.0	6.746229225204393e+17
19078.0	6.744941272585556e+17
19079.0	6.743698029150207e+17
19080.0	6.74241444909329e+17
19081.0	6.741116044268884e+17
19082.0	6.739847530850985e+17
19083.0	6.738513989642921e+17
19084.0	6.737131316357801e+17
19085.0	6.736059552847187e+17
19086.0	6.734363418252628e+17
19087.0	6.732810756117844e+17
19088.0	6.732012439557459e+17
19089.0	6.730454101131264e+17
19090.0	6.729631038876329e+17
19091.0	6.728392164507647e+17
19092.0	6.726916299380052e+17
19093.0	6.725893502970538e+17
19094.0	6.724635313132884e+17
19095.0	6.723367855980543e+17
19096.0	6.722085777484457e+17
19097.0	6.720828473343997e+17
19098.0	6.719532722115923e+17
19099.0	6.718258093402794e+17
19100.0	6.716972764321108e+17
19101.0	6.715734103162879e+17
19102.0	6.71439516877892e+17
19103.0	6.71321322090223e+17
19104.0	6.711942038508884e+17
19105.0	6.71060009820706e+17
19106.0	6.709270928162815e+17
19107.0	6.707903676634452e+17
19108.0	6.706297540618921e+17
19109.0	6.70308346853239e+17
19110.0	6.7036219703296e+17
19111.0	6.702520761406804e+17
19112.0	6.701272587567103e+17
19113.0	6.700031449672362e+17
19114.0	6.69874898739746e+17
19115.0	6.697394269847551e+17
19116.0	6.696206291260756e+17
19117.0	6.694930278427306e+17
19118.0	6.693499432861695e+17
19119.0	6.688594982163789e+17
19120.0	6.690898000390825e+17
19121.0	6.689712685187071e+17
19122.0	6.688622340210687e+17
19123.0	6.687356633481215e+17
19124.0	6.685933678799529e+17
19125.0	6.684809441050623e+17
19126.0	6.683534214649171e+17
19127.0	6.680792909829459e+17
19128.0	6.680664905263785e+17
19129.0	6.679675252244479e+17
19130.0	6.678472620157609e+17
19131.0	6.677212227611305e+17
19132.0	6.675950140566185e+17
19133.0	6.674578422803114e+17
19134.0	6.67325831385361e+17
19135.0	6.672142492674729e+17
19136.0	6.670886144136532e+17
19137.0	6.66948458320145e+17
19138.0	6.668335942991871e+17
19139.0	6.667087457375572e+17
19140.0	6.665823624800937e+17
19141.0	6.664557651034111e+17
19142.0	6.663260470247423e+17
19143.0	6.661978428801023e+17
19144.0	6.660725026062335e+17
19145.0	6.659490707406847e+17
19146.0	6.657688614906538e+17
19147.0	6.656882954818899e+17
19148.0	6.655658945762644e+17
19149.0	6.654386547720191e+17
19150.0	6.653154949769897e+17
19151.0	6.651894601263785e+17
19152.0	6.650596560644778e+17
19153.0	6.649296919898793e+17
19154.0	6.647980153110527e+17
19155.0	6.646809633314132e+17
19156.0	6.645534388038314e+17
19157.0	6.644122105763155e+17
19158.0	6.641752300235433e+17
19159.0	6.641653091663871e+17
19160.0	6.640425269286227e+17
19161.0	6.639115958572372e+17
19162.0	6.634823002445142e+17
19163.0	6.636381199663103e+17
19164.0	6.635396262439593e+17
19165.0	6.634047437886803e+17
19166.0	6.632720029450239e+17
19167.0	6.63132767920674e+17
19168.0	6.630327930497704e+17
19169.0	6.629045123590825e+17
19170.0	6.627824181968895e+17
19171.0	6.62640723632674e+17
19172.0	6.625266340899498e+17
19173.0	6.624032100537684e+17
19174.0	6.622735060959232e+17
19175.0	6.621518192006484e+17
19176.0	6.620251452080127e+17
19177.0	6.618843229891241e+17
19178.0	6.617604488342186e+17
19179.0	6.616214353390249e+17
19180.0	6.615152907168425e+17
19181.0	6.613816247495338e+17
19182.0	6.612635295066793e+17
19183.0	6.611390752795304e+17
19184.0	6.610118406482601e+17
19185.0	6.608854541751635e+17
19186.0	6.607590452625408e+17
19187.0	6.606253786660864e+17
19188.0	6.605048068964351e+17
19189.0	6.603773025714176e+17
19190.0	6.602486057358676e+17
19191.0	6.601183358266025e+17
19192.0	6.599972682203135e+17
19193.0	6.598683048367444e+17
19194.0	6.597389847276202e+17
19195.0	6.596120803278847e+17
19196.0	6.594783885656064e+17
19197.0	6.593389889847295e+17
19198.0	6.591555051716607e+17
19199.0	6.571576795332603e+17
19200.0	6.575086318387204e+17
19201.0	6.587842526445565e+17
19202.0	6.587074940851539e+17
19203.0	6.585875637643946e+17
19204.0	6.584682724458495e+17
19205.0	6.583460428775423e+17
19206.0	6.582206538099369e+17
19207.0	6.58086117384738e+17
19208.0	6.579506923962367e+17
19209.0	6.578416694329343e+17
19210.0	6.577153380450304e+17
19211.0	6.575891970086228e+17
19212.0	6.574615431566676e+17
19213.0	6.573117278606675e+17
19214.0	6.571764045141332e+17
19215.0	6.570719594239316e+17
19216.0	6.569535877764436e+17
19217.0	6.568262275257683e+17
19218.0	6.566303454898856e+17
19219.0	6.565577550200831e+17
19220.0	6.564426090020863e+17
19221.0	6.562919765158569e+17
19222.0	6.561897773356372e+17
19223.0	6.560619492802559e+17
19224.0	6.559323138992809e+17
19225.0	6.557967234454867e+17
19226.0	6.556796170797056e+17
19227.0	6.555520079669929e+17
19228.0	6.5542701463197e+17
19229.0	6.552993273653929e+17
19230.0	6.551701834869417e+17
19231.0	6.55041920831761e+17
19232.0	6.549152588627967e+17
19233.0	6.547817234082474e+17
19234.0	6.546586900714835e+17
19235.0	6.545300131588778e+17
19236.0	6.544047465649492e+17
19237.0	6.54275382555443e+17
19238.0	6.541379194148179e+17
19239.0	6.540206401738068e+17
19240.0	6.538912186324308e+17
19241.0	6.537619585018537e+17
19242.0	6.536346298482687e+17
19243.0	6.534929182971219e+17
19244.0	6.533794516085417e+17
19245.0	6.53250393154082e+17
19246.0	6.530700098404351e+17
19247.0	6.529244608506538e+17
19248.0	6.527952908976127e+17
19249.0	6.526658202129748e+17
19250.0	6.52535318708224e+17
19251.0	6.523990429750612e+17
19252.0	6.522540663679657e+17
19253.0	6.521490896497322e+17
19254.0	6.520218989887487e+17
19255.0	6.518755395196243e+17
19256.0	6.517602624296276e+17
19257.0	6.516339708177066e+17
19258.0	6.515043904520191e+17
19259.0	6.513677577136809e+17
19260.0	6.511925332541439e+17
19261.0	6.511136674764116e+17
19262.0	6.509797502702932e+17
19263.0	6.508490215041706e+17
19264.0	6.506789099012093e+17
19265.0	6.505773483950079e+17
19266.0	6.504466845007872e+17
19267.0	6.50333571252224e+17
19268.0	6.502029209195859e+17
19269.0	6.500720526229504e+17
19270.0	6.499403620330153e+17
19271.0	6.497815349952511e+17
19272.0	6.496752096684714e+17
19273.0	6.494889480377683e+17
19274.0	6.49362359539029e+17
19275.0	6.492838413991935e+17
19276.0	6.491504781208234e+17
19277.0	6.490189196514643e+17
19278.0	6.488870402479444e+17
19279.0	6.48751259722274e+17
19280.0	6.48615454380305e+17
19281.0	6.484881348842836e+17
19282.0	6.483550236835839e+17
19283.0	6.481857086488573e+17
19284.0	6.479768499956393e+17
19285.0	6.478446726567251e+17
19286.0	6.477214372244137e+17
19287.0	6.47586102063923e+17
19288.0	6.467100064699727e+17
19289.0	6.455251273340215e+17
19290.0	6.471588620096852e+17
19291.0	6.470068281365844e+17
19292.0	6.468958950872404e+17
19293.0	6.467605133000701e+17
19294.0	6.466247458466473e+17
19295.0	6.46490071638562e+17
19296.0	6.463508986200063e+17
19297.0	6.462145278159529e+17
19298.0	6.460784392186537e+17
19299.0	6.459403366563839e+17
19300.0	6.458060806903124e+17
19301.0	6.456683231095466e+17
19302.0	6.455295732962644e+17
19303.0	6.453856609239039e+17
19304.0	6.451732579439955e+17
19305.0	6.449823775457279e+17
19306.0	6.448421024737961e+17
19307.0	6.446975630529876e+17
19308.0	6.445575011915092e+17
19309.0	6.443541883868499e+17
19310.0	6.441863668738729e+17
19311.0	6.441255572253353e+17
19312.0	6.439961648343721e+17
19313.0	6.438524184166399e+17
19314.0	6.412273151115254e+17
19315.0	6.412911404646438e+17
19316.0	6.43409231548689e+17
19317.0	6.432442878175914e+17
19318.0	6.429679416945321e+17
19319.0	6.42824931447057e+17
19320.0	6.426778408408404e+17
19321.0	6.425297180164096e+17
19322.0	6.42372724588544e+17
19323.0	6.42210525609984e+17
19324.0	6.420824149983231e+17
19325.0	6.418845730340863e+17
19326.0	6.417861207654399e+17
19327.0	6.415598160445439e+17
19328.0	6.412718537965567e+17
19329.0	6.411262050522452e+17
19330.0	6.409708494301866e+17
19331.0	6.408169221783551e+17
19332.0	6.40666367496465e+17
19333.0	6.405106806642003e+17
19334.0	6.40356930621713e+17
19335.0	6.39982175780864e+17
19336.0	6.397678851544404e+17
19337.0	6.395718220644351e+17
19338.0	6.393945837797376e+17
19339.0	6.392513986297855e+17
19340.0	6.39082243887377e+17
19341.0	6.388006204211197e+17
19342.0	6.385692417807699e+17
19343.0	6.384394361110527e+17
19344.0	6.382693200341673e+17
19345.0	6.379395750384977e+17
19346.0	6.378679829528575e+17
19347.0	6.377593420207444e+17
19348.0	6.376000953428649e+17
19349.0	6.374245387643561e+17
19350.0	6.372500843091284e+17
19351.0	6.370773690220543e+17
19352.0	6.368926410386089e+17
19353.0	6.367274342547455e+17
19354.0	6.365489839560019e+17
19355.0	6.362913770744492e+17
19356.0	6.36103737614882e+17
19357.0	6.359201859239935e+17
19358.0	6.357334746639017e+17
19359.0	6.355425026899967e+17
19360.0	6.353515697231188e+17
19361.0	6.351661644294825e+17
19362.0	6.349774320741033e+17
19363.0	6.347813460552361e+17
19364.0	6.345861355973289e+17
19365.0	6.343384539769513e+17
19366.0	6.340609179298472e+17
19367.0	6.338585540864682e+17
19368.0	6.336535850210643e+17
19369.0	6.334404360142847e+17
19370.0	6.332279462821887e+17
19371.0	6.33017149301282e+17
19372.0	6.327480653359784e+17
19373.0	6.324002275808595e+17
19374.0	6.321781374364329e+17
19375.0	6.319511850450943e+17
19376.0	6.317216311366995e+17
19377.0	6.314413928393388e+17
19378.0	6.309991575191551e+17
19379.0	6.307565032614569e+17
19380.0	6.305095849345023e+17
19381.0	6.301743760889169e+17
19382.0	6.296642441445376e+17
19383.0	6.293955249438719e+17
19384.0	6.29052878618624e+17
19385.0	6.284410509503145e+17
19386.0	6.281535866361171e+17
19387.0	6.275783544799228e+17
19388.0	6.270455574953983e+17
19389.0	6.265998983648595e+17
19390.0	6.257868083473065e+17
19391.0	6.232109072340275e+17
19392.0	6.243334111974739e+17
19393.0	6.239532872979793e+17
19394.0	6.232322205898067e+17
19395.0	6.228427644338175e+17
19396.0	6.224385416014506e+17
19397.0	6.220271272154452e+17
19398.0	6.215970321683796e+17
19399.0	6.211096328623444e+17
19400.0	6.207136422603433e+17
19401.0	6.202658826922666e+17
19402.0	6.198022514584233e+17
19403.0	6.19325809561873e+17
19404.0	6.188266541809663e+17
19405.0	6.183275837347156e+17
19406.0	6.178239388407124e+17
19407.0	6.173057530636969e+17
19408.0	6.167209078423552e+17
19409.0	6.162338054930432e+17
19410.0	6.156822329862825e+17
19411.0	6.151167177741652e+17
19412.0	6.145202748129279e+17
19413.0	6.138968702364329e+17
19414.0	6.132879735477587e+17
19415.0	6.126615787820372e+17
19416.0	6.119794401782441e+17
19417.0	6.112385687355391e+17
19418.0	6.105930108938922e+17
19419.0	6.098538712094038e+17
19420.0	6.09048761414451e+17
19421.0	6.083096623448063e+17
19422.0	6.073376732872703e+17
19423.0	6.064129714421763e+17
19424.0	6.053724151611393e+17
19425.0	6.040910917795837e+17
19426.0	6.027026047696892e+17
19427.0	6.010826005676032e+17
19428.0	5.990537728709979e+17
19429.0	5.967080919313065e+17
19430.0	5.938333014993581e+17
19431.0	5.912698818658308e+17
19432.0	5.899700816663891e+17
19433.0	5.882418096155306e+17
19434.0	5.864293576037716e+17
19435.0	5.844452214046719e+17
19436.0	5.822841506583892e+17
19437.0	5.801970633102676e+17
19438.0	5.7463522326828397e+17
19439.0	5.747753757966337e+17
19440.0	5.714978303989076e+17
19441.0	5.676630289328814e+17
19442.0	5.6285901706581325e+17
19443.0	5.57117257600205e+17
19444.0	5.504146631994024e+17
19445.0	5.434587332564311e+17
19446.0	5.355660631867391e+17
19447.0	5.254123614808739e+17
19448.0	5.117157337726984e+17
19449.0	4.919028335596885e+17
19450.0	4.584301608479412e+17
19451.0	4.399519546474496e+17
19452.0	4.77501523073434e+17
19453.0	5.0282662010552403e+17
19454.0	5.18776854133691e+17
19455.0	5.302612229008041e+17
19456.0	5.389085506011138e+17
19457.0	5.4588092480225254e+17
19458.0	5.480791645618263e+17
19459.0	5.585326521188358e+17
19460.0	5.6366293931349357e+17
19461.0	5.6773596473371296e+17
19462.0	5.710842500743169e+17
19463.0	5.739551664373756e+17
19464.0	5.763808146489344e+17
19465.0	5.784964702404608e+17
19466.0	5.804169678727849e+17
19467.0	5.821827219718143e+17
19468.0	5.838336544822612e+17
19469.0	5.853570482044927e+17
19470.0	5.868451147022335e+17
19471.0	5.884423260078085e+17
19472.0	5.908904676425719e+17
19473.0	5.93363542597085e+17
19474.0	5.952346659312983e+17
19475.0	5.967149742948343e+17
19476.0	5.980385120878592e+17
19477.0	5.991089697718267e+17
19478.0	5.9999455791459e+17
19479.0	6.00839829987874e+17
19480.0	6.01504550695731e+17
19481.0	6.021268126739114e+17
19482.0	6.026430185297235e+17
19483.0	6.032314171654144e+17
19484.0	6.036836273094655e+17
19485.0	6.041479543783421e+17
19486.0	6.046250682023935e+17
19487.0	6.050350855356413e+17
19488.0	6.05421782049314e+17
19489.0	6.057867826866857e+17
19490.0	6.060845810668883e+17
19491.0	6.065252711355732e+17
19492.0	6.068558993118548e+17
19493.0	6.07170580185088e+17
19494.0	6.074727215573674e+17
19495.0	6.077613681759572e+17
19496.0	6.080066266071037e+17
19497.0	6.08293949153826e+17
19498.0	6.083188364061356e+17
19499.0	6.053667149621907e+17
19500.0	6.090431093800959e+17
19501.0	6.092777778926931e+17
19502.0	6.094926693531647e+17
19503.0	6.097005698176339e+17
19504.0	6.098953477728937e+17
19505.0	6.100811825632596e+17
19506.0	6.102581129161386e+17
19507.0	6.104160334249983e+17
19508.0	6.107152545830228e+17
19509.0	6.110917401335124e+17
19510.0	6.114896822752594e+17
19511.0	6.074638479480115e+17
19512.0	6.117390222535327e+17
19513.0	6.117646040825839e+17
19514.0	6.121183309201398e+17
19515.0	6.133173158499671e+17
19516.0	6.134530744953514e+17
19517.0	6.136165142888447e+17
19518.0	6.139369617009321e+17
19519.0	6.139682781222228e+17
19520.0	6.140478356105896e+17
19521.0	6.143303731554986e+17
19522.0	6.143404589886121e+17
19523.0	6.143526702153727e+17
19524.0	6.144000097867091e+17
19525.0	6.145948401707689e+17
19526.0	6.145915729477632e+17
19527.0	6.14583970701858e+17
19528.0	6.145726718061225e+17
19529.0	6.145596721201151e+17
19530.0	6.147047754650964e+17
19531.0	6.146948355238569e+17
19532.0	6.146710975807487e+17
19533.0	6.146448666831529e+17
19534.0	6.146156905452884e+17
19535.0	6.145828494245887e+17
19536.0	6.145462773306708e+17
19537.0	6.145862246509225e+17
19538.0	6.145800124672682e+17
19539.0	6.145057484002646e+17
19540.0	6.145060389257215e+17
19541.0	6.144631613248852e+17
19542.0	6.144171972755456e+17
19543.0	6.143655577037482e+17
19544.0	6.143216261442218e+17
19545.0	6.142322604856659e+17
19546.0	6.141438821662719e+17
19547.0	6.141644652238164e+17
19548.0	6.141639098280618e+17
19549.0	6.141185747845117e+17
19550.0	6.140680568395094e+17
19551.0	6.14007896678946e+17
19552.0	6.139461210821972e+17
19553.0	6.138813012596052e+17
19554.0	6.138158376812543e+17
19555.0	6.137517676604074e+17
19556.0	6.136863290381652e+17
19557.0	6.136181958552233e+17
19558.0	6.135490382135295e+17
19559.0	6.134787803359914e+17
19560.0	6.134033478757033e+17
19561.0	6.133477465041577e+17
19562.0	6.13406286544896e+17
19563.0	6.133333376019113e+17
19564.0	6.132578391512406e+17
19565.0	6.131813935568211e+17
19566.0	6.131014485147647e+17
19567.0	6.130257458014889e+17
19568.0	6.131668366655487e+17
19569.0	6.131472399684948e+17
19570.0	6.130679369345706e+17
19571.0	6.129856728618324e+17
19572.0	6.129003347137876e+17
19573.0	6.128174825297235e+17
19574.0	6.127268081784148e+17
19575.0	6.126505290978644e+17
19576.0	6.127122602349907e+17
19577.0	6.126692211534506e+17
19578.0	6.125805932729684e+17
19579.0	6.124936624078847e+17
19580.0	6.124055938378409e+17
19581.0	6.123177659509418e+17
19582.0	6.122298082503337e+17
19583.0	6.12139890970897e+17
19584.0	6.120482060719444e+17
19585.0	6.119484098084863e+17
19586.0	6.118882590851073e+17
19587.0	6.119144213359274e+17
19588.0	6.117936539718998e+17
19589.0	6.117372279302825e+17
19590.0	6.116372086696618e+17
19591.0	6.115517916687018e+17
19592.0	6.114583434843475e+17
19593.0	6.113616192689492e+17
19594.0	6.112465229534548e+17
19595.0	6.111710951768063e+17
19596.0	6.11003004878848e+17
19597.0	6.109797394939904e+17
19598.0	6.108543323209727e+17
19599.0	6.107879345313108e+17
19600.0	6.106916972047018e+17
19601.0	6.106285800598185e+17
19602.0	6.106045408258729e+17
19603.0	6.104482197449385e+17
19604.0	6.104037253098154e+17
19605.0	6.10288258916898e+17
19606.0	6.102150763511808e+17
19607.0	6.101166853193727e+17
19608.0	6.100156539731968e+17
19609.0	6.099128176082941e+17
19610.0	6.098153428221951e+17
19611.0	6.097231620866047e+17
19612.0	6.096296796487679e+17
19613.0	6.095279763750911e+17
19614.0	6.094243138721108e+17
19615.0	6.093260376943274e+17
19616.0	6.092023459916458e+17
19617.0	6.091198949228543e+17
19618.0	6.089731432863059e+17
19619.0	6.088580754920787e+17
19620.0	6.087601168231081e+17
19621.0	6.087108651384832e+17
19622.0	6.08612764492322e+17
19623.0	6.08510040744482e+17
19624.0	6.084221474264403e+17
19625.0	6.083857202457257e+17
19626.0	6.082816866866516e+17
19627.0	6.081751455629311e+17
19628.0	6.080240261180076e+17
19629.0	6.079376551925076e+17
19630.0	6.076300781420544e+17
19631.0	6.056991684296703e+17
19632.0	6.076412243651242e+17
19633.0	6.075626751874388e+17
19634.0	6.07468945215761e+17
19635.0	6.073623507544745e+17
19636.0	6.072576189835945e+17
19637.0	6.071215810674687e+17
19638.0	6.070528888537087e+17
19639.0	6.069482252402688e+17
19640.0	6.068366994658644e+17
19641.0	6.066667860437677e+17
19642.0	6.066334020403199e+17
19643.0	6.065274472103933e+17
19644.0	6.064178385125375e+17
19645.0	6.062951335198719e+17
19646.0	6.062078639647401e+17
19647.0	6.061071524342441e+17
19648.0	6.060016069683882e+17
19649.0	6.058955971231743e+17
19650.0	6.057899471492435e+17
19651.0	6.056834046274218e+17
19652.0	6.055777457755476e+17
19653.0	6.054706606505983e+17
19654.0	6.053648665324202e+17
19655.0	6.052583357546495e+17
19656.0	6.051524756460884e+17
19657.0	6.050466818075305e+17
19658.0	6.049402242902697e+17
19659.0	6.048335723670186e+17
19660.0	6.047271272229546e+17
19661.0	6.046204702665386e+17
19662.0	6.045136579810644e+17
19663.0	6.044018020450303e+17
19664.0	6.042921517536595e+17
19665.0	6.041932320298324e+17
