# Flux units: erg / (cm m2 s)
# Wavelength units: Angstrom
wave	flux
19000.0	7.275567107801087e+17
19001.0	7.273616492199935e+17
19002.0	7.272938169783636e+17
19003.0	7.271583121582761e+17
19004.0	7.270316602556415e+17
19005.0	7.269039604760573e+17
19006.0	7.267708877930493e+17
19007.0	7.266341583760042e+17
19008.0	7.264766298248531e+17
19009.0	7.262663205715965e+17
19010.0	7.260684366643199e+17
19011.0	7.260708453132969e+17
19012.0	7.258844339459411e+17
19013.0	7.258369724601683e+17
19014.0	7.256701736583168e+17
19015.0	7.255509407804074e+17
19016.0	7.254331454302889e+17
19017.0	7.253032820888916e+17
19018.0	7.251707507507199e+17
19019.0	7.250398091935743e+17
19020.0	7.249022407759187e+17
19021.0	7.247815871474344e+17
19022.0	7.246456422050474e+17
19023.0	7.244873638521514e+17
19024.0	7.243663653120681e+17
19025.0	7.2423312471709e+17
19026.0	7.240906289709055e+17
19027.0	7.239427590630058e+17
19028.0	7.238354749183316e+17
19029.0	7.236971717984253e+17
19030.0	7.235815116286634e+17
19031.0	7.234487198242131e+17
19032.0	7.233057038445226e+17
19033.0	7.230971891941375e+17
19034.0	7.229648607204691e+17
19035.0	7.224814319523155e+17
19036.0	7.196489052149076e+17
19037.0	7.223126200243539e+17
19038.0	7.224379407947092e+17
19039.0	7.22360065991202e+17
19040.0	7.222441520660479e+17
19041.0	7.221141103269204e+17
19042.0	7.219103448869545e+17
19043.0	7.218545351983104e+17
19044.0	7.217170870173696e+17
19045.0	7.215840680214527e+17
19046.0	7.214240845441706e+17
19047.0	7.212828830203904e+17
19048.0	7.211055660225875e+17
19049.0	7.20943900209971e+17
19050.0	7.208230732169216e+17
19051.0	7.203224712904701e+17
19052.0	7.203867768214868e+17
19053.0	7.204772373331968e+17
19054.0	7.203720599874217e+17
19055.0	7.200835036162737e+17
19056.0	7.201049528674986e+17
19057.0	7.199881528257194e+17
19058.0	7.198303404599978e+17
19059.0	7.19715396677359e+17
19060.0	7.195887465922557e+17
19061.0	7.194611108457129e+17
19062.0	7.193241012491603e+17
19063.0	7.191884225052671e+17
19064.0	7.190072145914538e+17
19065.0	7.18819338153711e+17
19066.0	7.187431660978175e+17
19067.0	7.186529053747881e+17
19068.0	7.185283627876352e+17
19069.0	7.183953468675412e+17
19070.0	7.182481344866986e+17
19071.0	7.181234157387775e+17
19072.0	7.179888407958867e+17
19073.0	7.178605142474751e+17
19074.0	7.177306044891135e+17
19075.0	7.175969714470911e+17
19076.0	7.174580305133568e+17
19077.0	7.173188783265108e+17
19078.0	7.171749140146857e+17
19079.0	7.170602225893373e+17
19080.0	7.169185465499647e+17
19081.0	7.167602510004223e+17
19082.0	7.166479476719615e+17
19083.0	7.164509444287144e+17
19084.0	7.162328853599572e+17
19085.0	7.16241204482321e+17
19086.0	7.158450939931305e+17
19087.0	7.159349158521514e+17
19088.0	7.15769809032533e+17
19089.0	7.155759779414019e+17
19090.0	7.155524804717225e+17
19091.0	7.154317723172863e+17
19092.0	7.152591368617984e+17
19093.0	7.15183979967283e+17
19094.0	7.150543772319744e+17
19095.0	7.149255993764521e+17
19096.0	7.147888909309267e+17
19097.0	7.146580307432787e+17
19098.0	7.145152746706259e+17
19099.0	7.143798728906068e+17
19100.0	7.142485869811028e+17
19101.0	7.141126925101736e+17
19102.0	7.139509116338175e+17
19103.0	7.138517238939647e+17
19104.0	7.137232362842794e+17
19105.0	7.135632779728212e+17
19106.0	7.134430132961279e+17
19107.0	7.13293031416354e+17
19108.0	7.131383695321769e+17
19109.0	7.129267913621504e+17
19110.0	7.128501439518036e+17
19111.0	7.12758707425553e+17
19112.0	7.126405287160488e+17
19113.0	7.125167651509587e+17
19114.0	7.123773492822016e+17
19115.0	7.122224614648489e+17
19116.0	7.120983392867668e+17
19117.0	7.119558984859647e+17
19118.0	7.11698362068719e+17
19119.0	7.097370389686935e+17
19120.0	7.11486464851968e+17
19121.0	7.114153087642284e+17
19122.0	7.113126779202217e+17
19123.0	7.111805569247913e+17
19124.0	7.110121545007101e+17
19125.0	7.108879046759764e+17
19126.0	7.106634164382377e+17
19127.0	7.100073196388352e+17
19128.0	7.103491800214185e+17
19129.0	7.103004747846995e+17
19130.0	7.102335279606442e+17
19131.0	7.101157405797033e+17
19132.0	7.099839224130217e+17
19133.0	7.098215850923347e+17
19134.0	7.097033891861844e+17
19135.0	7.095846908024148e+17
19136.0	7.094467369282217e+17
19137.0	7.092726556961449e+17
19138.0	7.091708700043945e+17
19139.0	7.090542560499028e+17
19140.0	7.089242600286889e+17
19141.0	7.087914068475901e+17
19142.0	7.086391235532116e+17
19143.0	7.085037182779391e+17
19144.0	7.083598145039017e+17
19145.0	7.082530388486825e+17
19146.0	7.077323049620826e+17
19147.0	7.079613737992191e+17
19148.0	7.07845483921408e+17
19149.0	7.077105724555263e+17
19150.0	7.075868522315775e+17
19151.0	7.074502729706153e+17
19152.0	7.073125887901696e+17
19153.0	7.071486088402259e+17
19154.0	7.070086359678975e+17
19155.0	7.068974909663913e+17
19156.0	7.067642331747667e+17
19157.0	7.066058505235114e+17
19158.0	7.064367944870569e+17
19159.0	7.063364717685417e+17
19160.0	7.06201238180113e+17
19161.0	7.060341867413504e+17
19162.0	7.057690678613332e+17
19163.0	7.05728309432593e+17
19164.0	7.056729285416276e+17
19165.0	7.055361924136959e+17
19166.0	7.053841549055316e+17
19167.0	7.05281393758481e+17
19168.0	7.051640796348415e+17
19169.0	7.0503824897693e+17
19170.0	7.049106301474131e+17
19171.0	7.047730968221012e+17
19172.0	7.046393341760852e+17
19173.0	7.045117332422655e+17
19174.0	7.04361012465937e+17
19175.0	7.042428376711165e+17
19176.0	7.041108577441108e+17
19177.0	7.038837832985257e+17
19178.0	7.038392403492863e+17
19179.0	7.037027059673769e+17
19180.0	7.035678467904852e+17
19181.0	7.033968177534292e+17
19182.0	7.032906060223827e+17
19183.0	7.031766597850452e+17
19184.0	7.030417856484691e+17
19185.0	7.029013379809279e+17
19186.0	7.027728050727593e+17
19187.0	7.025866575970304e+17
19188.0	7.024978364290387e+17
19189.0	7.023602818525865e+17
19190.0	7.022206362757801e+17
19191.0	7.020591701819391e+17
19192.0	7.019359473325395e+17
19193.0	7.017795824211284e+17
19194.0	7.016100706036394e+17
19195.0	7.014477912342527e+17
19196.0	7.01232713896209e+17
19197.0	7.009551102509055e+17
19198.0	7.004641815778643e+17
19199.0	6.993235812199081e+17
19200.0	6.993199849537536e+17
19201.0	7.001046923957588e+17
19202.0	7.003034237621588e+17
19203.0	7.003007677890559e+17
19204.0	7.002373401258665e+17
19205.0	7.001412065383764e+17
19206.0	7.000322601910271e+17
19207.0	6.998325577034409e+17
19208.0	6.997217223114751e+17
19209.0	6.996593043570687e+17
19210.0	6.995362713698303e+17
19211.0	6.994150680778067e+17
19212.0	6.992773046250153e+17
19213.0	6.99079309079347e+17
19214.0	6.989608336927402e+17
19215.0	6.988674173850963e+17
19216.0	6.987332408311807e+17
19217.0	6.985512547341652e+17
19218.0	6.982216540924585e+17
19219.0	6.981697499299837e+17
19220.0	6.981648047756628e+17
19221.0	6.979761674911743e+17
19222.0	6.978984454302378e+17
19223.0	6.977860339586388e+17
19224.0	6.976336878895103e+17
19225.0	6.974985621645993e+17
19226.0	6.973859139944447e+17
19227.0	6.972586042851327e+17
19228.0	6.971426431041533e+17
19229.0	6.970082118161748e+17
19230.0	6.96870972301858e+17
19231.0	6.967301519005012e+17
19232.0	6.965997909049343e+17
19233.0	6.964265521687208e+17
19234.0	6.963258354652499e+17
19235.0	6.961727563016872e+17
19236.0	6.960620174486185e+17
19237.0	6.959189560306345e+17
19238.0	6.95739473933107e+17
19239.0	6.956544983127379e+17
19240.0	6.955178505448106e+17
19241.0	6.953698082510166e+17
19242.0	6.952374338497193e+17
19243.0	6.949992199618557e+17
19244.0	6.949763874990761e+17
19245.0	6.948355655598079e+17
19246.0	6.946984260097363e+17
19247.0	6.945576299353428e+17
19248.0	6.944288325064019e+17
19249.0	6.942906352227668e+17
19250.0	6.941409681255081e+17
19251.0	6.939537405465937e+17
19252.0	6.936803655286783e+17
19253.0	6.93731897446673e+17
19254.0	6.93607193448721e+17
19255.0	6.933389918251686e+17
19256.0	6.933204975310166e+17
19257.0	6.931930907235668e+17
19258.0	6.930500391621972e+17
19259.0	6.928530416511657e+17
19260.0	6.926929042429267e+17
19261.0	6.926173965647872e+17
19262.0	6.924445990693546e+17
19263.0	6.922727736737791e+17
19264.0	6.9199339206301e+17
19265.0	6.919617454101844e+17
19266.0	6.918417184107178e+17
19267.0	6.917951791824895e+17
19268.0	6.916545313068372e+17
19269.0	6.915119430063444e+17
19270.0	6.913452913546579e+17
19271.0	6.911133416598186e+17
19272.0	6.910617382988457e+17
19273.0	6.907742391020201e+17
19274.0	6.905355592269818e+17
19275.0	6.906732608836947e+17
19276.0	6.905273225226921e+17
19277.0	6.903892660977663e+17
19278.0	6.902494190545578e+17
19279.0	6.900859517883731e+17
19280.0	6.899342772273151e+17
19281.0	6.898099905626111e+17
19282.0	6.896688339877887e+17
19283.0	6.895173025923072e+17
19284.0	6.893440356843519e+17
19285.0	6.891857317462015e+17
19286.0	6.890333340871338e+17
19287.0	6.888394528740692e+17
19288.0	6.874465367490552e+17
19289.0	6.866531522008394e+17
19290.0	6.883879439477417e+17
19291.0	6.881813142175749e+17
19292.0	6.882278964374186e+17
19293.0	6.880933286248447e+17
19294.0	6.879455858742611e+17
19295.0	6.878103257918121e+17
19296.0	6.876522768673449e+17
19297.0	6.874988997683881e+17
19298.0	6.873534696871252e+17
19299.0	6.872112804047529e+17
19300.0	6.870641508614141e+17
19301.0	6.869148810346493e+17
19302.0	6.867527425239721e+17
19303.0	6.865726586836308e+17
19304.0	6.864547923099647e+17
19305.0	6.862992491326121e+17
19306.0	6.86150306112034e+17
19307.0	6.859750188777471e+17
19308.0	6.858185804961107e+17
19309.0	6.856357502954153e+17
19310.0	6.854522916481706e+17
19311.0	6.85336193662976e+17
19312.0	6.852057568204116e+17
19313.0	6.850113687956138e+17
19314.0	6.814794587133274e+17
19315.0	6.815508972175388e+17
19316.0	6.84521241584162e+17
19317.0	6.844331983896575e+17
19318.0	6.842929845545641e+17
19319.0	6.841535737888768e+17
19320.0	6.839954035092137e+17
19321.0	6.838278725915987e+17
19322.0	6.836587516133375e+17
19323.0	6.834996481010346e+17
19324.0	6.833477871031636e+17
19325.0	6.831829822734336e+17
19326.0	6.830250774932138e+17
19327.0	6.828689894757716e+17
19328.0	6.826957731091796e+17
19329.0	6.82545674068514e+17
19330.0	6.823708894516563e+17
19331.0	6.821868546468521e+17
19332.0	6.820494760214527e+17
19333.0	6.818736219968851e+17
19334.0	6.817151850992982e+17
19335.0	6.815128166421844e+17
19336.0	6.81372441256482e+17
19337.0	6.812012009663146e+17
19338.0	6.809007840122195e+17
19339.0	6.808451955032063e+17
19340.0	6.806239124826793e+17
19341.0	6.80424860951074e+17
19342.0	6.801789540106237e+17
19343.0	6.800921392578559e+17
19344.0	6.798417781063679e+17
19345.0	6.790223144943613e+17
19346.0	6.790087796850685e+17
19347.0	6.7929780532893e+17
19348.0	6.791892728195752e+17
19349.0	6.789973985110697e+17
19350.0	6.788162170213716e+17
19351.0	6.786266838335487e+17
19352.0	6.784067143292243e+17
19353.0	6.782743257371988e+17
19354.0	6.780833544623443e+17
19355.0	6.778264758517763e+17
19356.0	6.776920468706644e+17
19357.0	6.774928532220585e+17
19358.0	6.772881203658751e+17
19359.0	6.770701525232297e+17
19360.0	6.768473564075348e+17
19361.0	6.766508218078548e+17
19362.0	6.764464637826388e+17
19363.0	6.762345467827539e+17
19364.0	6.760168897380351e+17
19365.0	6.757896877157034e+17
19366.0	6.755704611624275e+17
19367.0	6.753444977879721e+17
19368.0	6.751160110503252e+17
19369.0	6.748631350640639e+17
19370.0	6.746346548974934e+17
19371.0	6.743808157592233e+17
19372.0	6.741746379653119e+17
19373.0	6.738924075832659e+17
19374.0	6.736517878426282e+17
19375.0	6.734008316592127e+17
19376.0	6.731446233683284e+17
19377.0	6.728787639839401e+17
19378.0	6.726150887833597e+17
19379.0	6.723471003003561e+17
19380.0	6.72073097814562e+17
19381.0	6.717908524728319e+17
19382.0	6.71458396279057e+17
19383.0	6.711776666189821e+17
19384.0	6.70898288992802e+17
19385.0	6.705989633267027e+17
19386.0	6.702990160647507e+17
19387.0	6.69989958984226e+17
19388.0	6.696667387177642e+17
19389.0	6.693181254358356e+17
19390.0	6.688473480167423e+17
19391.0	6.661907963095706e+17
19392.0	6.677561627814568e+17
19393.0	6.679248855804585e+17
19394.0	6.676142672401748e+17
19395.0	6.672529136200362e+17
19396.0	6.668878321025024e+17
19397.0	6.664684681123156e+17
19398.0	6.660283804155904e+17
19399.0	6.654272968764074e+17
19400.0	6.651328339465555e+17
19401.0	6.648017378257577e+17
19402.0	6.643766326722559e+17
19403.0	6.639115444071081e+17
19404.0	6.634508879134719e+17
19405.0	6.629509362439507e+17
19406.0	6.62446437179938e+17
19407.0	6.618940532850688e+17
19408.0	6.611490206034602e+17
19409.0	6.607784983745876e+17
19410.0	6.602897661886463e+17
19411.0	6.597113832712874e+17
19412.0	6.591209337607508e+17
19413.0	6.584925567669588e+17
19414.0	6.57834342752802e+17
19415.0	6.571533120045055e+17
19416.0	6.563740352075091e+17
19417.0	6.557190406711976e+17
19418.0	6.54975476764945e+17
19419.0	6.541945316136276e+17
19420.0	6.533701391351807e+17
19421.0	6.524951874677417e+17
19422.0	6.515407138936148e+17
19423.0	6.506081725448191e+17
19424.0	6.496257515541844e+17
19425.0	6.486019411716778e+17
19426.0	6.47524574560256e+17
19427.0	6.463787572570793e+17
19428.0	6.451501213242708e+17
19429.0	6.438341010522111e+17
19430.0	6.42302640984337e+17
19431.0	6.406796856000512e+17
19432.0	6.394754020758867e+17
19433.0	6.378875348407638e+17
19434.0	6.361525163218259e+17
19435.0	6.341904462861651e+17
19436.0	6.32092387966976e+17
19437.0	6.298838381887487e+17
19438.0	6.241039371206661e+17
19439.0	6.243557799799464e+17
19440.0	6.224859810671274e+17
19441.0	6.195760450939558e+17
19442.0	6.162439088723286e+17
19443.0	6.125292416401407e+17
19444.0	6.083144288217769e+17
19445.0	6.034855616490157e+17
19446.0	5.978637594176169e+17
19447.0	5.911744504048294e+17
19448.0	5.82982157782221e+17
19449.0	5.72500294570257e+17
19450.0	5.575461496509771e+17
19451.0	5.4767953330394464e+17
19452.0	5.658830464264874e+17
19453.0	5.77854306569421e+17
19454.0	5.867915276451835e+17
19455.0	5.939117393182719e+17
19456.0	5.997597990846465e+17
19457.0	6.04641774744371e+17
19458.0	6.021160187024806e+17
19459.0	6.119298049944251e+17
19460.0	6.159930087527763e+17
19461.0	6.18981502292241e+17
19462.0	6.216146372001792e+17
19463.0	6.240329005006847e+17
19464.0	6.261961418691924e+17
19465.0	6.282009186577068e+17
19466.0	6.300236520270505e+17
19467.0	6.317000043965097e+17
19468.0	6.332347723721386e+17
19469.0	6.345942503871827e+17
19470.0	6.359831301936467e+17
19471.0	6.372470442775892e+17
19472.0	6.383921537919656e+17
19473.0	6.394521488545108e+17
19474.0	6.404359646609407e+17
19475.0	6.411071891963901e+17
19476.0	6.421963125118291e+17
19477.0	6.430601245272746e+17
19478.0	6.438301361067348e+17
19479.0	6.445412937018025e+17
19480.0	6.452266724753408e+17
19481.0	6.45898046607633e+17
19482.0	6.465083075635882e+17
19483.0	6.470723902810794e+17
19484.0	6.475854100736682e+17
19485.0	6.480652104193364e+17
19486.0	6.485221000085504e+17
19487.0	6.489784361593512e+17
19488.0	6.493788468587178e+17
19489.0	6.495967132691114e+17
19490.0	6.497081657131007e+17
19491.0	6.504183690341034e+17
19492.0	6.508034196329812e+17
19493.0	6.511079752466431e+17
19494.0	6.513884538776234e+17
19495.0	6.516436683281748e+17
19496.0	6.517471000046249e+17
19497.0	6.520028735558996e+17
19498.0	6.510822715031547e+17
19499.0	6.487705612102312e+17
19500.0	6.525570015122771e+17
19501.0	6.529507001368575e+17
19502.0	6.531690602168317e+17
19503.0	6.533493757225642e+17
19504.0	6.535054431180116e+17
19505.0	6.536720592579241e+17
19506.0	6.538287863474858e+17
19507.0	6.539360070183594e+17
19508.0	6.540469715948884e+17
19509.0	6.5409725773469e+17
19510.0	6.539456908973396e+17
19511.0	6.484770406006758e+17
19512.0	6.530754868325033e+17
19513.0	6.530132348327246e+17
19514.0	6.533545265375908e+17
19515.0	6.543842136992426e+17
19516.0	6.546294825462441e+17
19517.0	6.54708319453184e+17
19518.0	6.548041367202473e+17
19519.0	6.548610430096723e+17
19520.0	6.548865938008745e+17
19521.0	6.54945320767761e+17
19522.0	6.549493433150121e+17
19523.0	6.549940477449555e+17
19524.0	6.550049876781737e+17
19525.0	6.550255696871423e+17
19526.0	6.55041351594803e+17
19527.0	6.550401427264852e+17
19528.0	6.550423144671914e+17
19529.0	6.550438450386259e+17
19530.0	6.550616805474303e+17
19531.0	6.550562030660265e+17
19532.0	6.550409126608895e+17
19533.0	6.550254522466304e+17
19534.0	6.550040375984127e+17
19535.0	6.549656197311144e+17
19536.0	6.549282068889597e+17
19537.0	6.549080760472916e+17
19538.0	6.547711810950484e+17
19539.0	6.546793319890944e+17
19540.0	6.547887088118442e+17
19541.0	6.547840120302249e+17
19542.0	6.547512681474729e+17
19543.0	6.546885169556138e+17
19544.0	6.546285312081919e+17
19545.0	6.543373724811264e+17
19546.0	6.542284803801087e+17
19547.0	6.544764440674304e+17
19548.0	6.544536620761087e+17
19549.0	6.54338815321702e+17
19550.0	6.543522435257684e+17
19551.0	6.542956194430975e+17
19552.0	6.542341295483561e+17
19553.0	6.541638172147711e+17
19554.0	6.540968956963497e+17
19555.0	6.54040602124834e+17
19556.0	6.5399308156928e+17
19557.0	6.539284408434687e+17
19558.0	6.538593193426943e+17
19559.0	6.537906606833664e+17
19560.0	6.536996046503933e+17
19561.0	6.536324580376576e+17
19562.0	6.535678434563411e+17
19563.0	6.53504598315281e+17
19564.0	6.534281377611775e+17
19565.0	6.533516905589417e+17
19566.0	6.532625903299241e+17
19567.0	6.531954948876969e+17
19568.0	6.530981710965417e+17
19569.0	6.530242970998099e+17
19570.0	6.529543038828541e+17
19571.0	6.528717585121279e+17
19572.0	6.52763846480145e+17
19573.0	6.526974798681428e+17
19574.0	6.525572755401384e+17
19575.0	6.525377971224575e+17
19576.0	6.524497865037139e+17
19577.0	6.523539734309546e+17
19578.0	6.522723345891327e+17
19579.0	6.521780713117011e+17
19580.0	6.520907845599231e+17
19581.0	6.520137865756671e+17
19582.0	6.519270374637567e+17
19583.0	6.51834258550511e+17
19584.0	6.517383797669887e+17
19585.0	6.515707658021544e+17
19586.0	6.514583244810925e+17
19587.0	6.514236182932138e+17
19588.0	6.511958661180074e+17
19589.0	6.512263148776106e+17
19590.0	6.511298591675731e+17
19591.0	6.510823084130304e+17
19592.0	6.50993888919552e+17
19593.0	6.508828640848553e+17
19594.0	6.506413385143633e+17
19595.0	6.506850653219498e+17
19596.0	6.505368435119444e+17
19597.0	6.504891782529024e+17
19598.0	6.502301808896681e+17
19599.0	6.50289218654481e+17
19600.0	6.50199346254097e+17
19601.0	6.500632900228435e+17
19602.0	6.499321569957203e+17
19603.0	6.497449729676628e+17
19604.0	6.497421283906899e+17
19605.0	6.495493353198938e+17
19606.0	6.496010674459988e+17
19607.0	6.495082472188585e+17
19608.0	6.494213603240617e+17
19609.0	6.493012329409193e+17
19610.0	6.492169098144426e+17
19611.0	6.491077075446441e+17
19612.0	6.490202175089321e+17
19613.0	6.489084011391658e+17
19614.0	6.487820447951529e+17
19615.0	6.486943158938282e+17
19616.0	6.485591896096767e+17
19617.0	6.484409402261504e+17
19618.0	6.480777676062717e+17
19619.0	6.478926617160361e+17
19620.0	6.478960377812307e+17
19621.0	6.480053848244223e+17
19622.0	6.479526734681428e+17
19623.0	6.478522471503188e+17
19624.0	6.477358803801428e+17
19625.0	6.476317982370474e+17
19626.0	6.475028172374015e+17
19627.0	6.473692906607956e+17
19628.0	6.471818260338004e+17
19629.0	6.468715958064467e+17
19630.0	6.46209123525154e+17
19631.0	6.45396605960192e+17
19632.0	6.464821881645738e+17
19633.0	6.466105251288404e+17
19634.0	6.466125455250772e+17
19635.0	6.465090054258687e+17
19636.0	6.464229039844009e+17
19637.0	6.460796933854554e+17
19638.0	6.46231551447313e+17
19639.0	6.461218181087231e+17
19640.0	6.459096326733823e+17
19641.0	6.455685387299502e+17
19642.0	6.457910785037652e+17
19643.0	6.456830710513661e+17
19644.0	6.455332370907135e+17
19645.0	6.453893315690496e+17
19646.0	6.453510786078036e+17
19647.0	6.45271002423842e+17
19648.0	6.451610200134995e+17
19649.0	6.4505143885824e+17
19650.0	6.44944917238033e+17
19651.0	6.448307877795156e+17
19652.0	6.44718607344162e+17
19653.0	6.446130447515647e+17
19654.0	6.444967130737321e+17
19655.0	6.443827788600659e+17
19656.0	6.442795196394153e+17
19657.0	6.441654810574847e+17
19658.0	6.440586285765972e+17
19659.0	6.439470443615572e+17
19660.0	6.438389426771284e+17
19661.0	6.437240133648383e+17
19662.0	6.436124779435348e+17
19663.0	6.434854739290793e+17
19664.0	6.433793467132585e+17
19665.0	6.432792374848169e+17
