# Flux units: erg / (cm m2 s)
# Wavelength units: Angstrom
wave	flux
19000.0	7.611721349507754e+17
19001.0	7.609970082185216e+17
19002.0	7.60891725455906e+17
19003.0	7.607490257267369e+17
19004.0	7.606077365420032e+17
19005.0	7.604665337599314e+17
19006.0	7.603251204237993e+17
19007.0	7.60148460254003e+17
19008.0	7.600207729175208e+17
19009.0	7.598730300970323e+17
19010.0	7.596028684053158e+17
19011.0	7.596060840383828e+17
19012.0	7.593924214390783e+17
19013.0	7.593338881092266e+17
19014.0	7.591705547811497e+17
19015.0	7.590385621314217e+17
19016.0	7.588937391057577e+17
19017.0	7.587516448942761e+17
19018.0	7.586191619304105e+17
19019.0	7.584806629365075e+17
19020.0	7.583298723949224e+17
19021.0	7.581974608740351e+17
19022.0	7.580587764918952e+17
19023.0	7.579029107026602e+17
19024.0	7.577690062891689e+17
19025.0	7.57627141226496e+17
19026.0	7.57477789610803e+17
19027.0	7.572913007886333e+17
19028.0	7.572077586415615e+17
19029.0	7.570594224668671e+17
19030.0	7.569277888495615e+17
19031.0	7.567880363180032e+17
19032.0	7.566452438947156e+17
19033.0	7.564704891972264e+17
19034.0	7.563544916656127e+17
19035.0	7.562027692894888e+17
19036.0	7.519623194170702e+17
19037.0	7.559280609722365e+17
19038.0	7.557838023600809e+17
19039.0	7.556490492990803e+17
19040.0	7.555089619222527e+17
19041.0	7.553638433379667e+17
19042.0	7.551917289548458e+17
19043.0	7.550831364669439e+17
19044.0	7.5493588088477e+17
19045.0	7.547960349600426e+17
19046.0	7.546333797111123e+17
19047.0	7.545079136780287e+17
19048.0	7.542974198753962e+17
19049.0	7.5420295771805e+17
19050.0	7.540679432121002e+17
19051.0	7.532811644829686e+17
19052.0	7.53688035598882e+17
19053.0	7.536499774630569e+17
19054.0	7.535160517984253e+17
19055.0	7.53283196902878e+17
19056.0	7.532226603734356e+17
19057.0	7.530865265475583e+17
19058.0	7.529339569220262e+17
19059.0	7.528040473034752e+17
19060.0	7.52654705893922e+17
19061.0	7.525214384553983e+17
19062.0	7.523763832051027e+17
19063.0	7.522355906259624e+17
19064.0	7.520452426246825e+17
19065.0	7.518846748808531e+17
19066.0	7.517861933219839e+17
19067.0	7.516609490277715e+17
19068.0	7.515224781357055e+17
19069.0	7.513808917146281e+17
19070.0	7.512278812677462e+17
19071.0	7.510925001796264e+17
19072.0	7.509537397407741e+17
19073.0	7.508085971091453e+17
19074.0	7.506695769030653e+17
19075.0	7.505270963961855e+17
19076.0	7.503770546776745e+17
19077.0	7.502378211213313e+17
19078.0	7.50083352175138e+17
19079.0	7.499554467348479e+17
19080.0	7.49808009818931e+17
19081.0	7.496561814667261e+17
19082.0	7.495118353334272e+17
19083.0	7.493427046383615e+17
19084.0	7.491543157964799e+17
19085.0	7.490957772936531e+17
19086.0	7.488114837334698e+17
19087.0	7.48684685869056e+17
19088.0	7.486344641118207e+17
19089.0	7.483949065786708e+17
19090.0	7.483742095059625e+17
19091.0	7.482339588308991e+17
19092.0	7.480518892672339e+17
19093.0	7.479586886167209e+17
19094.0	7.478168322222762e+17
19095.0	7.476748737664339e+17
19096.0	7.475268851597311e+17
19097.0	7.47390064866099e+17
19098.0	7.472470806233087e+17
19099.0	7.471039491604479e+17
19100.0	7.469556742225917e+17
19101.0	7.468181023096833e+17
19102.0	7.46645863215923e+17
19103.0	7.465334478995455e+17
19104.0	7.463935628279807e+17
19105.0	7.462491743322111e+17
19106.0	7.460832719929343e+17
19107.0	7.459577473794045e+17
19108.0	7.458213687459837e+17
19109.0	7.452684947466917e+17
19110.0	7.455229925305e+17
19111.0	7.453935848303274e+17
19112.0	7.452528111255552e+17
19113.0	7.451099118873258e+17
19114.0	7.449658969642326e+17
19115.0	7.448003613469356e+17
19116.0	7.446741922086911e+17
19117.0	7.445300685133139e+17
19118.0	7.443479421867348e+17
19119.0	7.432778180897436e+17
19120.0	7.440702749278205e+17
19121.0	7.439432353316863e+17
19122.0	7.438275128066047e+17
19123.0	7.436828898492416e+17
19124.0	7.435184070022483e+17
19125.0	7.433946639892476e+17
19126.0	7.432531488713385e+17
19127.0	7.425170854292134e+17
19128.0	7.427393252403878e+17
19129.0	7.427976831085224e+17
19130.0	7.426789640328531e+17
19131.0	7.425349653277353e+17
19132.0	7.423995133558781e+17
19133.0	7.421333642149888e+17
19134.0	7.42009698516992e+17
19135.0	7.419702062088191e+17
19136.0	7.418311383274838e+17
19137.0	7.416314430401193e+17
19138.0	7.415299515088893e+17
19139.0	7.414019455451135e+17
19140.0	7.412608378339327e+17
19141.0	7.411182705049599e+17
19142.0	7.409653296835242e+17
19143.0	7.40812315881199e+17
19144.0	7.406756468621311e+17
19145.0	7.405443343887017e+17
19146.0	7.401897194072749e+17
19147.0	7.402279886564009e+17
19148.0	7.401159470525097e+17
19149.0	7.399725910545747e+17
19150.0	7.398298147094527e+17
19151.0	7.396890172369577e+17
19152.0	7.395413072718505e+17
19153.0	7.393986459904681e+17
19154.0	7.392176768723625e+17
19155.0	7.39118598464034e+17
19156.0	7.389752290443261e+17
19157.0	7.388203282246313e+17
19158.0	7.384124248905041e+17
19159.0	7.385369431506944e+17
19160.0	7.383931003338752e+17
19161.0	7.38237789311249e+17
19162.0	7.374821391684955e+17
19163.0	7.37954520559343e+17
19164.0	7.378334914008403e+17
19165.0	7.376773416572244e+17
19166.0	7.374985902074538e+17
19167.0	7.373452492494163e+17
19168.0	7.372387389538303e+17
19169.0	7.37096595808802e+17
19170.0	7.36975907787025e+17
19171.0	7.367977062105087e+17
19172.0	7.366850548946259e+17
19173.0	7.365466903980712e+17
19174.0	7.363849636282368e+17
19175.0	7.362626447212543e+17
19176.0	7.36117844484642e+17
19177.0	7.35922495754513e+17
19178.0	7.358165986661718e+17
19179.0	7.356404759265279e+17
19180.0	7.35522876310596e+17
19181.0	7.35367916770645e+17
19182.0	7.352467761834666e+17
19183.0	7.35114560536576e+17
19184.0	7.349515468144637e+17
19185.0	7.348251313307647e+17
19186.0	7.346873132122111e+17
19187.0	7.345132379919699e+17
19188.0	7.343970898848424e+17
19189.0	7.342476427788287e+17
19190.0	7.341013562206888e+17
19191.0	7.339524682153983e+17
19192.0	7.338247874499923e+17
19193.0	7.336672180742825e+17
19194.0	7.335256182314323e+17
19195.0	7.333914519535615e+17
19196.0	7.332416704217088e+17
19197.0	7.330956012683261e+17
19198.0	7.329289603121151e+17
19199.0	7.291493615490378e+17
19200.0	7.300916744377697e+17
19201.0	7.325024290952532e+17
19202.0	7.323814653678932e+17
19203.0	7.322343900009812e+17
19204.0	7.320907694822739e+17
19205.0	7.319307625168896e+17
19206.0	7.3174411654813e+17
19207.0	7.315706671180457e+17
19208.0	7.31395854119731e+17
19209.0	7.313124155719679e+17
19210.0	7.311711723847679e+17
19211.0	7.310318433381033e+17
19212.0	7.308867535547049e+17
19213.0	7.30684545320004e+17
19214.0	7.305151666017619e+17
19215.0	7.304392729078441e+17
19216.0	7.303073454096381e+17
19217.0	7.301628243738623e+17
19218.0	7.297329771402575e+17
19219.0	7.298175415790248e+17
19220.0	7.297208026136575e+17
19221.0	7.294697128416596e+17
19222.0	7.29440181306436e+17
19223.0	7.292882513122646e+17
19224.0	7.291308263604224e+17
19225.0	7.289524458269352e+17
19226.0	7.288519437320191e+17
19227.0	7.287062524854271e+17
19228.0	7.285710490959872e+17
19229.0	7.28425653408017e+17
19230.0	7.282678622934356e+17
19231.0	7.281235118260224e+17
19232.0	7.27982111911663e+17
19233.0	7.278167938389331e+17
19234.0	7.276878714197331e+17
19235.0	7.275374908014591e+17
19236.0	7.274054796967935e+17
19237.0	7.272525532758012e+17
19238.0	7.270760576625322e+17
19239.0	7.269672997792426e+17
19240.0	7.267795291777705e+17
19241.0	7.266524303021396e+17
19242.0	7.265195944574975e+17
19243.0	7.263151190616745e+17
19244.0	7.262338300947114e+17
19245.0	7.260848464592896e+17
19246.0	7.259330580927827e+17
19247.0	7.257883168560468e+17
19248.0	7.256444014777684e+17
19249.0	7.254952084067668e+17
19250.0	7.253424592650237e+17
19251.0	7.251540876197887e+17
19252.0	7.249489416945663e+17
19253.0	7.248977925767168e+17
19254.0	7.247514291230036e+17
19255.0	7.24541603333188e+17
19256.0	7.244403912824147e+17
19257.0	7.243103091381587e+17
19258.0	7.241624620193108e+17
19259.0	7.239875124264957e+17
19260.0	7.237911785941672e+17
19261.0	7.237096428623187e+17
19262.0	7.235439415700138e+17
19263.0	7.233953064812543e+17
19264.0	7.23083718907221e+17
19265.0	7.230509242034857e+17
19266.0	7.229138911188308e+17
19267.0	7.228149863546879e+17
19268.0	7.226614394563242e+17
19269.0	7.225107919405055e+17
19270.0	7.223608201270611e+17
19271.0	7.220940702220289e+17
19272.0	7.220438870523904e+17
19273.0	7.207841010024436e+17
19274.0	7.211052939520673e+17
19275.0	7.216011746301267e+17
19276.0	7.214420086226943e+17
19277.0	7.212900266191529e+17
19278.0	7.211377641564842e+17
19279.0	7.20969328038161e+17
19280.0	7.208008975122432e+17
19281.0	7.206743816448681e+17
19282.0	7.205247186720084e+17
19283.0	7.203140569574058e+17
19284.0	7.201255513740627e+17
19285.0	7.199866623098879e+17
19286.0	7.198917415753044e+17
19287.0	7.197495072740692e+17
19288.0	7.184421137765702e+17
19289.0	7.168122083606484e+17
19290.0	7.192800342136148e+17
19291.0	7.190277863942826e+17
19292.0	7.189650267439104e+17
19293.0	7.18804776788514e+17
19294.0	7.18644901384465e+17
19295.0	7.184901779838292e+17
19296.0	7.183284165410815e+17
19297.0	7.180859092937386e+17
19298.0	7.179100530322089e+17
19299.0	7.177599681123667e+17
19300.0	7.175983706669055e+17
19301.0	7.174345582095017e+17
19302.0	7.172679962460157e+17
19303.0	7.170825775306068e+17
19304.0	7.169320302586538e+17
19305.0	7.167767952927402e+17
19306.0	7.166131855600297e+17
19307.0	7.164316735591764e+17
19308.0	7.162732415549439e+17
19309.0	7.159897769290408e+17
19310.0	7.157699291294376e+17
19311.0	7.157606060305066e+17
19312.0	7.156140666956458e+17
19313.0	7.154422776507049e+17
19314.0	7.13157299404801e+17
19315.0	7.130878712305005e+17
19316.0	7.149285089651369e+17
19317.0	7.147663219403433e+17
19318.0	7.145925502479017e+17
19319.0	7.144249469785428e+17
19320.0	7.142500991675049e+17
19321.0	7.140765025173504e+17
19322.0	7.138584370173268e+17
19323.0	7.136632594148012e+17
19324.0	7.135398073466879e+17
19325.0	7.132571975199402e+17
19326.0	7.130660911884969e+17
19327.0	7.128812956068522e+17
19328.0	7.127108234335572e+17
19329.0	7.125294652238505e+17
19330.0	7.123323561443325e+17
19331.0	7.121456267089236e+17
19332.0	7.119726494176598e+17
19333.0	7.117803040888148e+17
19334.0	7.115963763086675e+17
19335.0	7.11409499373568e+17
19336.0	7.11216197603601e+17
19337.0	7.11024832343791e+17
19338.0	7.107592244079272e+17
19339.0	7.106359170433023e+17
19340.0	7.104201839957332e+17
19341.0	7.10172252255027e+17
19342.0	7.097411724552872e+17
19343.0	7.09677218267136e+17
19344.0	7.094703463858173e+17
19345.0	7.086340936040436e+17
19346.0	7.087698295302822e+17
19347.0	7.088087691689981e+17
19348.0	7.086211232781651e+17
19349.0	7.083947785016659e+17
19350.0	7.081825934158505e+17
19351.0	7.078916296540156e+17
19352.0	7.075237141151743e+17
19353.0	7.073288415783594e+17
19354.0	7.071041630590291e+17
19355.0	7.068430238744575e+17
19356.0	7.066471459629738e+17
19357.0	7.064139249046867e+17
19358.0	7.061601075767978e+17
19359.0	7.056273058387284e+17
19360.0	7.054283157536768e+17
19361.0	7.051858679256404e+17
19362.0	7.049529597624319e+17
19363.0	7.047016125999785e+17
19364.0	7.042989898945875e+17
19365.0	7.0387512653469e+17
19366.0	7.036136395724116e+17
19367.0	7.033461492329129e+17
19368.0	7.030632690133674e+17
19369.0	7.023933199657641e+17
19370.0	7.020241569011027e+17
19371.0	7.018440051829417e+17
19372.0	7.014082213314559e+17
19373.0	7.00830584021538e+17
19374.0	7.005337348822355e+17
19375.0	7.001702374135123e+17
19376.0	6.996614657518249e+17
19377.0	6.993362450120703e+17
19378.0	6.990100943951187e+17
19379.0	6.98634876153583e+17
19380.0	6.982879697436671e+17
19381.0	6.979383309544106e+17
19382.0	6.975601665638399e+17
19383.0	6.971869536889513e+17
19384.0	6.968553560692052e+17
19385.0	6.964782440295082e+17
19386.0	6.960944837383508e+17
19387.0	6.956997935103999e+17
19388.0	6.952967588544511e+17
19389.0	6.948876669244755e+17
19390.0	6.944323952880297e+17
19391.0	6.906770512762149e+17
19392.0	6.934548127765841e+17
19393.0	6.930612704597331e+17
19394.0	6.925955736010751e+17
19395.0	6.921161880021673e+17
19396.0	6.916300936140116e+17
19397.0	6.910148816317097e+17
19398.0	6.904908929652052e+17
19399.0	6.897557443706877e+17
19400.0	6.894044391145472e+17
19401.0	6.887449146600104e+17
19402.0	6.881079996011859e+17
19403.0	6.875055238326954e+17
19404.0	6.86776129683456e+17
19405.0	6.860220635895124e+17
19406.0	6.853606175145983e+17
19407.0	6.843975349917012e+17
19408.0	6.834642980874926e+17
19409.0	6.825897387272874e+17
19410.0	6.816803314117292e+17
19411.0	6.806043028531881e+17
19412.0	6.792743564432726e+17
19413.0	6.779367437544104e+17
19414.0	6.764138575429632e+17
19415.0	6.746921373444778e+17
19416.0	6.729734471112018e+17
19417.0	6.717397232779261e+17
19418.0	6.706285263192063e+17
19419.0	6.694122791021225e+17
19420.0	6.681602716685651e+17
19421.0	6.668456602632192e+17
19422.0	6.654524803863892e+17
19423.0	6.639762277051049e+17
19424.0	6.625103566951764e+17
19425.0	6.609857656389631e+17
19426.0	6.59328514199825e+17
19427.0	6.57646430523665e+17
19428.0	6.558132819984381e+17
19429.0	6.538688596366675e+17
19430.0	6.516792926491992e+17
19431.0	6.488787063756128e+17
19432.0	6.468011747005783e+17
19433.0	6.437641491491505e+17
19434.0	6.400830386558294e+17
19435.0	6.354355355647997e+17
19436.0	6.315096649935529e+17
19437.0	6.283319601790975e+17
19438.0	6.215891489740125e+17
19439.0	6.204677405627735e+17
19440.0	6.160459085032104e+17
19441.0	6.109012036681724e+17
19442.0	6.049117259519322e+17
19443.0	5.975851218064724e+17
19444.0	5.895295444800847e+17
19445.0	5.814312537598636e+17
19446.0	5.716793019247273e+17
19447.0	5.598969806367396e+17
19448.0	5.4595562871193645e+17
19449.0	5.288560170456406e+17
19450.0	5.054011926030966e+17
19451.0	4.975791395831812e+17
19452.0	5.174948173010267e+17
19453.0	5.37886093440888e+17
19454.0	5.5282344555533594e+17
19455.0	5.654701005602815e+17
19456.0	5.759230991313583e+17
19457.0	5.84527263528823e+17
19458.0	5.901446911011523e+17
19459.0	5.998169794718385e+17
19460.0	6.0619662378926e+17
19461.0	6.114971946232488e+17
19462.0	6.160495657964886e+17
19463.0	6.200852510758227e+17
19464.0	6.237126906260137e+17
19465.0	6.269885961207808e+17
19466.0	6.300848335705423e+17
19467.0	6.343302137774065e+17
19468.0	6.382146997103282e+17
19469.0	6.411192574672891e+17
19470.0	6.438331546075133e+17
19471.0	6.460244299350017e+17
19472.0	6.479691859536553e+17
19473.0	6.497480854907561e+17
19474.0	6.514091055819433e+17
19475.0	6.526885889223334e+17
19476.0	6.542864993484799e+17
19477.0	6.556210896917844e+17
19478.0	6.56859535122978e+17
19479.0	6.580805357447849e+17
19480.0	6.592472698322943e+17
19481.0	6.603420589533865e+17
19482.0	6.61368719155746e+17
19483.0	6.623500873760768e+17
19484.0	6.632706843257512e+17
19485.0	6.641375061737471e+17
19486.0	6.653277409465688e+17
19487.0	6.668617594000718e+17
19488.0	6.68217094561245e+17
19489.0	6.693792912506884e+17
19490.0	6.700289140719616e+17
19491.0	6.712168258295118e+17
19492.0	6.721041181878954e+17
19493.0	6.727572544378198e+17
19494.0	6.733923813250388e+17
19495.0	6.739492829746516e+17
19496.0	6.744004830603944e+17
19497.0	6.748824938741759e+17
19498.0	6.750736469022039e+17
19499.0	6.707801632014314e+17
19500.0	6.761428220379136e+17
19501.0	6.765796527177725e+17
19502.0	6.769037179267753e+17
19503.0	6.771777552252928e+17
19504.0	6.774326249739604e+17
19505.0	6.777285575180288e+17
19506.0	6.780320077927764e+17
19507.0	6.782406359689898e+17
19508.0	6.78450470986274e+17
19509.0	6.786404870083924e+17
19510.0	6.787618181567827e+17
19511.0	6.743540092633069e+17
19512.0	6.783904417578996e+17
19513.0	6.778452409581544e+17
19514.0	6.784251381590683e+17
19515.0	6.79466602576828e+17
19516.0	6.797752918867965e+17
19517.0	6.79878137618978e+17
19518.0	6.800038596444159e+17
19519.0	6.801006195813034e+17
19520.0	6.80185260286498e+17
19521.0	6.80280862036241e+17
19522.0	6.803459600809983e+17
19523.0	6.80431390363921e+17
19524.0	6.805392620606803e+17
19525.0	6.805914061373437e+17
19526.0	6.806651696141654e+17
19527.0	6.809338872070143e+17
19528.0	6.809741525953193e+17
19529.0	6.810080305479679e+17
19530.0	6.81386771585434e+17
19531.0	6.814751204048893e+17
19532.0	6.814917211805012e+17
19533.0	6.815296828473345e+17
19534.0	6.818607873567402e+17
19535.0	6.818580379904681e+17
19536.0	6.818510674766506e+17
19537.0	6.818589735299753e+17
19538.0	6.819561425513133e+17
19539.0	6.819554660799834e+17
19540.0	6.821027302604799e+17
19541.0	6.820924944809983e+17
19542.0	6.820684432233812e+17
19543.0	6.820420825819817e+17
19544.0	6.821636521066493e+17
19545.0	6.820674039447548e+17
19546.0	6.819000736546815e+17
19547.0	6.82149681369361e+17
19548.0	6.821103608179369e+17
19549.0	6.820324344244905e+17
19550.0	6.820242634309631e+17
19551.0	6.81978759287057e+17
19552.0	6.820973178606932e+17
19553.0	6.820597320034986e+17
19554.0	6.820004499903827e+17
19555.0	6.819534610628607e+17
19556.0	6.819003536244735e+17
19557.0	6.818404466600617e+17
19558.0	6.817790112912723e+17
19559.0	6.817136527802365e+17
19560.0	6.816431323392681e+17
19561.0	6.81588834837026e+17
19562.0	6.815372501407059e+17
19563.0	6.816034346500092e+17
19564.0	6.815460033735338e+17
19565.0	6.814728582769321e+17
19566.0	6.813893940041043e+17
19567.0	6.813253774606336e+17
19568.0	6.812382952510804e+17
19569.0	6.811637867260585e+17
19570.0	6.810928295182333e+17
19571.0	6.810122486895956e+17
19572.0	6.809200089541289e+17
19573.0	6.808428320129024e+17
19574.0	6.807343031386111e+17
19575.0	6.806822819550548e+17
19576.0	6.805974189517481e+17
19577.0	6.805005080898217e+17
19578.0	6.804101731975167e+17
19579.0	6.803272332825939e+17
19580.0	6.802549156522665e+17
19581.0	6.802636919537661e+17
19582.0	6.801787658261844e+17
19583.0	6.800874181492735e+17
19584.0	6.799915969675263e+17
19585.0	6.798627135553535e+17
19586.0	6.797557238508202e+17
19587.0	6.796896488128511e+17
19588.0	6.794589760738648e+17
19589.0	6.795114487742463e+17
19590.0	6.793973930655743e+17
19591.0	6.793271271489535e+17
19592.0	6.792321537758547e+17
19593.0	6.79126678704401e+17
19594.0	6.789481929637885e+17
19595.0	6.789208224038911e+17
19596.0	6.78317579287484e+17
19597.0	6.787168308210348e+17
19598.0	6.785351753749844e+17
19599.0	6.785310084737705e+17
19600.0	6.784313892798461e+17
19601.0	6.783055065426602e+17
19602.0	6.782091045896191e+17
19603.0	6.779319478474065e+17
19604.0	6.779936292820308e+17
19605.0	6.778075227007657e+17
19606.0	6.778065174659071e+17
19607.0	6.777028827152383e+17
19608.0	6.775930262738259e+17
19609.0	6.774721077750442e+17
19610.0	6.773867015394643e+17
19611.0	6.772773883303252e+17
19612.0	6.771740201276756e+17
19613.0	6.770624779255807e+17
19614.0	6.769437833865897e+17
19615.0	6.768493868701012e+17
19616.0	6.767113714794496e+17
19617.0	6.766328423645183e+17
19618.0	6.76351320680038e+17
19619.0	6.762623436936529e+17
19620.0	6.761581042641577e+17
19621.0	6.762702655455232e+17
19622.0	6.761617936438612e+17
19623.0	6.76052169916416e+17
19624.0	6.759377162381993e+17
19625.0	6.758300005695487e+17
19626.0	6.757146952379049e+17
19627.0	6.756062448670036e+17
19628.0	6.75402142834142e+17
19629.0	6.753475399166633e+17
19630.0	6.750326932286124e+17
19631.0	6.712709278072833e+17
19632.0	6.750360963470676e+17
19633.0	6.749129842272937e+17
19634.0	6.748197034655743e+17
19635.0	6.746919479716521e+17
19636.0	6.745896745522516e+17
19637.0	6.743349228732417e+17
19638.0	6.743627575328768e+17
19639.0	6.742450682986495e+17
19640.0	6.741061434430804e+17
19641.0	6.738146775531525e+17
19642.0	6.739054748674729e+17
19643.0	6.737869244028244e+17
19644.0	6.736579957620733e+17
19645.0	6.73472869319748e+17
19646.0	6.734503618456234e+17
19647.0	6.733351534723071e+17
19648.0	6.732180280923475e+17
19649.0	6.731014486010537e+17
19650.0	6.729884879552511e+17
19651.0	6.72870324904482e+17
19652.0	6.727531743586985e+17
19653.0	6.726383150213801e+17
19654.0	6.725198737484457e+17
19655.0	6.724021801101993e+17
19656.0	6.722885959811071e+17
19657.0	6.721718283752787e+17
19658.0	6.720573052813311e+17
19659.0	6.719401390768127e+17
19660.0	6.718247992819711e+17
19661.0	6.717060922998783e+17
19662.0	6.715906726734505e+17
19663.0	6.714550006404436e+17
19664.0	6.713374769414143e+17
19665.0	6.712388425700691e+17
