# Flux units: erg / (cm m2 s)
# Wavelength units: Angstrom
wave	flux
19000.0	5.206379256086526e+17
19001.0	5.205339315459412e+17
19002.0	5.2044486431211514e+17
19003.0	5.203476383181483e+17
19004.0	5.202507078828032e+17
19005.0	5.2015460505354234e+17
19006.0	5.200586689478655e+17
19007.0	5.199509207733588e+17
19008.0	5.198612264211796e+17
19009.0	5.197579194553683e+17
19010.0	5.1963959827933856e+17
19011.0	5.1956828245852154e+17
19012.0	5.194368844911956e+17
19013.0	5.193825913929726e+17
19014.0	5.192822460252159e+17
19015.0	5.19187021902643e+17
19016.0	5.190892913339051e+17
19017.0	5.189967707897856e+17
19018.0	5.188982777664853e+17
19019.0	5.188037085844821e+17
19020.0	5.1870617542765216e+17
19021.0	5.186113127841791e+17
19022.0	5.1851538583606605e+17
19023.0	5.1841628540764154e+17
19024.0	5.1832103094626976e+17
19025.0	5.182231487534421e+17
19026.0	5.181244403526313e+17
19027.0	5.179976548614143e+17
19028.0	5.1793769141370874e+17
19029.0	5.1784232713147725e+17
19030.0	5.1774786588289696e+17
19031.0	5.176519712309247e+17
19032.0	5.1755533894068896e+17
19033.0	5.174527465444692e+17
19034.0	5.173624641508693e+17
19035.0	5.1725083114209254e+17
19036.0	5.144779783056046e+17
19037.0	5.1707122188724896e+17
19038.0	5.169771978249557e+17
19039.0	5.168829367844864e+17
19040.0	5.167868987572223e+17
19041.0	5.166897969845588e+17
19042.0	5.165854363396778e+17
19043.0	5.1649890763844256e+17
19044.0	5.1640169947026765e+17
19045.0	5.163057504321535e+17
19046.0	5.1620696282890234e+17
19047.0	5.16112015949824e+17
19048.0	5.160030592565246e+17
19049.0	5.1591254365962234e+17
19050.0	5.158238339203072e+17
19051.0	5.153960197357565e+17
19052.0	5.155312701014014e+17
19053.0	5.1553689039885645e+17
19054.0	5.154432336177834e+17
19055.0	5.1532842468201805e+17
19056.0	5.152498366371157e+17
19057.0	5.1515548933379405e+17
19058.0	5.1505434334330874e+17
19059.0	5.149634377460394e+17
19060.0	5.148675730134356e+17
19061.0	5.1477352001044474e+17
19062.0	5.1467742375226016e+17
19063.0	5.145818601706836e+17
19064.0	5.144768503873535e+17
19065.0	5.1437801440979616e+17
19066.0	5.142902008534357e+17
19067.0	5.141990052899498e+17
19068.0	5.141038926659583e+17
19069.0	5.140082553345366e+17
19070.0	5.139110284318036e+17
19071.0	5.138162130441556e+17
19072.0	5.1372009553483085e+17
19073.0	5.136258490346154e+17
19074.0	5.135307577316692e+17
19075.0	5.134352778264575e+17
19076.0	5.1333839583532365e+17
19077.0	5.132428374267221e+17
19078.0	5.131463965365587e+17
19079.0	5.1305322783266125e+17
19080.0	5.1295666670578336e+17
19081.0	5.128599499702272e+17
19082.0	5.1276422539728205e+17
19083.0	5.126644488470527e+17
19084.0	5.125603777489577e+17
19085.0	5.12481121341713e+17
19086.0	5.1235762082938874e+17
19087.0	5.1221933413717325e+17
19088.0	5.1218394329907194e+17
19089.0	5.120523521141417e+17
19090.0	5.120023357379924e+17
19091.0	5.11906976628736e+17
19092.0	5.1179310980355405e+17
19093.0	5.1171958211652256e+17
19094.0	5.1162423971457696e+17
19095.0	5.1152905369026554e+17
19096.0	5.1143266788529485e+17
19097.0	5.11338721906961e+17
19098.0	5.11242720579857e+17
19099.0	5.1114732365195936e+17
19100.0	5.110495920346453e+17
19101.0	5.109567481795925e+17
19102.0	5.108558432916819e+17
19103.0	5.1076899344657056e+17
19104.0	5.1067401860546554e+17
19105.0	5.105763057227093e+17
19106.0	5.104707926228992e+17
19107.0	5.103872055268693e+17
19108.0	5.1029314588289696e+17
19109.0	5.100129306542076e+17
19110.0	5.1009078854068896e+17
19111.0	5.1000813041309005e+17
19112.0	5.0991372851391136e+17
19113.0	5.0981983202836474e+17
19114.0	5.09724444467746e+17
19115.0	5.096216666133845e+17
19116.0	5.095340947887445e+17
19117.0	5.094389803472213e+17
19118.0	5.0932434561488205e+17
19119.0	5.087816630752594e+17
19120.0	5.0913613419205965e+17
19121.0	5.090459735730858e+17
19122.0	5.089676069874346e+17
19123.0	5.088729157511849e+17
19124.0	5.0876806528150176e+17
19125.0	5.086807825143124e+17
19126.0	5.085880087740415e+17
19127.0	5.083562400634198e+17
19128.0	5.083283897450494e+17
19129.0	5.083001418066602e+17
19130.0	5.082089433071614e+17
19131.0	5.0811396112602445e+17
19132.0	5.080215586515625e+17
19133.0	5.0790330800974496e+17
19134.0	5.078029262913535e+17
19135.0	5.0773749361104205e+17
19136.0	5.0764428142619296e+17
19137.0	5.0753785047285754e+17
19138.0	5.074510608160083e+17
19139.0	5.0736101554039443e+17
19140.0	5.072668889972735e+17
19141.0	5.071724585768277e+17
19142.0	5.0707586788010656e+17
19143.0	5.0697995246632954e+17
19144.0	5.0688664737764685e+17
19145.0	5.0679463588222285e+17
19146.0	5.0665777322612045e+17
19147.0	5.0659615407691085e+17
19148.0	5.0651057300875936e+17
19149.0	5.0641603213830816e+17
19150.0	5.0632373584964256e+17
19151.0	5.0622995750365856e+17
19152.0	5.061332571258879e+17
19153.0	5.0603891918984525e+17
19154.0	5.059376977018879e+17
19155.0	5.058530037290324e+17
19156.0	5.057594830531243e+17
19157.0	5.056613777932287e+17
19158.0	5.0543969246904314e+17
19159.0	5.0547595495342074e+17
19160.0	5.0538014523610445e+17
19161.0	5.0528393146750285e+17
19162.0	5.049064539641175e+17
19163.0	5.05080985035298e+17
19164.0	5.0500744182934176e+17
19165.0	5.049050646708223e+17
19166.0	5.0480271868996256e+17
19167.0	5.04698248433937e+17
19168.0	5.046282759088809e+17
19169.0	5.04531123315234e+17
19170.0	5.0444406571226445e+17
19171.0	5.043320161391957e+17
19172.0	5.042547176330581e+17
19173.0	5.0416165420619085e+17
19174.0	5.0406485826819405e+17
19175.0	5.039752862498816e+17
19176.0	5.038818286283434e+17
19177.0	5.037766850467157e+17
19178.0	5.0368510605393914e+17
19179.0	5.0357605589756576e+17
19180.0	5.035008957175124e+17
19181.0	5.0340434360838816e+17
19182.0	5.0331589237800954e+17
19183.0	5.032250579440981e+17
19184.0	5.0312956035290445e+17
19185.0	5.0303813487165434e+17
19186.0	5.029449238751914e+17
19187.0	5.028462333700777e+17
19188.0	5.0275658228913485e+17
19189.0	5.0266108665528314e+17
19190.0	5.025662894429524e+17
19191.0	5.024721138963796e+17
19192.0	5.023834511332692e+17
19193.0	5.0228804903239674e+17
19194.0	5.021943857501524e+17
19195.0	5.021028347194026e+17
19196.0	5.020088903488851e+17
19197.0	5.019152358047743e+17
19198.0	5.0182084453116576e+17
19199.0	5.000533492367354e+17
19200.0	5.003958036725766e+17
19201.0	5.015351408459775e+17
19202.0	5.014430457440939e+17
19203.0	5.013450568062293e+17
19204.0	5.0125415791984634e+17
19205.0	5.011624351323476e+17
19206.0	5.0106859380189856e+17
19207.0	5.0096675015884794e+17
19208.0	5.008681632530432e+17
19209.0	5.007894324619946e+17
19210.0	5.0069643495560525e+17
19211.0	5.006038029129045e+17
19212.0	5.0051054647814816e+17
19213.0	5.0039740002467834e+17
19214.0	5.0029410116785485e+17
19215.0	5.002234089701375e+17
19216.0	5.00137358070033e+17
19217.0	5.0004441075548154e+17
19218.0	4.998869625252521e+17
19219.0	4.99847031562786e+17
19220.0	4.997620400040617e+17
19221.0	4.996480751020714e+17
19222.0	4.995281840679595e+17
19223.0	4.9940182569669965e+17
19224.0	4.993064530258602e+17
19225.0	4.992056487313407e+17
19226.0	4.9912262227394554e+17
19227.0	4.9902940547536205e+17
19228.0	4.989379303615146e+17
19229.0	4.988448857391103e+17
19230.0	4.987491730500266e+17
19231.0	4.986560912381268e+17
19232.0	4.9856425842005325e+17
19233.0	4.984672324943871e+17
19234.0	4.9837795512593043e+17
19235.0	4.9828512692961254e+17
19236.0	4.9819354423186765e+17
19237.0	4.980992973122217e+17
19238.0	4.9799826072316576e+17
19239.0	4.979143431858858e+17
19240.0	4.978177173269162e+17
19241.0	4.977255491043327e+17
19242.0	4.976336018516649e+17
19243.0	4.9753150815819085e+17
19244.0	4.9744963163914234e+17
19245.0	4.9735633780517536e+17
19246.0	4.9726236554253645e+17
19247.0	4.971706023499092e+17
19248.0	4.970772678311934e+17
19249.0	4.9698348032764576e+17
19250.0	4.968898462657194e+17
19251.0	4.967873616631124e+17
19252.0	4.966877122002943e+17
19253.0	4.96611010753331e+17
19254.0	4.965192423178238e+17
19255.0	4.9641528859033594e+17
19256.0	4.9632787726772896e+17
19257.0	4.962405606664874e+17
19258.0	4.9614789234305696e+17
19259.0	4.9605023615330976e+17
19260.0	4.959102643295571e+17
19261.0	4.958677838594047e+17
19262.0	4.95771701022993e+17
19263.0	4.956760662780585e+17
19264.0	4.9554860725152403e+17
19265.0	4.954801721485993e+17
19266.0	4.9538628412156576e+17
19267.0	4.953107801483947e+17
19268.0	4.952177216847871e+17
19269.0	4.9512465713943885e+17
19270.0	4.9503083342506656e+17
19271.0	4.9491264912315725e+17
19272.0	4.9484268743338656e+17
19273.0	4.946238269030398e+17
19274.0	4.945706452254718e+17
19275.0	4.9456594320097274e+17
19276.0	4.9447131613757434e+17
19277.0	4.943785356165119e+17
19278.0	4.9428534684986016e+17
19279.0	4.941889995625813e+17
19280.0	4.940936238858239e+17
19281.0	4.940052107537066e+17
19282.0	4.939133742306644e+17
19283.0	4.9379193102445216e+17
19284.0	4.9370311286237856e+17
19285.0	4.9361979133569696e+17
19286.0	4.935374381339989e+17
19287.0	4.934464790593534e+17
19288.0	4.9244818884962874e+17
19289.0	4.91650131846757e+17
19290.0	4.9316627760196256e+17
19291.0	4.9305453344413005e+17
19292.0	4.929789530647209e+17
19293.0	4.9288520659544736e+17
19294.0	4.9279144922098336e+17
19295.0	4.926985928529235e+17
19296.0	4.9260352643618125e+17
19297.0	4.9250851370653005e+17
19298.0	4.924154565711189e+17
19299.0	4.923221359635115e+17
19300.0	4.922289611079679e+17
19301.0	4.921352747570517e+17
19302.0	4.920398753125717e+17
19303.0	4.919416505849173e+17
19304.0	4.9185046683538765e+17
19305.0	4.917577085441364e+17
19306.0	4.916632498820437e+17
19307.0	4.915653265151317e+17
19308.0	4.914724719646036e+17
19309.0	4.913153950700885e+17
19310.0	4.912053517025278e+17
19311.0	4.911801877659647e+17
19312.0	4.9109756899491834e+17
19313.0	4.9100305475829754e+17
19314.0	4.8767519805494906e+17
19315.0	4.8771784629725946e+17
19316.0	4.907111476974932e+17
19317.0	4.906237952349525e+17
19318.0	4.905284849194323e+17
19319.0	4.904343850101419e+17
19320.0	4.903383895550633e+17
19321.0	4.902427871062699e+17
19322.0	4.9013626933084154e+17
19323.0	4.9002704860610554e+17
19324.0	4.89955401085747e+17
19325.0	4.897992874131455e+17
19326.0	4.8976470167169696e+17
19327.0	4.8966797312218445e+17
19328.0	4.8957059906928634e+17
19329.0	4.894767980740608e+17
19330.0	4.89377583280947e+17
19331.0	4.8928028032150176e+17
19332.0	4.891856190745258e+17
19333.0	4.890881962977962e+17
19334.0	4.889922747323732e+17
19335.0	4.888910685536255e+17
19336.0	4.8879660366998176e+17
19337.0	4.886999371262634e+17
19338.0	4.885867218163028e+17
19339.0	4.885037208043518e+17
19340.0	4.883970553894228e+17
19341.0	4.8830096528288416e+17
19342.0	4.881772598788095e+17
19343.0	4.881097024339968e+17
19344.0	4.880092064907262e+17
19345.0	4.8777065146613734e+17
19346.0	4.877285900768595e+17
19347.0	4.8770461983921485e+17
19348.0	4.8761217045845325e+17
19349.0	4.875085797479764e+17
19350.0	4.874073860123306e+17
19351.0	4.873076598636543e+17
19352.0	4.8720065953355085e+17
19353.0	4.8710635130716154e+17
19354.0	4.8700458078481056e+17
19355.0	4.8689503388303354e+17
19356.0	4.867991811741013e+17
19357.0	4.8669605701003936e+17
19358.0	4.8659002794093216e+17
19359.0	4.864803237527551e+17
19360.0	4.863786418001237e+17
19361.0	4.8627585933202765e+17
19362.0	4.861736003829759e+17
19363.0	4.8606744450607763e+17
19364.0	4.8596078314564256e+17
19365.0	4.858540692165972e+17
19366.0	4.8574649105121274e+17
19367.0	4.8563837405757434e+17
19368.0	4.855296894347945e+17
19369.0	4.85413580055074e+17
19370.0	4.852952156078079e+17
19371.0	4.8519582542288205e+17
19372.0	4.850878910212778e+17
19373.0	4.849737457642153e+17
19374.0	4.848627949589844e+17
19375.0	4.847488018153471e+17
19376.0	4.846343769380181e+17
19377.0	4.8451852753524045e+17
19378.0	4.8440175286900045e+17
19379.0	4.842847947019604e+17
19380.0	4.841661751711061e+17
19381.0	4.840462094783829e+17
19382.0	4.838153205929302e+17
19383.0	4.836848026604885e+17
19384.0	4.835692491658581e+17
19385.0	4.8344533355724794e+17
19386.0	4.833197847565651e+17
19387.0	4.831924972071594e+17
19388.0	4.8306384336322554e+17
19389.0	4.829336290284885e+17
19390.0	4.8280124057627296e+17
19391.0	4.803411257414975e+17
19392.0	4.823634068985168e+17
19393.0	4.8239593980777805e+17
19394.0	4.822550418117973e+17
19395.0	4.8211013301261645e+17
19396.0	4.81966889771554e+17
19397.0	4.8182667901228365e+17
19398.0	4.816437549989887e+17
19399.0	4.8132651280411296e+17
19400.0	4.812159557042176e+17
19401.0	4.810690602729472e+17
19402.0	4.8091048160788474e+17
19403.0	4.807461636669439e+17
19404.0	4.805810346175146e+17
19405.0	4.8040999138973e+17
19406.0	4.801021462533461e+17
19407.0	4.798687217713152e+17
19408.0	4.796248578763434e+17
19409.0	4.794922206319956e+17
19410.0	4.792586556407808e+17
19411.0	4.788681999821483e+17
19412.0	4.78659368522001e+17
19413.0	4.7841565177719443e+17
19414.0	4.778992165628585e+17
19415.0	4.776644454296234e+17
19416.0	4.771567737940648e+17
19417.0	4.767967800371881e+17
19418.0	4.76212768154146e+17
19419.0	4.7569144182210586e+17
19420.0	4.750466437786277e+17
19421.0	4.742304607414955e+17
19422.0	4.733092060550486e+17
19423.0	4.726523053473791e+17
19424.0	4.7221474283137696e+17
19425.0	4.717566229828948e+17
19426.0	4.712609471266815e+17
19427.0	4.7073095417419085e+17
19428.0	4.7009481219549856e+17
19429.0	4.694792330018814e+17
19430.0	4.687554455885143e+17
19431.0	4.677317002876248e+17
19432.0	4.67302016492066e+17
19433.0	4.664553279324159e+17
19434.0	4.654696992778925e+17
19435.0	4.642103253882192e+17
19436.0	4.6268672467708544e+17
19437.0	4.6091063881891776e+17
19438.0	4.543042435765605e+17
19439.0	4.533734067929092e+17
19440.0	4.5124781908951034e+17
19441.0	4.4872546574663654e+17
19442.0	4.459268542212779e+17
19443.0	4.4286275101218125e+17
19444.0	4.395879194689533e+17
19445.0	4.359016917150382e+17
19446.0	4.300418655977482e+17
19447.0	4.193308059718986e+17
19448.0	4.101044080476165e+17
19449.0	3.9213494428849376e+17
19450.0	3.419037591317145e+17
19451.0	3.255431837603144e+17
19452.0	3.703647658923374e+17
19453.0	4.037659843712347e+17
19454.0	4.146111187692199e+17
19455.0	4.242881292970651e+17
19456.0	4.328389155138225e+17
19457.0	4.36974631658018e+17
19458.0	4.32665006667644e+17
19459.0	4.42183550658153e+17
19460.0	4.4597801235688083e+17
19461.0	4.484774695534592e+17
19462.0	4.507026997990741e+17
19463.0	4.539220603437044e+17
19464.0	4.575023740922535e+17
19465.0	4.5969609980204384e+17
19466.0	4.611397111513084e+17
19467.0	4.622584428975444e+17
19468.0	4.631310600153771e+17
19469.0	4.638899311738879e+17
19470.0	4.645279631059624e+17
19471.0	4.651619028653397e+17
19472.0	4.65642737316659e+17
19473.0	4.6608394782856525e+17
19474.0	4.6654588952685216e+17
19475.0	4.668837830066174e+17
19476.0	4.6727658642691405e+17
19477.0	4.675835123116714e+17
19478.0	4.678554467259732e+17
19479.0	4.681940501615957e+17
19480.0	4.688212277941589e+17
19481.0	4.694828281495552e+17
19482.0	4.6999202993711763e+17
19483.0	4.7053334058980685e+17
19484.0	4.7084172189805203e+17
19485.0	4.711023918099113e+17
19486.0	4.713960111254184e+17
19487.0	4.7156962741889696e+17
19488.0	4.717088641908736e+17
19489.0	4.7194423755625805e+17
19490.0	4.71911862562543e+17
19491.0	4.720554675623253e+17
19492.0	4.722907650807125e+17
19493.0	4.7230648071837005e+17
19494.0	4.723166168831317e+17
19495.0	4.723217087681876e+17
19496.0	4.7235500399220026e+17
19497.0	4.7249814412328954e+17
19498.0	4.7184992478603885e+17
19499.0	4.688916814757892e+17
19500.0	4.7246582043989325e+17
19501.0	4.724470607162026e+17
19502.0	4.7242435848656205e+17
19503.0	4.7240265030696954e+17
19504.0	4.724200938580651e+17
19505.0	4.72488336232721e+17
19506.0	4.724564967118164e+17
19507.0	4.7242090328883194e+17
19508.0	4.723863768268798e+17
19509.0	4.7234802529949005e+17
19510.0	4.7228877628156576e+17
19511.0	4.6650696512744045e+17
19512.0	4.71446353538799e+17
19513.0	4.711347885441014e+17
19514.0	4.712828704041633e+17
19515.0	4.720221490599253e+17
19516.0	4.720289451606015e+17
19517.0	4.719754192005802e+17
19518.0	4.7192717967141536e+17
19519.0	4.718714317089449e+17
19520.0	4.7181510290527565e+17
19521.0	4.717629381367123e+17
19522.0	4.717033043613013e+17
19523.0	4.7164700743434234e+17
19524.0	4.71643664154624e+17
19525.0	4.7163072892108794e+17
19526.0	4.715705744927401e+17
19527.0	4.715081836614996e+17
19528.0	4.7144472097587194e+17
19529.0	4.713812216599893e+17
19530.0	4.7131744139564365e+17
19531.0	4.712521759282517e+17
19532.0	4.7118621099076256e+17
19533.0	4.7111963277612365e+17
19534.0	4.7105206890004474e+17
19535.0	4.709838165988693e+17
19536.0	4.709130635138389e+17
19537.0	4.708471141651796e+17
19538.0	4.7076233987140256e+17
19539.0	4.7066930615418874e+17
19540.0	4.706348515546453e+17
19541.0	4.7056515305745056e+17
19542.0	4.7049368022985376e+17
19543.0	4.704203247889066e+17
19544.0	4.7034948495168845e+17
19545.0	4.702341457859925e+17
19546.0	4.701395032036692e+17
19547.0	4.7013063155165875e+17
19548.0	4.700560066347008e+17
19549.0	4.699761503720789e+17
19550.0	4.699079269416959e+17
19551.0	4.6983322387087354e+17
19552.0	4.697579451318271e+17
19553.0	4.6968025683503763e+17
19554.0	4.6960400313002656e+17
19555.0	4.695293378079402e+17
19556.0	4.694542778717524e+17
19557.0	4.6937752686209696e+17
19558.0	4.6930081653719034e+17
19559.0	4.6922352614004045e+17
19560.0	4.6914409615851514e+17
19561.0	4.6906709216242336e+17
19562.0	4.6899084272162125e+17
19563.0	4.6891364613707085e+17
19564.0	4.688355821704532e+17
19565.0	4.687573180656298e+17
19566.0	4.6867666768145056e+17
19567.0	4.685999882545834e+17
19568.0	4.6851973227479034e+17
19569.0	4.6844121581267616e+17
19570.0	4.683634018964819e+17
19571.0	4.682835562594304e+17
19572.0	4.682027923494229e+17
19573.0	4.6812286100875936e+17
19574.0	4.6803951683283616e+17
19575.0	4.67965539656226e+17
19576.0	4.678857097478143e+17
19577.0	4.6780266259851936e+17
19578.0	4.677219671255723e+17
19579.0	4.676433218284201e+17
19580.0	4.6756272799743994e+17
19581.0	4.674834076270591e+17
19582.0	4.674040224546815e+17
19583.0	4.673233564117674e+17
19584.0	4.672404296389972e+17
19585.0	4.671540496957438e+17
19586.0	4.6706939563868154e+17
19587.0	4.6698905570290336e+17
19588.0	4.668819831608661e+17
19589.0	4.6683503233160525e+17
19590.0	4.6674742045136205e+17
19591.0	4.6667401488848205e+17
19592.0	4.6659342616057165e+17
19593.0	4.6651050679773856e+17
19594.0	4.664136346632191e+17
19595.0	4.663437999909546e+17
19596.0	4.661294626679466e+17
19597.0	4.661704399694506e+17
19598.0	4.660711489798144e+17
19599.0	4.66021725049105e+17
19600.0	4.659406536267091e+17
19601.0	4.658537017901056e+17
19602.0	4.657707694948352e+17
19603.0	4.6563950183055354e+17
19604.0	4.656022803884713e+17
19605.0	4.655096747698857e+17
19606.0	4.654481223101098e+17
19607.0	4.6536668849984845e+17
19608.0	4.6528297263868576e+17
19609.0	4.6519856262021114e+17
19610.0	4.651190344220671e+17
19611.0	4.6503609345856845e+17
19612.0	4.6495549815958176e+17
19613.0	4.648724265435134e+17
19614.0	4.647880233757353e+17
19615.0	4.6470645304087885e+17
19616.0	4.646053209615019e+17
19617.0	4.6454185205432314e+17
19618.0	4.6441421092509e+17
19619.0	4.643230808626516e+17
19620.0	4.642447762827945e+17
19621.0	4.642123034918911e+17
19622.0	4.641313555917482e+17
19623.0	4.6404882245440845e+17
19624.0	4.639655710425087e+17
19625.0	4.638835029136724e+17
19626.0	4.638010399610197e+17
19627.0	4.6371736485451085e+17
19628.0	4.6359266393238176e+17
19629.0	4.6354227978567674e+17
19630.0	4.632206174934354e+17
19631.0	4.6156609787439834e+17
19632.0	4.6330418879092045e+17
19633.0	4.6321854410915834e+17
19634.0	4.631422560807593e+17
19635.0	4.630566464913407e+17
19636.0	4.6297520562066765e+17
19637.0	4.6286764129648634e+17
19638.0	4.6281017352956576e+17
19639.0	4.627275126756692e+17
19640.0	4.6262946627583994e+17
19641.0	4.624925709740714e+17
19642.0	4.6247985747940685e+17
19643.0	4.623962569616042e+17
19644.0	4.6230960410897056e+17
19645.0	4.6221150940474016e+17
19646.0	4.621477917054292e+17
19647.0	4.6206676739904845e+17
19648.0	4.6198425851876685e+17
19649.0	4.6190129637403296e+17
19650.0	4.618187414263124e+17
19651.0	4.6173558145023994e+17
19652.0	4.616529791068842e+17
19653.0	4.615693792182271e+17
19654.0	4.614876692829525e+17
19655.0	4.614045600579584e+17
