# Flux units: erg / (cm m2 s)
# Wavelength units: Angstrom
wave	flux
19000.0	4.209467228946432e+17
19001.0	4.2085220677058554e+17
19002.0	4.2079278620562765e+17
19003.0	4.2071444177988256e+17
19004.0	4.206286632998229e+17
19005.0	4.2055687345274874e+17
19006.0	4.20462421152017e+17
19007.0	4.2040545565300045e+17
19008.0	4.2031975574623565e+17
19009.0	4.202338276693333e+17
19010.0	4.2008754845122534e+17
19011.0	4.200913711398912e+17
19012.0	4.1993706437345274e+17
19013.0	4.19945735328017e+17
19014.0	4.198618191189332e+17
19015.0	4.1978096580034554e+17
19016.0	4.197002464198655e+17
19017.0	4.1963690271266125e+17
19018.0	4.1955542849727136e+17
19019.0	4.1947863114055674e+17
19020.0	4.194044560627029e+17
19021.0	4.19329826951441e+17
19022.0	4.1925256605422925e+17
19023.0	4.1916840000443725e+17
19024.0	4.1908249772250445e+17
19025.0	4.1901765014760096e+17
19026.0	4.189352748559018e+17
19027.0	4.1881300271540896e+17
19028.0	4.1879373233520634e+17
19029.0	4.1871358953171616e+17
19030.0	4.186411246114132e+17
19031.0	4.185656514663766e+17
19032.0	4.1848727775040845e+17
19033.0	4.1839737703847245e+17
19034.0	4.1833334924028576e+17
19035.0	4.1824999429898234e+17
19036.0	4.137396355814732e+17
19037.0	4.181019559198719e+17
19038.0	4.18025898508288e+17
19039.0	4.1795150455767034e+17
19040.0	4.178767587748523e+17
19041.0	4.177988068660565e+17
19042.0	4.174354898223101e+17
19043.0	4.1764963036255565e+17
19044.0	4.175707587127978e+17
19045.0	4.174936000167936e+17
19046.0	4.1740956406033056e+17
19047.0	4.1734156285815456e+17
19048.0	4.171804881627818e+17
19049.0	4.166277562804901e+17
19050.0	4.170977919369215e+17
19051.0	4.1643617270715635e+17
19052.0	4.168678523622741e+17
19053.0	4.168878240301055e+17
19054.0	4.1681117214583456e+17
19055.0	4.166166604589739e+17
19056.0	4.1662317029840205e+17
19057.0	4.165824201883647e+17
19058.0	4.162136958479013e+17
19059.0	4.1631549489152e+17
19060.0	4.163507800331604e+17
19061.0	4.162789935415296e+17
19062.0	4.162027984868693e+17
19063.0	4.161272466287274e+17
19064.0	4.1603006076026874e+17
19065.0	4.1594971096787616e+17
19066.0	4.1578265715234144e+17
19067.0	4.158217328962218e+17
19068.0	4.1574826462849696e+17
19069.0	4.15672524935441e+17
19070.0	4.155919107620864e+17
19071.0	4.155176847234389e+17
19072.0	4.153313174661801e+17
19073.0	4.153684055293951e+17
19074.0	4.1529368253562874e+17
19075.0	4.152179529089023e+17
19076.0	4.1509494753416525e+17
19077.0	4.1506297519363405e+17
19078.0	4.1498205490599245e+17
19079.0	4.149144674719061e+17
19080.0	4.1483680748666874e+17
19081.0	4.147557218036394e+17
19082.0	4.1468094022942714e+17
19083.0	4.145997699612672e+17
19084.0	4.1450638734786554e+17
19085.0	4.144570445070336e+17
19086.0	4.14191458521361e+17
19087.0	4.139737918297427e+17
19088.0	4.140847317297833e+17
19089.0	4.1408174741258234e+17
19090.0	4.1408027430311245e+17
19091.0	4.139732405583872e+17
19092.0	4.1369591485562906e+17
19093.0	4.1385772397363206e+17
19094.0	4.1378194128896e+17
19095.0	4.1370689365606394e+17
19096.0	4.136285367173118e+17
19097.0	4.13555671380787e+17
19098.0	4.1336033900844365e+17
19099.0	4.1326588845533875e+17
19100.0	4.1331909718616736e+17
19101.0	4.132507346447018e+17
19102.0	4.131541131897514e+17
19103.0	4.1310308444842656e+17
19104.0	4.130290709211817e+17
19105.0	4.126994214857391e+17
19106.0	4.128572047010475e+17
19107.0	4.1273551445032954e+17
19108.0	4.126366087075158e+17
19109.0	4.124078633211217e+17
19110.0	4.125742005398185e+17
19111.0	4.124298522394623e+17
19112.0	4.1233316199792614e+17
19113.0	4.123504637116415e+17
19114.0	4.122313792421886e+17
19115.0	4.121663231404715e+17
19116.0	4.121191788838911e+17
19117.0	4.120491167405396e+17
19118.0	4.1194787029647354e+17
19119.0	4.0953595919946746e+17
19120.0	4.117922740611754e+17
19121.0	4.1172788114882554e+17
19122.0	4.116774714168661e+17
19123.0	4.116026768403114e+17
19124.0	4.115122151402153e+17
19125.0	4.1145109273640954e+17
19126.0	4.113780882888021e+17
19127.0	4.1097421847702163e+17
19128.0	4.1120939925394765e+17
19129.0	4.11141778125619e+17
19130.0	4.110758349985108e+17
19131.0	4.1100302691423565e+17
19132.0	4.1092783017383245e+17
19133.0	4.108417043354964e+17
19134.0	4.107707887910911e+17
19135.0	4.1070262387124896e+17
19136.0	4.106299222523904e+17
19137.0	4.1052604646905165e+17
19138.0	4.104777124981417e+17
19139.0	4.1040606497778336e+17
19140.0	4.103316073436501e+17
19141.0	4.102567189544959e+17
19142.0	4.101771153986901e+17
19143.0	4.1009691338560845e+17
19144.0	4.1002712645850445e+17
19145.0	4.0995796776823456e+17
19146.0	4.097846848520192e+17
19147.0	4.097739599467861e+17
19148.0	4.096330148347904e+17
19149.0	4.095478099258027e+17
19150.0	4.0958481571075405e+17
19151.0	4.095107196256255e+17
19152.0	4.0943285887303674e+17
19153.0	4.0917051249786854e+17
19154.0	4.092373991336618e+17
19155.0	4.0921284246241274e+17
19156.0	4.091396358493525e+17
19157.0	4.0899162186711046e+17
19158.0	4.087000525875882e+17
19159.0	4.089069092296021e+17
19160.0	4.088373852853589e+17
19161.0	4.0876617222498976e+17
19162.0	4.0832461491404826e+17
19163.0	4.0861418763496096e+17
19164.0	4.085414061845162e+17
19165.0	4.082470910339752e+17
19166.0	4.083608729944063e+17
19167.0	4.0827780221719885e+17
19168.0	4.0824703692745376e+17
19169.0	4.081649590119082e+17
19170.0	4.0809990514715296e+17
19171.0	4.079986840087211e+17
19172.0	4.0794989320820045e+17
19173.0	4.078755586069845e+17
19174.0	4.077923174012245e+17
19175.0	4.0772869966615885e+17
19176.0	4.076549937212074e+17
19177.0	4.0755613621288954e+17
19178.0	4.0748805692675405e+17
19179.0	4.073828991543979e+17
19180.0	4.073571645128702e+17
19181.0	4.0725339121035936e+17
19182.0	4.0720297476751354e+17
19183.0	4.0713723045041485e+17
19184.0	4.070588349939712e+17
19185.0	4.069875732097706e+17
19186.0	4.06915607831074e+17
19187.0	4.0683192699234976e+17
19188.0	4.067645683575466e+17
19189.0	4.066933924866729e+17
19190.0	4.0661847655492256e+17
19191.0	4.065350630331733e+17
19192.0	4.06472567554048e+17
19193.0	4.0637302742275405e+17
19194.0	4.062857347290454e+17
19195.0	4.0625096835290445e+17
19196.0	4.0617467815744845e+17
19197.0	4.061029606621183e+17
19198.0	4.0603100723718816e+17
19199.0	4.036907582707023e+17
19200.0	4.043606992792243e+17
19201.0	4.058071435313151e+17
19202.0	4.0573643155046394e+17
19203.0	4.0565527225739936e+17
19204.0	4.0558340271854925e+17
19205.0	4.0551401459985056e+17
19206.0	4.054391001361066e+17
19207.0	4.05349133783313e+17
19208.0	4.052478206498131e+17
19209.0	4.052191295133012e+17
19210.0	4.0514538232436045e+17
19211.0	4.050735766787413e+17
19212.0	4.0500053839708154e+17
19213.0	4.0489557978426016e+17
19214.0	4.0480930504813216e+17
19215.0	4.0477213421731834e+17
19216.0	4.047075150222677e+17
19217.0	4.0463313197684045e+17
19218.0	4.044168057847805e+17
19219.0	4.044663263242922e+17
19220.0	4.0440848134963194e+17
19221.0	4.0428438650443085e+17
19222.0	4.042662720744107e+17
19223.0	4.041910568790697e+17
19224.0	4.041144111464447e+17
19225.0	4.0402025566262605e+17
19226.0	4.039710016711338e+17
19227.0	4.038983919774378e+17
19228.0	4.0382830054386336e+17
19229.0	4.0375509316184736e+17
19230.0	4.036805495444821e+17
19231.0	4.0360694796779514e+17
19232.0	4.0353416609791994e+17
19233.0	4.0345137200496634e+17
19234.0	4.033851175206912e+17
19235.0	4.0331167246144826e+17
19236.0	4.032434868497066e+17
19237.0	4.0316696421990394e+17
19238.0	4.030778361686697e+17
19239.0	4.0302434019792205e+17
19240.0	4.0294987815976954e+17
19241.0	4.0287479333737805e+17
19242.0	4.0280282131770016e+17
19243.0	4.027092605861887e+17
19244.0	4.026592467266218e+17
19245.0	4.0258442656481274e+17
19246.0	4.0251098926503245e+17
19247.0	4.0243951496942944e+17
19248.0	4.0236727577258656e+17
19249.0	4.022884756357119e+17
19250.0	4.0218200434715296e+17
19251.0	4.0209254061178854e+17
19252.0	4.020376572351829e+17
19253.0	4.019988866968234e+17
19254.0	4.0193065375935136e+17
19255.0	4.0182993593739936e+17
19256.0	4.0177362537895245e+17
19257.0	4.017127428893354e+17
19258.0	4.016402574868479e+17
19259.0	4.0155666738490016e+17
19260.0	4.013825140806995e+17
19261.0	4.014189372768255e+17
19262.0	4.013374720092842e+17
19263.0	4.01262337134865e+17
19264.0	4.010992971983528e+17
19265.0	4.0109047510903443e+17
19266.0	4.009847773200385e+17
19267.0	4.0098524344702285e+17
19268.0	4.0091172114268154e+17
19269.0	4.008398497862998e+17
19270.0	4.00767815061777e+17
19271.0	4.00630336122607e+17
19272.0	4.006166908633087e+17
19273.0	4.004696340212393e+17
19274.0	4.0040087309079866e+17
19275.0	4.0040568213995514e+17
19276.0	4.003299070749354e+17
19277.0	4.0025808430257485e+17
19278.0	4.001825228674389e+17
19279.0	4.001108195628372e+17
19280.0	4.0002706308683085e+17
19281.0	3.999681071808512e+17
19282.0	3.9989913276033696e+17
19283.0	3.997938123887957e+17
19284.0	3.997454760411135e+17
19285.0	3.996530894351017e+17
19286.0	3.9960369395575456e+17
19287.0	3.9953625178439674e+17
19288.0	3.982089279329607e+17
19289.0	3.9647735447551526e+17
19290.0	3.9931966980969805e+17
19291.0	3.992100121782955e+17
19292.0	3.99176667181875e+17
19293.0	3.9910327399219194e+17
19294.0	3.990296278859776e+17
19295.0	3.9896043592089594e+17
19296.0	3.987751024896684e+17
19297.0	3.987833569498454e+17
19298.0	3.987393935136085e+17
19299.0	3.985398690043222e+17
19300.0	3.985915159860566e+17
19301.0	3.985269121002153e+17
19302.0	3.984534031477417e+17
19303.0	3.983702196136618e+17
19304.0	3.9830646654238714e+17
19305.0	3.982366884233215e+17
19306.0	3.981648857137151e+17
19307.0	3.980836630167551e+17
19308.0	3.9801767626888525e+17
19309.0	3.978612129311401e+17
19310.0	3.9777112613191674e+17
19311.0	3.9779431364253e+17
19312.0	3.977339432774314e+17
19313.0	3.976622318638421e+17
19314.0	3.862638425888177e+17
19315.0	3.866427090359742e+17
19316.0	3.972854809537196e+17
19317.0	3.973744204010838e+17
19318.0	3.973034872406016e+17
19319.0	3.972340167038293e+17
19320.0	3.971090014186154e+17
19321.0	3.9698943558287354e+17
19322.0	3.97004751573265e+17
19323.0	3.969098170673834e+17
19324.0	3.96873370243345e+17
19325.0	3.967165025047893e+17
19326.0	3.967332368689834e+17
19327.0	3.966540810551295e+17
19328.0	3.963634050924545e+17
19329.0	3.965184920693417e+17
19330.0	3.964394819376468e+17
19331.0	3.963674089051477e+17
19332.0	3.963025102995455e+17
19333.0	3.962280002366122e+17
19334.0	3.961473362908502e+17
19335.0	3.9563620736041e+17
19336.0	3.96003831255313e+17
19337.0	3.959431373695657e+17
19338.0	3.9583757708383565e+17
19339.0	3.9579930224230394e+17
19340.0	3.9567386291295565e+17
19341.0	3.954858234565975e+17
19342.0	3.954570234778965e+17
19343.0	3.9551481777138336e+17
19344.0	3.952827688113496e+17
19345.0	3.949076831797241e+17
19346.0	3.951299536792233e+17
19347.0	3.950107164672e+17
19348.0	3.951585861653845e+17
19349.0	3.950813110774442e+17
19350.0	3.9493611643644576e+17
19351.0	3.949350078818986e+17
19352.0	3.9463599867603584e+17
19353.0	3.948002679630506e+17
19354.0	3.947319878396586e+17
19355.0	3.946452285915136e+17
19356.0	3.94589445886225e+17
19357.0	3.945185584436563e+17
19358.0	3.944457152670379e+17
19359.0	3.9430733343402656e+17
19360.0	3.941318733245097e+17
19361.0	3.942268467675136e+17
19362.0	3.941633358473898e+17
19363.0	3.940920038085972e+17
19364.0	3.940206789001215e+17
19365.0	3.939496940797951e+17
19366.0	3.938792855568383e+17
19367.0	3.938080409692842e+17
19368.0	3.9373736324191565e+17
19369.0	3.9365625008619514e+17
19370.0	3.9358582171019936e+17
19371.0	3.9351628853848736e+17
19372.0	3.934531441306282e+17
19373.0	3.93379249791522e+17
19374.0	3.9331115393788576e+17
19375.0	3.9323991277567994e+17
19376.0	3.931704293763754e+17
19377.0	3.93097857920751e+17
19378.0	3.9302769378590714e+17
19379.0	3.9295743695694496e+17
19380.0	3.92886193557777e+17
19381.0	3.928151770704553e+17
19382.0	3.927348921499647e+17
19383.0	3.9265592312244896e+17
19384.0	3.92600177536751e+17
19385.0	3.925327111782399e+17
19386.0	3.924627970239146e+17
19387.0	3.923917426480469e+17
19388.0	3.9231940152961696e+17
19389.0	3.922427504143017e+17
19390.0	3.921702413839019e+17
19391.0	3.879977124626372e+17
19392.0	3.91962674436505e+17
19393.0	3.919587871555583e+17
19394.0	3.9188599612811936e+17
19395.0	3.9174698298245126e+17
19396.0	3.91720391864047e+17
19397.0	3.9167675131931296e+17
19398.0	3.915390224695296e+17
19399.0	3.913111011939668e+17
19400.0	3.914049174984021e+17
19401.0	3.913916841896618e+17
19402.0	3.91321787301888e+17
19403.0	3.9124840054347085e+17
19404.0	3.9118031063176525e+17
19405.0	3.911069927298389e+17
19406.0	3.910373336591018e+17
19407.0	3.908860576268286e+17
19408.0	3.9073993492616557e+17
19409.0	3.9082316501701965e+17
19410.0	3.907546515505151e+17
19411.0	3.90683815907601e+17
19412.0	3.9060958483578874e+17
19413.0	3.904574719000576e+17
19414.0	3.90462611390464e+17
19415.0	3.9039565883419296e+17
19416.0	3.90284805476625e+17
19417.0	3.9020699904027296e+17
19418.0	3.9018343551030605e+17
19419.0	3.90111177019665e+17
19420.0	3.9004035465871354e+17
19421.0	3.8996816474494285e+17
19422.0	3.8988852665603405e+17
19423.0	3.8982164470388045e+17
19424.0	3.897498916268714e+17
19425.0	3.896767862363476e+17
19426.0	3.896034004566016e+17
19427.0	3.8952609985331194e+17
19428.0	3.8945472048878925e+17
19429.0	3.893790058916522e+17
19430.0	3.8923459726322374e+17
19431.0	3.884681694369121e+17
19432.0	3.891509900345344e+17
19433.0	3.890700217221119e+17
19434.0	3.889882320251561e+17
19435.0	3.888024644834644e+17
19436.0	3.8843309415027974e+17
19437.0	3.887308873575083e+17
19438.0	3.7967387227586906e+17
19439.0	3.882242447245315e+17
19440.0	3.884002190557182e+17
19441.0	3.8831008744734714e+17
19442.0	3.881719236482389e+17
19443.0	3.8800096360748365e+17
19444.0	3.877947420530004e+17
19445.0	3.875116990245546e+17
19446.0	3.870698725791061e+17
19447.0	3.8631253485813754e+17
19448.0	3.846809489943211e+17
19449.0	3.7686868128563264e+17
19450.0	3.198165798180161e+17
19451.0	2.8301735689366112e+17
19452.0	3.388921752496823e+17
19453.0	3.807835545316022e+17
19454.0	3.8482254135732883e+17
19455.0	3.859831355430229e+17
19456.0	3.864851554238464e+17
19457.0	3.867361678109354e+17
19458.0	3.513776100868526e+17
19459.0	3.849740496491996e+17
19460.0	3.8693834535731194e+17
19461.0	3.869364222689279e+17
19462.0	3.869107464175615e+17
19463.0	3.868785168962901e+17
19464.0	3.8683482783743994e+17
19465.0	3.8679058575960736e+17
19466.0	3.867163265160533e+17
19467.0	3.86682801164561e+17
19468.0	3.866268861988863e+17
19469.0	3.863452644103505e+17
19470.0	3.865044025955669e+17
19471.0	3.8644563200791885e+17
19472.0	3.863736699147604e+17
19473.0	3.8630349606311245e+17
19474.0	3.860865062622546e+17
19475.0	3.860047893364733e+17
19476.0	3.861072491926868e+17
19477.0	3.86051105427729e+17
19478.0	3.859902147592191e+17
19479.0	3.857608654629543e+17
19480.0	3.85851191127791e+17
19481.0	3.857726106326357e+17
19482.0	3.8571858149594445e+17
19483.0	3.856554922431829e+17
19484.0	3.85585236602607e+17
19485.0	3.8550838912395936e+17
19486.0	3.85272817437901e+17
19487.0	3.853813365254827e+17
19488.0	3.853168337922729e+17
19489.0	3.852276903619242e+17
19490.0	3.8488989146371366e+17
19491.0	3.8510641681530874e+17
19492.0	3.850443860650666e+17
19493.0	3.849760989511679e+17
19494.0	3.849066588930047e+17
19495.0	3.848369061494783e+17
19496.0	3.846765609833811e+17
19497.0	3.84694779711761e+17
19498.0	3.8417674220339226e+17
19499.0	3.780697826612542e+17
19500.0	3.8449186571550714e+17
19501.0	3.84432221524241e+17
19502.0	3.8436546043794765e+17
19503.0	3.842998495696213e+17
19504.0	3.8423138070254925e+17
19505.0	3.841594670536021e+17
19506.0	3.840944980535978e+17
19507.0	3.8402007278551034e+17
19508.0	3.839558017875967e+17
19509.0	3.8388701876715514e+17
19510.0	3.837585222795263e+17
19511.0	3.647572226867108e+17
19512.0	3.826379032362993e+17
19513.0	3.8175236906024666e+17
19514.0	3.821715273198232e+17
19515.0	3.833522763945303e+17
19516.0	3.833843366756351e+17
19517.0	3.8332082596522656e+17
19518.0	3.8322430950768634e+17
19519.0	3.8315027368072525e+17
19520.0	3.8297538182949523e+17
19521.0	3.8306282586767354e+17
19522.0	3.8297064254559565e+17
19523.0	3.8288168436367354e+17
19524.0	3.8274601925126835e+17
19525.0	3.827861221102933e+17
19526.0	3.827225033965568e+17
19527.0	3.826511839406763e+17
19528.0	3.825735300371797e+17
19529.0	3.824975466550613e+17
19530.0	3.824488009433087e+17
19531.0	3.8238036486171296e+17
19532.0	3.823119080183126e+17
19533.0	3.8224348857412256e+17
19534.0	3.821745800740863e+17
19535.0	3.8210400685479245e+17
19536.0	3.8203167314629965e+17
19537.0	3.81968586829551e+17
19538.0	3.817328572279469e+17
19539.0	3.817264298065922e+17
19540.0	3.817598826665301e+17
19541.0	3.8166599960275616e+17
19542.0	3.8161317765666125e+17
19543.0	3.8140483679027206e+17
19544.0	3.8147984178107725e+17
19545.0	3.813328703629993e+17
19546.0	3.8118321291263994e+17
19547.0	3.8128736558994765e+17
19548.0	3.8121864149947725e+17
19549.0	3.8113623810594125e+17
19550.0	3.8108236143220045e+17
19551.0	3.8101475917823994e+17
19552.0	3.809463748962986e+17
19553.0	3.808740346866346e+17
19554.0	3.808020171587584e+17
19555.0	3.807228732986708e+17
19556.0	3.806623593485652e+17
19557.0	3.8060389781121696e+17
19558.0	3.8053694637342714e+17
19559.0	3.8046980605214714e+17
19560.0	3.8034380692302483e+17
19561.0	3.8032957907490125e+17
19562.0	3.802107192803327e+17
19563.0	3.8019822479824205e+17
19564.0	3.80130305315089e+17
19565.0	3.8006196640153594e+17
19566.0	3.799891678942548e+17
19567.0	3.799264831122091e+17
19568.0	3.798555654007466e+17
19569.0	3.7978699090711885e+17
19570.0	3.7972175109488634e+17
19571.0	3.796531352174591e+17
19572.0	3.795822891586901e+17
19573.0	3.7949835330628256e+17
19574.0	3.794322461818878e+17
19575.0	3.793834200094037e+17
19576.0	3.79306656207121e+17
19577.0	3.7921979965112314e+17
19578.0	3.791720842002431e+17
19579.0	3.7910739440107514e+17
19580.0	3.7904054502468256e+17
19581.0	3.789743390545237e+17
19582.0	3.789098363912191e+17
19583.0	3.7884223993937914e+17
19584.0	3.7877218206023674e+17
19585.0	3.786893003063295e+17
19586.0	3.786169475137536e+17
19587.0	3.785564021762731e+17
19588.0	3.78415247978223e+17
19589.0	3.784332281206101e+17
19590.0	3.783399112179711e+17
19591.0	3.782993827769002e+17
19592.0	3.782325989015551e+17
19593.0	3.781493909007018e+17
19594.0	3.7804783995016525e+17
19595.0	3.780244671212202e+17
19596.0	3.779210785761963e+17
19597.0	3.77893231333649e+17
19598.0	3.777071429976062e+17
19599.0	3.777603664084991e+17
19600.0	3.776942666940416e+17
19601.0	3.77615347089408e+17
19602.0	3.775512763695103e+17
19603.0	3.77379470127923e+17
19604.0	3.7741452500227405e+17
19605.0	3.773082374941354e+17
19606.0	3.7728865358970874e+17
19607.0	3.772227763131732e+17
19608.0	3.771525016584191e+17
19609.0	3.7707888749882016e+17
19610.0	3.769407710254421e+17
19611.0	3.7684302542711475e+17
19612.0	3.7688640452689914e+17
19613.0	3.7681764205854714e+17
19614.0	3.7674617300582394e+17
19615.0	3.7668349815029754e+17
19616.0	3.7650123802542086e+17
19617.0	3.764366524547072e+17
19618.0	3.763685858213887e+17
19619.0	3.762587495126354e+17
19620.0	3.7616837030051814e+17
19621.0	3.761309613730473e+17
19622.0	3.7621501110080845e+17
19623.0	3.76140852171025e+17
19624.0	3.7605969819074554e+17
19625.0	3.7601347255664634e+17
19626.0	3.759457114783742e+17
19627.0	3.7587937667317754e+17
19628.0	3.7575058392787635e+17
19629.0	3.75346324185634e+17
19630.0	3.7557322163159046e+17
19631.0	3.73176111464448e+17
19632.0	3.7554414888331936e+17
19633.0	3.7545958213768525e+17
19634.0	3.7541076036922016e+17
19635.0	3.753102409378473e+17
19636.0	3.751019713047208e+17
19637.0	3.7499536377118694e+17
19638.0	3.7511862304112634e+17
19639.0	3.750741055373312e+17
19640.0	3.749831697410731e+17
19641.0	3.746308903578289e+17
19642.0	3.7486343997794976e+17
19643.0	3.7479592014206285e+17
19644.0	3.747319760901461e+17
19645.0	3.746224600864083e+17
19646.0	3.7441789926659386e+17
19647.0	3.745342150060714e+17
19648.0	3.7447532795658234e+17
19649.0	3.744078209133227e+17
19650.0	3.7434229001639245e+17
19651.0	3.7427510845112314e+17
19652.0	3.74208101159185e+17
19653.0	3.741405573458602e+17
19654.0	3.740748655274665e+17
19655.0	3.7400709675963725e+17
19656.0	3.73941816332561e+17
