# Flux units: erg / (cm m2 s)
# Wavelength units: Angstrom
wave	flux
19000.0	5.864616687741609e+17
19001.0	5.863403431482708e+17
19002.0	5.862428919900841e+17
19003.0	5.861328256237567e+17
19004.0	5.86023560019968e+17
19005.0	5.859134403160746e+17
19006.0	5.858051222754644e+17
19007.0	5.856933550489599e+17
19008.0	5.8557815862941e+17
19009.0	5.854665170922153e+17
19010.0	5.853067093562707e+17
19011.0	5.852531333442217e+17
19012.0	5.851146923016191e+17
19013.0	5.850380387396265e+17
19014.0	5.849225161430356e+17
19015.0	5.848147662209023e+17
19016.0	5.847034890289151e+17
19017.0	5.846010757993811e+17
19018.0	5.844896433482409e+17
19019.0	5.8441373595293e+17
19020.0	5.843053011708586e+17
19021.0	5.841982742069248e+17
19022.0	5.840885540104873e+17
19023.0	5.839754390842026e+17
19024.0	5.838679881460394e+17
19025.0	5.837597750329344e+17
19026.0	5.836467518220969e+17
19027.0	5.835202898515284e+17
19028.0	5.834337914191871e+17
19029.0	5.833227048583168e+17
19030.0	5.832169823928319e+17
19031.0	5.831078589759487e+17
19032.0	5.829980335024809e+17
19033.0	5.828786278192467e+17
19034.0	5.827785401215657e+17
19035.0	5.826637802591571e+17
19036.0	5.808752586391546e+17
19037.0	5.824495233968809e+17
19038.0	5.823412468798804e+17
19039.0	5.822354148032511e+17
19040.0	5.821265633869823e+17
19041.0	5.820166500428457e+17
19042.0	5.818889423639892e+17
19043.0	5.817999141371903e+17
19044.0	5.816895084516692e+17
19045.0	5.815812169050794e+17
19046.0	5.814663116401321e+17
19047.0	5.813626038386687e+17
19048.0	5.812266579875155e+17
19049.0	5.811209056725674e+17
19050.0	5.81031320232482e+17
19051.0	5.806777744490492e+17
19052.0	5.807817353767594e+17
19053.0	5.807106890399743e+17
19054.0	5.806028584473939e+17
19055.0	5.804612619599872e+17
19056.0	5.803810484125695e+17
19057.0	5.802759433486335e+17
19058.0	5.801577644993194e+17
19059.0	5.800555288286548e+17
19060.0	5.799479877828607e+17
19061.0	5.798424325302954e+17
19062.0	5.797332238991359e+17
19063.0	5.796249105421652e+17
19064.0	5.795010413505194e+17
19065.0	5.793876151369727e+17
19066.0	5.792895318971731e+17
19067.0	5.791894925038931e+17
19068.0	5.790825206950569e+17
19069.0	5.789742538948607e+17
19070.0	5.788621574154922e+17
19071.0	5.787559560303956e+17
19072.0	5.786453785182205e+17
19073.0	5.785400222853801e+17
19074.0	5.7843230193309e+17
19075.0	5.783239551614976e+17
19076.0	5.782130705563648e+17
19077.0	5.781054689727828e+17
19078.0	5.779946570689193e+17
19079.0	5.77890562273007e+17
19080.0	5.777806704596308e+17
19081.0	5.77669061288482e+17
19082.0	5.775606276947967e+17
19083.0	5.774462409157289e+17
19084.0	5.773236800673108e+17
19085.0	5.772396209722708e+17
19086.0	5.770623626947242e+17
19087.0	5.769414838321152e+17
19088.0	5.768679989269843e+17
19089.0	5.767324578960724e+17
19090.0	5.76663615316514e+17
19091.0	5.765554377151828e+17
19092.0	5.764294805291007e+17
19093.0	5.763435495860906e+17
19094.0	5.762357268228779e+17
19095.0	5.7612780122931194e+17
19096.0	5.760178007135573e+17
19097.0	5.759117147417258e+17
19098.0	5.758001603761492e+17
19099.0	5.756910114439166e+17
19100.0	5.755845894384298e+17
19101.0	5.7547941181303456e+17
19102.0	5.7535838705855136e+17
19103.0	5.7526454894373536e+17
19104.0	5.751571849674751e+17
19105.0	5.750408971900243e+17
19106.0	5.749337920023209e+17
19107.0	5.7482916327150925e+17
19108.0	5.747224849940479e+17
19109.0	5.745016256681299e+17
19110.0	5.745069669045588e+17
19111.0	5.7440009394148685e+17
19112.0	5.7429267543927456e+17
19113.0	5.7418765034673485e+17
19114.0	5.7407861151498234e+17
19115.0	5.739637788813994e+17
19116.0	5.738627877306368e+17
19117.0	5.737553503540564e+17
19118.0	5.736337781729962e+17
19119.0	5.727418188824563e+17
19120.0	5.7342003839849805e+17
19121.0	5.7331798252366496e+17
19122.0	5.7322054751354874e+17
19123.0	5.731131411748179e+17
19124.0	5.7299810309024403e+17
19125.0	5.728975562560852e+17
19126.0	5.7278997830041594e+17
19127.0	5.7246528632258534e+17
19128.0	5.725588113326079e+17
19129.0	5.724595239780351e+17
19130.0	5.723596898260308e+17
19131.0	5.7225419154609485e+17
19132.0	5.7214681358882125e+17
19133.0	5.720282269133482e+17
19134.0	5.719238514485931e+17
19135.0	5.7182469453687456e+17
19136.0	5.717186058387456e+17
19137.0	5.715915309405524e+17
19138.0	5.715022144252586e+17
19139.0	5.713971536112298e+17
19140.0	5.712902451363839e+17
19141.0	5.711831730836821e+17
19142.0	5.71073093575202e+17
19143.0	5.7096189139135136e+17
19144.0	5.708575435390975e+17
19145.0	5.70755073896175e+17
19146.0	5.7057568707925344e+17
19147.0	5.705290023785813e+17
19148.0	5.7043046000230394e+17
19149.0	5.703225070758569e+17
19150.0	5.7021932978394445e+17
19151.0	5.701127706247166e+17
19152.0	5.7000453332445856e+17
19153.0	5.6989123811300685e+17
19154.0	5.697766432964606e+17
19155.0	5.6968547094145683e+17
19156.0	5.6957869430756685e+17
19157.0	5.6946734329582925e+17
19158.0	5.692841948872702e+17
19159.0	5.6925543817980576e+17
19160.0	5.6914915570483194e+17
19161.0	5.690428849040041e+17
19162.0	5.6875729041053024e+17
19163.0	5.6882632278234445e+17
19164.0	5.687249959474516e+17
19165.0	5.68607173124642e+17
19166.0	5.6849233804438163e+17
19167.0	5.683883064426496e+17
19168.0	5.682973824603477e+17
19169.0	5.681879413249365e+17
19170.0	5.6808557632989856e+17
19171.0	5.679678631182336e+17
19172.0	5.678715395986772e+17
19173.0	5.677656934012243e+17
19174.0	5.6765285571843405e+17
19175.0	5.675531849345706e+17
19176.0	5.6744651364761594e+17
19177.0	5.673223338677588e+17
19178.0	5.672294178706772e+17
19179.0	5.671115175231488e+17
19180.0	5.6701919131511456e+17
19181.0	5.668985405527379e+17
19182.0	5.668065532444671e+17
19183.0	5.66702293192977e+17
19184.0	5.665948187667113e+17
19185.0	5.664883121760938e+17
19186.0	5.663831322438313e+17
19187.0	5.662692665371305e+17
19188.0	5.6617035666991776e+17
19189.0	5.6606403966184096e+17
19190.0	5.6595690001093965e+17
19191.0	5.658465614342825e+17
19192.0	5.657457573494783e+17
19193.0	5.6563758855618554e+17
19194.0	5.6553016984425805e+17
19195.0	5.654266004548266e+17
19196.0	5.653177909815979e+17
19197.0	5.6521129508645536e+17
19198.0	5.650995166751402e+17
19199.0	5.6392076178227174e+17
19200.0	5.6415535990046746e+17
19201.0	5.64782424077107e+17
19202.0	5.646821682577407e+17
19203.0	5.6457437289731405e+17
19204.0	5.644681751472809e+17
19205.0	5.643648458118483e+17
19206.0	5.6425868434254496e+17
19207.0	5.641412628447231e+17
19208.0	5.6401982970484045e+17
19209.0	5.639411481968638e+17
19210.0	5.6383505418594976e+17
19211.0	5.637307194758485e+17
19212.0	5.63624745771554e+17
19213.0	5.6350082149471565e+17
19214.0	5.63389317320977e+17
19215.0	5.633026391627092e+17
19216.0	5.632009309257726e+17
19217.0	5.630942179054932e+17
19218.0	5.6288957515694054e+17
19219.0	5.628657293503145e+17
19220.0	5.6277413966206285e+17
19221.0	5.626319820466858e+17
19222.0	5.625649838424064e+17
19223.0	5.624573166878719e+17
19224.0	5.6234868162778445e+17
19225.0	5.622300949523113e+17
19226.0	5.621397713846271e+17
19227.0	5.6203383116485965e+17
19228.0	5.619310054255273e+17
19229.0	5.6182509155997e+17
19230.0	5.6171882054942714e+17
19231.0	5.616119575128745e+17
19232.0	5.6150675045744634e+17
19233.0	5.613936786625876e+17
19234.0	5.6129316796934816e+17
19235.0	5.611868123736745e+17
19236.0	5.6108445387980794e+17
19237.0	5.609767677810004e+17
19238.0	5.608603923425962e+17
19239.0	5.607673493280084e+17
19240.0	5.606594800779262e+17
19241.0	5.6055267485286394e+17
19242.0	5.604480786978132e+17
19243.0	5.603254740888234e+17
19244.0	5.602386036217173e+17
19245.0	5.601321495298047e+17
19246.0	5.6002485175364256e+17
19247.0	5.59920654267187e+17
19248.0	5.5981553025897805e+17
19249.0	5.597087404829353e+17
19250.0	5.596001147901269e+17
19251.0	5.5948266777695565e+17
19252.0	5.593598304539988e+17
19253.0	5.5928343917581645e+17
19254.0	5.591804781701802e+17
19255.0	5.5905338544619514e+17
19256.0	5.5896516678997325e+17
19257.0	5.5886338165746336e+17
19258.0	5.5875746974924794e+17
19259.0	5.586433156142421e+17
19260.0	5.585104873892521e+17
19261.0	5.584343078535168e+17
19262.0	5.582407045829972e+17
19263.0	5.581341358467754e+17
19264.0	5.5796791949393894e+17
19265.0	5.579048754697556e+17
19266.0	5.577923262152703e+17
19267.0	5.5771817371675296e+17
19268.0	5.5761138701653325e+17
19269.0	5.575057883529215e+17
19270.0	5.5739993299790496e+17
19271.0	5.572522885338454e+17
19272.0	5.571838337875967e+17
19273.0	5.5699234836097683e+17
19274.0	5.569021518807038e+17
19275.0	5.5686993934636365e+17
19276.0	5.56753700851985e+17
19277.0	5.5664028966802765e+17
19278.0	5.565344631838037e+17
19279.0	5.564259882063189e+17
19280.0	5.563117476686506e+17
19281.0	5.5621489384925856e+17
19282.0	5.5611050517244576e+17
19283.0	5.559885349519358e+17
19284.0	5.558897883130537e+17
19285.0	5.5576986631099725e+17
19286.0	5.556804986251945e+17
19287.0	5.555777664887466e+17
19288.0	5.550172552211109e+17
19289.0	5.5425117936680755e+17
19290.0	5.5525794640472723e+17
19291.0	5.551221961479509e+17
19292.0	5.550455560776362e+17
19293.0	5.5493793352253434e+17
19294.0	5.5483075703166285e+17
19295.0	5.547251551524181e+17
19296.0	5.5461351242683725e+17
19297.0	5.545073126495572e+17
19298.0	5.544003880266411e+17
19299.0	5.5429237624012794e+17
19300.0	5.541888118838611e+17
19301.0	5.5408159869282976e+17
19302.0	5.539731975350953e+17
19303.0	5.5385832540514976e+17
19304.0	5.537556837957632e+17
19305.0	5.536498566823934e+17
19306.0	5.535428499210239e+17
19307.0	5.534293981921278e+17
19308.0	5.5332409466770765e+17
19309.0	5.531796037610154e+17
19310.0	5.530577046339583e+17
19311.0	5.5299572079001594e+17
19312.0	5.5289422219837434e+17
19313.0	5.5278675154698234e+17
19314.0	5.503770456752131e+17
19315.0	5.5044850445189414e+17
19316.0	5.524517135493802e+17
19317.0	5.523512958997845e+17
19318.0	5.5224214088581114e+17
19319.0	5.5213526079242234e+17
19320.0	5.520241252980053e+17
19321.0	5.519129768012458e+17
19322.0	5.517959908818944e+17
19323.0	5.516797681161557e+17
19324.0	5.51584872337681e+17
19325.0	5.514394880442367e+17
19326.0	5.5136588388106234e+17
19327.0	5.5125428372766714e+17
19328.0	5.511383671461204e+17
19329.0	5.510350610890752e+17
19330.0	5.5084259377588896e+17
19331.0	5.5068840298195616e+17
19332.0	5.5058193511874554e+17
19333.0	5.504682043987284e+17
19334.0	5.503579181110614e+17
19335.0	5.5023130172020045e+17
19336.0	5.501321716520276e+17
19337.0	5.500197776566953e+17
19338.0	5.498820378318164e+17
19339.0	5.4979328097648634e+17
19340.0	5.496620320467625e+17
19341.0	5.495555158092458e+17
19342.0	5.494013453576874e+17
19343.0	5.493359040091476e+17
19344.0	5.4921537963513165e+17
19345.0	5.488521921254735e+17
19346.0	5.488856111513599e+17
19347.0	5.4885829148235085e+17
19348.0	5.4875736261700256e+17
19349.0	5.486357751267326e+17
19350.0	5.485161746180777e+17
19351.0	5.4839967999153485e+17
19352.0	5.482319621477715e+17
19353.0	5.480077732435284e+17
19354.0	5.478881045075283e+17
19355.0	5.477559795974142e+17
19356.0	5.4764613441071776e+17
19357.0	5.4752467498653e+17
19358.0	5.4740116937113594e+17
19359.0	5.4727094126510074e+17
19360.0	5.471446553853951e+17
19361.0	5.4702621942524576e+17
19362.0	5.4690579242898765e+17
19363.0	5.467796504838143e+17
19364.0	5.466351228070571e+17
19365.0	5.4631925641379834e+17
19366.0	5.461898354316628e+17
19367.0	5.460595569939796e+17
19368.0	5.4592831848011085e+17
19369.0	5.457897198015828e+17
19370.0	5.45652550332143e+17
19371.0	5.4552121576871245e+17
19372.0	5.453412069365077e+17
19373.0	5.449931831640062e+17
19374.0	5.4485510108392083e+17
19375.0	5.4471420714243405e+17
19376.0	5.4457184051090765e+17
19377.0	5.4442615241004365e+17
19378.0	5.44114175045359e+17
19379.0	5.4381481911036576e+17
19380.0	5.436634547879934e+17
19381.0	5.4350942666315085e+17
19382.0	5.4329056214821523e+17
19383.0	5.428008819097599e+17
19384.0	5.4265055777477965e+17
19385.0	5.424856453611519e+17
19386.0	5.4203116910455443e+17
19387.0	5.416923585402196e+17
19388.0	5.415147612930047e+17
19389.0	5.411136871246507e+17
19390.0	5.4084349768062285e+17
19391.0	5.391625575814462e+17
19392.0	5.404389533548542e+17
19393.0	5.402614282496681e+17
19394.0	5.4005854696898554e+17
19395.0	5.3984799067122336e+17
19396.0	5.396392429573462e+17
19397.0	5.3942738950116685e+17
19398.0	5.3920159257067514e+17
19399.0	5.3888896788507296e+17
19400.0	5.3874071664503456e+17
19401.0	5.3851262256414714e+17
19402.0	5.382530026263892e+17
19403.0	5.379473109155839e+17
19404.0	5.3769296440634003e+17
19405.0	5.3742864447133005e+17
19406.0	5.3716133924044794e+17
19407.0	5.368838610747391e+17
19408.0	5.364927019614209e+17
19409.0	5.361935883173887e+17
19410.0	5.358945783425706e+17
19411.0	5.3558520675915085e+17
19412.0	5.352069468083541e+17
19413.0	5.347660147982335e+17
19414.0	5.3442203601250976e+17
19415.0	5.339065820555945e+17
19416.0	5.3344916055872845e+17
19417.0	5.3285330773606374e+17
19418.0	5.3233933793361894e+17
19419.0	5.3159761176166394e+17
19420.0	5.3075992201134086e+17
19421.0	5.29782838062831e+17
19422.0	5.285439778848761e+17
19423.0	5.268441364343462e+17
19424.0	5.252013914849281e+17
19425.0	5.242219455840255e+17
19426.0	5.233366425141247e+17
19427.0	5.224003197905579e+17
19428.0	5.2140423781198496e+17
19429.0	5.203446339381929e+17
19430.0	5.191799027706539e+17
19431.0	5.17766191496124e+17
19432.0	5.168026378829823e+17
19433.0	5.155718373397845e+17
19434.0	5.1430735646556154e+17
19435.0	5.1295071142324896e+17
19436.0	5.115166310705833e+17
19437.0	5.102005597678251e+17
19438.0	5.062835355429551e+17
19439.0	5.071070171583828e+17
19440.0	5.052944934240254e+17
19441.0	5.0258993748814496e+17
19442.0	4.973829359140847e+17
19443.0	4.9116106432621203e+17
19444.0	4.870449856337235e+17
19445.0	4.8247654531290477e+17
19446.0	4.772909237840555e+17
19447.0	4.6940259509862195e+17
19448.0	4.5503056113390874e+17
19449.0	4.389357882441724e+17
19450.0	3.9467581205818534e+17
19451.0	3.7386987786731405e+17
19452.0	4.217791866819918e+17
19453.0	4.481967266114226e+17
19454.0	4.621431165244744e+17
19455.0	4.7348952498612883e+17
19456.0	4.7923911815331834e+17
19457.0	4.838500362878973e+17
19458.0	4.824112135755183e+17
19459.0	4.923916592786099e+17
19460.0	4.989635103031311e+17
19461.0	5.023757572418219e+17
19462.0	5.043362593068373e+17
19463.0	5.0585013580376723e+17
19464.0	5.0716388954385056e+17
19465.0	5.0840304842615475e+17
19466.0	5.0958540182213965e+17
19467.0	5.107421470348628e+17
19468.0	5.118447192462677e+17
19469.0	5.128637594468351e+17
19470.0	5.139197948067839e+17
19471.0	5.149272978751487e+17
19472.0	5.1589959717137056e+17
19473.0	5.167940943653546e+17
19474.0	5.1762361256290976e+17
19475.0	5.1829789921989946e+17
19476.0	5.190954059300862e+17
19477.0	5.1976070587132576e+17
19478.0	5.209267973215571e+17
19479.0	5.2249520424441126e+17
19480.0	5.236557583045968e+17
19481.0	5.2457218017416474e+17
19482.0	5.252763093740206e+17
19483.0	5.257914499465219e+17
19484.0	5.262399561007103e+17
19485.0	5.266460872015874e+17
19486.0	5.268898289025024e+17
19487.0	5.272356025707177e+17
19488.0	5.2743566604806816e+17
19489.0	5.275796793633449e+17
19490.0	5.2768399491945786e+17
19491.0	5.279705876572841e+17
19492.0	5.280811232264191e+17
19493.0	5.2820478277277005e+17
19494.0	5.283770736661844e+17
19495.0	5.284562914858323e+17
19496.0	5.284771036921855e+17
19497.0	5.285895026507775e+17
19498.0	5.285041963794433e+17
19499.0	5.263006446037658e+17
19500.0	5.2881733577605114e+17
19501.0	5.2886044476265805e+17
19502.0	5.288929817963178e+17
19503.0	5.289231498870783e+17
19504.0	5.289458726688083e+17
19505.0	5.289630883992917e+17
19506.0	5.2897703886411085e+17
19507.0	5.289824495162708e+17
19508.0	5.289893044071081e+17
19509.0	5.2898850364456954e+17
19510.0	5.289580512499028e+17
19511.0	5.24996545242724e+17
19512.0	5.286070782525432e+17
19513.0	5.283917781270514e+17
19514.0	5.287319087087608e+17
19515.0	5.2912183749290675e+17
19516.0	5.2938861773673786e+17
19517.0	5.2955386359753376e+17
19518.0	5.2952511045522765e+17
19519.0	5.294852008837119e+17
19520.0	5.297712708015442e+17
19521.0	5.297620612284415e+17
19522.0	5.2970954756369056e+17
19523.0	5.2966340791282323e+17
19524.0	5.297096920574631e+17
19525.0	5.298563354110634e+17
19526.0	5.2980130502410234e+17
19527.0	5.297426334919338e+17
19528.0	5.296821454067028e+17
19529.0	5.296206918625962e+17
19530.0	5.2964186589757414e+17
19531.0	5.2973819703678285e+17
19532.0	5.2967240126955514e+17
19533.0	5.296054767452159e+17
19534.0	5.295371492261888e+17
19535.0	5.2946654133398176e+17
19536.0	5.2939351381770234e+17
19537.0	5.293273955784021e+17
19538.0	5.292384134190421e+17
19539.0	5.2925666430375296e+17
19540.0	5.2929555389044045e+17
19541.0	5.2922220418170874e+17
19542.0	5.2914669783176525e+17
19543.0	5.290655463680681e+17
19544.0	5.2899353520155296e+17
19545.0	5.2885830979201683e+17
19546.0	5.2872565234510496e+17
19547.0	5.2875954211170976e+17
19548.0	5.2868001761853434e+17
19549.0	5.285883317409108e+17
19550.0	5.285193291486549e+17
19551.0	5.284385544732671e+17
19552.0	5.283568411126443e+17
19553.0	5.284062607791444e+17
19554.0	5.283322260706645e+17
19555.0	5.282515383571796e+17
19556.0	5.281700012971349e+17
19557.0	5.2808588278278816e+17
19558.0	5.280014218035199e+17
19559.0	5.279168268162389e+17
19560.0	5.2782694134360723e+17
19561.0	5.277433213222911e+17
19562.0	5.276590509741396e+17
19563.0	5.2757504116217165e+17
19564.0	5.274887288870228e+17
19565.0	5.2740212000467616e+17
19566.0	5.273115001793193e+17
19567.0	5.2722801905937056e+17
19568.0	5.271377649074175e+17
19569.0	5.2705041104677536e+17
19570.0	5.269652401116501e+17
19571.0	5.268765001034409e+17
19572.0	5.267847578124287e+17
19573.0	5.2669713957082445e+17
19574.0	5.266006630989823e+17
19575.0	5.265227139863892e+17
19576.0	5.264327855221417e+17
19577.0	5.263402579875156e+17
19578.0	5.2624979719618554e+17
19579.0	5.261619656043178e+17
19580.0	5.260723585635668e+17
19581.0	5.2598354655313914e+17
19582.0	5.259860424436393e+17
19583.0	5.259115199376041e+17
19584.0	5.258235968400041e+17
19585.0	5.257207841729193e+17
19586.0	5.256263991907669e+17
19587.0	5.255455704088575e+17
19588.0	5.254039013599915e+17
19589.0	5.2536758861387085e+17
19590.0	5.2526522445769376e+17
19591.0	5.251867959361535e+17
19592.0	5.250960813195264e+17
19593.0	5.2500198301805216e+17
19594.0	5.248837001499987e+17
19595.0	5.24817428189457e+17
19596.0	5.246898325684224e+17
19597.0	5.2463565006001485e+17
19598.0	5.244912758947839e+17
19599.0	5.2445325327073274e+17
19600.0	5.2436223456706554e+17
19601.0	5.242618841661439e+17
19602.0	5.241718330185045e+17
19603.0	5.2401822453377696e+17
19604.0	5.239860352778239e+17
19605.0	5.2386474844924576e+17
19606.0	5.238073788290388e+17
19607.0	5.237158266099028e+17
19608.0	5.236210509982378e+17
19609.0	5.235240970747904e+17
19610.0	5.234350770967892e+17
19611.0	5.2333991218380794e+17
19612.0	5.2325236936977056e+17
19613.0	5.231583118928553e+17
19614.0	5.230619408378538e+17
19615.0	5.2297340746902176e+17
19616.0	5.228646733534549e+17
19617.0	5.2278259648648525e+17
19618.0	5.2262293107725645e+17
19619.0	5.225113995007315e+17
19620.0	5.224233184176809e+17
19621.0	5.224100016422911e+17
19622.0	5.2232219318900045e+17
19623.0	5.2222868376780794e+17
19624.0	5.2213373486148256e+17
19625.0	5.2204242031957325e+17
19626.0	5.219485355081726e+17
19627.0	5.2185534086949536e+17
19628.0	5.217353639220566e+17
19629.0	5.216436290409812e+17
19630.0	5.2150982843651405e+17
19631.0	5.202807560164692e+17
19632.0	5.2138473052351136e+17
19633.0	5.212884447526911e+17
19634.0	5.212016955708757e+17
19635.0	5.211033631894185e+17
19636.0	5.210084588126207e+17
19637.0	5.208757625683968e+17
19638.0	5.2082631710692685e+17
19639.0	5.207330996791978e+17
19640.0	5.2062906388316154e+17
19641.0	5.2041423051380077e+17
19642.0	5.204524460059306e+17
19643.0	5.203585237254143e+17
19644.0	5.2025919323941536e+17
19645.0	5.201388157359444e+17
19646.0	5.2007330937569274e+17
19647.0	5.199859696358741e+17
19648.0	5.198926142155434e+17
19649.0	5.197981128414547e+17
19650.0	5.1970537831792634e+17
19651.0	5.196110419897002e+17
19652.0	5.195171359970645e+17
19653.0	5.1942366292650656e+17
19654.0	5.193298882854911e+17
19655.0	5.1923580871857485e+17
19656.0	5.191427071934462e+17
