# Flux units: erg / (cm m2 s)
# Wavelength units: Angstrom
wave	flux
19000.0	7.421632926711808e+17
19001.0	7.420210130714624e+17
19002.0	7.418930233256617e+17
19003.0	7.417572275606867e+17
19004.0	7.416214582198271e+17
19005.0	7.414868881702911e+17
19006.0	7.413513316204543e+17
19007.0	7.412114573142696e+17
19008.0	7.410762189722963e+17
19009.0	7.409357960511488e+17
19010.0	7.40779975979827e+17
19011.0	7.406679549280253e+17
19012.0	7.405033272377343e+17
19013.0	7.403996738224127e+17
19014.0	7.402597223410344e+17
19015.0	7.401253140518228e+17
19016.0	7.3998923740829e+17
19017.0	7.398556756694356e+17
19018.0	7.397180995622228e+17
19019.0	7.395828329786025e+17
19020.0	7.39463828550451e+17
19021.0	7.393315554415956e+17
19022.0	7.391958677498536e+17
19023.0	7.390561279410175e+17
19024.0	7.38923703837218e+17
19025.0	7.38796592238865e+17
19026.0	7.386563665898153e+17
19027.0	7.384961861200553e+17
19028.0	7.383880997448361e+17
19029.0	7.382518967129428e+17
19030.0	7.381162431348735e+17
19031.0	7.379790296951466e+17
19032.0	7.378413940288169e+17
19033.0	7.37696248041745e+17
19034.0	7.37559441309696e+17
19035.0	7.373773921583103e+17
19036.0	7.353544592064508e+17
19037.0	7.371173250378409e+17
19038.0	7.370113408477866e+17
19039.0	7.368807310600874e+17
19040.0	7.367451444510719e+17
19041.0	7.366086633368234e+17
19042.0	7.364616582944083e+17
19043.0	7.363348520413866e+17
19044.0	7.361966730728787e+17
19045.0	7.360588862717951e+17
19046.0	7.35919680537668e+17
19047.0	7.357829404950527e+17
19048.0	7.356349400044884e+17
19049.0	7.354968264671232e+17
19050.0	7.35362482770193e+17
19051.0	7.349379435681106e+17
19052.0	7.350047901483007e+17
19053.0	7.349549169377279e+17
19054.0	7.348221550526463e+17
19055.0	7.346662536118271e+17
19056.0	7.34546534614084e+17
19057.0	7.344104834159956e+17
19058.0	7.342684057021097e+17
19059.0	7.341345369402025e+17
19060.0	7.339971931974313e+17
19061.0	7.33860835954961e+17
19062.0	7.337228732727293e+17
19063.0	7.335851282748756e+17
19064.0	7.334399315367254e+17
19065.0	7.332968764101972e+17
19066.0	7.331663597360468e+17
19067.0	7.330345106713258e+17
19068.0	7.328967501545471e+17
19069.0	7.327589883794772e+17
19070.0	7.326195543354025e+17
19071.0	7.324821381709824e+17
19072.0	7.32343910408738e+17
19073.0	7.32207350161954e+17
19074.0	7.320697480500564e+17
19075.0	7.319318108132692e+17
19076.0	7.31792727273199e+17
19077.0	7.316548042970451e+17
19078.0	7.315163612271956e+17
19079.0	7.313798325775017e+17
19080.0	7.312407793762303e+17
19081.0	7.311005974877523e+17
19082.0	7.309631038685183e+17
19083.0	7.308185863279956e+17
19084.0	7.306711126420138e+17
19085.0	7.30549158080239e+17
19086.0	7.303746252614313e+17
19087.0	7.302340277174271e+17
19088.0	7.301123895459839e+17
19089.0	7.299620854038527e+17
19090.0	7.298505894789117e+17
19091.0	7.297164592720556e+17
19092.0	7.295683631513599e+17
19093.0	7.294444966860116e+17
19094.0	7.293080246594217e+17
19095.0	7.291703673225216e+17
19096.0	7.290316228220244e+17
19097.0	7.288942515366569e+17
19098.0	7.28754873696256e+17
19099.0	7.286164408325462e+17
19100.0	7.284761979868499e+17
19101.0	7.283400503197696e+17
19102.0	7.28197384704273e+17
19103.0	7.280650749651626e+17
19104.0	7.279264607677097e+17
19105.0	7.277833901222569e+17
19106.0	7.276423437877245e+17
19107.0	7.275059781566463e+17
19108.0	7.273614336327679e+17
19109.0	7.271036658297513e+17
19110.0	7.270646701271721e+17
19111.0	7.269524926278314e+17
19112.0	7.268178628793683e+17
19113.0	7.266817164705791e+17
19114.0	7.265433579858602e+17
19115.0	7.263980229754879e+17
19116.0	7.262649231693139e+17
19117.0	7.261254710897321e+17
19118.0	7.259763673574057e+17
19119.0	7.25612646402184e+17
19120.0	7.256934516260861e+17
19121.0	7.255609093827241e+17
19122.0	7.254365689610239e+17
19123.0	7.252985232315731e+17
19124.0	7.251468759334911e+17
19125.0	7.250203733480787e+17
19126.0	7.248791961512617e+17
19127.0	7.2463590373021e+17
19128.0	7.2457664884026e+17
19129.0	7.244608178225151e+17
19130.0	7.243280275559764e+17
19131.0	7.24190182593877e+17
19132.0	7.240519018435926e+17
19133.0	7.239058082234368e+17
19134.0	7.237628457910271e+17
19135.0	7.236352181534719e+17
19136.0	7.234839110134441e+17
19137.0	7.233360827689641e+17
19138.0	7.23205458301201e+17
19139.0	7.230683346195795e+17
19140.0	7.229299351704916e+17
19141.0	7.22791288676898e+17
19142.0	7.226507492939092e+17
19143.0	7.225106774360063e+17
19144.0	7.223720148642474e+17
19145.0	7.222361271042045e+17
19146.0	7.220538998347092e+17
19147.0	7.219537454475945e+17
19148.0	7.218177043158356e+17
19149.0	7.216788128748883e+17
19150.0	7.215416008332628e+17
19151.0	7.214029231620093e+17
19152.0	7.212613510015657e+17
19153.0	7.211204713207123e+17
19154.0	7.209772544338602e+17
19155.0	7.208437409295017e+17
19156.0	7.20702572400913e+17
19157.0	7.20547504787729e+17
19158.0	7.203552875249663e+17
19159.0	7.202741987661139e+17
19160.0	7.201417074136404e+17
19161.0	7.199919721589417e+17
19162.0	7.196670907383808e+17
19163.0	7.196848819972778e+17
19164.0	7.195867477267795e+17
19165.0	7.194464778977279e+17
19166.0	7.193026563320489e+17
19167.0	7.191557161615357e+17
19168.0	7.190318757008723e+17
19169.0	7.188945841072812e+17
19170.0	7.187570885307049e+17
19171.0	7.186112597109417e+17
19172.0	7.184766172397568e+17
19173.0	7.183402173551956e+17
19174.0	7.181988556090025e+17
19175.0	7.180627997971795e+17
19176.0	7.179231628886015e+17
19177.0	7.177716565191336e+17
19178.0	7.176356619441492e+17
19179.0	7.174914613531987e+17
19180.0	7.173615444645204e+17
19181.0	7.172177563134634e+17
19182.0	7.170842114916351e+17
19183.0	7.169459191371092e+17
19184.0	7.168057256443904e+17
19185.0	7.166659136935251e+17
19186.0	7.165260597996202e+17
19187.0	7.163799393359187e+17
19188.0	7.162449603417428e+17
19189.0	7.161038731826516e+17
19190.0	7.159616894926845e+17
19191.0	7.158186012311551e+17
19192.0	7.156813136920573e+17
19193.0	7.155382094921727e+17
19194.0	7.153935547979091e+17
19195.0	7.152487839214249e+17
19196.0	7.150955678138365e+17
19197.0	7.149256663455059e+17
19198.0	7.146744952040106e+17
19199.0	7.133273016762364e+17
19200.0	7.134111389625004e+17
19201.0	7.14269228409378e+17
19202.0	7.142269425549311e+17
19203.0	7.141092789059583e+17
19204.0	7.139823051603965e+17
19205.0	7.13848651845905e+17
19206.0	7.137113883541501e+17
19207.0	7.135653445064019e+17
19208.0	7.134208113071444e+17
19209.0	7.132924147138557e+17
19210.0	7.131521901832872e+17
19211.0	7.130117567763798e+17
19212.0	7.1286945494685e+17
19213.0	7.127126785742164e+17
19214.0	7.125659932775766e+17
19215.0	7.124394065264639e+17
19216.0	7.123042004806313e+17
19217.0	7.121617259855871e+17
19218.0	7.119725104463871e+17
19219.0	7.118659155656704e+17
19220.0	7.117358055991977e+17
19221.0	7.115786162274304e+17
19222.0	7.114521417438548e+17
19223.0	7.112959229340329e+17
19224.0	7.111454437496147e+17
19225.0	7.109987767681023e+17
19226.0	7.108626517502633e+17
19227.0	7.10720068063505e+17
19228.0	7.105795773344425e+17
19229.0	7.104366513924778e+17
19230.0	7.102926040334333e+17
19231.0	7.101489429697876e+17
19232.0	7.099956817035263e+17
19233.0	7.098419940163581e+17
19234.0	7.097027729031165e+17
19235.0	7.095588331978751e+17
19236.0	7.094167170362025e+17
19237.0	7.092718921930067e+17
19238.0	7.091209105309693e+17
19239.0	7.089847842548394e+17
19240.0	7.088400139375956e+17
19241.0	7.086945251360768e+17
19242.0	7.085507761318569e+17
19243.0	7.083949278188884e+17
19244.0	7.082626417076905e+17
19245.0	7.081176304975871e+17
19246.0	7.079716504032595e+17
19247.0	7.078270317800105e+17
19248.0	7.076817202577407e+17
19249.0	7.075350925628756e+17
19250.0	7.073880968877395e+17
19251.0	7.072362756658514e+17
19252.0	7.070758737368403e+17
19253.0	7.06949919346961e+17
19254.0	7.068048829710335e+17
19255.0	7.066437392094548e+17
19256.0	7.065087818858493e+17
19257.0	7.063460409333075e+17
19258.0	7.061853342182057e+17
19259.0	7.060314405907114e+17
19260.0	7.058525521270099e+17
19261.0	7.057402092322815e+17
19262.0	7.055888137322496e+17
19263.0	7.054387216820905e+17
19264.0	7.052625192506708e+17
19265.0	7.051338361864191e+17
19266.0	7.049859611055444e+17
19267.0	7.048479845821097e+17
19268.0	7.0469830063773e+17
19269.0	7.045481652464297e+17
19270.0	7.043964624437245e+17
19271.0	7.042267593659731e+17
19272.0	7.040930495681876e+17
19273.0	7.039045892134228e+17
19274.0	7.037516109228713e+17
19275.0	7.036413122620073e+17
19276.0	7.034882409278121e+17
19277.0	7.032995396801876e+17
19278.0	7.031397855614291e+17
19279.0	7.029845948454227e+17
19280.0	7.02828496621841e+17
19281.0	7.026776189086377e+17
19282.0	7.025226641222313e+17
19283.0	7.023575958203049e+17
19284.0	7.022003594723325e+17
19285.0	7.020489917945171e+17
19286.0	7.018976162174292e+17
19287.0	7.017360463844694e+17
19288.0	7.010028960961871e+17
19289.0	7.001855426385219e+17
19290.0	7.012627465808553e+17
19291.0	7.010932593000447e+17
19292.0	7.009019565353642e+17
19293.0	7.007439859045716e+17
19294.0	7.005847427219455e+17
19295.0	7.00426193207296e+17
19296.0	7.002643891224575e+17
19297.0	7.001031386857471e+17
19298.0	6.999420648991401e+17
19299.0	6.997802424292692e+17
19300.0	6.996059542781951e+17
19301.0	6.994200052629504e+17
19302.0	6.992552708276223e+17
19303.0	6.990785675263999e+17
19304.0	6.988485365858301e+17
19305.0	6.986831345571155e+17
19306.0	6.985168393513642e+17
19307.0	6.983455478207828e+17
19308.0	6.981761228253865e+17
19309.0	6.979669928706047e+17
19310.0	6.977786230429012e+17
19311.0	6.976600267904339e+17
19312.0	6.974775076672851e+17
19313.0	6.972319941525503e+17
19314.0	6.955650838604452e+17
19315.0	6.95515463216881e+17
19316.0	6.966993485823999e+17
19317.0	6.965388013207551e+17
19318.0	6.963655641923583e+17
19319.0	6.961916007503187e+17
19320.0	6.95967943823633e+17
19321.0	6.957757238345727e+17
19322.0	6.955875518382077e+17
19323.0	6.954011105514836e+17
19324.0	6.952284270013097e+17
19325.0	6.949644085668524e+17
19326.0	6.947993691357183e+17
19327.0	6.946200707487059e+17
19328.0	6.94433705239074e+17
19329.0	6.942504632276308e+17
19330.0	6.940603763217748e+17
19331.0	6.938695800892074e+17
19332.0	6.936820354908159e+17
19333.0	6.934886939448659e+17
19334.0	6.932954901118975e+17
19335.0	6.930945317098836e+17
19336.0	6.929032019618473e+17
19337.0	6.927063595002538e+17
19338.0	6.924928194445311e+17
19339.0	6.923058997974355e+17
19340.0	6.92023022653713e+17
19341.0	6.917873670815743e+17
19342.0	6.915613393245523e+17
19343.0	6.913765684193962e+17
19344.0	6.911628400394239e+17
19345.0	6.908382813705554e+17
19346.0	6.906775947881129e+17
19347.0	6.905153722515455e+17
19348.0	6.903042783139156e+17
19349.0	6.900811565105151e+17
19350.0	6.897808414081023e+17
19351.0	6.894757095669759e+17
19352.0	6.892402216970921e+17
19353.0	6.890158669780308e+17
19354.0	6.887809522597887e+17
19355.0	6.885362654423721e+17
19356.0	6.883016963347798e+17
19357.0	6.880573442228223e+17
19358.0	6.87637383033651e+17
19359.0	6.873404391729834e+17
19360.0	6.870768857470292e+17
19361.0	6.867989523595263e+17
19362.0	6.865352946352128e+17
19363.0	6.862660903632895e+17
19364.0	6.858373395906557e+17
19365.0	6.854412507720362e+17
19366.0	6.851619104052563e+17
19367.0	6.848790375257427e+17
19368.0	6.845925219631103e+17
19369.0	6.841372097817257e+17
19370.0	6.836573027609258e+17
19371.0	6.833612005572607e+17
19372.0	6.830642930472276e+17
19373.0	6.82722568490189e+17
19374.0	6.820285265215487e+17
19375.0	6.817180526051327e+17
19376.0	6.813573003782826e+17
19377.0	6.809082259658074e+17
19378.0	6.801948615376895e+17
19379.0	6.798557542962516e+17
19380.0	6.795108998796627e+17
19381.0	6.787450774312275e+17
19382.0	6.782115638498644e+17
19383.0	6.778505275987284e+17
19384.0	6.77305340011042e+17
19385.0	6.766829077441193e+17
19386.0	6.763038389917012e+17
19387.0	6.759178127278079e+17
19388.0	6.75524442657041e+17
19389.0	6.751221264154623e+17
19390.0	6.746902982120787e+17
19391.0	6.726433053343725e+17
19392.0	6.736369476261203e+17
19393.0	6.732899003574953e+17
19394.0	6.728529181933568e+17
19395.0	6.722689941809833e+17
19396.0	6.7170761979549e+17
19397.0	6.71233463025664e+17
19398.0	6.707407277959849e+17
19399.0	6.699175499879761e+17
19400.0	6.69398660616465e+17
19401.0	6.688684910837759e+17
19402.0	6.679948722263378e+17
19403.0	6.673242539775316e+17
19404.0	6.666882613859666e+17
19405.0	6.655987789682004e+17
19406.0	6.649470167722665e+17
19407.0	6.638827449177423e+17
19408.0	6.629542686883839e+17
19409.0	6.619039793851049e+17
19410.0	6.608458043009706e+17
19411.0	6.596192759360177e+17
19412.0	6.584971190512298e+17
19413.0	6.570253874801325e+17
19414.0	6.558759525198506e+17
19415.0	6.545191810891773e+17
19416.0	6.535185530443091e+17
19417.0	6.525606322416297e+17
19418.0	6.515855193363796e+17
19419.0	6.505499309987156e+17
19420.0	6.494979240580436e+17
19421.0	6.484032300777471e+17
19422.0	6.472510201659391e+17
19423.0	6.460432988504063e+17
19424.0	6.44748097425681e+17
19425.0	6.434346516873215e+17
19426.0	6.420896744297811e+17
19427.0	6.40683643764736e+17
19428.0	6.391034280585898e+17
19429.0	6.374872464053587e+17
19430.0	6.35672480186368e+17
19431.0	6.335524249796609e+17
19432.0	6.317883667775487e+17
19433.0	6.294635724931073e+17
19434.0	6.270865926782975e+17
19435.0	6.244400359276544e+17
19436.0	6.215872662907562e+17
19437.0	6.186629582553087e+17
19438.0	6.133548269786454e+17
19439.0	6.113963821498369e+17
19440.0	6.075244724879359e+17
19441.0	6.031123255656444e+17
19442.0	5.980696729004716e+17
19443.0	5.924349014616746e+17
19444.0	5.86000638637943e+17
19445.0	5.786077688933037e+17
19446.0	5.69924300902673e+17
19447.0	5.595664516557477e+17
19448.0	5.467326517695835e+17
19449.0	5.299718663263573e+17
19450.0	5.0576627663721645e+17
19451.0	4.9125264296946445e+17
19452.0	5.1931748733637965e+17
19453.0	5.388677169545222e+17
19454.0	5.531416369212068e+17
19455.0	5.6436588963430406e+17
19456.0	5.735639380481368e+17
19457.0	5.81322774238549e+17
19458.0	5.857143957050746e+17
19459.0	5.936624264631643e+17
19460.0	5.988479513832104e+17
19461.0	6.033269468430335e+17
19462.0	6.072742878467414e+17
19463.0	6.108610181813587e+17
19464.0	6.14192641020177e+17
19465.0	6.172090585579519e+17
19466.0	6.198078811231572e+17
19467.0	6.223422071067988e+17
19468.0	6.245286849893718e+17
19469.0	6.266570681264808e+17
19470.0	6.28565944111377e+17
19471.0	6.302651690691242e+17
19472.0	6.319079568004435e+17
19473.0	6.333259575197695e+17
19474.0	6.346781766625961e+17
19475.0	6.358865888499027e+17
19476.0	6.370442203190612e+17
19477.0	6.381240556279123e+17
19478.0	6.391993515114495e+17
19479.0	6.401919160068777e+17
19480.0	6.411276300670292e+17
19481.0	6.419996858471763e+17
19482.0	6.428255013830656e+17
19483.0	6.43619679703313e+17
19484.0	6.443887867112104e+17
19485.0	6.451088397959168e+17
19486.0	6.458018704479572e+17
19487.0	6.468126066256552e+17
19488.0	6.476034238403923e+17
19489.0	6.489854512726017e+17
19490.0	6.495936059888977e+17
19491.0	6.509526534586363e+17
19492.0	6.514847041366698e+17
19493.0	6.526051856766291e+17
19494.0	6.530530927443967e+17
19495.0	6.539897358428844e+17
19496.0	6.544379899194025e+17
19497.0	6.550785152253947e+17
19498.0	6.553973992805716e+17
19499.0	6.536911733303968e+17
19500.0	6.566121351501144e+17
19501.0	6.570194226905087e+17
19502.0	6.572980130458281e+17
19503.0	6.57759860092655e+17
19504.0	6.581025949876223e+17
19505.0	6.583326954837332e+17
19506.0	6.585499074428927e+17
19507.0	6.589655154338474e+17
19508.0	6.591624005375315e+17
19509.0	6.593402976075776e+17
19510.0	6.594839270042282e+17
19511.0	6.569820234798404e+17
19512.0	6.595337280028666e+17
19513.0	6.594231727205024e+17
19514.0	6.597348441806158e+17
19515.0	6.603552355691178e+17
19516.0	6.605275108737023e+17
19517.0	6.606924620147369e+17
19518.0	6.611814352333482e+17
19519.0	6.612883885173418e+17
19520.0	6.613879206095529e+17
19521.0	6.619629106145967e+17
19522.0	6.621394021034666e+17
19523.0	6.622265297513129e+17
19524.0	6.624513400416938e+17
19525.0	6.628549809842857e+17
19526.0	6.629355818057728e+17
19527.0	6.630197210819242e+17
19528.0	6.632575654516052e+17
19529.0	6.635217479532543e+17
19530.0	6.635673619879252e+17
19531.0	6.636088773487273e+17
19532.0	6.636646499876864e+17
19533.0	6.640078494018217e+17
19534.0	6.640382336390484e+17
19535.0	6.640643142407507e+17
19536.0	6.640857401436841e+17
19537.0	6.641078610427903e+17
19538.0	6.643368932496724e+17
19539.0	6.643653251082922e+17
19540.0	6.644031505301504e+17
19541.0	6.644114268706132e+17
19542.0	6.64429271397171e+17
19543.0	6.64429905645841e+17
19544.0	6.645290488561661e+17
19545.0	6.645778244872873e+17
19546.0	6.645428228805971e+17
19547.0	6.64576298319872e+17
19548.0	6.645560371052543e+17
19549.0	6.645253018746879e+17
19550.0	6.645057090224128e+17
19551.0	6.644764873763498e+17
19552.0	6.645489467741524e+17
19553.0	6.645505083834367e+17
19554.0	6.64512725393954e+17
19555.0	6.644744852253353e+17
19556.0	6.644338506683732e+17
19557.0	6.643897070867796e+17
19558.0	6.643437895243092e+17
19559.0	6.642959258047827e+17
19560.0	6.642431255292585e+17
19561.0	6.641923376807935e+17
19562.0	6.641539395966292e+17
19563.0	6.641814026409299e+17
19564.0	6.641243018057044e+17
19565.0	6.640654967548586e+17
19566.0	6.640031462588415e+17
19567.0	6.639432733381972e+17
19568.0	6.63879023731234e+17
19569.0	6.638166389118292e+17
19570.0	6.637517918262612e+17
19571.0	6.636848258482173e+17
19572.0	6.636144771639978e+17
19573.0	6.635463372002644e+17
19574.0	6.634697455741609e+17
19575.0	6.634048386498559e+17
19576.0	6.633317773694292e+17
19577.0	6.632571357451604e+17
19578.0	6.632030081122303e+17
19579.0	6.631622120745641e+17
19580.0	6.630848692486143e+17
19581.0	6.630074925187071e+17
19582.0	6.629486170734591e+17
19583.0	6.629010041034067e+17
19584.0	6.628187604429482e+17
19585.0	6.627292688154623e+17
19586.0	6.626426233028607e+17
19587.0	6.625638047110484e+17
19588.0	6.624575876672169e+17
19589.0	6.623978098873683e+17
19590.0	6.623692303193428e+17
19591.0	6.623122249045331e+17
19592.0	6.622259168935936e+17
19593.0	6.621394378249555e+17
19594.0	6.620342003608234e+17
19595.0	6.619601194450943e+17
19596.0	6.618144343501482e+17
19597.0	6.617788369425748e+17
19598.0	6.6166766188189e+17
19599.0	6.616364746451625e+17
19600.0	6.615708301524991e+17
19601.0	6.61472776692258e+17
19602.0	6.613773911588863e+17
19603.0	6.612458473695913e+17
19604.0	6.611833825088852e+17
19605.0	6.611011430427306e+17
19606.0	6.610330245398527e+17
19607.0	6.60936882004514e+17
19608.0	6.608385712237225e+17
19609.0	6.607387093893119e+17
19610.0	6.606428325631316e+17
19611.0	6.605484366058836e+17
19612.0	6.604973764072788e+17
19613.0	6.603971263900329e+17
19614.0	6.602949653779796e+17
19615.0	6.601965819658239e+17
19616.0	6.600811609412948e+17
19617.0	6.599928466549418e+17
19618.0	6.598563389767677e+17
19619.0	6.597449288952489e+17
19620.0	6.596484236225193e+17
19621.0	6.59583953604881e+17
19622.0	6.594840209566377e+17
19623.0	6.593821825564671e+17
19624.0	6.592997300196692e+17
19625.0	6.591956362723328e+17
19626.0	6.591119674572799e+17
19627.0	6.590156465242111e+17
19628.0	6.588758097570474e+17
19629.0	6.587654066580137e+17
19630.0	6.58366255088708e+17
19631.0	6.571941820017324e+17
19632.0	6.584270508261376e+17
19633.0	6.58369568449058e+17
19634.0	6.582783192683859e+17
19635.0	6.581725920493567e+17
19636.0	6.580686207756969e+17
19637.0	6.579348320550911e+17
19638.0	6.578576635024723e+17
19639.0	6.577502634551978e+17
19640.0	6.57636252066338e+17
19641.0	6.57488675340288e+17
19642.0	6.574269071534762e+17
19643.0	6.573185600323583e+17
19644.0	6.572055577930409e+17
19645.0	6.570856328549715e+17
19646.0	6.569902815051775e+17
19647.0	6.568971639717887e+17
19648.0	6.56800281001984e+17
19649.0	6.566905661183316e+17
19650.0	6.565809466550953e+17
19651.0	6.564705046888447e+17
19652.0	6.563606910293331e+17
19653.0	6.56249662419763e+17
19654.0	6.561400632289961e+17
19655.0	6.56029131997184e+17
19656.0	6.55918227329297e+17
19657.0	6.55807698051618e+17
19658.0	6.556965975796393e+17
19659.0	6.555852664209408e+17
19660.0	6.554739616863572e+17
19661.0	6.553623876774569e+17
19662.0	6.552504814097748e+17
19663.0	6.551346312380415e+17
19664.0	6.550221799904596e+17
19665.0	6.54914668864034e+17
