# Flux units: erg / (cm m2 s)
# Wavelength units: Angstrom
wave	flux
19000.0	7.055641884142249e+17
19001.0	7.054298231865343e+17
19002.0	7.052965902811135e+17
19003.0	7.051627924029437e+17
19004.0	7.050290029133823e+17
19005.0	7.048952591417343e+17
19006.0	7.047615015288832e+17
19007.0	7.046277598543871e+17
19008.0	7.044935854675284e+17
19009.0	7.043601656359594e+17
19010.0	7.042239389761535e+17
19011.0	7.040927493958313e+17
19012.0	7.039586045089108e+17
19013.0	7.038255606267904e+17
19014.0	7.036919030480896e+17
19015.0	7.035582555357184e+17
19016.0	7.034243152609279e+17
19017.0	7.032887225002666e+17
19018.0	7.031573976536403e+17
19019.0	7.030238322098175e+17
19020.0	7.028898803307859e+17
19021.0	7.027564156201642e+17
19022.0	7.026231786602495e+17
19023.0	7.024896427862697e+17
19024.0	7.023560878282067e+17
19025.0	7.022226507999913e+17
19026.0	7.020889956679679e+17
19027.0	7.019555569620308e+17
19028.0	7.018213324532393e+17
19029.0	7.016874692837375e+17
19030.0	7.015540666488148e+17
19031.0	7.014206801619625e+17
19032.0	7.012873098231807e+17
19033.0	7.011534550422868e+17
19034.0	7.010205991348905e+17
19035.0	7.008873028255743e+17
19036.0	7.007381287687508e+17
19037.0	7.006207240481449e+17
19038.0	7.004874685633876e+17
19039.0	7.003542258712573e+17
19040.0	7.002210024729258e+17
19041.0	7.000877996266836e+17
19042.0	6.999541578465279e+17
19043.0	6.998214497184425e+17
19044.0	6.996882874171392e+17
19045.0	6.995551785932115e+17
19046.0	6.994217967200938e+17
19047.0	6.99288977023522e+17
19048.0	6.991547771912191e+17
19049.0	6.990224970918569e+17
19050.0	6.988898431401983e+17
19051.0	6.98754955092514e+17
19052.0	6.986237439814314e+17
19053.0	6.984908658442239e+17
19054.0	6.9835794429597e+17
19055.0	6.982235943774889e+17
19056.0	6.980921194446847e+17
19057.0	6.979592358548819e+17
19058.0	6.978263788989097e+17
19059.0	6.976935297023999e+17
19060.0	6.975605729219924e+17
19061.0	6.974279103720106e+17
19062.0	6.972951182180351e+17
19063.0	6.97162387091183e+17
19064.0	6.970290246516736e+17
19065.0	6.968961947489619e+17
19066.0	6.967638841010857e+17
19067.0	6.966315926071977e+17
19068.0	6.964989462052861e+17
19069.0	6.963663306315092e+17
19070.0	6.962336747924137e+17
19071.0	6.961011521224703e+17
19072.0	6.959685967369556e+17
19073.0	6.958360349201748e+17
19074.0	6.957035534243155e+17
19075.0	6.955710664758612e+17
19076.0	6.954384680288255e+17
19077.0	6.95306109915409e+17
19078.0	6.951732426134868e+17
19079.0	6.950413310536361e+17
19080.0	6.949089579106304e+17
19081.0	6.947765910590803e+17
19082.0	6.946438028197888e+17
19083.0	6.945113872444073e+17
19084.0	6.94378239762978e+17
19085.0	6.94247414178338e+17
19086.0	6.941132390225236e+17
19087.0	6.939825646425428e+17
19088.0	6.938503831093247e+17
19089.0	6.937173885801812e+17
19090.0	6.935864314342057e+17
19091.0	6.934541460220585e+17
19092.0	6.933218260069033e+17
19093.0	6.931901368150697e+17
19094.0	6.930561739609427e+17
19095.0	6.929236587708415e+17
19096.0	6.927938872847018e+17
19097.0	6.926620433230505e+17
19098.0	6.925300926163625e+17
19099.0	6.923980989180586e+17
19100.0	6.922662231496019e+17
19101.0	6.921343431868415e+17
19102.0	6.920020133849769e+17
19103.0	6.918706287695187e+17
19104.0	6.917388064784383e+17
19105.0	6.916070036908713e+17
19106.0	6.91475153297954e+17
19107.0	6.913433907757055e+17
19108.0	6.912117421288106e+17
19109.0	6.910782886029993e+17
19110.0	6.909483403968511e+17
19111.0	6.908166903518547e+17
19112.0	6.906850519110995e+17
19113.0	6.905534389157887e+17
19114.0	6.904219133717161e+17
19115.0	6.90290203697698e+17
19116.0	6.901587993690111e+17
19117.0	6.900271918262953e+17
19118.0	6.898952021125801e+17
19119.0	6.89752170054724e+17
19120.0	6.896327559129769e+17
19121.0	6.895013532620116e+17
19122.0	6.893700173004799e+17
19123.0	6.892384561048233e+17
19124.0	6.891072478598483e+17
19125.0	6.889759084729684e+17
19126.0	6.888445019772244e+17
19127.0	6.887042971598847e+17
19128.0	6.885815594516479e+17
19129.0	6.884502741712895e+17
19130.0	6.88319582315042e+17
19131.0	6.881883778449407e+17
19132.0	6.880571872160425e+17
19133.0	6.879221669778772e+17
19134.0	6.877949278726825e+17
19135.0	6.876638155374591e+17
19136.0	6.875327320031231e+17
19137.0	6.874007938793471e+17
19138.0	6.872702474256384e+17
19139.0	6.871396009377792e+17
19140.0	6.87008607511074e+17
19141.0	6.868776344267434e+17
19142.0	6.867466738554195e+17
19143.0	6.86615441842722e+17
19144.0	6.864848240858452e+17
19145.0	6.863539534124372e+17
19146.0	6.86219936801314e+17
19147.0	6.860917796328788e+17
19148.0	6.859614150022484e+17
19149.0	6.858306180087807e+17
19150.0	6.856997719419562e+17
19151.0	6.855690914103295e+17
19152.0	6.854381162288468e+17
19153.0	6.853076439444138e+17
19154.0	6.851762490529108e+17
19155.0	6.850462770790397e+17
19156.0	6.849156130450089e+17
19157.0	6.84784975225378e+17
19158.0	6.846531446155946e+17
19159.0	6.845236907081727e+17
19160.0	6.843929517359103e+17
19161.0	6.842626732283219e+17
19162.0	6.841294366878378e+17
19163.0	6.840016491773951e+17
19164.0	6.838711767531519e+17
19165.0	6.837406678384637e+17
19166.0	6.836097074069503e+17
19167.0	6.834795887722495e+17
19168.0	6.833483099930621e+17
19169.0	6.832184660153684e+17
19170.0	6.830886807579304e+17
19171.0	6.829582202175487e+17
19172.0	6.828280168579072e+17
19173.0	6.826977068930387e+17
19174.0	6.825671196846761e+17
19175.0	6.824371526041599e+17
19176.0	6.823068995420159e+17
19177.0	6.821758430609405e+17
19178.0	6.820464241759572e+17
19179.0	6.819160848509609e+17
19180.0	6.817854955454461e+17
19181.0	6.816553740446378e+17
19182.0	6.815246451387049e+17
19183.0	6.813955851463337e+17
19184.0	6.812645358654804e+17
19185.0	6.811353763981993e+17
19186.0	6.810053661163519e+17
19187.0	6.808749163413503e+17
19188.0	6.807452513206272e+17
19189.0	6.806152534818815e+17
19190.0	6.80485257880098e+17
19191.0	6.803552339667626e+17
19192.0	6.80225235009536e+17
19193.0	6.800947264443732e+17
19194.0	6.799651534187177e+17
19195.0	6.798354367381504e+17
19196.0	6.79705473921843e+17
19197.0	6.795755744395263e+17
19198.0	6.794457246597119e+17
19199.0	6.792992153141247e+17
19200.0	6.791752090386432e+17
19201.0	6.790561648345087e+17
19202.0	6.789263519645693e+17
19203.0	6.787965403529215e+17
19204.0	6.786665966206975e+17
19205.0	6.785369395691519e+17
19206.0	6.784071023722495e+17
19207.0	6.782773652094975e+17
19208.0	6.781464343478271e+17
19209.0	6.780178984337407e+17
19210.0	6.778881388314623e+17
19211.0	6.777583288975359e+17
19212.0	6.776287243446953e+17
19213.0	6.774984835159382e+17
19214.0	6.773687029421396e+17
19215.0	6.772395803847338e+17
19216.0	6.771094918791168e+17
19217.0	6.769802739711999e+17
19218.0	6.768462007369727e+17
19219.0	6.767200427835392e+17
19220.0	6.765913380487167e+17
19221.0	6.764599205778771e+17
19222.0	6.763320680557225e+17
19223.0	6.762024182743037e+17
19224.0	6.760720628711423e+17
19225.0	6.75942213301043e+17
19226.0	6.758135861608447e+17
19227.0	6.756839870605993e+17
19228.0	6.755543846049108e+17
19229.0	6.754247814501716e+17
19230.0	6.752951520111273e+17
19231.0	6.751655827603455e+17
19232.0	6.750353066295295e+17
19233.0	6.749062685174442e+17
19234.0	6.747766513816915e+17
19235.0	6.7464720285696e+17
19236.0	6.745176005410815e+17
19237.0	6.743879164362751e+17
19238.0	6.742578939210409e+17
19239.0	6.741288123979091e+17
19240.0	6.739969810890751e+17
19241.0	6.738689843527679e+17
19242.0	6.737399776280575e+17
19243.0	6.736093055549439e+17
19244.0	6.734806837275306e+17
19245.0	6.733510769377279e+17
19246.0	6.732213581600084e+17
19247.0	6.730916924402346e+17
19248.0	6.729621363316052e+17
19249.0	6.728324558618623e+17
19250.0	6.727027421872127e+17
19251.0	6.725725919554217e+17
19252.0	6.724412505412948e+17
19253.0	6.723135917260799e+17
19254.0	6.721835676729343e+17
19255.0	6.720529408983039e+17
19256.0	6.719242877534207e+17
19257.0	6.717945757564928e+17
19258.0	6.716647272349695e+17
19259.0	6.715344776680788e+17
19260.0	6.714049055511891e+17
19261.0	6.712752071857491e+17
19262.0	6.711453048373247e+17
19263.0	6.710152545697791e+17
19264.0	6.708828349399039e+17
19265.0	6.70754426462754e+17
19266.0	6.706247265594026e+17
19267.0	6.704953944965119e+17
19268.0	6.703653186437119e+17
19269.0	6.702352146890751e+17
19270.0	6.701050622902271e+17
19271.0	6.699731667386368e+17
19272.0	6.698444714409983e+17
19273.0	6.69657559413555e+17
19274.0	6.695571525992447e+17
19275.0	6.694537548267519e+17
19276.0	6.693233654497279e+17
19277.0	6.691929259507711e+17
19278.0	6.690624362599764e+17
19279.0	6.689316359809706e+17
19280.0	6.688008705845929e+17
19281.0	6.686700331160916e+17
19282.0	6.685385214132223e+17
19283.0	6.684074868823379e+17
19284.0	6.682764076122111e+17
19285.0	6.681448105552553e+17
19286.0	6.68015056265762e+17
19287.0	6.678840277467133e+17
19288.0	6.677494162434729e+17
19289.0	6.676106465771519e+17
19290.0	6.674904799772671e+17
19291.0	6.673576235106303e+17
19292.0	6.672276958565716e+17
19293.0	6.670961472438271e+17
19294.0	6.669645866773162e+17
19295.0	6.668328837141844e+17
19296.0	6.667010813460479e+17
19297.0	6.665676148877994e+17
19298.0	6.664350583838035e+17
19299.0	6.663029429108733e+17
19300.0	6.661707110460073e+17
19301.0	6.660383184693929e+17
19302.0	6.659058476690089e+17
19303.0	6.657726770490025e+17
19304.0	6.656401278151337e+17
19305.0	6.655076902895615e+17
19306.0	6.653746984867156e+17
19307.0	6.652414021074943e+17
19308.0	6.651082304389119e+17
19309.0	6.649742924709887e+17
19310.0	6.648402953633792e+17
19311.0	6.647071142576127e+17
19312.0	6.645732517871615e+17
19313.0	6.644376855205204e+17
19314.0	6.643000901195091e+17
19315.0	6.641659332089172e+17
19316.0	6.640356117796179e+17
19317.0	6.639006932533247e+17
19318.0	6.637655192939176e+17
19319.0	6.63630132683298e+17
19320.0	6.6349412398749e+17
19321.0	6.63358620705314e+17
19322.0	6.63221568536576e+17
19323.0	6.630858346375849e+17
19324.0	6.629494399259988e+17
19325.0	6.62812151058705e+17
19326.0	6.626752472285183e+17
19327.0	6.625376117019988e+17
19328.0	6.623998397906943e+17
19329.0	6.622616368447487e+17
19330.0	6.62122875846656e+17
19331.0	6.619841855225855e+17
19332.0	6.618449427387732e+17
19333.0	6.617052993989289e+17
19334.0	6.615647805680298e+17
19335.0	6.61424792875827e+17
19336.0	6.612838841144659e+17
19337.0	6.611424807747583e+17
19338.0	6.609989203045034e+17
19339.0	6.608576560059734e+17
19340.0	6.60714604864034e+17
19341.0	6.605714787139583e+17
19342.0	6.604254025001642e+17
19343.0	6.602831728126634e+17
19344.0	6.601381265801215e+17
19345.0	6.599811404223827e+17
19346.0	6.598434087763967e+17
19347.0	6.596987298250751e+17
19348.0	6.595514273366015e+17
19349.0	6.594029867936425e+17
19350.0	6.592537674383359e+17
19351.0	6.591037629093203e+17
19352.0	6.589528296914943e+17
19353.0	6.588011839313236e+17
19354.0	6.586490583427754e+17
19355.0	6.584945399737001e+17
19356.0	6.583389648497321e+17
19357.0	6.581832523623082e+17
19358.0	6.580248228047529e+17
19359.0	6.57863577051682e+17
19360.0	6.577073709645823e+17
19361.0	6.575454648882516e+17
19362.0	6.573813874207402e+17
19363.0	6.572183629332479e+17
19364.0	6.570538525436585e+17
19365.0	6.568879062340948e+17
19366.0	6.567203614752767e+17
19367.0	6.565511241050793e+17
19368.0	6.563801305797972e+17
19369.0	6.562062834597887e+17
19370.0	6.56025622413312e+17
19371.0	6.558556705434281e+17
19372.0	6.556766927410516e+17
19373.0	6.554954530204329e+17
19374.0	6.553088889105065e+17
19375.0	6.551222409145001e+17
19376.0	6.54933507510545e+17
19377.0	6.547419551148714e+17
19378.0	6.545474908236458e+17
19379.0	6.543499012866047e+17
19380.0	6.541490300562089e+17
19381.0	6.539446781826388e+17
19382.0	6.537361206105427e+17
19383.0	6.535241213323946e+17
19384.0	6.533049999163391e+17
19385.0	6.530840157399722e+17
19386.0	6.52859103388194e+17
19387.0	6.526235234533373e+17
19388.0	6.523877753967956e+17
19389.0	6.521472590457513e+17
19390.0	6.518988750192639e+17
19391.0	6.51628361425442e+17
19392.0	6.513814226163027e+17
19393.0	6.511152516650323e+17
19394.0	6.508414842699776e+17
19395.0	6.505551148089343e+17
19396.0	6.502628338958335e+17
19397.0	6.499561672190634e+17
19398.0	6.496428974495059e+17
19399.0	6.493136494788607e+17
19400.0	6.489869530431487e+17
19401.0	6.48642325258786e+17
19402.0	6.482777235696297e+17
19403.0	6.478957871715667e+17
19404.0	6.475036476396884e+17
19405.0	6.471040126768467e+17
19406.0	6.466840869994495e+17
19407.0	6.462350968924842e+17
19408.0	6.457782045070676e+17
19409.0	6.453076137345023e+17
19410.0	6.447922753306624e+17
19411.0	6.4427264049152e+17
19412.0	6.437107438452736e+17
19413.0	6.431168549355519e+17
19414.0	6.424836765122559e+17
19415.0	6.418317400429908e+17
19416.0	6.411292742341971e+17
19417.0	6.403796120196435e+17
19418.0	6.395683808477183e+17
19419.0	6.387154695487487e+17
19420.0	6.378043396325373e+17
19421.0	6.368443995521024e+17
19422.0	6.358867164266495e+17
19423.0	6.348449391837183e+17
19424.0	6.33741001167121e+17
19425.0	6.325370714324991e+17
19426.0	6.312327696962899e+17
19427.0	6.298289288773632e+17
19428.0	6.282763800586921e+17
19429.0	6.265898305672531e+17
19430.0	6.246986925735935e+17
19431.0	6.226021401493505e+17
19432.0	6.20507207775027e+17
19433.0	6.184113409097728e+17
19434.0	6.161087305788073e+17
19435.0	6.135747177698643e+17
19436.0	6.107758680779434e+17
19437.0	6.076217430114303e+17
19438.0	6.040286448145748e+17
19439.0	5.99867813317837e+17
19440.0	5.957161195317932e+17
19441.0	5.91371209889109e+17
19442.0	5.864849927394647e+17
19443.0	5.807880207510186e+17
19444.0	5.7406059236556755e+17
19445.0	5.670600606831959e+17
19446.0	5.590589071775059e+17
19447.0	5.49498852509832e+17
19448.0	5.38504097151932e+17
19449.0	5.234742248428886e+17
19450.0	4.9363926451049555e+17
19451.0	4.84062060172629e+17
19452.0	5.099788862575962e+17
19453.0	5.318134088422748e+17
19454.0	5.4388851212287936e+17
19455.0	5.537833122354517e+17
19456.0	5.623667718007469e+17
19457.0	5.69482178688887e+17
19458.0	5.762008712478717e+17
19459.0	5.82181886815983e+17
19460.0	5.871982221808979e+17
19461.0	5.915616957431807e+17
19462.0	5.954669172665005e+17
19463.0	5.99512376881971e+17
19464.0	6.031356979052544e+17
19465.0	6.06238784094208e+17
19466.0	6.089613094770003e+17
19467.0	6.113776071169364e+17
19468.0	6.135378093626708e+17
19469.0	6.154842573635581e+17
19470.0	6.172986063192064e+17
19471.0	6.192012841713665e+17
19472.0	6.209311844510377e+17
19473.0	6.224799428072788e+17
19474.0	6.238403773333504e+17
19475.0	6.250577412838739e+17
19476.0	6.261671990744404e+17
19477.0	6.271635977229652e+17
19478.0	6.280677063742803e+17
19479.0	6.288971934640809e+17
19480.0	6.2964066418688e+17
19481.0	6.303475273039872e+17
19482.0	6.310330521791145e+17
19483.0	6.31663732335138e+17
19484.0	6.322498406711296e+17
19485.0	6.327755830460415e+17
19486.0	6.33245887627264e+17
19487.0	6.33679311413794e+17
19488.0	6.340703727299242e+17
19489.0	6.344295682408447e+17
19490.0	6.34757341913634e+17
19491.0	6.350529049395199e+17
19492.0	6.353184677866153e+17
19493.0	6.355670814512467e+17
19494.0	6.357809369885354e+17
19495.0	6.359795286147071e+17
19496.0	6.3616599996061e+17
19497.0	6.363292395459923e+17
19498.0	6.364744411075924e+17
19499.0	6.365882334838781e+17
19500.0	6.367352560025599e+17
19501.0	6.368469803073535e+17
19502.0	6.36936573297186e+17
19503.0	6.370135902257152e+17
19504.0	6.370865372113578e+17
19505.0	6.371452255207423e+17
19506.0	6.372007732051967e+17
19507.0	6.372410200686591e+17
19508.0	6.372767632282963e+17
19509.0	6.372997752072874e+17
19510.0	6.373146728857599e+17
19511.0	6.373095598194687e+17
19512.0	6.373274095889065e+17
19513.0	6.373239581660499e+17
19514.0	6.373190042036905e+17
19515.0	6.373066730897407e+17
19516.0	6.372913604547924e+17
19517.0	6.372725581589161e+17
19518.0	6.372449318862847e+17
19519.0	6.372131249411412e+17
19520.0	6.371807870670163e+17
19521.0	6.37141216535074e+17
19522.0	6.370979927643476e+17
19523.0	6.370515934161578e+17
19524.0	6.370019989170857e+17
19525.0	6.369490433125033e+17
19526.0	6.368939969871872e+17
19527.0	6.368360171656532e+17
19528.0	6.367755549452969e+17
19529.0	6.367126538070697e+17
19530.0	6.366474857174356e+17
19531.0	6.365816547180544e+17
19532.0	6.365140245020672e+17
19533.0	6.364427543991635e+17
19534.0	6.363696411093674e+17
19535.0	6.362947778860372e+17
19536.0	6.362182121248086e+17
19537.0	6.361401259283795e+17
19538.0	6.360603272675327e+17
19539.0	6.359763831663274e+17
19540.0	6.358969888363859e+17
19541.0	6.358132624195583e+17
19542.0	6.357282728880809e+17
19543.0	6.356421009823059e+17
19544.0	6.3555479549597e+17
19545.0	6.354646175405395e+17
19546.0	6.353718898677075e+17
19547.0	6.352863520008873e+17
19548.0	6.351954840824489e+17
19549.0	6.351058780203689e+17
19550.0	6.350135323088212e+17
19551.0	6.349196000318804e+17
19552.0	6.34824854479394e+17
19553.0	6.347292617474047e+17
19554.0	6.346329357811711e+17
19555.0	6.345362266652671e+17
19556.0	6.344387763459412e+17
19557.0	6.343428348575744e+17
19558.0	6.342440269818538e+17
19559.0	6.341444206504617e+17
19560.0	6.340446689165311e+17
19561.0	6.339455947724116e+17
19562.0	6.338445535696212e+17
19563.0	6.337429510291455e+17
19564.0	6.336410345450153e+17
19565.0	6.335385886698153e+17
19566.0	6.334355869794303e+17
19567.0	6.333322939946324e+17
19568.0	6.332286444240896e+17
19569.0	6.331244872728576e+17
19570.0	6.330200350523391e+17
19571.0	6.329151799689215e+17
19572.0	6.328099823506772e+17
19573.0	6.327043608980137e+17
19574.0	6.32598188593425e+17
19575.0	6.324923958034432e+17
19576.0	6.323859707221332e+17
19577.0	6.322785633348265e+17
19578.0	6.321719790796799e+17
19579.0	6.32064921707042e+17
19580.0	6.319573752785578e+17
19581.0	6.318494941446144e+17
19582.0	6.317415689704787e+17
19583.0	6.316333172697769e+17
19584.0	6.315248404747604e+17
19585.0	6.314157070614527e+17
19586.0	6.313063738594643e+17
19587.0	6.311978658867882e+17
19588.0	6.310861868105727e+17
19589.0	6.309792362528765e+17
19590.0	6.308695903655252e+17
19591.0	6.307600264768169e+17
19592.0	6.306500536434685e+17
19593.0	6.305399466622975e+17
19594.0	6.304283033075711e+17
19595.0	6.303192322495827e+17
19596.0	6.302047225075027e+17
19597.0	6.300979835524438e+17
19598.0	6.299861397099859e+17
19599.0	6.29876219585058e+17
19600.0	6.297653823755604e+17
19601.0	6.296544321994751e+17
19602.0	6.295431180976127e+17
19603.0	6.294296453971965e+17
19604.0	6.293203651832489e+17
19605.0	6.292071366612308e+17
19606.0	6.290969370558464e+17
19607.0	6.289852377770666e+17
19608.0	6.28873323819827e+17
19609.0	6.287612104234323e+17
19610.0	6.286492752849577e+17
19611.0	6.285370917737812e+17
19612.0	6.284248795316223e+17
19613.0	6.283125351688873e+17
19614.0	6.282001832564052e+17
19615.0	6.280877290029056e+17
19616.0	6.279750882426879e+17
19617.0	6.27862609662225e+17
19618.0	6.277473821349204e+17
19619.0	6.276336312123391e+17
19620.0	6.275211290738687e+17
19621.0	6.274116657086463e+17
19622.0	6.272987869216767e+17
19623.0	6.271858599701161e+17
19624.0	6.270728837354836e+17
19625.0	6.269598544429055e+17
19626.0	6.268467883802623e+17
19627.0	6.267336726151167e+17
19628.0	6.266201575522303e+17
19629.0	6.265068436062207e+17
19630.0	6.263938649948159e+17
19631.0	6.262638034026495e+17
19632.0	6.261675017633791e+17
19633.0	6.260541565698047e+17
19634.0	6.259407908241407e+17
19635.0	6.258273883783168e+17
19636.0	6.257139557335039e+17
19637.0	6.255981700841472e+17
19638.0	6.254869623078912e+17
19639.0	6.253734663290879e+17
19640.0	6.252599101620223e+17
19641.0	6.251434926407679e+17
19642.0	6.250328141856767e+17
19643.0	6.249190731197098e+17
19644.0	6.248054148912468e+17
19645.0	6.246905501712383e+17
19646.0	6.245782855701844e+17
19647.0	6.244646093761193e+17
19648.0	6.243509172436992e+17
19649.0	6.242371924656127e+17
19650.0	6.241234915950591e+17
19651.0	6.240097598963712e+17
19652.0	6.238960154050559e+17
19653.0	6.237822495227903e+17
19654.0	6.236684968525823e+17
19655.0	6.235546985343657e+17
19656.0	6.234408958121302e+17
19657.0	6.233271392272383e+17
19658.0	6.23213348528674e+17
19659.0	6.230995364391594e+17
19660.0	6.229857304313855e+17
19661.0	6.228719148466173e+17
19662.0	6.227580969549823e+17
19663.0	6.226440519417853e+17
19664.0	6.22530378474018e+17
19665.0	6.224166170656768e+17
