# Flux units: erg / (cm m2 s)
# Wavelength units: Angstrom
wave	flux
19000.0	5.203859395837952e+17
19001.0	5.2027510880556365e+17
19002.0	5.2019553251273363e+17
19003.0	5.200994887532543e+17
19004.0	5.2000388511607443e+17
19005.0	5.1990731343353165e+17
19006.0	5.198127376105471e+17
19007.0	5.197178253344767e+17
19008.0	5.196129107618473e+17
19009.0	5.195133493794132e+17
19010.0	5.193488641556479e+17
19011.0	5.193307056854356e+17
19012.0	5.192078248815273e+17
19013.0	5.1914513793242445e+17
19014.0	5.1904254253028685e+17
19015.0	5.189473857262932e+17
19016.0	5.188498405457919e+17
19017.0	5.1876486387684685e+17
19018.0	5.186667344997034e+17
19019.0	5.185730143147349e+17
19020.0	5.1847663550027085e+17
19021.0	5.183840154113364e+17
19022.0	5.182881775222783e+17
19023.0	5.181877946155007e+17
19024.0	5.1809313630453754e+17
19025.0	5.1800182085386214e+17
19026.0	5.179025232931498e+17
19027.0	5.177952001414485e+17
19028.0	5.1771846472062285e+17
19029.0	5.17620528001843e+17
19030.0	5.1752954019621536e+17
19031.0	5.174352981699242e+17
19032.0	5.173389701764436e+17
19033.0	5.172305986584575e+17
19034.0	5.171472251224064e+17
19035.0	5.170438613936809e+17
19036.0	5.154992513439055e+17
19037.0	5.1685939646300154e+17
19038.0	5.167668414556841e+17
19039.0	5.166755275429205e+17
19040.0	5.1658167041392634e+17
19041.0	5.164857192087551e+17
19042.0	5.163220713078782e+17
19043.0	5.162980505987753e+17
19044.0	5.16201600131618e+17
19045.0	5.1610753496514554e+17
19046.0	5.160038598792533e+17
19047.0	5.159167109802665e+17
19048.0	5.157795454255102e+17
19049.0	5.1560451411367226e+17
19050.0	5.156256901059925e+17
19051.0	5.153282783008081e+17
19052.0	5.154138314768383e+17
19053.0	5.1535177702877856e+17
19054.0	5.152572238550357e+17
19055.0	5.1510809768318285e+17
19056.0	5.150585137397759e+17
19057.0	5.1497344409709216e+17
19058.0	5.1481881052446694e+17
19059.0	5.1476199783792634e+17
19060.0	5.146876722544639e+17
19061.0	5.145971456824662e+17
19062.0	5.1450198538321914e+17
19063.0	5.1440800787770016e+17
19064.0	5.1429458446035616e+17
19065.0	5.141942713188351e+17
19066.0	5.1409556124030285e+17
19067.0	5.1402952989300045e+17
19068.0	5.139371276282538e+17
19069.0	5.138431843762175e+17
19070.0	5.137443449034067e+17
19071.0	5.13653406241041e+17
19072.0	5.135380256915455e+17
19073.0	5.134659296602794e+17
19074.0	5.133726606426111e+17
19075.0	5.1327859386832205e+17
19076.0	5.131813172630869e+17
19077.0	5.1308775925787296e+17
19078.0	5.129893616549887e+17
19079.0	5.1290210174675616e+17
19080.0	5.128064941948927e+17
19081.0	5.127075181974868e+17
19082.0	5.1261397214603936e+17
19083.0	5.1251344285805216e+17
19084.0	5.1240185172241056e+17
19085.0	5.123365585027072e+17
19086.0	5.1216221226052256e+17
19087.0	5.120695565899092e+17
19088.0	5.1201487433018016e+17
19089.0	5.1192112338698234e+17
19090.0	5.118650884642132e+17
19091.0	5.1176743514057376e+17
19092.0	5.116238300708864e+17
19093.0	5.115886928483668e+17
19094.0	5.114948535451647e+17
19095.0	5.1140158788293965e+17
19096.0	5.113052566039211e+17
19097.0	5.112139500311893e+17
19098.0	5.1109538614476794e+17
19099.0	5.10997139886353e+17
19100.0	5.109283909096788e+17
19101.0	5.1083859037170336e+17
19102.0	5.107255049453566e+17
19103.0	5.106519925675349e+17
19104.0	5.1055951158968314e+17
19105.0	5.1041222573861555e+17
19106.0	5.103661455070547e+17
19107.0	5.102624277790718e+17
19108.0	5.1016505058044576e+17
19109.0	5.100090536493055e+17
19110.0	5.0999470975877114e+17
19111.0	5.098897865179135e+17
19112.0	5.097941496059221e+17
19113.0	5.097181676219049e+17
19114.0	5.096147439845374e+17
19115.0	5.095200156986027e+17
19116.0	5.094358691523242e+17
19117.0	5.093420857731754e+17
19118.0	5.092331713025364e+17
19119.0	5.0757544905277184e+17
19120.0	5.0905146265873056e+17
19121.0	5.089645129891839e+17
19122.0	5.0887999370909005e+17
19123.0	5.087869792856747e+17
19124.0	5.0868777595699194e+17
19125.0	5.086001406585513e+17
19126.0	5.0850553358800205e+17
19127.0	5.0812374371095866e+17
19128.0	5.0831355854629536e+17
19129.0	5.082165475803135e+17
19130.0	5.081334112321535e+17
19131.0	5.080422503415807e+17
19132.0	5.079492196302847e+17
19133.0	5.0784797549308576e+17
19134.0	5.0776116479481165e+17
19135.0	5.07670281846784e+17
19136.0	5.075783737409535e+17
19137.0	5.0745965487499936e+17
19138.0	5.073903828686166e+17
19139.0	5.0729995668029434e+17
19140.0	5.072073959407615e+17
19141.0	5.071146496032766e+17
19142.0	5.0701795265085434e+17
19143.0	5.0691952205277856e+17
19144.0	5.068308436309331e+17
19145.0	5.067432511143935e+17
19146.0	5.065558377977174e+17
19147.0	5.0654278295661216e+17
19148.0	5.0644583015164576e+17
19149.0	5.0634934466205005e+17
19150.0	5.0627947853250554e+17
19151.0	5.0618725934912845e+17
19152.0	5.0609373965189114e+17
19153.0	5.0595996847745683e+17
19154.0	5.058861231418026e+17
19155.0	5.0581734075050656e+17
19156.0	5.0572484942670496e+17
19157.0	5.056162268796245e+17
19158.0	5.054585399235924e+17
19159.0	5.054437359179093e+17
19160.0	5.0535296467817805e+17
19161.0	5.052619761734996e+17
19162.0	5.050406100358485e+17
19163.0	5.050724529121962e+17
19164.0	5.0498552120825165e+17
19165.0	5.04845746516787e+17
19166.0	5.0477674294586016e+17
19167.0	5.046971595227136e+17
19168.0	5.0461588810192205e+17
19169.0	5.0452178267013114e+17
19170.0	5.044326479080107e+17
19171.0	5.0433187877573965e+17
19172.0	5.0424744617792845e+17
19173.0	5.041560404099071e+17
19174.0	5.040544984771242e+17
19175.0	5.039717024268287e+17
19176.0	5.038796799563093e+17
19177.0	5.037643560299177e+17
19178.0	5.036922166575103e+17
19179.0	5.035922944950272e+17
19180.0	5.035103482806271e+17
19181.0	5.033950411314515e+17
19182.0	5.0332503707921056e+17
19183.0	5.032362446422014e+17
19184.0	5.0314371018697363e+17
19185.0	5.030507206497621e+17
19186.0	5.0296019128156154e+17
19187.0	5.028593432264702e+17
19188.0	5.027760743383039e+17
19189.0	5.026851751723007e+17
19190.0	5.025927596954964e+17
19191.0	5.0249562129257805e+17
19192.0	5.024094742730068e+17
19193.0	5.0231136838396576e+17
19194.0	5.022153171446442e+17
19195.0	5.0213331766258336e+17
19196.0	5.020382475408725e+17
19197.0	5.019461336345257e+17
19198.0	5.018469674254335e+17
19199.0	5.0096419610733203e+17
19200.0	5.011158101306029e+17
19201.0	5.015732491037354e+17
19202.0	5.0148959685618336e+17
19203.0	5.0139719459143674e+17
19204.0	5.0130413675697485e+17
19205.0	5.012160672082601e+17
19206.0	5.011238455083007e+17
19207.0	5.010177190614357e+17
19208.0	5.00902401356595e+17
19209.0	5.0084999275915936e+17
19210.0	5.007589380543828e+17
19211.0	5.006695375831038e+17
19212.0	5.005775105687551e+17
19213.0	5.004680933408766e+17
19214.0	5.0037135178902176e+17
19215.0	5.003006418354175e+17
19216.0	5.0021246931653965e+17
19217.0	5.001195822601556e+17
19218.0	4.999017429729278e+17
19219.0	4.999166888159914e+17
19220.0	4.9984306549882874e+17
19221.0	4.9970530540148064e+17
19222.0	4.996631718701738e+17
19223.0	4.995699796082686e+17
19224.0	4.9947572227276794e+17
19225.0	4.993681729781759e+17
19226.0	4.992964086464511e+17
19227.0	4.9920587019059194e+17
19228.0	4.991182012678143e+17
19229.0	4.990269325836287e+17
19230.0	4.9893455960910496e+17
19231.0	4.988428929553749e+17
19232.0	4.9875250255844685e+17
19233.0	4.986521829856596e+17
19234.0	4.9856788481529165e+17
19235.0	4.984755973346645e+17
19236.0	4.983893764254378e+17
19237.0	4.982955464196095e+17
19238.0	4.981918955907755e+17
19239.0	4.981168510337023e+17
19240.0	4.980250441504085e+17
19241.0	4.979316992158378e+17
19242.0	4.978417396438356e+17
19243.0	4.977298690277374e+17
19244.0	4.9766241839786656e+17
19245.0	4.9757071874894496e+17
19246.0	4.97478020436241e+17
19247.0	4.973885030836906e+17
19248.0	4.972991163138047e+17
19249.0	4.972062101034326e+17
19250.0	4.9710611618420045e+17
19251.0	4.9700215085247123e+17
19252.0	4.9689490746245114e+17
19253.0	4.968406670027434e+17
19254.0	4.9675443560775674e+17
19255.0	4.9663631911376205e+17
19256.0	4.965688951876265e+17
19257.0	4.964820684111872e+17
19258.0	4.9639161209378125e+17
19259.0	4.9629049126911994e+17
19260.0	4.961749891547135e+17
19261.0	4.9611768363745274e+17
19262.0	4.960198366068735e+17
19263.0	4.9592738519886496e+17
19264.0	4.957561670686035e+17
19265.0	4.9572273776667296e+17
19266.0	4.9561164931836595e+17
19267.0	4.955763009825451e+17
19268.0	4.9548475659277645e+17
19269.0	4.953946688148821e+17
19270.0	4.9530396468401485e+17
19271.0	4.9515729931031904e+17
19272.0	4.9511804971253754e+17
19273.0	4.9497455131798163e+17
19274.0	4.948744942387198e+17
19275.0	4.9485231168334496e+17
19276.0	4.9475879827756365e+17
19277.0	4.946693351713451e+17
19278.0	4.945783235979946e+17
19279.0	4.9448622024731296e+17
19280.0	4.943851894603774e+17
19281.0	4.943069439503017e+17
19282.0	4.9421903895811405e+17
19283.0	4.941178753515519e+17
19284.0	4.940327151818069e+17
19285.0	4.939225020148393e+17
19286.0	4.9385150761751885e+17
19287.0	4.937656346258089e+17
19288.0	4.9329033791406035e+17
19289.0	4.9259883559649094e+17
19290.0	4.934943987728383e+17
19291.0	4.933685075771394e+17
19292.0	4.933157607090857e+17
19293.0	4.932245157227178e+17
19294.0	4.931333774813866e+17
19295.0	4.9304509395326285e+17
19296.0	4.929289280203435e+17
19297.0	4.9285555195740154e+17
19298.0	4.927694322707114e+17
19299.0	4.9265505367053645e+17
19300.0	4.9259116547276794e+17
19301.0	4.925022180562262e+17
19302.0	4.9241073189737805e+17
19303.0	4.9231027181540685e+17
19304.0	4.92227031937843e+17
19305.0	4.92138824536337e+17
19306.0	4.9204964489516365e+17
19307.0	4.9194802334050976e+17
19308.0	4.918594572561066e+17
19309.0	4.917424988793514e+17
19310.0	4.916413611376639e+17
19311.0	4.915843083971242e+17
19312.0	4.9150039785035085e+17
19313.0	4.9141015502301856e+17
19314.0	4.881371445766818e+17
19315.0	4.883327904033499e+17
19316.0	4.9110255874867194e+17
19317.0	4.9104838288124576e+17
19318.0	4.9095860093801805e+17
19319.0	4.908707341839017e+17
19320.0	4.9076974757696845e+17
19321.0	4.906678602432511e+17
19322.0	4.905877300226731e+17
19323.0	4.904969801039871e+17
19324.0	4.9041660605453645e+17
19325.0	4.903005563737428e+17
19326.0	4.902371232579583e+17
19327.0	4.9014457265466016e+17
19328.0	4.900096121154219e+17
19329.0	4.899667106769577e+17
19330.0	4.8986990320462496e+17
19331.0	4.8977815567073274e+17
19332.0	4.896944611306155e+17
19333.0	4.896015940670805e+17
19334.0	4.8951148790415354e+17
19335.0	4.893268247926102e+17
19336.0	4.8932942644947616e+17
19337.0	4.8923979696919885e+17
19338.0	4.8911714859963725e+17
19339.0	4.890576754660692e+17
19340.0	4.8892966656628045e+17
19341.0	4.8883235535803725e+17
19342.0	4.887132092323156e+17
19343.0	4.8869298520719354e+17
19344.0	4.8856600691780275e+17
19345.0	4.881493452477775e+17
19346.0	4.8828032972663443e+17
19347.0	4.8827310482827936e+17
19348.0	4.8823010398481056e+17
19349.0	4.881320511537151e+17
19350.0	4.8802419574483616e+17
19351.0	4.879470405440853e+17
19352.0	4.87803013247795e+17
19353.0	4.877700506320895e+17
19354.0	4.8767850575298554e+17
19355.0	4.875712865501184e+17
19356.0	4.874935629512704e+17
19357.0	4.874015539724287e+17
19358.0	4.873082401456127e+17
19359.0	4.8719838971603616e+17
19360.0	4.870800865056083e+17
19361.0	4.8702431952895994e+17
19362.0	4.869374327739732e+17
19363.0	4.868440842742442e+17
19364.0	4.867504107858602e+17
19365.0	4.866479682661034e+17
19366.0	4.865494375639722e+17
19367.0	4.8645128854350496e+17
19368.0	4.8635720037826554e+17
19369.0	4.8625516295837e+17
19370.0	4.861611946803198e+17
19371.0	4.860646585095508e+17
19372.0	4.859775521827498e+17
19373.0	4.858791621995178e+17
19374.0	4.857852494959957e+17
19375.0	4.8567629413089274e+17
19376.0	4.855786828201983e+17
19377.0	4.854801024155647e+17
19378.0	4.8538339875225594e+17
19379.0	4.852861984134486e+17
19380.0	4.8518823967457274e+17
19381.0	4.850869577886377e+17
19382.0	4.849700936439124e+17
19383.0	4.848646886872404e+17
19384.0	4.8477936123467085e+17
19385.0	4.846802596877653e+17
19386.0	4.845795652141055e+17
19387.0	4.844774614543017e+17
19388.0	4.8437455923882656e+17
19389.0	4.8427042291930445e+17
19390.0	4.841636821467136e+17
19391.0	4.826990238498794e+17
19392.0	4.839210006260393e+17
19393.0	4.838355478336853e+17
19394.0	4.837264948112042e+17
19395.0	4.836029213179904e+17
19396.0	4.835030471103829e+17
19397.0	4.833972025906517e+17
19398.0	4.832665867911168e+17
19399.0	4.830244650003112e+17
19400.0	4.8303068277637114e+17
19401.0	4.829186999626409e+17
19402.0	4.8278945192564045e+17
19403.0	4.8266456736290125e+17
19404.0	4.8254285264541005e+17
19405.0	4.8241338391811405e+17
19406.0	4.822827486849706e+17
19407.0	4.821102707255977e+17
19408.0	4.8185585766673094e+17
19409.0	4.818496580659883e+17
19410.0	4.8169665558828365e+17
19411.0	4.815258340294655e+17
19412.0	4.813737934454784e+17
19413.0	4.811690955418282e+17
19414.0	4.809993275921749e+17
19415.0	4.808018406058665e+17
19416.0	4.8056816782103885e+17
19417.0	4.8033297523015674e+17
19418.0	4.8010028475132576e+17
19419.0	4.79801153421312e+17
19420.0	4.7947918599345485e+17
19421.0	4.7919289189007354e+17
19422.0	4.7895586932435616e+17
19423.0	4.7871870436201805e+17
19424.0	4.7843710081870496e+17
19425.0	4.7815996952193696e+17
19426.0	4.7787503661001376e+17
19427.0	4.775170345882964e+17
19428.0	4.771862457002666e+17
19429.0	4.767514544308223e+17
19430.0	4.762782917809491e+17
19431.0	4.755239034246488e+17
19432.0	4.7509245131052365e+17
19433.0	4.7418033048999226e+17
19434.0	4.7291655607637325e+17
19435.0	4.711800701801807e+17
19436.0	4.701280449942867e+17
19437.0	4.6936496079721805e+17
19438.0	4.6576451131364717e+17
19439.0	4.673042003263489e+17
19440.0	4.6615660883258035e+17
19441.0	4.6456508758971706e+17
19442.0	4.618604558767435e+17
19443.0	4.5656912439541715e+17
19444.0	4.521445120715433e+17
19445.0	4.487832034869249e+17
19446.0	4.4503949272678406e+17
19447.0	4.391405128515596e+17
19448.0	4.259489769324567e+17
19449.0	4.136442192199678e+17
19450.0	3.775119830810672e+17
19451.0	3.5585658516931206e+17
19452.0	4.008589349879825e+17
19453.0	4.2022329647104064e+17
19454.0	4.325749637687986e+17
19455.0	4.421701555191809e+17
19456.0	4.46240456109807e+17
19457.0	4.4958616985272294e+17
19458.0	4.433792317347312e+17
19459.0	4.5823972686343046e+17
19460.0	4.619678854938623e+17
19461.0	4.638098052874241e+17
19462.0	4.649881129975807e+17
19463.0	4.659335655325696e+17
19464.0	4.66746643386641e+17
19465.0	4.674801548744021e+17
19466.0	4.6813001138831354e+17
19467.0	4.6937746387763155e+17
19468.0	4.707546474479615e+17
19469.0	4.715305021822291e+17
19470.0	4.721989153456127e+17
19471.0	4.726398162479787e+17
19472.0	4.7296162834677734e+17
19473.0	4.731992547524607e+17
19474.0	4.7337425663426554e+17
19475.0	4.734300561167699e+17
19476.0	4.737155810547028e+17
19477.0	4.738257199125845e+17
19478.0	4.7394314015211514e+17
19479.0	4.739944301985791e+17
19480.0	4.7408512677969914e+17
19481.0	4.7415932863119354e+17
19482.0	4.742873610889898e+17
19483.0	4.744222220834132e+17
19484.0	4.745429358302549e+17
19485.0	4.7459974921584646e+17
19486.0	4.7459823765859e+17
19487.0	4.7469722896520525e+17
19488.0	4.746923474944e+17
19489.0	4.747004817877674e+17
19490.0	4.744483776233468e+17
19491.0	4.746748139055785e+17
19492.0	4.74688521380386e+17
19493.0	4.746552698470398e+17
19494.0	4.7461732139226445e+17
19495.0	4.7458147323521696e+17
19496.0	4.7448117756996243e+17
19497.0	4.7450689137978016e+17
19498.0	4.7433791524481715e+17
19499.0	4.722028333148826e+17
19500.0	4.743574582547796e+17
19501.0	4.7431410285281274e+17
19502.0	4.742715551339861e+17
19503.0	4.7421680632463354e+17
19504.0	4.741571797494443e+17
19505.0	4.740952714029738e+17
19506.0	4.7403470152881485e+17
19507.0	4.7396646132121594e+17
19508.0	4.739057122104661e+17
19509.0	4.7383837133154976e+17
19510.0	4.737280759562239e+17
19511.0	4.685025040312959e+17
19512.0	4.7332371715850157e+17
19513.0	4.729199131972938e+17
19514.0	4.730628769579002e+17
19515.0	4.733461430534145e+17
19516.0	4.7335634485903354e+17
19517.0	4.7327838358295885e+17
19518.0	4.732093286318079e+17
19519.0	4.731339784497834e+17
19520.0	4.730332997047636e+17
19521.0	4.729995253514239e+17
19522.0	4.72921152753937e+17
19523.0	4.72846451151121e+17
19524.0	4.7275458310089376e+17
19525.0	4.7270086560098976e+17
19526.0	4.7262707835644576e+17
19527.0	4.725480702519978e+17
19528.0	4.7246859259521696e+17
19529.0	4.7240157118245536e+17
19530.0	4.7233091407708154e+17
19531.0	4.722527191782741e+17
19532.0	4.721742724115114e+17
19533.0	4.720955729379327e+17
19534.0	4.720161864373589e+17
19535.0	4.719345808703487e+17
19536.0	4.718517148450815e+17
19537.0	4.7177790851645434e+17
19538.0	4.7165076266461875e+17
19539.0	4.715221397886296e+17
19540.0	4.715419665432575e+17
19541.0	4.714620481350313e+17
19542.0	4.7138740413399034e+17
19543.0	4.712794330322262e+17
19544.0	4.712305235329023e+17
19545.0	4.710736248963069e+17
19546.0	4.709172641791998e+17
19547.0	4.7099075083195725e+17
19548.0	4.709099412739413e+17
19549.0	4.7081401481516365e+17
19550.0	4.7074725407839565e+17
19551.0	4.706662088704e+17
19552.0	4.70584495509777e+17
19553.0	4.7049922188410874e+17
19554.0	4.7041372435251194e+17
19555.0	4.703333826691071e+17
19556.0	4.702552659940693e+17
19557.0	4.701747123585023e+17
19558.0	4.7009299543272096e+17
19559.0	4.7001142663577594e+17
19560.0	4.699136965563732e+17
19561.0	4.698431898167977e+17
19562.0	4.697576569831423e+17
19563.0	4.696905014924629e+17
19564.0	4.696082039351977e+17
19565.0	4.695254290661375e+17
19566.0	4.694385618146645e+17
19567.0	4.693609023187626e+17
19568.0	4.692752474308607e+17
19569.0	4.6919251233778336e+17
19570.0	4.691131656131924e+17
19571.0	4.690299107060394e+17
19572.0	4.6894315159770445e+17
19573.0	4.688587702403071e+17
19574.0	4.687679899129171e+17
19575.0	4.686999312487766e+17
19576.0	4.6861492046615885e+17
19577.0	4.6852551342380365e+17
19578.0	4.684447967696212e+17
19579.0	4.683651744093524e+17
19580.0	4.682826386855253e+17
19581.0	4.682009107846485e+17
19582.0	4.681210604639573e+17
19583.0	4.680382335855274e+17
19584.0	4.6795447843771725e+17
19585.0	4.6785510621839354e+17
19586.0	4.677679639603883e+17
19587.0	4.6770130878027085e+17
19588.0	4.67546587267072e+17
19589.0	4.6753725829611514e+17
19590.0	4.674360385557845e+17
19591.0	4.6737365429562016e+17
19592.0	4.6729143796804256e+17
19593.0	4.672030537766228e+17
19594.0	4.670846765367296e+17
19595.0	4.6703852199608314e+17
19596.0	4.6694627792650234e+17
19597.0	4.6687510834708474e+17
19598.0	4.6670238711807974e+17
19599.0	4.667102132699136e+17
19600.0	4.6662878568120314e+17
19601.0	4.6653529506447354e+17
19602.0	4.664546851553279e+17
19603.0	4.663002362019838e+17
19604.0	4.662892578209791e+17
19605.0	4.661669960264362e+17
19606.0	4.661299058660693e+17
19607.0	4.6604834594706765e+17
19608.0	4.659627281088511e+17
19609.0	4.6587416209435296e+17
19610.0	4.657827399685461e+17
19611.0	4.656910452828843e+17
19612.0	4.6563379862568954e+17
19613.0	4.6554931129221114e+17
19614.0	4.654621383458815e+17
19615.0	4.653847725211647e+17
19616.0	4.652737018986496e+17
19617.0	4.651921515566421e+17
19618.0	4.650366711540393e+17
19619.0	4.649255427200339e+17
19620.0	4.6484773894007443e+17
19621.0	4.6485337916047354e+17
19622.0	4.648048869943977e+17
19623.0	4.6472040126873594e+17
19624.0	4.6463304034768205e+17
19625.0	4.64556375670784e+17
19626.0	4.644723883682474e+17
19627.0	4.643900743832917e+17
19628.0	4.6428615658700806e+17
19629.0	4.641264202241363e+17
19630.0	4.6408162960124595e+17
19631.0	4.6316794891905696e+17
19632.0	4.639706135745877e+17
19633.0	4.6388457504768e+17
19634.0	4.6381097347099296e+17
19635.0	4.637187729522687e+17
19636.0	4.6360730422039885e+17
19637.0	4.634789464244224e+17
19638.0	4.6347520895003296e+17
19639.0	4.6339649975965005e+17
19640.0	4.632994189585067e+17
19641.0	4.629974460574384e+17
19642.0	4.631461909670569e+17
19643.0	4.630632198744747e+17
19644.0	4.629747229261823e+17
19645.0	4.628561458976084e+17
19646.0	4.627789095370751e+17
19647.0	4.6273646660594336e+17
19648.0	4.6265441749128525e+17
19649.0	4.6257134098186234e+17
19650.0	4.6248972010564256e+17
19651.0	4.624066066863444e+17
19652.0	4.623238546762411e+17
19653.0	4.6224173348945914e+17
19654.0	4.621588699108693e+17
19655.0	4.620754054283263e+17
