# Flux units: erg / (cm m2 s)
# Wavelength units: Angstrom
wave	flux
19000.0	3.364946753617919e+17
19001.0	3.3642548591329274e+17
19002.0	3.3637216239834445e+17
19003.0	3.3631051518225056e+17
19004.0	3.3624915712846496e+17
19005.0	3.3618713046766925e+17
19006.0	3.361265497931776e+17
19007.0	3.3606430890830496e+17
19008.0	3.359985039136085e+17
19009.0	3.3592680655093754e+17
19010.0	3.3584306230831776e+17
19011.0	3.3581521104622925e+17
19012.0	3.3574668824739834e+17
19013.0	3.3569634230381216e+17
19014.0	3.356311693208234e+17
19015.0	3.3557005694839456e+17
19016.0	3.3550688328526496e+17
19017.0	3.354508575550122e+17
19018.0	3.35389226242321e+17
19019.0	3.3532774700810234e+17
19020.0	3.352660140883968e+17
19021.0	3.3520613431705594e+17
19022.0	3.351444462764032e+17
19023.0	3.3508108547741005e+17
19024.0	3.3502082972166816e+17
19025.0	3.349605153854805e+17
19026.0	3.3489767681228794e+17
19027.0	3.348333075278506e+17
19028.0	3.3477789825542816e+17
19029.0	3.3471537649199776e+17
19030.0	3.34656398496017e+17
19031.0	3.345954256890538e+17
19032.0	3.3453340517990394e+17
19033.0	3.3446532442576205e+17
19034.0	3.344112059154431e+17
19035.0	3.343414415327231e+17
19036.0	3.337479345143808e+17
19037.0	3.3422598604499616e+17
19038.0	3.3416593248965965e+17
19039.0	3.3410652244541434e+17
19040.0	3.3404584918166176e+17
19041.0	3.339833945970005e+17
19042.0	3.3391339110399994e+17
19043.0	3.338628186330453e+17
19044.0	3.338009253511168e+17
19045.0	3.337407103150762e+17
19046.0	3.3367480773290656e+17
19047.0	3.33614548586769e+17
19048.0	3.3354020454836896e+17
19049.0	3.334849963578709e+17
19050.0	3.3343188116002125e+17
19051.0	3.333133941691733e+17
19052.0	3.3329257958604794e+17
19053.0	3.332537349832703e+17
19054.0	3.3319180356812794e+17
19055.0	3.331107510201002e+17
19056.0	3.3306849505006925e+17
19057.0	3.33009717297152e+17
19058.0	3.32944992894976e+17
19059.0	3.3288646428371616e+17
19060.0	3.328260473967957e+17
19061.0	3.327671976766122e+17
19062.0	3.32705969017105e+17
19063.0	3.32645323051281e+17
19064.0	3.325739754236586e+17
19065.0	3.325106605173418e+17
19066.0	3.3245822773275296e+17
19067.0	3.3240113367831885e+17
19068.0	3.3234184380088314e+17
19069.0	3.322811874192042e+17
19070.0	3.3221838089748474e+17
19071.0	3.3215942523617274e+17
19072.0	3.3209777368596474e+17
19073.0	3.3203837133127674e+17
19074.0	3.3197817656770554e+17
19075.0	3.319175659388928e+17
19076.0	3.3185546025041914e+17
19077.0	3.3179420652994554e+17
19078.0	3.3173233152819194e+17
19079.0	3.316746802255189e+17
19080.0	3.3161306628423674e+17
19081.0	3.315509682154154e+17
19082.0	3.314902188250453e+17
19083.0	3.3142566289407994e+17
19084.0	3.313562103229098e+17
19085.0	3.3131069614762656e+17
19086.0	3.31224546087185e+17
19087.0	3.31173560652049e+17
19088.0	3.3112123908642125e+17
19089.0	3.3105239552819194e+17
19090.0	3.310077753338538e+17
19091.0	3.3094616922193914e+17
19092.0	3.3088105149890554e+17
19093.0	3.3082861231800314e+17
19094.0	3.3076818973381965e+17
19095.0	3.3070780818391034e+17
19096.0	3.30646234403089e+17
19097.0	3.3058669576847354e+17
19098.0	3.3052506372177914e+17
19099.0	3.3046413034127354e+17
19100.0	3.304038048901802e+17
19101.0	3.3034392620236794e+17
19102.0	3.3027541752436045e+17
19103.0	3.302250765090816e+17
19104.0	3.3016508422553594e+17
19105.0	3.301012415709184e+17
19106.0	3.300422499784021e+17
19107.0	3.2998178786290336e+17
19108.0	3.2992291853434874e+17
19109.0	3.298347127756117e+17
19110.0	3.2980060581396474e+17
19111.0	3.297425589185194e+17
19112.0	3.2968229424988154e+17
19113.0	3.2962287798408525e+17
19114.0	3.29562158338321e+17
19115.0	3.2949841232745805e+17
19116.0	3.29441125404945e+17
19117.0	3.293806264844288e+17
19118.0	3.292940086891862e+17
19119.0	3.283813508579322e+17
19120.0	3.291973045365418e+17
19121.0	3.291392528176469e+17
19122.0	3.2908244743618554e+17
19123.0	3.2902238748453536e+17
19124.0	3.2896077476659194e+17
19125.0	3.28901833330961e+17
19126.0	3.2884152077735245e+17
19127.0	3.2862338652569594e+17
19128.0	3.2871355413517645e+17
19129.0	3.286572842265258e+17
19130.0	3.286002122271402e+17
19131.0	3.2854206001971194e+17
19132.0	3.284820861211989e+17
19133.0	3.284130876533418e+17
19134.0	3.28359329923072e+17
19135.0	3.2830238934521165e+17
19136.0	3.2824294679511034e+17
19137.0	3.281698431522133e+17
19138.0	3.281210687793834e+17
19139.0	3.280633315633834e+17
19140.0	3.2800372277903354e+17
19141.0	3.2794371291436365e+17
19142.0	3.2788218677384525e+17
19143.0	3.2781970639421434e+17
19144.0	3.277609052580522e+17
19145.0	3.277045437737642e+17
19146.0	3.275991951955285e+17
19147.0	3.275710624956415e+17
19148.0	3.275239835653461e+17
19149.0	3.2746365468890445e+17
19150.0	3.274053996860757e+17
19151.0	3.2734584661606394e+17
19152.0	3.27285561954577e+17
19153.0	3.2722335724557645e+17
19154.0	3.2715590885266765e+17
19155.0	3.2710751839846394e+17
19156.0	3.2704783509531296e+17
19157.0	3.2698647739105274e+17
19158.0	3.2690597097635834e+17
19159.0	3.2686766261534714e+17
19160.0	3.268084649077418e+17
19161.0	3.2674912801914874e+17
19162.0	3.2664423343936845e+17
19163.0	3.2662614707623245e+17
19164.0	3.265709624087893e+17
19165.0	3.265073357608277e+17
19166.0	3.264394721318229e+17
19167.0	3.26388094144785e+17
19168.0	3.2633160067973114e+17
19169.0	3.262717352738815e+17
19170.0	3.262141619153578e+17
19171.0	3.2615179866166605e+17
19172.0	3.2609498331873274e+17
19173.0	3.260357034377216e+17
19174.0	3.259711044452351e+17
19175.0	3.259165250508117e+17
19176.0	3.2585726565198496e+17
19177.0	3.2578550712238074e+17
19178.0	3.257370861196629e+17
19179.0	3.256754252371285e+17
19180.0	3.2561893708485965e+17
19181.0	3.2554936137591456e+17
19182.0	3.2549717025314125e+17
19183.0	3.254419367919616e+17
19184.0	3.253813162366293e+17
19185.0	3.2532246511834445e+17
19186.0	3.252638734177621e+17
19187.0	3.252002645256874e+17
19188.0	3.251449311352149e+17
19189.0	3.250860763119616e+17
19190.0	3.2502653652391245e+17
19191.0	3.2496532984954874e+17
19192.0	3.2490826578438816e+17
19193.0	3.2484822729359354e+17
19194.0	3.2478871018973856e+17
19195.0	3.2473068929897805e+17
19196.0	3.246703754171733e+17
19197.0	3.2461180643573754e+17
19198.0	3.245531717085867e+17
19199.0	3.242255261018793e+17
19200.0	3.2423180679249926e+17
19201.0	3.243758363956565e+17
19202.0	3.243168219441834e+17
19203.0	3.242568802719061e+17
19204.0	3.2419649431797754e+17
19205.0	3.2413829667225594e+17
19206.0	3.240783950555818e+17
19207.0	3.240086946010453e+17
19208.0	3.2394368358809594e+17
19209.0	3.239022956292778e+17
19210.0	3.2384320173069645e+17
19211.0	3.2378503963170125e+17
19212.0	3.2372581637379405e+17
19213.0	3.236593745089877e+17
19214.0	3.235957015489194e+17
19215.0	3.2354789294953805e+17
19216.0	3.2348985779814394e+17
19217.0	3.2343052314651296e+17
19218.0	3.233013341093887e+17
19219.0	3.2330190477940045e+17
19220.0	3.2325223667029325e+17
19221.0	3.2317000146834765e+17
19222.0	3.2313262518654285e+17
19223.0	3.2307554423930874e+17
19224.0	3.2301421823699616e+17
19225.0	3.2294678585234765e+17
19226.0	3.2289906543820794e+17
19227.0	3.228401501470719e+17
19228.0	3.2278268535111674e+17
19229.0	3.2272384740993696e+17
19230.0	3.226642967516501e+17
19231.0	3.2260532763361274e+17
19232.0	3.2254605635092474e+17
19233.0	3.224831394491051e+17
19234.0	3.2242763587474765e+17
19235.0	3.2236844498288634e+17
19236.0	3.2231185899847674e+17
19237.0	3.2225164882083834e+17
19238.0	3.22186695933952e+17
19239.0	3.221352217575423e+17
19240.0	3.2207441703731194e+17
19241.0	3.2201549671301114e+17
19242.0	3.21956739092753e+17
19243.0	3.218892348806485e+17
19244.0	3.2184170918707194e+17
19245.0	3.217826383571626e+17
19246.0	3.217228123428181e+17
19247.0	3.216646463640917e+17
19248.0	3.216067824801109e+17
19249.0	3.2154735821018445e+17
19250.0	3.2148722943699616e+17
19251.0	3.214175951825578e+17
19252.0	3.21353525825809e+17
19253.0	3.213108520331946e+17
19254.0	3.21254062625041e+17
19255.0	3.21184042389777e+17
19256.0	3.2113174113157114e+17
19257.0	3.210783816155135e+17
19258.0	3.2101964070256634e+17
19259.0	3.2095639031862605e+17
19260.0	3.208892166176767e+17
19261.0	3.208422636563114e+17
19262.0	3.207805037882026e+17
19263.0	3.207169517289472e+17
19264.0	3.2061970105849165e+17
19265.0	3.2058725165083296e+17
19266.0	3.205235137489579e+17
19267.0	3.20491648782609e+17
19268.0	3.2043246991441914e+17
19269.0	3.203739658048853e+17
19270.0	3.203141026359978e+17
19271.0	3.2022696590049274e+17
19272.0	3.2019537849221114e+17
19273.0	3.200498355142655e+17
19274.0	3.2001294790382925e+17
19275.0	3.200223422360234e+17
19276.0	3.199620934008832e+17
19277.0	3.199039433255594e+17
19278.0	3.1984516050452474e+17
19279.0	3.1978554532386125e+17
19280.0	3.19721601236992e+17
19281.0	3.196686818432341e+17
19282.0	3.196117817404074e+17
19283.0	3.1954852174452045e+17
19284.0	3.1949093517393914e+17
19285.0	3.1942235994630816e+17
19286.0	3.1937418948334925e+17
19287.0	3.19318078329105e+17
19288.0	3.1906503715717094e+17
19289.0	3.188814265013587e+17
19290.0	3.19142325911552e+17
19291.0	3.19064748134673e+17
19292.0	3.190240397579605e+17
19293.0	3.189655677348522e+17
19294.0	3.1890674318049274e+17
19295.0	3.188486879663445e+17
19296.0	3.1878810760642554e+17
19297.0	3.187288701577898e+17
19298.0	3.1867023917056e+17
19299.0	3.186120769317546e+17
19300.0	3.185535866983765e+17
19301.0	3.1849557283307514e+17
19302.0	3.184349509145941e+17
19303.0	3.183725987408554e+17
19304.0	3.183163240437077e+17
19305.0	3.182589163252394e+17
19306.0	3.182009374474239e+17
19307.0	3.181386752764586e+17
19308.0	3.1808100010120525e+17
19309.0	3.180128854081535e+17
19310.0	3.1795016172393805e+17
19311.0	3.1790237843019085e+17
19312.0	3.178468618884437e+17
19313.0	3.177883197855061e+17
19314.0	3.165906198156638e+17
19315.0	3.165784373548374e+17
19316.0	3.1760782291107834e+17
19317.0	3.175514246916778e+17
19318.0	3.174921878721877e+17
19319.0	3.1743398260681376e+17
19320.0	3.1737390259240954e+17
19321.0	3.173143255799125e+17
19322.0	3.172490309271552e+17
19323.0	3.171925381261994e+17
19324.0	3.1713686111737165e+17
19325.0	3.1706802122915834e+17
19326.0	3.17018529141009e+17
19327.0	3.169575835620693e+17
19328.0	3.168964176423594e+17
19329.0	3.168398986619562e+17
19330.0	3.167772408982186e+17
19331.0	3.167166503671125e+17
19332.0	3.166597846925312e+17
19333.0	3.1659951754226336e+17
19334.0	3.1654012403056634e+17
19335.0	3.1647530273996794e+17
19336.0	3.1641996424642554e+17
19337.0	3.1635984686776314e+17
19338.0	3.162829169710421e+17
19339.0	3.162394081274538e+17
19340.0	3.1616203125773645e+17
19341.0	3.161058133584554e+17
19342.0	3.1602616649646074e+17
19343.0	3.1599708403138554e+17
19344.0	3.1593443703302816e+17
19345.0	3.157130453800276e+17
19346.0	3.157111156157097e+17
19347.0	3.1574537713745914e+17
19348.0	3.1569284645082445e+17
19349.0	3.1562869104093856e+17
19350.0	3.155664985303722e+17
19351.0	3.155050085657258e+17
19352.0	3.154375676876117e+17
19353.0	3.1538390750986234e+17
19354.0	3.1532233047845536e+17
19355.0	3.1525256123733325e+17
19356.0	3.151976108916736e+17
19357.0	3.151351516932778e+17
19358.0	3.150711163103914e+17
19359.0	3.150026414664362e+17
19360.0	3.14940124107025e+17
19361.0	3.148796493736619e+17
19362.0	3.1481898949672954e+17
19363.0	3.147546462868821e+17
19364.0	3.146901470838784e+17
19365.0	3.1462617929919136e+17
19366.0	3.1456138146174285e+17
19367.0	3.1449630659051514e+17
19368.0	3.1443099767712416e+17
19369.0	3.143598299501909e+17
19370.0	3.1428949888204794e+17
19371.0	3.142286785030826e+17
19372.0	3.1416537782244685e+17
19373.0	3.140966721869141e+17
19374.0	3.1403002109624314e+17
19375.0	3.139620258359978e+17
19376.0	3.138936228194986e+17
19377.0	3.1382347353948154e+17
19378.0	3.137539169146197e+17
19379.0	3.1368381387680416e+17
19380.0	3.1361267666343245e+17
19381.0	3.1354081582776314e+17
19382.0	3.1346359201518925e+17
19383.0	3.133863396813482e+17
19384.0	3.1331978292756474e+17
19385.0	3.132463624749056e+17
19386.0	3.131711248749909e+17
19387.0	3.1309441622780576e+17
19388.0	3.1301668577826125e+17
19389.0	3.1293778864810656e+17
19390.0	3.1285767359692794e+17
19391.0	3.123124359572136e+17
19392.0	3.1264387541674656e+17
19393.0	3.126100302146218e+17
19394.0	3.125235326560938e+17
19395.0	3.1243543102095354e+17
19396.0	3.1234722840794445e+17
19397.0	3.122572911356586e+17
19398.0	3.1216194803466234e+17
19399.0	3.120078361285973e+17
19400.0	3.1195741122723834e+17
19401.0	3.1187147602001914e+17
19402.0	3.1177016984207354e+17
19403.0	3.1166318167545165e+17
19404.0	3.1155579375670605e+17
19405.0	3.114429038548309e+17
19406.0	3.113280944646826e+17
19407.0	3.1120806089413965e+17
19408.0	3.110148695392256e+17
19409.0	3.1095108857582925e+17
19410.0	3.1082332602149536e+17
19411.0	3.1068439843962874e+17
19412.0	3.1053904486946125e+17
19413.0	3.103874019404458e+17
19414.0	3.1022677900656634e+17
19415.0	3.1006306738722125e+17
19416.0	3.098768268678485e+17
19417.0	3.0970264602105165e+17
19418.0	3.0951599907362125e+17
19419.0	3.093134111145984e+17
19420.0	3.091007458159274e+17
19421.0	3.088754088957269e+17
19422.0	3.086337870310058e+17
19423.0	3.0838442552197114e+17
19424.0	3.0811859696571725e+17
19425.0	3.078369097460394e+17
19426.0	3.07538062999552e+17
19427.0	3.0722140395274234e+17
19428.0	3.0688844304438605e+17
19429.0	3.0653227536657056e+17
19430.0	3.061508509182634e+17
19431.0	3.057140866831701e+17
19432.0	3.0538423808819194e+17
19433.0	3.049661713263274e+17
19434.0	3.0453546146420045e+17
19435.0	3.040728327389183e+17
19436.0	3.0354406364938234e+17
19437.0	3.031145116947797e+17
19438.0	3.01741926689451e+17
19439.0	3.020319257613652e+17
19440.0	3.0160625678854816e+17
19441.0	3.01038664626995e+17
19442.0	3.003069422895103e+17
19443.0	2.990538162001239e+17
19444.0	2.961010475051683e+17
19445.0	2.919731167231998e+17
19446.0	2.8929758781767674e+17
19447.0	2.861607762788351e+17
19448.0	2.811656067001011e+17
19449.0	2.6714304308838358e+17
19450.0	2.2926118012408934e+17
19451.0	2.152773900566521e+17
19452.0	2.5211831561748618e+17
19453.0	2.7513588589527072e+17
19454.0	2.841285156143096e+17
19455.0	2.874226815008769e+17
19456.0	2.9022457083985926e+17
19457.0	2.931959013223081e+17
19458.0	2.939395850807989e+17
19459.0	2.9832235184728845e+17
19460.0	2.997548842920619e+17
19461.0	3.002764105176405e+17
19462.0	3.0073791331696634e+17
19463.0	3.0113304198949536e+17
19464.0	3.0149582030984525e+17
19465.0	3.0185517156925434e+17
19466.0	3.0222205691712845e+17
19467.0	3.026017650911914e+17
19468.0	3.029290070310912e+17
19469.0	3.0321113388373325e+17
19470.0	3.03537320431889e+17
19471.0	3.0382161196482554e+17
19472.0	3.040819558394538e+17
19473.0	3.0431541345648634e+17
19474.0	3.045456702952789e+17
19475.0	3.046850713791146e+17
19476.0	3.0495562999179936e+17
19477.0	3.051407199087274e+17
19478.0	3.0530268774618445e+17
19479.0	3.054459023611221e+17
19480.0	3.0557711654802765e+17
19481.0	3.056919367035562e+17
19482.0	3.05801366863872e+17
19483.0	3.0589730310935885e+17
19484.0	3.0598005274269005e+17
19485.0	3.060491810592085e+17
19486.0	3.0611218453845325e+17
19487.0	3.0617411619826336e+17
19488.0	3.0622354736414714e+17
19489.0	3.062351797769557e+17
19490.0	3.0618109335306234e+17
19491.0	3.0632509412037965e+17
19492.0	3.063512051657386e+17
19493.0	3.0636901840977914e+17
19494.0	3.063815874106709e+17
19495.0	3.063899444914858e+17
19496.0	3.0635417018914125e+17
19497.0	3.0639162930845005e+17
19498.0	3.062317391893844e+17
19499.0	3.0567295094183264e+17
19500.0	3.0637808743874554e+17
19501.0	3.063664632048298e+17
19502.0	3.0635186971825485e+17
19503.0	3.0633591654318074e+17
19504.0	3.063173536721578e+17
19505.0	3.0629609522681165e+17
19506.0	3.062738401798826e+17
19507.0	3.0624765276323834e+17
19508.0	3.0622362181304314e+17
19509.0	3.0619569330585594e+17
19510.0	3.0614412968591354e+17
19511.0	3.0432865172848634e+17
19512.0	3.059175948375381e+17
19513.0	3.0583220869966496e+17
19514.0	3.0585228662319763e+17
19515.0	3.0596417632337914e+17
19516.0	3.0596377863345485e+17
19517.0	3.059241662982826e+17
19518.0	3.0589172234321914e+17
19519.0	3.0585231594837325e+17
19520.0	3.0581006204054176e+17
19521.0	3.057741678859605e+17
19522.0	3.0573072356474874e+17
19523.0	3.0569144261454496e+17
19524.0	3.056489788167509e+17
19525.0	3.0560676845977594e+17
19526.0	3.05564796059648e+17
19527.0	3.055206217897301e+17
19528.0	3.054760900602538e+17
19529.0	3.0543148716741965e+17
19530.0	3.0538806360801274e+17
19531.0	3.053428032580266e+17
19532.0	3.052971493774678e+17
19533.0	3.052511388412586e+17
19534.0	3.0520443729346554e+17
19535.0	3.0515705958891514e+17
19536.0	3.051077550910122e+17
19537.0	3.050638000084309e+17
19538.0	3.0499626098360314e+17
19539.0	3.049249256592725e+17
19540.0	3.04918156611857e+17
19541.0	3.048712834471253e+17
19542.0	3.048228713223509e+17
19543.0	3.0477251314537805e+17
19544.0	3.0472524554130765e+17
19545.0	3.046235691111765e+17
19546.0	3.0455315041703245e+17
19547.0	3.0457805472617805e+17
19548.0	3.0452729784565754e+17
19549.0	3.0447194725853856e+17
19550.0	3.044285018537984e+17
19551.0	3.0437868694405114e+17
19552.0	3.0432835361832954e+17
19553.0	3.0427530000684365e+17
19554.0	3.042243409608704e+17
19555.0	3.0417548923808416e+17
19556.0	3.041261259500203e+17
19557.0	3.040750790683306e+17
19558.0	3.0402405022214816e+17
19559.0	3.0397286968197114e+17
19560.0	3.03919607124241e+17
19561.0	3.0386881343870285e+17
19562.0	3.0381838654504954e+17
19563.0	3.037683601724757e+17
19564.0	3.0371694926015136e+17
19565.0	3.036654094428842e+17
19566.0	3.036114299387904e+17
19567.0	3.0356173743281485e+17
19568.0	3.035085393275562e+17
19569.0	3.034567027982336e+17
19570.0	3.0340663699920205e+17
19571.0	3.03353824350481e+17
19572.0	3.033003992634709e+17
19573.0	3.0324798699601914e+17
19574.0	3.0319252721718605e+17
19575.0	3.0314613272739834e+17
19576.0	3.030938399976106e+17
19577.0	3.0303805250382496e+17
19578.0	3.029853812730538e+17
19579.0	3.02935297822993e+17
19580.0	3.0288256070669645e+17
19581.0	3.02831386038545e+17
19582.0	3.0278029987020794e+17
19583.0	3.0272783992750074e+17
19584.0	3.026735513731072e+17
19585.0	3.0261444513628154e+17
19586.0	3.025592756032853e+17
19587.0	3.0251575400202234e+17
19588.0	3.024227686591147e+17
19589.0	3.024113300231509e+17
19590.0	3.023494657168725e+17
19591.0	3.0230744109765965e+17
19592.0	3.022552843332267e+17
19593.0	3.0220117595914234e+17
19594.0	3.021329451537749e+17
19595.0	3.020909712157354e+17
19596.0	3.020294540580181e+17
19597.0	3.019882896556032e+17
19598.0	3.018891626982058e+17
19599.0	3.0188476479569914e+17
19600.0	3.018333203289429e+17
19601.0	3.01774957777169e+17
19602.0	3.017192888423765e+17
19603.0	3.016380381134847e+17
19604.0	3.0161517660514976e+17
19605.0	3.0154623161466874e+17
19606.0	3.0151536251589965e+17
19607.0	3.014631360561152e+17
19608.0	3.014084793816405e+17
19609.0	3.013532560566954e+17
19610.0	3.013028265765546e+17
19611.0	3.012488524551509e+17
19612.0	3.011982705819648e+17
19613.0	3.0114451075454285e+17
19614.0	3.0108948969990816e+17
19615.0	3.010389174386687e+17
19616.0	3.009813610670762e+17
19617.0	3.009304022308181e+17
19618.0	3.0082332255846394e+17
19619.0	3.007596944424959e+17
19620.0	3.0071508725050016e+17
19621.0	3.0071954345383245e+17
19622.0	3.00668522926353e+17
19623.0	3.0061541143347194e+17
19624.0	3.005615078462805e+17
19625.0	3.0050943975642445e+17
19626.0	3.004559091477162e+17
19627.0	3.0040313770803194e+17
19628.0	3.0034269222993914e+17
19629.0	3.002855140797098e+17
19630.0	3.0019029506020685e+17
19631.0	2.9989226592337926e+17
19632.0	3.0013790928677536e+17
19633.0	3.0008206209406285e+17
19634.0	3.0003213729355085e+17
19635.0	2.99976061161745e+17
19636.0	2.999232928677888e+17
19637.0	2.9984689973712205e+17
19638.0	2.9981817640932685e+17
19639.0	2.9976583453627725e+17
19640.0	2.996840741994496e+17
19641.0	2.995524649440598e+17
19642.0	2.9960745073158816e+17
19643.0	2.995541421763242e+17
19644.0	2.9949534387131725e+17
19645.0	2.9942537655418874e+17
19646.0	2.993941420616362e+17
19647.0	2.9934313977937914e+17
19648.0	2.9929023842112845e+17
19649.0	2.992369544374954e+17
19650.0	2.9918452724531194e+17
19651.0	2.9913129977992525e+17
19652.0	2.990780696930987e+17
19653.0	2.990254843057493e+17
