# Flux units: erg / (cm m2 s)
# Wavelength units: Angstrom
wave	flux
19000.0	6.520860829548543e+17
19001.0	6.519593625452543e+17
19002.0	6.518429630595072e+17
19003.0	6.517212649095167e+17
19004.0	6.515995946516479e+17
19005.0	6.514781297049599e+17
19006.0	6.513564948889599e+17
19007.0	6.512321069318143e+17
19008.0	6.511100202494634e+17
19009.0	6.509875445454164e+17
19010.0	6.508455964355241e+17
19011.0	6.50746467066402e+17
19012.0	6.506171923955711e+17
19013.0	6.505043825349972e+17
19014.0	6.50379793600785e+17
19015.0	6.502592662208511e+17
19016.0	6.501369253636778e+17
19017.0	6.500171939228329e+17
19018.0	6.498955263912617e+17
19019.0	6.497742788493311e+17
19020.0	6.496512262886739e+17
19021.0	6.495312429099689e+17
19022.0	6.494102315073535e+17
19023.0	6.492863550455808e+17
19024.0	6.491654494093311e+17
19025.0	6.490445541889364e+17
19026.0	6.489214028524201e+17
19027.0	6.487958863478783e+17
19028.0	6.486797651542015e+17
19029.0	6.485579298504704e+17
19030.0	6.484371659816959e+17
19031.0	6.483155492012031e+17
19032.0	6.481939477299199e+17
19033.0	6.480676446535679e+17
19034.0	6.479500034441215e+17
19035.0	6.47827129700625e+17
19036.0	6.472839009228114e+17
19037.0	6.475858600525823e+17
19038.0	6.474631070351359e+17
19039.0	6.473428378845183e+17
19040.0	6.472212827602943e+17
19041.0	6.470997013517652e+17
19042.0	6.469739608713897e+17
19043.0	6.468566725427199e+17
19044.0	6.467350238855168e+17
19045.0	6.466136205950975e+17
19046.0	6.464894657014442e+17
19047.0	6.463699340492797e+17
19048.0	6.462383530005844e+17
19049.0	6.461243346911232e+17
19050.0	6.460039536923988e+17
19051.0	6.458194157808297e+17
19052.0	6.457534302912511e+17
19053.0	6.456410827827882e+17
19054.0	6.455203227587923e+17
19055.0	6.453856542130176e+17
19056.0	6.452763768651776e+17
19057.0	6.451556396302333e+17
19058.0	6.450341346978473e+17
19059.0	6.449133005045759e+17
19060.0	6.44790717915682e+17
19061.0	6.446706189139968e+17
19062.0	6.445490163941376e+17
19063.0	6.444277894742015e+17
19064.0	6.44300545335842e+17
19065.0	6.441761013148329e+17
19066.0	6.440608426098687e+17
19067.0	6.439425902903295e+17
19068.0	6.438213695919444e+17
19069.0	6.437001503615657e+17
19070.0	6.435776279609343e+17
19071.0	6.434576851970729e+17
19072.0	6.433364581373268e+17
19073.0	6.432149613838333e+17
19074.0	6.430940452618237e+17
19075.0	6.429728586072063e+17
19076.0	6.42850574373137e+17
19077.0	6.427298492317695e+17
19078.0	6.426078790112596e+17
19079.0	6.424881409294335e+17
19080.0	6.423662347419647e+17
19081.0	6.422439881867263e+17
19082.0	6.42122510377506e+17
19083.0	6.419981337449811e+17
19084.0	6.418705996404052e+17
19085.0	6.41761693138944e+17
19086.0	6.416212912592212e+17
19087.0	6.415070840662697e+17
19088.0	6.41394710483217e+17
19089.0	6.412617846008489e+17
19090.0	6.411550548732585e+17
19091.0	6.410341992890367e+17
19092.0	6.409094596395007e+17
19093.0	6.40793752633344e+17
19094.0	6.406722407104511e+17
19095.0	6.405511838695421e+17
19096.0	6.404300452397055e+17
19097.0	6.403100006940671e+17
19098.0	6.4018928631808e+17
19099.0	6.400684039602175e+17
19100.0	6.399466379324074e+17
19101.0	6.398266460252841e+17
19102.0	6.397008286493353e+17
19103.0	6.395851556170409e+17
19104.0	6.394643669319679e+17
19105.0	6.393435788760404e+17
19106.0	6.392205537181695e+17
19107.0	6.391012984007338e+17
19108.0	6.389813111772499e+17
19109.0	6.388244854516393e+17
19110.0	6.387392009207807e+17
19111.0	6.386192611628372e+17
19112.0	6.384986093518847e+17
19113.0	6.383779560729258e+17
19114.0	6.382573157963091e+17
19115.0	6.381340457609898e+17
19116.0	6.38014894252578e+17
19117.0	6.378943802245119e+17
19118.0	6.37768930828834e+17
19119.0	6.374480862860625e+17
19120.0	6.375296466244947e+17
19121.0	6.374106421963434e+17
19122.0	6.372926999756799e+17
19123.0	6.371720926942548e+17
19124.0	6.370495753267882e+17
19125.0	6.369308771527337e+17
19126.0	6.368103020276394e+17
19127.0	6.366000762410324e+17
19128.0	6.365542903098025e+17
19129.0	6.364450762260479e+17
19130.0	6.363279112798207e+17
19131.0	6.362083864783529e+17
19132.0	6.360879227819348e+17
19133.0	6.359547423752191e+17
19134.0	6.358394563373737e+17
19135.0	6.357266627646803e+17
19136.0	6.356067638312959e+17
19137.0	6.354780100930217e+17
19138.0	6.353646211388756e+17
19139.0	6.352457626725034e+17
19140.0	6.351255578345471e+17
19141.0	6.350052881945939e+17
19142.0	6.34883740200687e+17
19143.0	6.347619729844906e+17
19144.0	6.346426158153727e+17
19145.0	6.345241843291476e+17
19146.0	6.343735390502911e+17
19147.0	6.342790368373417e+17
19148.0	6.341635107454975e+17
19149.0	6.340433905625769e+17
19150.0	6.33922872549922e+17
19151.0	6.338032402344617e+17
19152.0	6.3368272543744e+17
19153.0	6.335619029882195e+17
19154.0	6.33436193825314e+17
19155.0	6.333227362243924e+17
19156.0	6.332024670737747e+17
19157.0	6.330819926818815e+17
19158.0	6.329375200903165e+17
19159.0	6.328413054828543e+17
19160.0	6.327216440169812e+17
19161.0	6.326006660289876e+17
19162.0	6.324259875280212e+17
19163.0	6.323611540040361e+17
19164.0	6.322422172439892e+17
19165.0	6.321210679885823e+17
19166.0	6.319951402325332e+17
19167.0	6.318769383145471e+17
19168.0	6.31759837401361e+17
19169.0	6.316398501778771e+17
19170.0	6.315222263747924e+17
19171.0	6.313989058680148e+17
19172.0	6.312823574844756e+17
19173.0	6.311623613830484e+17
19174.0	6.310395934758227e+17
19175.0	6.309226704710314e+17
19176.0	6.308027504263167e+17
19177.0	6.306750145058131e+17
19178.0	6.305616524651178e+17
19179.0	6.304382503092223e+17
19180.0	6.303214422283604e+17
19181.0	6.301973540241408e+17
19182.0	6.300817955662506e+17
19183.0	6.299632516027731e+17
19184.0	6.298414316781565e+17
19185.0	6.297232984069459e+17
19186.0	6.296036868532905e+17
19187.0	6.294800872854868e+17
19188.0	6.293638702519635e+17
19189.0	6.29243613684258e+17
19190.0	6.291234089162068e+17
19191.0	6.290023462731775e+17
19192.0	6.288845784656554e+17
19193.0	6.287640294151508e+17
19194.0	6.286439999690068e+17
19195.0	6.285250220348756e+17
19196.0	6.284045556820649e+17
19197.0	6.282846289264639e+17
19198.0	6.28164549288482e+17
19199.0	6.277143116556969e+17
19200.0	6.277025132183552e+17
19201.0	6.278051469284691e+17
19202.0	6.276859462767956e+17
19203.0	6.275654320390143e+17
19204.0	6.27445084524817e+17
19205.0	6.273259486751401e+17
19206.0	6.272059803959295e+17
19207.0	6.27081738330658e+17
19208.0	6.269561394080425e+17
19209.0	6.268464433987583e+17
19210.0	6.267272447743316e+17
19211.0	6.266073054358185e+17
19212.0	6.264874445307903e+17
19213.0	6.263614154822995e+17
19214.0	6.262390781902847e+17
19215.0	6.261263801079124e+17
19216.0	6.260073939249833e+17
19217.0	6.258877551782569e+17
19218.0	6.257253454359209e+17
19219.0	6.256398334339753e+17
19220.0	6.255265759013546e+17
19221.0	6.2539106367133e+17
19222.0	6.252875487379456e+17
19223.0	6.251675901755392e+17
19224.0	6.250449488663892e+17
19225.0	6.249200164186793e+17
19226.0	6.248063268028413e+17
19227.0	6.246860645029204e+17
19228.0	6.245674035882665e+17
19229.0	6.244472280405331e+17
19230.0	6.243262552255146e+17
19231.0	6.242061856538623e+17
19232.0	6.240858763777364e+17
19233.0	6.239627727164756e+17
19234.0	6.238449452799315e+17
19235.0	6.237247643495082e+17
19236.0	6.236056019359059e+17
19237.0	6.234844453404672e+17
19238.0	6.233598447321087e+17
19239.0	6.232446182533801e+17
19240.0	6.231196844774739e+17
19241.0	6.230011850435242e+17
19242.0	6.228823385309183e+17
19243.0	6.227539919197524e+17
19244.0	6.226421915582463e+17
19245.0	6.225216643181225e+17
19246.0	6.224002120242516e+17
19247.0	6.222803153977341e+17
19248.0	6.221596881234602e+17
19249.0	6.220387989149011e+17
19250.0	6.219170858052265e+17
19251.0	6.217909454678698e+17
19252.0	6.216617988631209e+17
19253.0	6.215542462130857e+17
19254.0	6.214338287239167e+17
19255.0	6.213039715341652e+17
19256.0	6.211904471039999e+17
19257.0	6.210713069202089e+17
19258.0	6.2095006643869e+17
19259.0	6.208251451058857e+17
19260.0	6.206995852602025e+17
19261.0	6.205859506596522e+17
19262.0	6.204622051300694e+17
19263.0	6.203401986987348e+17
19264.0	6.201940741805395e+17
19265.0	6.200900291570346e+17
19266.0	6.19968684237346e+17
19267.0	6.198565697224703e+17
19268.0	6.197347091830102e+17
19269.0	6.196127693012991e+17
19270.0	6.194906727623337e+17
19271.0	6.193514454974463e+17
19272.0	6.192120142495744e+17
19273.0	6.189431230824445e+17
19274.0	6.188756068117161e+17
19275.0	6.188303358012074e+17
19276.0	6.187067692985001e+17
19277.0	6.185843441358163e+17
19278.0	6.184617822388223e+17
19279.0	6.183386257992361e+17
19280.0	6.18212533276945e+17
19281.0	6.180924826495657e+17
19282.0	6.179702184782505e+17
19283.0	6.178420473987072e+17
19284.0	6.17720094654464e+17
19285.0	6.175923223134208e+17
19286.0	6.174772075429887e+17
19287.0	6.173552110381738e+17
19288.0	6.171144354092371e+17
19289.0	6.168319226107215e+17
19290.0	6.169828304530089e+17
19291.0	6.168449696923647e+17
19292.0	6.167338160925353e+17
19293.0	6.166086321263956e+17
19294.0	6.164835408543743e+17
19295.0	6.16359043006464e+17
19296.0	6.162337654374399e+17
19297.0	6.161081871368191e+17
19298.0	6.159816957362176e+17
19299.0	6.158568042528768e+17
19300.0	6.157306620280831e+17
19301.0	6.156041051963391e+17
19302.0	6.154771538903039e+17
19303.0	6.153471273205759e+17
19304.0	6.152220652688724e+17
19305.0	6.150960954998781e+17
19306.0	6.149690876406442e+17
19307.0	6.148390895921834e+17
19308.0	6.147123437371391e+17
19309.0	6.145736585860435e+17
19310.0	6.144412244858196e+17
19311.0	6.143259708140201e+17
19312.0	6.141991154876415e+17
19313.0	6.140697400836095e+17
19314.0	6.13614294593263e+17
19315.0	6.135044660439726e+17
19316.0	6.136800872147625e+17
19317.0	6.135500868594345e+17
19318.0	6.134187537640106e+17
19319.0	6.132884516984148e+17
19320.0	6.13156597670434e+17
19321.0	6.130248275285334e+17
19322.0	6.128871427189418e+17
19323.0	6.12754366013986e+17
19324.0	6.126262621831168e+17
19325.0	6.124818827051008e+17
19326.0	6.123584804093951e+17
19327.0	6.122232099110912e+17
19328.0	6.120889824662868e+17
19329.0	6.119535121093972e+17
19330.0	6.118154177959252e+17
19331.0	6.116786002984959e+17
19332.0	6.115436014512809e+17
19333.0	6.114061285938516e+17
19334.0	6.112675790585855e+17
19335.0	6.111290644059476e+17
19336.0	6.109894609119914e+17
19337.0	6.108491376055636e+17
19338.0	6.106978025035092e+17
19339.0	6.105670337516884e+17
19340.0	6.104210500222976e+17
19341.0	6.102810201773396e+17
19342.0	6.101183494793897e+17
19343.0	6.099939643184468e+17
19344.0	6.098488462234963e+17
19345.0	6.096028995769683e+17
19346.0	6.095131985139027e+17
19347.0	6.094048519520255e+17
19348.0	6.092599079905961e+17
19349.0	6.091089248605524e+17
19350.0	6.08958153822481e+17
19351.0	6.088065030291455e+17
19352.0	6.08651275543074e+17
19353.0	6.085012829678249e+17
19354.0	6.083463589396479e+17
19355.0	6.08185188753954e+17
19356.0	6.08032644014626e+17
19357.0	6.07873995514402e+17
19358.0	6.077128414068736e+17
19359.0	6.075454657484116e+17
19360.0	6.073876998695593e+17
19361.0	6.072236409967956e+17
19362.0	6.070600139975337e+17
19363.0	6.068926131732477e+17
19364.0	6.067235185491967e+17
19365.0	6.06553004712482e+17
19366.0	6.06380779180305e+17
19367.0	6.062068010582015e+17
19368.0	6.06030961713698e+17
19369.0	6.058487128435369e+17
19370.0	6.055995293128022e+17
19371.0	6.054093546760873e+17
19372.0	6.052276481294335e+17
19373.0	6.050399897255935e+17
19374.0	6.048519169944233e+17
19375.0	6.046602428241235e+17
19376.0	6.044663147047594e+17
19377.0	6.042694059032575e+17
19378.0	6.040700925072724e+17
19379.0	6.038677694185471e+17
19380.0	6.036624599853738e+17
19381.0	6.034540574627156e+17
19382.0	6.032383983747072e+17
19383.0	6.030217144784211e+17
19384.0	6.028096644491946e+17
19385.0	6.025880061782698e+17
19386.0	6.023629227687935e+17
19387.0	6.020759465317716e+17
19388.0	6.017831467133609e+17
19389.0	6.015447976990035e+17
19390.0	6.013019341455359e+17
19391.0	6.00683542391466e+17
19392.0	6.007969106537129e+17
19393.0	6.00544721834257e+17
19394.0	6.002815089158825e+17
19395.0	5.999929176621055e+17
19396.0	5.995776498292051e+17
19397.0	5.992970069912233e+17
19398.0	5.990084632029865e+17
19399.0	5.986790171912874e+17
19400.0	5.984102202561876e+17
19401.0	5.979080518270976e+17
19402.0	5.975744673655465e+17
19403.0	5.972445872433834e+17
19404.0	5.968436175831041e+17
19405.0	5.9629440611997e+17
19406.0	5.95932225872418e+17
19407.0	5.954124428345343e+17
19408.0	5.948086663424682e+17
19409.0	5.943363509420033e+17
19410.0	5.936313117878954e+17
19411.0	5.92978627404322e+17
19412.0	5.922701286484649e+17
19413.0	5.91277061255987e+17
19414.0	5.903345004139864e+17
19415.0	5.892270793774422e+17
19416.0	5.881019397832704e+17
19417.0	5.872584611244713e+17
19418.0	5.86586175639825e+17
19419.0	5.858760424336041e+17
19420.0	5.851335073901226e+17
19421.0	5.843549342575274e+17
19422.0	5.83539193160226e+17
19423.0	5.826884321411071e+17
19424.0	5.8177909424128e+17
19425.0	5.80783874122274e+17
19426.0	5.798018706746024e+17
19427.0	5.7876884764317e+17
19428.0	5.775814115895978e+17
19429.0	5.764320902250494e+17
19430.0	5.750603799418199e+17
19431.0	5.735777583497215e+17
19432.0	5.720244553951913e+17
19433.0	5.701427939420841e+17
19434.0	5.6779018799677395e+17
19435.0	5.647417212228946e+17
19436.0	5.605817173322413e+17
19437.0	5.5709677597491194e+17
19438.0	5.538506784200021e+17
19439.0	5.5134777441430195e+17
19440.0	5.480953463264596e+17
19441.0	5.4452058010419174e+17
19442.0	5.4057137200605894e+17
19443.0	5.3578966999149203e+17
19444.0	5.288953987639966e+17
19445.0	5.1971662031093824e+17
19446.0	5.1177471351630496e+17
19447.0	5.018305934218573e+17
19448.0	4.867573932534451e+17
19449.0	4.662665046305455e+17
19450.0	4.260465843284638e+17
19451.0	4.14244599444273e+17
19452.0	4.478438907139422e+17
19453.0	4.778790893562549e+17
19454.0	4.946575438643186e+17
19455.0	5.06682049647957e+17
19456.0	5.1506360003242675e+17
19457.0	5.2323447632909645e+17
19458.0	5.3090513259069523e+17
19459.0	5.368887487670958e+17
19460.0	5.409347416184146e+17
19461.0	5.4449086856342195e+17
19462.0	5.4766697814425606e+17
19463.0	5.505925674696702e+17
19464.0	5.532308122981717e+17
19465.0	5.5585660717411046e+17
19466.0	5.599050708899145e+17
19467.0	5.6322976494824083e+17
19468.0	5.656211017957376e+17
19469.0	5.674263469446485e+17
19470.0	5.689930286803626e+17
19471.0	5.703188789329919e+17
19472.0	5.7145329010606074e+17
19473.0	5.7246776312900256e+17
19474.0	5.734366071575894e+17
19475.0	5.7427753463098016e+17
19476.0	5.750990899423913e+17
19477.0	5.758562815617706e+17
19478.0	5.766043951693823e+17
19479.0	5.772546874714794e+17
19480.0	5.778626116408662e+17
19481.0	5.784368846296406e+17
19482.0	5.789741438642857e+17
19483.0	5.794778297925631e+17
19484.0	5.799472387500714e+17
19485.0	5.803833919100244e+17
19486.0	5.811719234387969e+17
19487.0	5.821617545063081e+17
19488.0	5.829785459272365e+17
19489.0	5.836312182172328e+17
19490.0	5.840646131329702e+17
19491.0	5.847948318124712e+17
19492.0	5.850728330078894e+17
19493.0	5.855743085379583e+17
19494.0	5.857501043316051e+17
19495.0	5.862016095529641e+17
19496.0	5.863438841894227e+17
19497.0	5.865259521452713e+17
19498.0	5.868274745081855e+17
19499.0	5.863785311677094e+17
19500.0	5.870771386362537e+17
19501.0	5.872378352151213e+17
19502.0	5.874501838787924e+17
19503.0	5.875236715102207e+17
19504.0	5.875896056195754e+17
19505.0	5.876494015747412e+17
19506.0	5.877033561227264e+17
19507.0	5.87899182374366e+17
19508.0	5.879441929185961e+17
19509.0	5.879792940701011e+17
19510.0	5.879989775892479e+17
19511.0	5.873751034604197e+17
19512.0	5.879625096538793e+17
19513.0	5.878916682787494e+17
19514.0	5.87958371763268e+17
19515.0	5.880735296651264e+17
19516.0	5.881990577739092e+17
19517.0	5.881949553251668e+17
19518.0	5.881926437044223e+17
19519.0	5.881834907544234e+17
19520.0	5.881700386428244e+17
19521.0	5.881563048138067e+17
19522.0	5.881361998370132e+17
19523.0	5.881164594151424e+17
19524.0	5.880920878525097e+17
19525.0	5.880637675623763e+17
19526.0	5.880348813208234e+17
19527.0	5.880023444968788e+17
19528.0	5.879671340138495e+17
19529.0	5.879300981697193e+17
19530.0	5.87890751963136e+17
19531.0	5.878488992404819e+17
19532.0	5.8780490399744e+17
19533.0	5.877588513084756e+17
19534.0	5.877106490387114e+17
19535.0	5.877082021516627e+17
19536.0	5.876800032167252e+17
19537.0	5.876284285867348e+17
19538.0	5.875681351871146e+17
19539.0	5.87488331702818e+17
19540.0	5.874562126315519e+17
19541.0	5.873974813305514e+17
19542.0	5.873357842371924e+17
19543.0	5.872729681035263e+17
19544.0	5.872087229704874e+17
19545.0	5.87119660769826e+17
19546.0	5.870310335184896e+17
19547.0	5.870083832982185e+17
19548.0	5.869390720051882e+17
19549.0	5.868637383207593e+17
19550.0	5.867972658025811e+17
19551.0	5.867248366736724e+17
19552.0	5.866511903577427e+17
19553.0	5.865754461907625e+17
19554.0	5.864992003151188e+17
19555.0	5.864239543615487e+17
19556.0	5.863474030007636e+17
19557.0	5.862689927943508e+17
19558.0	5.861900713022803e+17
19559.0	5.861099429691391e+17
19560.0	5.860283011913044e+17
19561.0	5.859469641296554e+17
19562.0	5.858664911645354e+17
19563.0	5.857837544636415e+17
19564.0	5.857004213327188e+17
19565.0	5.856164113110356e+17
19566.0	5.855307187443028e+17
19567.0	5.854464400774484e+17
19568.0	5.853593136179882e+17
19569.0	5.852738348908544e+17
19570.0	5.851873356895572e+17
19571.0	5.850996181827584e+17
19572.0	5.850103132018003e+17
19573.0	5.849222151318186e+17
19574.0	5.848296326518099e+17
19575.0	5.847449280533844e+17
19576.0	5.846550948697428e+17
19577.0	5.845635032940543e+17
19578.0	5.844718025965567e+17
19579.0	5.843816118484991e+17
19580.0	5.842901564478803e+17
19581.0	5.841985722821289e+17
19582.0	5.841071527428095e+17
19583.0	5.840145090958676e+17
19584.0	5.839212253981354e+17
19585.0	5.838225346134015e+17
19586.0	5.837271602648404e+17
19587.0	5.836382505970345e+17
19588.0	5.835220987150336e+17
19589.0	5.834505759752192e+17
19590.0	5.833524444310186e+17
19591.0	5.832616824886612e+17
19592.0	5.831661818915498e+17
19593.0	5.830695154876415e+17
19594.0	5.829626877531476e+17
19595.0	5.828765192028159e+17
19596.0	5.827439989795498e+17
19597.0	5.826838158202196e+17
19598.0	5.825711084404735e+17
19599.0	5.824916506367316e+17
19600.0	5.823943743810218e+17
19601.0	5.822933619791188e+17
19602.0	5.821967103251795e+17
19603.0	5.820758418085204e+17
19604.0	5.820002364030976e+17
19605.0	5.818896932143101e+17
19606.0	5.818063939174399e+17
19607.0	5.817080704838314e+17
19608.0	5.816087992773289e+17
19609.0	5.815076108544682e+17
19610.0	5.814113568205482e+17
19611.0	5.813118223515647e+17
19612.0	5.812127911990612e+17
19613.0	5.811126942040063e+17
19614.0	5.810115433201663e+17
19615.0	5.809138370084863e+17
19616.0	5.808108179816447e+17
19617.0	5.807137542373375e+17
19618.0	5.805851199668223e+17
19619.0	5.804780150587391e+17
19620.0	5.803791918039039e+17
19621.0	5.803127689183231e+17
19622.0	5.802121989455872e+17
19623.0	5.801115106934783e+17
19624.0	5.80010721148928e+17
19625.0	5.799097885786111e+17
19626.0	5.798088304230399e+17
19627.0	5.797077244182528e+17
19628.0	5.795986974004564e+17
19629.0	5.795007289447764e+17
19630.0	5.793871283180884e+17
19631.0	5.789410539514538e+17
19632.0	5.792007742029823e+17
19633.0	5.790973302232403e+17
19634.0	5.789978357399551e+17
19635.0	5.788941345095679e+17
19636.0	5.787944025587711e+17
19637.0	5.786732689620992e+17
19638.0	5.785901784716628e+17
19639.0	5.78487816832068e+17
19640.0	5.783816668271956e+17
19641.0	5.782447268560895e+17
19642.0	5.781822852737706e+17
19643.0	5.78079340695825e+17
19644.0	5.779746080161791e+17
19645.0	5.778614152156499e+17
19646.0	5.777731815298388e+17
19647.0	5.776707678109695e+17
19648.0	5.775682999855786e+17
19649.0	5.774656492885331e+17
19650.0	5.773632361988095e+17
19651.0	5.772606368819881e+17
19652.0	5.771579947133609e+17
19653.0	5.770552141327018e+17
19654.0	5.769525994367658e+17
19655.0	5.76849604387362e+17
19656.0	5.767466891695444e+17
19657.0	5.766442208548179e+17
19658.0	5.765413670136489e+17
19659.0	5.76438391747379e+17
19660.0	5.763355542639956e+17
19661.0	5.762326031149738e+17
19662.0	5.76129622815539e+17
19663.0	5.760243109025109e+17
19664.0	5.759222439127722e+17
19665.0	5.758205192481449e+17
