# Flux units: erg / (cm m2 s)
# Wavelength units: Angstrom
wave	flux
19000.0	5.95297006850321e+17
19001.0	5.951832936065706e+17
19002.0	5.95074165506048e+17
19003.0	5.94962591916578e+17
19004.0	5.948510426540714e+17
19005.0	5.947397794430975e+17
19006.0	5.946285747426643e+17
19007.0	5.945091292834474e+17
19008.0	5.944042201634131e+17
19009.0	5.942940622913535e+17
19010.0	5.941713089243818e+17
19011.0	5.940711294413481e+17
19012.0	5.93947637387537e+17
19013.0	5.938490242673321e+17
19014.0	5.937364455129087e+17
19015.0	5.936257114133844e+17
19016.0	5.935141997598036e+17
19017.0	5.934027424224596e+17
19018.0	5.932919842755924e+17
19019.0	5.931816229098836e+17
19020.0	5.930693761346217e+17
19021.0	5.929588190347264e+17
19022.0	5.92848174064162e+17
19023.0	5.927361862172672e+17
19024.0	5.926255327881898e+17
19025.0	5.925142377005055e+17
19026.0	5.92402140242466e+17
19027.0	5.922831727241897e+17
19028.0	5.921817555719507e+17
19029.0	5.920703422747988e+17
19030.0	5.91960014463522e+17
19031.0	5.91849032131106e+17
19032.0	5.917379963912191e+17
19033.0	5.916250398698154e+17
19034.0	5.915158305396052e+17
19035.0	5.91404372992546e+17
19036.0	5.905656610903374e+17
19037.0	5.911831784019284e+17
19038.0	5.910720360568148e+17
19039.0	5.909617684338003e+17
19040.0	5.908509443664554e+17
19041.0	5.907399389653674e+17
19042.0	5.906272107539113e+17
19043.0	5.905186095977812e+17
19044.0	5.904075506494121e+17
19045.0	5.902966814932991e+17
19046.0	5.90185198920226e+17
19047.0	5.900756737589247e+17
19048.0	5.899598338632361e+17
19049.0	5.898527743934463e+17
19050.0	5.89742576116258e+17
19051.0	5.895216987548328e+17
19052.0	5.89516493693474e+17
19053.0	5.894099494240255e+17
19054.0	5.893013642062506e+17
19055.0	5.891849508093951e+17
19056.0	5.890795906618708e+17
19057.0	5.889694756416169e+17
19058.0	5.888156479346004e+17
19059.0	5.887008653530452e+17
19060.0	5.885899673261396e+17
19061.0	5.884801656902998e+17
19062.0	5.883696645144576e+17
19063.0	5.882593690692265e+17
19064.0	5.881460176541012e+17
19065.0	5.880346155417599e+17
19066.0	5.879269851572905e+17
19067.0	5.878179687650644e+17
19068.0	5.877078573099689e+17
19069.0	5.875976437235711e+17
19070.0	5.874868278351188e+17
19071.0	5.873768191404714e+17
19072.0	5.872669631184895e+17
19073.0	5.871567388366164e+17
19074.0	5.870467237806079e+17
19075.0	5.869365986241193e+17
19076.0	5.868259593857706e+17
19077.0	5.867161910247423e+17
19078.0	5.866053424207188e+17
19079.0	5.864962968081748e+17
19080.0	5.863859750786388e+17
19081.0	5.862751942825299e+17
19082.0	5.861650796118015e+17
19083.0	5.860539162252628e+17
19084.0	5.859409492880042e+17
19085.0	5.858363161531731e+17
19086.0	5.857172548922025e+17
19087.0	5.855959316430848e+17
19088.0	5.855050483455316e+17
19089.0	5.85381884006673e+17
19090.0	5.852864018644991e+17
19091.0	5.851768746060457e+17
19092.0	5.850614463812948e+17
19093.0	5.849578595155967e+17
19094.0	5.84847735267874e+17
19095.0	5.847379022446591e+17
19096.0	5.846275646466729e+17
19097.0	5.845189602050048e+17
19098.0	5.844094114157908e+17
19099.0	5.842997508483754e+17
19100.0	5.841889590771711e+17
19101.0	5.840801827389439e+17
19102.0	5.839687161741311e+17
19103.0	5.838613988245501e+17
19104.0	5.837519620931583e+17
19105.0	5.836424517517311e+17
19106.0	5.835290620286294e+17
19107.0	5.834231571808255e+17
19108.0	5.833140443196073e+17
19109.0	5.831382787948541e+17
19110.0	5.830950357303295e+17
19111.0	5.829856065486848e+17
19112.0	5.828765097656319e+17
19113.0	5.827671852318719e+17
19114.0	5.826578525192191e+17
19115.0	5.825461327582548e+17
19116.0	5.824387789881344e+17
19117.0	5.82329712054545e+17
19118.0	5.82215456137762e+17
19119.0	5.82029576048913e+17
19120.0	5.819961779945472e+17
19121.0	5.818896135225344e+17
19122.0	5.817840913350655e+17
19123.0	5.816748225855485e+17
19124.0	5.815621227555498e+17
19125.0	5.814563640792404e+17
19126.0	5.813462475210751e+17
19127.0	5.811991999763796e+17
19128.0	5.810806534264147e+17
19129.0	5.810185301218644e+17
19130.0	5.809113207756115e+17
19131.0	5.808010824428202e+17
19132.0	5.806936385650687e+17
19133.0	5.805705586016255e+17
19134.0	5.80451746971648e+17
19135.0	5.803666701287423e+17
19136.0	5.802581712437248e+17
19137.0	5.801455527133183e+17
19138.0	5.800358408355837e+17
19139.0	5.799316632021673e+17
19140.0	5.798229350285312e+17
19141.0	5.797141848347988e+17
19142.0	5.796046292647935e+17
19143.0	5.794953442973012e+17
19144.0	5.793872989563561e+17
19145.0	5.792791572163241e+17
19146.0	5.791555499589631e+17
19147.0	5.79059920806434e+17
19148.0	5.78953000517632e+17
19149.0	5.788444089384959e+17
19150.0	5.787359400427519e+17
19151.0	5.786277136476841e+17
19152.0	5.78518176113186e+17
19153.0	5.784096957530112e+17
19154.0	5.782987885685417e+17
19155.0	5.781930217133396e+17
19156.0	5.780847026241535e+17
19157.0	5.779757674616148e+17
19158.0	5.778226277602643e+17
19159.0	5.777589502563667e+17
19160.0	5.776497363823274e+17
19161.0	5.775380790465875e+17
19162.0	5.773308068888576e+17
19163.0	5.773257718366207e+17
19164.0	5.772178068865023e+17
19165.0	5.771075675750399e+17
19166.0	5.769964567571113e+17
19167.0	5.768833574895615e+17
19168.0	5.767823667582292e+17
19169.0	5.766736481615871e+17
19170.0	5.765683597366612e+17
19171.0	5.764543056358057e+17
19172.0	5.7635162830493e+17
19173.0	5.7624367593772365e+17
19174.0	5.7613456174830925e+17
19175.0	5.7602773401381536e+17
19176.0	5.759197028635988e+17
19177.0	5.758081958936575e+17
19178.0	5.7570259051915936e+17
19179.0	5.7558652811564365e+17
19180.0	5.754794733993983e+17
19181.0	5.753768254985556e+17
19182.0	5.7527020971622394e+17
19183.0	5.7516273263356576e+17
19184.0	5.750528460630698e+17
19185.0	5.749474540388351e+17
19186.0	5.7483986629645645e+17
19187.0	5.747301230313471e+17
19188.0	5.746235472347135e+17
19189.0	5.745141887270911e+17
19190.0	5.74405894943539e+17
19191.0	5.7429866371700045e+17
19192.0	5.7419255383763616e+17
19193.0	5.7408094256933536e+17
19194.0	5.7397507959466656e+17
19195.0	5.7386885087668896e+17
19196.0	5.7376136848124576e+17
19197.0	5.736537759154175e+17
19198.0	5.735458756973909e+17
19199.0	5.728148017293993e+17
19200.0	5.729368476570967e+17
19201.0	5.7320402950553594e+17
19202.0	5.73096790659345e+17
19203.0	5.7298323784772256e+17
19204.0	5.7287419328375456e+17
19205.0	5.727672399997611e+17
19206.0	5.7265968755944096e+17
19207.0	5.725504292956842e+17
19208.0	5.7243958670349645e+17
19209.0	5.7233682227090765e+17
19210.0	5.7222965843285325e+17
19211.0	5.7212232535463245e+17
19212.0	5.720149241888766e+17
19213.0	5.7190010413820576e+17
19214.0	5.717900708369749e+17
19215.0	5.716904873645396e+17
19216.0	5.7158470261364045e+17
19217.0	5.714777446460074e+17
19218.0	5.7135144045117434e+17
19219.0	5.7125936366441805e+17
19220.0	5.7115463748594336e+17
19221.0	5.7104012564671136e+17
19222.0	5.709409106438826e+17
19223.0	5.7083300189743776e+17
19224.0	5.707244882624511e+17
19225.0	5.7061526683866445e+17
19226.0	5.705110257314475e+17
19227.0	5.70403668955409e+17
19228.0	5.702970719775402e+17
19229.0	5.7018978783286605e+17
19230.0	5.7008065749538125e+17
19231.0	5.6997363815109965e+17
19232.0	5.698671999975423e+17
19233.0	5.697589761190571e+17
19234.0	5.696529269871956e+17
19235.0	5.695455890156202e+17
19236.0	5.6943909186218656e+17
19237.0	5.693315211766441e+17
19238.0	5.692217075870377e+17
19239.0	5.691175459618815e+17
19240.0	5.690056099845459e+17
19241.0	5.689014556994218e+17
19242.0	5.687955803515562e+17
19243.0	5.686848433859241e+17
19244.0	5.685815949306538e+17
19245.0	5.6847435230958925e+17
19246.0	5.6836693562490874e+17
19247.0	5.682601359223466e+17
19248.0	5.681529112668841e+17
19249.0	5.6804561216252576e+17
19250.0	5.679382772667732e+17
19251.0	5.678298019397632e+17
19252.0	5.6771683325487776e+17
19253.0	5.6761677946115405e+17
19254.0	5.675094862987262e+17
19255.0	5.673982433602217e+17
19256.0	5.672942628590932e+17
19257.0	5.6718872305554765e+17
19258.0	5.6708158165701965e+17
19259.0	5.6697264558571514e+17
19260.0	5.6685600087299405e+17
19261.0	5.667598627416747e+17
19262.0	5.6665160377084576e+17
19263.0	5.665446474809343e+17
19264.0	5.664267818063189e+17
19265.0	5.663268962740905e+17
19266.0	5.6622024204397216e+17
19267.0	5.661170887994025e+17
19268.0	5.6600987987258016e+17
19269.0	5.6590266164838394e+17
19270.0	5.657953113036115e+17
19271.0	5.656805580821845e+17
19272.0	5.6558012610205005e+17
19273.0	5.653435705021778e+17
19274.0	5.653024906499411e+17
19275.0	5.6525908463670605e+17
19276.0	5.651513096885588e+17
19277.0	5.650393709849258e+17
19278.0	5.649138727955115e+17
19279.0	5.6480443711269536e+17
19280.0	5.646972964132181e+17
19281.0	5.6459158401406285e+17
19282.0	5.6448453614851405e+17
19283.0	5.643673927330473e+17
19284.0	5.642528026700458e+17
19285.0	5.641572232899241e+17
19286.0	5.640537986738858e+17
19287.0	5.639470063812606e+17
19288.0	5.6368576765187405e+17
19289.0	5.632185166637726e+17
19290.0	5.6362414626570234e+17
19291.0	5.6351044574467405e+17
19292.0	5.634087166061226e+17
19293.0	5.633007486500862e+17
19294.0	5.6319285682066765e+17
19295.0	5.6308526537332045e+17
19296.0	5.6297769713445536e+17
19297.0	5.628696920588287e+17
19298.0	5.627616487451305e+17
19299.0	5.6265425456988154e+17
19300.0	5.625460840289621e+17
19301.0	5.6243777738287776e+17
19302.0	5.6232956308138656e+17
19303.0	5.6221901381085856e+17
19304.0	5.6211178132602874e+17
19305.0	5.620041784142506e+17
19306.0	5.618954075985236e+17
19307.0	5.6178559575654394e+17
19308.0	5.616778076662442e+17
19309.0	5.615499018065235e+17
19310.0	5.6143181649018874e+17
19311.0	5.61350461043507e+17
19312.0	5.6124316906946554e+17
19313.0	5.611331419897856e+17
19314.0	5.6055554172955174e+17
19315.0	5.604932404467039e+17
19316.0	5.608055194517503e+17
19317.0	5.606972315402239e+17
19318.0	5.605875972571135e+17
19319.0	5.6047839540674554e+17
19320.0	5.603682529138005e+17
19321.0	5.60258710835473e+17
19322.0	5.6014553033823565e+17
19323.0	5.600280993333248e+17
19324.0	5.5992782575807136e+17
19325.0	5.5979926432863565e+17
19326.0	5.597070507376639e+17
19327.0	5.5959600870632096e+17
19328.0	5.5948549634566816e+17
19329.0	5.5937441160232954e+17
19330.0	5.5926216986023245e+17
19331.0	5.59150678479121e+17
19332.0	5.590398309236735e+17
19333.0	5.589277068318036e+17
19334.0	5.588157233889279e+17
19335.0	5.5870392931887776e+17
19336.0	5.5854576449181e+17
19337.0	5.5842361741148154e+17
19338.0	5.5830597053972474e+17
19339.0	5.581973380661247e+17
19340.0	5.5808208558271136e+17
19341.0	5.5797013436607136e+17
19342.0	5.5784637073107616e+17
19343.0	5.577418282631166e+17
19344.0	5.5762712131884365e+17
19345.0	5.5746116941687443e+17
19346.0	5.573849695387648e+17
19347.0	5.572796507750398e+17
19348.0	5.5716524651970534e+17
19349.0	5.570476752852308e+17
19350.0	5.56931040219409e+17
19351.0	5.568136241741823e+17
19352.0	5.566952368679593e+17
19353.0	5.5657878012996256e+17
19354.0	5.564601054440106e+17
19355.0	5.5633873598764365e+17
19356.0	5.562212042495317e+17
19357.0	5.5610091140109645e+17
19358.0	5.559790042349566e+17
19359.0	5.558518936851796e+17
19360.0	5.557358053468842e+17
19361.0	5.556127292282197e+17
19362.0	5.55490588369442e+17
19363.0	5.5536638412281165e+17
19364.0	5.5524128851667616e+17
19365.0	5.5511574628706976e+17
19366.0	5.549891814861481e+17
19367.0	5.5486175370717856e+17
19368.0	5.5473339828797434e+17
19369.0	5.545382282351956e+17
19370.0	5.54389262635281e+17
19371.0	5.542718419763199e+17
19372.0	5.5414044736443725e+17
19373.0	5.5400583264556365e+17
19374.0	5.5387124120507725e+17
19375.0	5.537348525053267e+17
19376.0	5.535970206154751e+17
19377.0	5.534573886701566e+17
19378.0	5.5331655883161594e+17
19379.0	5.531740096779605e+17
19380.0	5.530297391120383e+17
19381.0	5.5288342256462496e+17
19382.0	5.526931966175913e+17
19383.0	5.524979437972137e+17
19384.0	5.523478690835113e+17
19385.0	5.521929335909034e+17
19386.0	5.520356989905579e+17
19387.0	5.518757500463786e+17
19388.0	5.517130532738388e+17
19389.0	5.5154741552523936e+17
19390.0	5.5130934466314234e+17
19391.0	5.5044804545522234e+17
19392.0	5.509273796739071e+17
19393.0	5.5074851749451085e+17
19394.0	5.505644153711274e+17
19395.0	5.503238970627414e+17
19396.0	5.500615086047231e+17
19397.0	5.498652050412884e+17
19398.0	5.496612312143189e+17
19399.0	5.493584068695379e+17
19400.0	5.490957611608745e+17
19401.0	5.488747640520704e+17
19402.0	5.485560876848468e+17
19403.0	5.4824636454884685e+17
19404.0	5.4797855600148474e+17
19405.0	5.475620834945706e+17
19406.0	5.4723511883311776e+17
19407.0	5.4676235114687136e+17
19408.0	5.464087987923627e+17
19409.0	5.4605561770366285e+17
19410.0	5.457454875803647e+17
19411.0	5.4542070402689696e+17
19412.0	5.4508179713338016e+17
19413.0	5.4472770650985805e+17
19414.0	5.443564423086079e+17
19415.0	5.439687695007743e+17
19416.0	5.434863877008042e+17
19417.0	5.430499716978004e+17
19418.0	5.4261091489109325e+17
19419.0	5.4213423335997434e+17
19420.0	5.415908642826922e+17
19421.0	5.4100184069570554e+17
19422.0	5.4043925080091296e+17
19423.0	5.3975424217470285e+17
19424.0	5.390763895903572e+17
19425.0	5.382763623830867e+17
19426.0	5.3744865864144186e+17
19427.0	5.364991548282196e+17
19428.0	5.353971166216191e+17
19429.0	5.341551916657324e+17
19430.0	5.326822582867286e+17
19431.0	5.3076821946313414e+17
19432.0	5.2873970675875834e+17
19433.0	5.269459352682496e+17
19434.0	5.2544578665840634e+17
19435.0	5.2379975113768934e+17
19436.0	5.219485689926995e+17
19437.0	5.200775465314988e+17
19438.0	5.169251335798779e+17
19439.0	5.154238635529559e+17
19440.0	5.1255983843136845e+17
19441.0	5.0891641977132365e+17
19442.0	5.0379552914582106e+17
19443.0	4.980280554509653e+17
19444.0	4.9324732385853414e+17
19445.0	4.876390704873476e+17
19446.0	4.803320813540694e+17
19447.0	4.697237874191013e+17
19448.0	4.5827976575931776e+17
19449.0	4.403230751238825e+17
19450.0	4.054273549664242e+17
19451.0	3.9569857190734426e+17
19452.0	4.241131170693126e+17
19453.0	4.506339918566747e+17
19454.0	4.6394033692125786e+17
19455.0	4.748370667809455e+17
19456.0	4.835510235867821e+17
19457.0	4.896296271871996e+17
19458.0	4.937037370447204e+17
19459.0	4.993808855640744e+17
19460.0	5.05071304302046e+17
19461.0	5.091143227626834e+17
19462.0	5.121013343846401e+17
19463.0	5.145453718929407e+17
19464.0	5.166344007144787e+17
19465.0	5.185053181782699e+17
19466.0	5.201250258430632e+17
19467.0	5.216786501511849e+17
19468.0	5.2303456335735475e+17
19469.0	5.2434506008057165e+17
19470.0	5.262940947087353e+17
19471.0	5.2803394723293894e+17
19472.0	5.294234848460795e+17
19473.0	5.305955721237845e+17
19474.0	5.315317891508908e+17
19475.0	5.323070416530089e+17
19476.0	5.330295795133099e+17
19477.0	5.336445546572458e+17
19478.0	5.341377270033066e+17
19479.0	5.3464965886334285e+17
19480.0	5.350509764411391e+17
19481.0	5.3539283353818426e+17
19482.0	5.3580375551290016e+17
19483.0	5.360874048978943e+17
19484.0	5.363445127970815e+17
19485.0	5.36577445147443e+17
19486.0	5.3681495264460794e+17
19487.0	5.3705397854972576e+17
19488.0	5.372284861328042e+17
19489.0	5.37385346601233e+17
19490.0	5.3749474201873043e+17
19491.0	5.3765308272694605e+17
19492.0	5.377673262006271e+17
19493.0	5.378679937608362e+17
19494.0	5.380615492861951e+17
19495.0	5.3818401135875405e+17
19496.0	5.384071127498751e+17
19497.0	5.3854084967082656e+17
19498.0	5.387200144692565e+17
19499.0	5.376848563273713e+17
19500.0	5.389014852960255e+17
19501.0	5.3898370812477434e+17
19502.0	5.389973786897066e+17
19503.0	5.390712127706453e+17
19504.0	5.391416112971775e+17
19505.0	5.3913868625947296e+17
19506.0	5.391301588200106e+17
19507.0	5.391626244106921e+17
19508.0	5.392132774122836e+17
19509.0	5.391908757045247e+17
19510.0	5.391600950356649e+17
19511.0	5.3807989964581434e+17
19512.0	5.389812653621241e+17
19513.0	5.388341404325199e+17
19514.0	5.389258462330876e+17
19515.0	5.390582638357163e+17
19516.0	5.3903379559437645e+17
19517.0	5.3898469357649914e+17
19518.0	5.3893626390555296e+17
19519.0	5.388835986167124e+17
19520.0	5.388289822075562e+17
19521.0	5.387733982423721e+17
19522.0	5.387916587739818e+17
19523.0	5.387343708727978e+17
19524.0	5.38672576471586e+17
19525.0	5.386082656976894e+17
19526.0	5.385442023178239e+17
19527.0	5.3847790505164794e+17
19528.0	5.384102224068607e+17
19529.0	5.3834145742192634e+17
19530.0	5.3827160275681274e+17
19531.0	5.382004017201151e+17
19532.0	5.3812811023428256e+17
19533.0	5.380548019093504e+17
19534.0	5.3798047311025485e+17
19535.0	5.379049490044245e+17
19536.0	5.378282300112894e+17
19537.0	5.3775222258182816e+17
19538.0	5.3770395376244045e+17
19539.0	5.376455050177195e+17
19540.0	5.3757928674426874e+17
19541.0	5.3749985040138234e+17
19542.0	5.374190034441556e+17
19543.0	5.373377383148202e+17
19544.0	5.3725583509203616e+17
19545.0	5.371657134800894e+17
19546.0	5.3706755075822925e+17
19547.0	5.3700666694041594e+17
19548.0	5.369227405950975e+17
19549.0	5.368358641860607e+17
19550.0	5.3675320654779725e+17
19551.0	5.366678311403519e+17
19552.0	5.365819498998441e+17
19553.0	5.3649528942755834e+17
19554.0	5.3640813500607136e+17
19555.0	5.3632176177370445e+17
19556.0	5.3623476002488314e+17
19557.0	5.361469688381439e+17
19558.0	5.3605901973585914e+17
19559.0	5.3597033348464634e+17
19560.0	5.358814920441855e+17
19561.0	5.357925914640383e+17
19562.0	5.3570411150267725e+17
19563.0	5.356146305007615e+17
19564.0	5.3552503688178336e+17
19565.0	5.3543513833690445e+17
19566.0	5.3534428894330854e+17
19567.0	5.352545858529962e+17
19568.0	5.351634288072021e+17
19569.0	5.35072799334946e+17
19570.0	5.349823688824147e+17
19571.0	5.3489119701674656e+17
19572.0	5.347991418306559e+17
19573.0	5.3470805930366285e+17
19574.0	5.346143867240448e+17
19575.0	5.345248859389951e+17
19576.0	5.344328283062271e+17
19577.0	5.3433886184570874e+17
19578.0	5.3424760322785274e+17
19579.0	5.341554392694783e+17
19580.0	5.340630525236564e+17
19581.0	5.3397054875675296e+17
19582.0	5.338782026956799e+17
19583.0	5.3378531619853645e+17
19584.0	5.3369204711096314e+17
19585.0	5.335965665766058e+17
19586.0	5.335020668103338e+17
19587.0	5.3340813718978554e+17
19588.0	5.333081488971091e+17
19589.0	5.332237657920852e+17
19590.0	5.331298512710315e+17
19591.0	5.3303833484328954e+17
19592.0	5.329447449613651e+17
19593.0	5.3285048098488314e+17
19594.0	5.3275032191412896e+17
19595.0	5.3266260000331085e+17
19596.0	5.324597975755434e+17
19597.0	5.3247433328558074e+17
19598.0	5.3237349333947725e+17
19599.0	5.3228641497470285e+17
19600.0	5.3219234512459085e+17
19601.0	5.320964581621759e+17
19602.0	5.320026752723626e+17
19603.0	5.31890017804834e+17
19604.0	5.3181336627008845e+17
19605.0	5.3171310765451936e+17
19606.0	5.316252234940415e+17
19607.0	5.315309194619562e+17
19608.0	5.3143584591489696e+17
19609.0	5.313652163521194e+17
19610.0	5.3129469919668896e+17
19611.0	5.3119973903564794e+17
19612.0	5.311050292745556e+17
19613.0	5.310098155678378e+17
19614.0	5.309142728179712e+17
19615.0	5.308202620376405e+17
19616.0	5.307196536171178e+17
19617.0	5.3063021316014074e+17
19618.0	5.305237668975956e+17
19619.0	5.3042382641998496e+17
19620.0	5.303302598164479e+17
19621.0	5.302500493448531e+17
19622.0	5.3015493231684256e+17
19623.0	5.3005980333506554e+17
19624.0	5.299644182910292e+17
19625.0	5.2986933027362125e+17
19626.0	5.2977425588770125e+17
19627.0	5.296790483326292e+17
19628.0	5.295697012894379e+17
19629.0	5.294865495621632e+17
19630.0	5.2938706836084045e+17
19631.0	5.286354064419494e+17
19632.0	5.292024448155647e+17
19633.0	5.2910615610873165e+17
19634.0	5.290122044680873e+17
19635.0	5.289159992279039e+17
19636.0	5.288214329120085e+17
19637.0	5.2871760053971616e+17
19638.0	5.286307676815359e+17
19639.0	5.285351160894804e+17
19640.0	5.284388675081556e+17
19641.0	5.283278417646933e+17
19642.0	5.2824935627052365e+17
19643.0	5.281535469726378e+17
19644.0	5.280574633672704e+17
19645.0	5.2795735008433485e+17
19646.0	5.2786816694790816e+17
19647.0	5.2777280581140474e+17
19648.0	5.2767744090002765e+17
19649.0	5.27582015590673e+17
19650.0	5.274867148521471e+17
19651.0	5.2739118762120525e+17
19652.0	5.2729594979723936e+17
19653.0	5.2720031309496314e+17
19654.0	5.2710506268808525e+17
19655.0	5.2700964954221216e+17
19656.0	5.269143888592894e+17
19657.0	5.2681920996529485e+17
