# Flux units: erg / (cm m2 s)
# Wavelength units: Angstrom
wave	flux
19000.0	4.407549443615402e+17
19001.0	4.4065786460897274e+17
19002.0	4.405925047697408e+17
19003.0	4.405095779270655e+17
19004.0	4.4042785121457485e+17
19005.0	4.403454255213226e+17
19006.0	4.402654608359423e+17
19007.0	4.401806821381461e+17
19008.0	4.4009328304892576e+17
19009.0	4.4000417121566714e+17
19010.0	4.398582422219433e+17
19011.0	4.398506977176233e+17
19012.0	4.3970352420399776e+17
19013.0	4.3969573006868474e+17
19014.0	4.396073466462207e+17
19015.0	4.3952549690081274e+17
19016.0	4.394411886641151e+17
19017.0	4.393704587176618e+17
19018.0	4.3928535950513485e+17
19019.0	4.3920723192490656e+17
19020.0	4.391248000101034e+17
19021.0	4.39046133322001e+17
19022.0	4.389642178658304e+17
19023.0	4.388774228262911e+17
19024.0	4.387960447303679e+17
19025.0	4.387162446714196e+17
19026.0	4.386299886698496e+17
19027.0	4.3850968016267936e+17
19028.0	4.3847772564794016e+17
19029.0	4.3839376029559456e+17
19030.0	4.3831665493715616e+17
19031.0	4.3823670339392845e+17
19032.0	4.3815407203997e+17
19033.0	4.3805978786092365e+17
19034.0	4.379908984449706e+17
19035.0	4.379042523731284e+17
19036.0	4.338752065372156e+17
19037.0	4.3774678100432205e+17
19038.0	4.3766560213783885e+17
19039.0	4.3758778878088525e+17
19040.0	4.3750750931298976e+17
19041.0	4.3742524447129594e+17
19042.0	4.37234669068834e+17
19043.0	4.372659285174955e+17
19044.0	4.3718274770971296e+17
19045.0	4.37101869994257e+17
19046.0	4.3701264631289165e+17
19047.0	4.369392371848532e+17
19048.0	4.368072082543957e+17
19049.0	4.3657592964819603e+17
19050.0	4.366880744319657e+17
19051.0	4.361092535593635e+17
19052.0	4.364447797739519e+17
19053.0	4.364569772294142e+17
19054.0	4.363770948222975e+17
19055.0	4.362309045234346e+17
19056.0	4.362006603759615e+17
19057.0	4.360640478401876e+17
19058.0	4.358723222197587e+17
19059.0	4.358563178042709e+17
19060.0	4.3581264062928205e+17
19061.0	4.357362967467349e+17
19062.0	4.35655237767441e+17
19063.0	4.3557487755919366e+17
19064.0	4.354745716178943e+17
19065.0	4.3538938851928736e+17
19066.0	4.35288141865506e+17
19067.0	4.352515982928553e+17
19068.0	4.3517327889312416e+17
19069.0	4.350929730710186e+17
19070.0	4.350079840288768e+17
19071.0	4.3492973474392736e+17
19072.0	4.348120497739094e+17
19073.0	4.3477064968656205e+17
19074.0	4.346917056850602e+17
19075.0	4.3461145159270394e+17
19076.0	4.345279246849365e+17
19077.0	4.344478217273343e+17
19078.0	4.3436295299181216e+17
19079.0	4.3428990695069005e+17
19080.0	4.3420774731612154e+17
19081.0	4.34123118285073e+17
19082.0	4.340432016943785e+17
19083.0	4.339568118246059e+17
19084.0	4.338592342780586e+17
19085.0	4.338065213838676e+17
19086.0	4.3362559679528954e+17
19087.0	4.334782956350123e+17
19088.0	4.335064801695059e+17
19089.0	4.3341919397696845e+17
19090.0	4.33405278954018e+17
19091.0	4.33313284096e+17
19092.0	4.3314874916973235e+17
19093.0	4.3316950747927885e+17
19094.0	4.3308928708116474e+17
19095.0	4.330097259577343e+17
19096.0	4.3292703106007034e+17
19097.0	4.3284943370977274e+17
19098.0	4.3272638995715405e+17
19099.0	4.3263982490528416e+17
19100.0	4.326014463945386e+17
19101.0	4.32527332343808e+17
19102.0	4.324286042297684e+17
19103.0	4.3236988089794554e+17
19104.0	4.322911577964543e+17
19105.0	4.3212006605455366e+17
19106.0	4.321141279686655e+17
19107.0	4.3202509268145485e+17
19108.0	4.319389170707114e+17
19109.0	4.316648439108945e+17
19110.0	4.318068051629396e+17
19111.0	4.317058962904404e+17
19112.0	4.316230332710911e+17
19113.0	4.315726519205887e+17
19114.0	4.314769305632768e+17
19115.0	4.313956237006165e+17
19116.0	4.313320207854251e+17
19117.0	4.3125182268702714e+17
19118.0	4.3114942539584845e+17
19119.0	4.292594151107217e+17
19120.0	4.30986777277235e+17
19121.0	4.309162454417406e+17
19122.0	4.3085804283275936e+17
19123.0	4.307786302575957e+17
19124.0	4.30685167812608e+17
19125.0	4.306174386809513e+17
19126.0	4.30539434762786e+17
19127.0	4.301587027591168e+17
19128.0	4.303508943667199e+17
19129.0	4.302910087233534e+17
19130.0	4.302199583320746e+17
19131.0	4.301428169026219e+17
19132.0	4.3006336378251936e+17
19133.0	4.299697713141077e+17
19134.0	4.298917590073343e+17
19135.0	4.298246133033642e+17
19136.0	4.297471837252266e+17
19137.0	4.2964105091700045e+17
19138.0	4.2958553308200954e+17
19139.0	4.295094790258687e+17
19140.0	4.2943052083363834e+17
19141.0	4.293512442937344e+17
19142.0	4.292674177029459e+17
19143.0	4.291829498729813e+17
19144.0	4.291081000015189e+17
19145.0	4.290342771752959e+17
19146.0	4.288614247344811e+17
19147.0	4.288585640793429e+17
19148.0	4.287615797471915e+17
19149.0	4.28677871435776e+17
19150.0	4.286380693083477e+17
19151.0	4.285597412403882e+17
19152.0	4.2847762180123296e+17
19153.0	4.283337747901097e+17
19154.0	4.282922267836414e+17
19155.0	4.282437794267136e+17
19156.0	4.2816542563368954e+17
19157.0	4.280584480227328e+17
19158.0	4.2781135654092774e+17
19159.0	4.279254034415615e+17
19160.0	4.2784579401373005e+17
19161.0	4.2776814612206925e+17
19162.0	4.273392527430999e+17
19163.0	4.276048601197227e+17
19164.0	4.2753326488835405e+17
19165.0	4.273723349663741e+17
19166.0	4.2734541438539085e+17
19167.0	4.272653120569343e+17
19168.0	4.272180655991465e+17
19169.0	4.27132927938833e+17
19170.0	4.2706229564975776e+17
19171.0	4.269603442829994e+17
19172.0	4.26903062253841e+17
19173.0	4.268251902465366e+17
19174.0	4.2673791586795514e+17
19175.0	4.2666900058712736e+17
19176.0	4.265905301924523e+17
19177.0	4.2648835652758163e+17
19178.0	4.26425062592785e+17
19179.0	4.26322912416017e+17
19180.0	4.262740116548266e+17
19181.0	4.261727214501887e+17
19182.0	4.2611448123228154e+17
19183.0	4.2604113082449914e+17
19184.0	4.259616609271807e+17
19185.0	4.2588223702739616e+17
19186.0	4.258056805635413e+17
19187.0	4.257178907749035e+17
19188.0	4.25648059318272e+17
19189.0	4.255697262171476e+17
19190.0	4.254899001535146e+17
19191.0	4.254059735285759e+17
19192.0	4.253354344928597e+17
19193.0	4.252466905000619e+17
19194.0	4.2516311654618445e+17
19195.0	4.2510011963801594e+17
19196.0	4.250190319277397e+17
19197.0	4.249415462857386e+17
19198.0	4.248611449733119e+17
19199.0	4.227818026871461e+17
19200.0	4.233381484516701e+17
19201.0	4.246265820872704e+17
19202.0	4.245520868442112e+17
19203.0	4.244680659173375e+17
19204.0	4.243913317548032e+17
19205.0	4.2431714842815136e+17
19206.0	4.2423739646388896e+17
19207.0	4.241435778525865e+17
19208.0	4.240432189232468e+17
19209.0	4.240043204586155e+17
19210.0	4.2392646508871674e+17
19211.0	4.238506134776491e+17
19212.0	4.2377208925607245e+17
19213.0	4.236620129632255e+17
19214.0	4.235709990131028e+17
19215.0	4.235260147531775e+17
19216.0	4.234558105627306e+17
19217.0	4.2337690619740154e+17
19218.0	4.231656987339431e+17
19219.0	4.232012853761364e+17
19220.0	4.231391905928533e+17
19221.0	4.230140193494357e+17
19222.0	4.229866968143187e+17
19223.0	4.2290698196964685e+17
19224.0	4.228259859748181e+17
19225.0	4.227305890469204e+17
19226.0	4.2267351204932256e+17
19227.0	4.22596171600145e+17
19228.0	4.225215545125546e+17
19229.0	4.224436643998379e+17
19230.0	4.2236461330377376e+17
19231.0	4.222856016341674e+17
19232.0	4.222087205311828e+17
19233.0	4.2212192940632736e+17
19234.0	4.220506163118079e+17
19235.0	4.219720394517161e+17
19236.0	4.218993086824447e+17
19237.0	4.2181874819618125e+17
19238.0	4.2172609014879565e+17
19239.0	4.2166655829497165e+17
19240.0	4.215868965082453e+17
19241.0	4.2150745030874445e+17
19242.0	4.2143107273195514e+17
19243.0	4.2133330042989216e+17
19244.0	4.2127855036224845e+17
19245.0	4.2120019957514234e+17
19246.0	4.211205634435753e+17
19247.0	4.210444718484138e+17
19248.0	4.2096760402739194e+17
19249.0	4.2088676063532365e+17
19250.0	4.207965193459029e+17
19251.0	4.2070271890991776e+17
19252.0	4.206203221573632e+17
19253.0	4.205760772134228e+17
19254.0	4.2050263893497165e+17
19255.0	4.204004463957332e+17
19256.0	4.203419546593962e+17
19257.0	4.2027050713743354e+17
19258.0	4.2019319849506125e+17
19259.0	4.2010611481750163e+17
19260.0	4.1994998401815885e+17
19261.0	4.199589418631167e+17
19262.0	4.198742706094079e+17
19263.0	4.197943679997268e+17
19264.0	4.196337210534569e+17
19265.0	4.1961548589738656e+17
19266.0	4.195143053038934e+17
19267.0	4.194967629070336e+17
19268.0	4.1941833130967034e+17
19269.0	4.193415501010261e+17
19270.0	4.192644595624617e+17
19271.0	4.191283676796245e+17
19272.0	4.191044220485631e+17
19273.0	4.1893746092714656e+17
19274.0	4.188719965099348e+17
19275.0	4.188781860443477e+17
19276.0	4.1879775124739405e+17
19277.0	4.1872146231022925e+17
19278.0	4.1864292236001274e+17
19279.0	4.185634613406378e+17
19280.0	4.184763434795008e+17
19281.0	4.184114879354197e+17
19282.0	4.183367915055786e+17
19283.0	4.182287177831764e+17
19284.0	4.181700642865151e+17
19285.0	4.180790425070249e+17
19286.0	4.180222850454868e+17
19287.0	4.179498973003775e+17
19288.0	4.167310772972188e+17
19289.0	4.152488601059289e+17
19290.0	4.177182934259029e+17
19291.0	4.1760459605060256e+17
19292.0	4.1756428508419405e+17
19293.0	4.1748622894694394e+17
19294.0	4.17408095424785e+17
19295.0	4.173329329378645e+17
19296.0	4.1721456583420576e+17
19297.0	4.1716273570119674e+17
19298.0	4.170965634951851e+17
19299.0	4.169763028030806e+17
19300.0	4.169421346045951e+17
19301.0	4.1686826620026874e+17
19302.0	4.1678893639270394e+17
19303.0	4.167018769022975e+17
19304.0	4.1663177708011514e+17
19305.0	4.1655680934871034e+17
19306.0	4.1647961381273594e+17
19307.0	4.163946321106261e+17
19308.0	4.1632144542050976e+17
19309.0	4.161693145890814e+17
19310.0	4.160697501308244e+17
19311.0	4.1608114332849485e+17
19312.0	4.160160313726291e+17
19313.0	4.159394999347881e+17
19314.0	4.0738749953693734e+17
19315.0	4.0789161300460275e+17
19316.0	4.156447724841642e+17
19317.0	4.1562867327740576e+17
19318.0	4.1555144355785376e+17
19319.0	4.1547612441367885e+17
19320.0	4.153790725532329e+17
19321.0	4.1528501269954554e+17
19322.0	4.152287759608489e+17
19323.0	4.1513317001680205e+17
19324.0	4.150856788213759e+17
19325.0	4.1493538956902394e+17
19326.0	4.1493269983177376e+17
19327.0	4.1485077780452685e+17
19328.0	4.1469764418491725e+17
19329.0	4.1470041179641165e+17
19330.0	4.1461610523743565e+17
19331.0	4.145375782196564e+17
19332.0	4.144652820501845e+17
19333.0	4.143850148156757e+17
19334.0	4.143048684470272e+17
19335.0	4.140724789794134e+17
19336.0	4.141486353066666e+17
19337.0	4.140753636119893e+17
19338.0	4.1396518686556154e+17
19339.0	4.1391822163585696e+17
19340.0	4.1374528852459514e+17
19341.0	4.136058384722603e+17
19342.0	4.135094595179859e+17
19343.0	4.135173591400448e+17
19344.0	4.1338141818224646e+17
19345.0	4.1298954142351296e+17
19346.0	4.131228640870399e+17
19347.0	4.131175739512149e+17
19348.0	4.1312394398050976e+17
19349.0	4.130391127141033e+17
19350.0	4.1292042998906874e+17
19351.0	4.1280949204637e+17
19352.0	4.1264524191334374e+17
19353.0	4.1265665748063565e+17
19354.0	4.125784344799914e+17
19355.0	4.1248383467956896e+17
19356.0	4.124183278998868e+17
19357.0	4.123381754494976e+17
19358.0	4.1225641343494816e+17
19359.0	4.1214714755153914e+17
19360.0	4.120308270585172e+17
19361.0	4.120095262856532e+17
19362.0	4.1193524586086394e+17
19363.0	4.118537132747434e+17
19364.0	4.117718396218025e+17
19365.0	4.1168971130470394e+17
19366.0	4.1160843862562125e+17
19367.0	4.1152578525156685e+17
19368.0	4.1144403945499296e+17
19369.0	4.113515904237568e+17
19370.0	4.112667969060864e+17
19371.0	4.111868184494079e+17
19372.0	4.1111064821104634e+17
19373.0	4.10945681690897e+17
19374.0	4.108331975879338e+17
19375.0	4.107482465741482e+17
19376.0	4.106641593772714e+17
19377.0	4.105768480189098e+17
19378.0	4.104912949127849e+17
19379.0	4.104052053551786e+17
19380.0	4.1031787680017056e+17
19381.0	4.102297886567082e+17
19382.0	4.101320400524629e+17
19383.0	4.100357609925291e+17
19384.0	4.09961004793856e+17
19385.0	4.098728978459306e+17
19386.0	4.097066348664148e+17
19387.0	4.095582756929535e+17
19388.0	4.0946549020863136e+17
19389.0	4.0937207984291834e+17
19390.0	4.092764769047894e+17
19391.0	4.055673830637516e+17
19392.0	4.0901162002896154e+17
19393.0	4.0889022610582163e+17
19394.0	4.0862879408892576e+17
19395.0	4.085019575670102e+17
19396.0	4.0841459825377274e+17
19397.0	4.0832403589038086e+17
19398.0	4.081899971892565e+17
19399.0	4.0777230651665056e+17
19400.0	4.0778526314113696e+17
19401.0	4.077018392734378e+17
19402.0	4.075339140213416e+17
19403.0	4.0725457666047994e+17
19404.0	4.0704773413928954e+17
19405.0	4.068361050783743e+17
19406.0	4.0663350320824314e+17
19407.0	4.064774825093801e+17
19408.0	4.062345904346455e+17
19409.0	4.0623353731481594e+17
19410.0	4.059437678111403e+17
19411.0	4.0578008516744525e+17
19412.0	4.0562492199403526e+17
19413.0	4.0539483450026656e+17
19414.0	4.050871404287317e+17
19415.0	4.0491394587252045e+17
19416.0	4.0454390626822835e+17
19417.0	4.0424321088225274e+17
19418.0	4.0389688293676326e+17
19419.0	4.0353378588426234e+17
19420.0	4.0295538765769376e+17
19421.0	4.023973974463829e+17
19422.0	4.016830047846399e+17
19423.0	4.009916124277419e+17
19424.0	4.005320825241599e+17
19425.0	4.001046746977622e+17
19426.0	3.996432460327595e+17
19427.0	3.991429230275242e+17
19428.0	3.986077690538665e+17
19429.0	3.980256686549674e+17
19430.0	3.9734143024278195e+17
19431.0	3.9617753479031546e+17
19432.0	3.9599828093282976e+17
19433.0	3.952128761877845e+17
19434.0	3.9437550709200205e+17
19435.0	3.93410901058082e+17
19436.0	3.922891151594834e+17
19437.0	3.91570239975151e+17
19438.0	3.8415996806321696e+17
19439.0	3.8927359534257517e+17
19440.0	3.8847273395814394e+17
19441.0	3.874262421777065e+17
19442.0	3.8644524571252045e+17
19443.0	3.853389957256534e+17
19444.0	3.839972120810834e+17
19445.0	3.8107318730096666e+17
19446.0	3.739512436599455e+17
19447.0	3.688254177367378e+17
19448.0	3.632814197746351e+17
19449.0	3.4918208030201094e+17
19450.0	3.082959218278413e+17
19451.0	2.8812070187171747e+17
19452.0	3.337208198769318e+17
19453.0	3.585390958433636e+17
19454.0	3.6579436459458515e+17
19455.0	3.709367109025792e+17
19456.0	3.7705408881622874e+17
19457.0	3.821495044276219e+17
19458.0	3.60446160308388e+17
19459.0	3.834966042127104e+17
19460.0	3.8571206879040845e+17
19461.0	3.865896422473727e+17
19462.0	3.875309431204523e+17
19463.0	3.884199338224297e+17
19464.0	3.892855979726165e+17
19465.0	3.9013494292479994e+17
19466.0	3.9093047684410016e+17
19467.0	3.917139777246548e+17
19468.0	3.9242820485119994e+17
19469.0	3.929905353282899e+17
19470.0	3.9369520063010125e+17
19471.0	3.9424995961951565e+17
19472.0	3.947436488436395e+17
19473.0	3.951920879588693e+17
19474.0	3.955554309373951e+17
19475.0	3.958303536534867e+17
19476.0	3.96293811802385e+17
19477.0	3.965974623551487e+17
19478.0	3.9685866235712845e+17
19479.0	3.9721966652183866e+17
19480.0	3.978697582662999e+17
19481.0	3.9837172480955686e+17
19482.0	3.987362490438994e+17
19483.0	3.990231752987989e+17
19484.0	3.9932522041180154e+17
19485.0	3.994298399850496e+17
19486.0	3.996032780206079e+17
19487.0	3.997571305439232e+17
19488.0	3.998041096847362e+17
19489.0	3.999791834988543e+17
19490.0	3.997536336128679e+17
19491.0	4.00005954343185e+17
19492.0	4.0005109407197875e+17
19493.0	4.0016247437393914e+17
19494.0	4.0014826267388576e+17
19495.0	4.0013055648945485e+17
19496.0	4.0002996799187616e+17
19497.0	4.001763524870143e+17
19498.0	3.997346594903383e+17
19499.0	3.946715145742999e+17
19500.0	4.0040421986577056e+17
19501.0	4.0041467899194016e+17
19502.0	4.003754388313429e+17
19503.0	4.0033906345028256e+17
19504.0	4.0045046661119974e+17
19505.0	4.004320757765461e+17
19506.0	4.0038980145643514e+17
19507.0	4.0033948225153696e+17
19508.0	4.00296490635537e+17
19509.0	4.003065844378283e+17
19510.0	4.0030407624403616e+17
19511.0	3.8631303027533984e+17
19512.0	3.993983561411232e+17
19513.0	3.986632227859089e+17
19514.0	3.990235908844186e+17
19515.0	4.0006242547357024e+17
19516.0	4.001057833222143e+17
19517.0	4.000456707670015e+17
19518.0	4.0010173134493e+17
19519.0	4.00047302840593e+17
19520.0	3.999483210410665e+17
19521.0	3.999483622151509e+17
19522.0	3.9987604178862074e+17
19523.0	3.99810378002159e+17
19524.0	3.997257224770902e+17
19525.0	3.99701266329327e+17
19526.0	3.9964240046107315e+17
19527.0	3.995771764473855e+17
19528.0	3.995109621585236e+17
19529.0	3.9944434304942074e+17
19530.0	3.9938890155076256e+17
19531.0	3.993249009456468e+17
19532.0	3.992602181369855e+17
19533.0	3.991957333693781e+17
19534.0	3.991981408299689e+17
19535.0	3.991634760258901e+17
19536.0	3.9909406392975354e+17
19537.0	3.990335378860714e+17
19538.0	3.9889391810423475e+17
19539.0	3.9880657193315e+17
19540.0	3.988308158491306e+17
19541.0	3.987565542987093e+17
19542.0	3.9869505224048634e+17
19543.0	3.985774870178475e+17
19544.0	3.9856189084794874e+17
19545.0	3.984138122035199e+17
19546.0	3.982800151642112e+17
19547.0	3.983656875283798e+17
19548.0	3.982973413446997e+17
19549.0	3.9821568705385805e+17
19550.0	3.9816136291778554e+17
19551.0	3.980935505990997e+17
19552.0	3.9802485957372576e+17
19553.0	3.979523125848747e+17
19554.0	3.9788043074273274e+17
19555.0	3.978105816700244e+17
19556.0	3.9774602741678074e+17
19557.0	3.976804217913344e+17
19558.0	3.976118572941311e+17
19559.0	3.9754322960274765e+17
19560.0	3.9745080454894925e+17
19561.0	3.974010835916117e+17
19562.0	3.97315122729233e+17
19563.0	3.972669222070954e+17
19564.0	3.971972632062634e+17
19565.0	3.971277637986985e+17
19566.0	3.970537146897749e+17
19567.0	3.969889582710782e+17
19568.0	3.969163062149119e+17
19569.0	3.968463237633364e+17
19570.0	3.967793331088042e+17
19571.0	3.96708940943633e+17
19572.0	3.966358621170346e+17
19573.0	3.9656065090628256e+17
19574.0	3.964859634941951e+17
19575.0	3.9643055932484256e+17
19576.0	3.963571330700629e+17
19577.0	3.962773746745342e+17
19578.0	3.96213334642961e+17
19579.0	3.961471137830229e+17
19580.0	3.9607697432466765e+17
19581.0	3.9600818186704205e+17
19582.0	3.959409939404116e+17
19583.0	3.9587088712772256e+17
19584.0	3.957983919385257e+17
19585.0	3.9571389244156576e+17
19586.0	3.956386850056874e+17
19587.0	3.9557671514275834e+17
19588.0	3.95439748607727e+17
19589.0	3.9544624614386336e+17
19590.0	3.9535497864806394e+17
19591.0	3.953073197503829e+17
19592.0	3.952379783981738e+17
19593.0	3.9516029073053e+17
19594.0	3.950565233000448e+17
19595.0	3.950208455016447e+17
19596.0	3.9489793498808314e+17
19597.0	3.9488318781521914e+17
19598.0	3.947163408487764e+17
19599.0	3.9474539276533754e+17
19600.0	3.94676143198481e+17
19601.0	3.945954663202816e+17
19602.0	3.9452722401553056e+17
19603.0	3.943623887770963e+17
19604.0	3.9438412785472845e+17
19605.0	3.942780723615061e+17
19606.0	3.942528144725332e+17
19607.0	3.9418341901380256e+17
19608.0	3.941105540268031e+17
19609.0	3.940342608254293e+17
19610.0	3.939431606124544e+17
19611.0	3.938612055201109e+17
19612.0	3.938318012820139e+17
19613.0	3.937599009849343e+17
19614.0	3.9368533660576416e+17
19615.0	3.9364816402732365e+17
19616.0	3.9356623130460166e+17
19617.0	3.935142498271232e+17
19618.0	3.9338147976314854e+17
19619.0	3.932853913343315e+17
19620.0	3.932099236418899e+17
19621.0	3.932207063586133e+17
19622.0	3.9320464545983136e+17
19623.0	3.9313180375121914e+17
19624.0	3.930551626323285e+17
19625.0	3.929934899358378e+17
19626.0	3.929217741881343e+17
19627.0	3.9285223905908045e+17
19628.0	3.9272605034741766e+17
19629.0	3.9255913123894605e+17
19630.0	3.9250400207612576e+17
19631.0	3.902440137031682e+17
19632.0	3.924981048847018e+17
19633.0	3.924160165533012e+17
19634.0	3.923600019729065e+17
19635.0	3.922738935409323e+17
19636.0	3.921567762000553e+17
19637.0	3.9204308120152736e+17
19638.0	3.920679208484863e+17
19639.0	3.9200634168497485e+17
19640.0	3.919124705749675e+17
19641.0	3.916184154013701e+17
19642.0	3.917922985923925e+17
19643.0	3.917209838900565e+17
19644.0	3.916471907035818e+17
19645.0	3.915392321847294e+17
19646.0	3.9144889931967136e+17
19647.0	3.9144329209446394e+17
19648.0	3.9137600217634125e+17
19649.0	3.913051595429204e+17
19650.0	3.912359145198932e+17
19651.0	3.911651767440725e+17
19652.0	3.91094623797248e+17
19653.0	3.9102388727971834e+17
19654.0	3.909542838534143e+17
19655.0	3.908831274860543e+17
19656.0	3.9081403541531296e+17
