# Flux units: erg / (cm m2 s)
# Wavelength units: Angstrom
wave	flux
19000.0	8.919989172043775e+17
19001.0	8.918258687497555e+17
19002.0	8.917168956986707e+17
19003.0	8.915739823396182e+17
19004.0	8.914314517807101e+17
19005.0	8.912882583819604e+17
19006.0	8.911453602622118e+17
19007.0	8.909812927911252e+17
19008.0	8.910364023106222e+17
19009.0	8.909392250404861e+17
19010.0	8.907054163602088e+17
19011.0	8.9066896897693e+17
19012.0	8.904648425471997e+17
19013.0	8.903853385362089e+17
19014.0	8.902168424393386e+17
19015.0	8.900792529103532e+17
19016.0	8.899325369952937e+17
19017.0	8.897850212264617e+17
19018.0	8.896418041997996e+17
19019.0	8.89493880325188e+17
19020.0	8.893387168022527e+17
19021.0	8.891973856744788e+17
19022.0	8.890471733876051e+17
19023.0	8.888823877118634e+17
19024.0	8.887401598418944e+17
19025.0	8.885872139872937e+17
19026.0	8.884321460944895e+17
19027.0	8.8824782796445e+17
19028.0	8.881410483945471e+17
19029.0	8.879844353201491e+17
19030.0	8.878403959302824e+17
19031.0	8.876888452410024e+17
19032.0	8.875343975459497e+17
19033.0	8.873490931952296e+17
19034.0	8.872118014618281e+17
19035.0	8.87002621175398e+17
19036.0	8.836750278743375e+17
19037.0	8.867143314221736e+17
19038.0	8.865902493695999e+17
19039.0	8.864461189633364e+17
19040.0	8.862936589489492e+17
19041.0	8.861352512716799e+17
19042.0	8.8595115306298e+17
19043.0	8.858253358268413e+17
19044.0	8.856634386284543e+17
19045.0	8.855076202348544e+17
19046.0	8.85332887487556e+17
19047.0	8.851834593957203e+17
19048.0	8.849774304296957e+17
19049.0	8.848493175111677e+17
19050.0	8.846902946693117e+17
19051.0	8.840302844444664e+17
19052.0	8.842471291224063e+17
19053.0	8.842266005209088e+17
19054.0	8.840761168625663e+17
19055.0	8.838338453351082e+17
19056.0	8.837488785227776e+17
19057.0	8.8359415330461e+17
19058.0	8.834259979250345e+17
19059.0	8.832731391721468e+17
19060.0	8.831078535353683e+17
19061.0	8.829524587664723e+17
19062.0	8.827881334854995e+17
19063.0	8.826265772840276e+17
19064.0	8.824257604397737e+17
19065.0	8.822387627087187e+17
19066.0	8.82116323704832e+17
19067.0	8.819710028152831e+17
19068.0	8.818124656738303e+17
19069.0	8.816490086137856e+17
19070.0	8.814755284254717e+17
19071.0	8.813163857663315e+17
19072.0	8.811557163805353e+17
19073.0	8.809888830455807e+17
19074.0	8.808268966483284e+17
19075.0	8.80661689864465e+17
19076.0	8.804909365329919e+17
19077.0	8.803264218092884e+17
19078.0	8.801518541777577e+17
19079.0	8.799972466797225e+17
19080.0	8.798263011093161e+17
19081.0	8.796500434528936e+17
19082.0	8.794860532968105e+17
19083.0	8.792838110882472e+17
19084.0	8.79073297292766e+17
19085.0	8.789868974265684e+17
19086.0	8.786750349858132e+17
19087.0	8.786012609533267e+17
19088.0	8.784542131290111e+17
19089.0	8.783311839865516e+17
19090.0	8.782389632652628e+17
19091.0	8.780781932161705e+17
19092.0	8.778909764026365e+17
19093.0	8.77752406385186e+17
19094.0	8.775858557463209e+17
19095.0	8.774169279157587e+17
19096.0	8.772447205588991e+17
19097.0	8.770780941429416e+17
19098.0	8.76907367235584e+17
19099.0	8.767364754920788e+17
19100.0	8.765607921756841e+17
19101.0	8.763928558785876e+17
19102.0	8.761998829420544e+17
19103.0	8.76050233251157e+17
19104.0	8.758803663159295e+17
19105.0	8.757046030281386e+17
19106.0	8.75523068517854e+17
19107.0	8.753498425043624e+17
19108.0	8.751676981422761e+17
19109.0	8.747471843535528e+17
19110.0	8.747791085993983e+17
19111.0	8.746611804296532e+17
19112.0	8.744960959796562e+17
19113.0	8.743247652323327e+17
19114.0	8.741492934486697e+17
19115.0	8.739566659829759e+17
19116.0	8.73794293010705e+17
19117.0	8.736174186517843e+17
19118.0	8.734177386037247e+17
19119.0	8.726831198197068e+17
19120.0	8.730657889626794e+17
19121.0	8.729048907076947e+17
19122.0	8.727534123002537e+17
19123.0	8.72577479422771e+17
19124.0	8.723773403780436e+17
19125.0	8.722205591120553e+17
19126.0	8.720355887677437e+17
19127.0	8.713931006672893e+17
19128.0	8.715450712063999e+17
19129.0	8.714855167033344e+17
19130.0	8.713338632536061e+17
19131.0	8.711580244683433e+17
19132.0	8.709815305327955e+17
19133.0	8.707448319770624e+17
19134.0	8.705638761409194e+17
19135.0	8.704481492817236e+17
19136.0	8.702705509859327e+17
19137.0	8.700494089639252e+17
19138.0	8.699071777385128e+17
19139.0	8.697339169122986e+17
19140.0	8.695555064594431e+17
19141.0	8.69375758443042e+17
19142.0	8.691816916320255e+17
19143.0	8.689947870145192e+17
19144.0	8.688150965998931e+17
19145.0	8.686465658301096e+17
19146.0	8.682715735217495e+17
19147.0	8.682619571011581e+17
19148.0	8.681013467152383e+17
19149.0	8.679183966273535e+17
19150.0	8.677378498756607e+17
19151.0	8.675535932620799e+17
19152.0	8.673667352013482e+17
19153.0	8.671800486876498e+17
19154.0	8.669677244907517e+17
19155.0	8.66812401164834e+17
19156.0	8.666229701782185e+17
19157.0	8.663717963803304e+17
19158.0	8.658843145164115e+17
19159.0	8.657936721117183e+17
19160.0	8.656196865097725e+17
19161.0	8.65406271234594e+17
19162.0	8.648460805515946e+17
19163.0	8.649866891405994e+17
19164.0	8.648835285559977e+17
19165.0	8.64700137227332e+17
19166.0	8.644880501484201e+17
19167.0	8.642952874863273e+17
19168.0	8.641312155413161e+17
19169.0	8.639515811905535e+17
19170.0	8.637709312589821e+17
19171.0	8.635729143922688e+17
19172.0	8.633907595444221e+17
19173.0	8.632068755248467e+17
19174.0	8.630035970435754e+17
19175.0	8.628300215047507e+17
19176.0	8.626376370290685e+17
19177.0	8.623990569085612e+17
19178.0	8.62245972362308e+17
19179.0	8.620483441677652e+17
19180.0	8.618661031968767e+17
19181.0	8.616574744614226e+17
19182.0	8.614841303083689e+17
19183.0	8.612994556624892e+17
19184.0	8.6109811914397e+17
19185.0	8.609095219849897e+17
19186.0	8.607204571611135e+17
19187.0	8.603157856780284e+17
19188.0	8.600085140428115e+17
19189.0	8.598088082696876e+17
19190.0	8.596088688738301e+17
19191.0	8.594043448240809e+17
19192.0	8.592172799841619e+17
19193.0	8.590094863346344e+17
19194.0	8.588027126000297e+17
19195.0	8.585960399481513e+17
19196.0	8.583645923814058e+17
19197.0	8.581013761774932e+17
19198.0	8.576675918905343e+17
19199.0	8.552633154753871e+17
19200.0	8.554718285878615e+17
19201.0	8.571057020949842e+17
19202.0	8.571183336609107e+17
19203.0	8.569766155386876e+17
19204.0	8.568050683652777e+17
19205.0	8.566225223286783e+17
19206.0	8.564299229648212e+17
19207.0	8.562057400724137e+17
19208.0	8.559924023918591e+17
19209.0	8.557158186614781e+17
19210.0	8.552395478925312e+17
19211.0	8.550401462064466e+17
19212.0	8.548317259279017e+17
19213.0	8.54585173553971e+17
19214.0	8.543641850434902e+17
19215.0	8.542016936520361e+17
19216.0	8.540033665466365e+17
19217.0	8.537892097185107e+17
19218.0	8.53370883818564e+17
19219.0	8.533135746662397e+17
19220.0	8.531588304338943e+17
19221.0	8.528754232699562e+17
19222.0	8.527389610300756e+17
19223.0	8.525287025278975e+17
19224.0	8.523058139977046e+17
19225.0	8.516564675111596e+17
19226.0	8.514002236385961e+17
19227.0	8.511841670703786e+17
19228.0	8.509777859226282e+17
19229.0	8.507610138061481e+17
19230.0	8.505352414123348e+17
19231.0	8.503159349575676e+17
19232.0	8.501002384004436e+17
19233.0	8.498604519981055e+17
19234.0	8.496566250416809e+17
19235.0	8.494288023322621e+17
19236.0	8.492196185505791e+17
19237.0	8.488477100343295e+17
19238.0	8.484513565551272e+17
19239.0	8.482561453981693e+17
19240.0	8.480164888794451e+17
19241.0	8.477897312436221e+17
19242.0	8.475699079107923e+17
19243.0	8.472876401994408e+17
19244.0	8.471194267986601e+17
19245.0	8.468873464512511e+17
19246.0	8.466540266870098e+17
19247.0	8.464241352070483e+17
19248.0	8.461950887395327e+17
19249.0	8.459601144621736e+17
19250.0	8.457213057520979e+17
19251.0	8.454540286230525e+17
19252.0	8.451594931317418e+17
19253.0	8.450141315574442e+17
19254.0	8.447819814447782e+17
19255.0	8.444833260284582e+17
19256.0	8.442944751140861e+17
19257.0	8.440674638626812e+17
19258.0	8.438281591062527e+17
19259.0	8.435622420501843e+17
19260.0	8.432911732703228e+17
19261.0	8.43096636277828e+17
19262.0	8.428373063761919e+17
19263.0	8.42588923887616e+17
19264.0	8.422282376511484e+17
19265.0	8.420663445072553e+17
19266.0	8.418347425901226e+17
19267.0	8.416185715174056e+17
19268.0	8.413654023492947e+17
19269.0	8.411142759470419e+17
19270.0	8.408579712570708e+17
19271.0	8.405206205901485e+17
19272.0	8.403333352696489e+17
19273.0	8.396292865305253e+17
19274.0	8.395005016844965e+17
19275.0	8.395750042675881e+17
19276.0	8.393146822732456e+17
19277.0	8.390558925979644e+17
19278.0	8.38795164594995e+17
19279.0	8.3851957239808e+17
19280.0	8.38245695811311e+17
19281.0	8.379967648475817e+17
19282.0	8.377313758543871e+17
19283.0	8.374463628312572e+17
19284.0	8.371344618029055e+17
19285.0	8.368889821921279e+17
19286.0	8.366370318887594e+17
19287.0	8.363558198837247e+17
19288.0	8.352020735284557e+17
19289.0	8.339154117765772e+17
19290.0	8.35524725536631e+17
19291.0	8.351742675298988e+17
19292.0	8.349784571467092e+17
19293.0	8.346960964616191e+17
19294.0	8.344095796406953e+17
19295.0	8.34126598058803e+17
19296.0	8.338359271991978e+17
19297.0	8.335386154980691e+17
19298.0	8.332475486961663e+17
19299.0	8.329648117820073e+17
19300.0	8.326694458185042e+17
19301.0	8.323710072477012e+17
19302.0	8.320682546954237e+17
19303.0	8.31750304502033e+17
19304.0	8.314598376254122e+17
19305.0	8.311583595823101e+17
19306.0	8.308530173269331e+17
19307.0	8.305320718412458e+17
19308.0	8.302232910954492e+17
19309.0	8.298460429505875e+17
19310.0	8.294865290220884e+17
19311.0	8.29270443233553e+17
19312.0	8.289801362997245e+17
19313.0	8.2866404865693e+17
19314.0	8.272190878602579e+17
19315.0	8.269737324008801e+17
19316.0	8.276929358594048e+17
19317.0	8.273766661838162e+17
19318.0	8.270246228699816e+17
19319.0	8.266865647637846e+17
19320.0	8.263553734322856e+17
19321.0	8.260191644549119e+17
19322.0	8.256535044729514e+17
19323.0	8.25313781367876e+17
19324.0	8.249923869518505e+17
19325.0	8.246278187472212e+17
19326.0	8.2430701614749e+17
19327.0	8.2396103849629e+17
19328.0	8.236114350090922e+17
19329.0	8.23255950828066e+17
19330.0	8.228879210643455e+17
19331.0	8.22520246837794e+17
19332.0	8.221641400822442e+17
19333.0	8.217885063249917e+17
19334.0	8.214190324624042e+17
19335.0	8.210417604100096e+17
19336.0	8.205978026988883e+17
19337.0	8.201995766027603e+17
19338.0	8.197541615108096e+17
19339.0	8.194171633052328e+17
19340.0	8.190085210745513e+17
19341.0	8.186090677250728e+17
19342.0	8.181198281681576e+17
19343.0	8.17797001117696e+17
19344.0	8.173767816293034e+17
19345.0	8.165363109156174e+17
19346.0	8.163221693267964e+17
19347.0	8.160702296489983e+17
19348.0	8.155613079011327e+17
19349.0	8.1511194820608e+17
19350.0	8.146708603775657e+17
19351.0	8.142174001911124e+17
19352.0	8.137514773293737e+17
19353.0	8.133087633691986e+17
19354.0	8.128345061457919e+17
19355.0	8.123249021244758e+17
19356.0	8.117850690551807e+17
19357.0	8.111969327032998e+17
19358.0	8.106872165542569e+17
19359.0	8.101636076120745e+17
19360.0	8.096566966135466e+17
19361.0	8.091387133515092e+17
19362.0	8.086186862051327e+17
19363.0	8.080073448663718e+17
19364.0	8.073204874608637e+17
19365.0	8.067695255049556e+17
19366.0	8.062133928110761e+17
19367.0	8.056492903803562e+17
19368.0	8.050773673902076e+17
19369.0	8.043903107552593e+17
19370.0	8.035959793429162e+17
19371.0	8.030314056122365e+17
19372.0	8.024477448623446e+17
19373.0	8.018310815110484e+17
19374.0	8.011358448648192e+17
19375.0	8.002117451819689e+17
19376.0	7.995485739898195e+17
19377.0	7.988639569018879e+17
19378.0	7.981680944655017e+17
19379.0	7.972576998107816e+17
19380.0	7.963636605648896e+17
19381.0	7.956368129873236e+17
19382.0	7.948787212004012e+17
19383.0	7.940652109135871e+17
19384.0	7.929330610296146e+17
19385.0	7.921530197508096e+17
19386.0	7.913566441745066e+17
19387.0	7.90535211406677e+17
19388.0	7.892763186036735e+17
19389.0	7.883557695389696e+17
19390.0	7.87464258060288e+17
19391.0	7.847277327897914e+17
19392.0	7.851265031667708e+17
19393.0	7.842208533883562e+17
19394.0	7.832930358744404e+17
19395.0	7.823496639239508e+17
19396.0	7.811569359869266e+17
19397.0	7.801628302944938e+17
19398.0	7.791736488547668e+17
19399.0	7.780077110558717e+17
19400.0	7.77058814647774e+17
19401.0	7.75991028036403e+17
19402.0	7.748772647228758e+17
19403.0	7.73722835115486e+17
19404.0	7.725417363057321e+17
19405.0	7.712607472102058e+17
19406.0	7.699719456642387e+17
19407.0	7.686649971823955e+17
19408.0	7.672161482659158e+17
19409.0	7.659403991143764e+17
19410.0	7.645062173993642e+17
19411.0	7.629765028610047e+17
19412.0	7.614822294923945e+17
19413.0	7.599462227989842e+17
19414.0	7.583654003867647e+17
19415.0	7.566730961704275e+17
19416.0	7.548649540856489e+17
19417.0	7.530940830056445e+17
19418.0	7.512490201404756e+17
19419.0	7.493129782078122e+17
19420.0	7.47258706395136e+17
19421.0	7.451374845427711e+17
19422.0	7.430020932130132e+17
19423.0	7.408041329339049e+17
19424.0	7.38528695890739e+17
19425.0	7.361145815957503e+17
19426.0	7.335413928689661e+17
19427.0	7.308681512572244e+17
19428.0	7.281556183842815e+17
19429.0	7.253270748375718e+17
19430.0	7.223432437563391e+17
19431.0	7.190537495554732e+17
19432.0	7.159890192979283e+17
19433.0	7.126020774341289e+17
19434.0	7.090514095155881e+17
19435.0	7.052655158012584e+17
19436.0	7.012918718278316e+17
19437.0	6.97250023018769e+17
19438.0	6.919109336541866e+17
19439.0	6.88264732073438e+17
19440.0	6.834894266520916e+17
19441.0	6.783916314722301e+17
19442.0	6.730208774193152e+17
19443.0	6.673365645393919e+17
19444.0	6.613412423401468e+17
19445.0	6.549993348049581e+17
19446.0	6.48287011086882e+17
19447.0	6.411477613281275e+17
19448.0	6.33463683922876e+17
19449.0	6.249605552057002e+17
19450.0	6.145992623652855e+17
19451.0	6.083802087205549e+17
19452.0	6.200616460921514e+17
19453.0	6.290094072441516e+17
19454.0	6.36811175351637e+17
19455.0	6.439635634880511e+17
19456.0	6.506381671312045e+17
19457.0	6.569155280328018e+17
19458.0	6.623921326871899e+17
19459.0	6.68410548304828e+17
19460.0	6.736821122411176e+17
19461.0	6.786699105402879e+17
19462.0	6.83358347521775e+17
19463.0	6.877896219383122e+17
19464.0	6.919999370646867e+17
19465.0	6.959654310860118e+17
19466.0	6.996895419334652e+17
19467.0	7.032760515777876e+17
19468.0	7.066509288057514e+17
19469.0	7.098116132743849e+17
19470.0	7.128836185522175e+17
19471.0	7.158122918794582e+17
19472.0	7.185598754324479e+17
19473.0	7.211532182093823e+17
19474.0	7.236408091607041e+17
19475.0	7.259598725578748e+17
19476.0	7.283834013876223e+17
19477.0	7.305933617102847e+17
19478.0	7.326392274386941e+17
19479.0	7.345844849562964e+17
19480.0	7.364548309461674e+17
19481.0	7.38272716538948e+17
19482.0	7.401144456314879e+17
19483.0	7.4178935928477e+17
19484.0	7.433990322170538e+17
19485.0	7.449166201836883e+17
19486.0	7.46380976979968e+17
19487.0	7.478749206762835e+17
19488.0	7.491772270422696e+17
19489.0	7.504153219694591e+17
19490.0	7.51470717068902e+17
19491.0	7.528516685922303e+17
19492.0	7.540655957999615e+17
19493.0	7.551595218731007e+17
19494.0	7.562173010149373e+17
19495.0	7.572378510950399e+17
19496.0	7.58169321288499e+17
19497.0	7.592237091957416e+17
19498.0	7.59874160881391e+17
19499.0	7.583614847243594e+17
19500.0	7.618240844223827e+17
19501.0	7.626336081630548e+17
19502.0	7.633974043432275e+17
19503.0	7.641479161839616e+17
19504.0	7.648601747139242e+17
19505.0	7.655339409975977e+17
19506.0	7.664062182369962e+17
19507.0	7.670951691594409e+17
19508.0	7.677285149354662e+17
19509.0	7.683409557411156e+17
19510.0	7.692973273776128e+17
19511.0	7.677449121475232e+17
19512.0	7.70126686820761e+17
19513.0	7.703615361078602e+17
19514.0	7.715405999811233e+17
19515.0	7.726170749534208e+17
19516.0	7.7322077091485e+17
19517.0	7.73697292083746e+17
19518.0	7.744047853251241e+17
19519.0	7.750486987898879e+17
19520.0	7.754815196452179e+17
19521.0	7.7591118624413e+17
19522.0	7.763730835527e+17
19523.0	7.770911830704127e+17
19524.0	7.774757223137279e+17
19525.0	7.778568352301055e+17
19526.0	7.782190947500032e+17
19527.0	7.787191764429481e+17
19528.0	7.792176831747412e+17
19529.0	7.795298968185513e+17
19530.0	7.798250302778025e+17
19531.0	7.801102551132841e+17
19532.0	7.804796284523859e+17
19533.0	7.809206769942527e+17
19534.0	7.811833602419369e+17
19535.0	7.814342505048744e+17
19536.0	7.816789758399827e+17
19537.0	7.819284910702591e+17
19538.0	7.82201713205794e+17
19539.0	7.824873559337644e+17
19540.0	7.828089421692927e+17
19541.0	7.830297248792575e+17
19542.0	7.832349674132819e+17
19543.0	7.834340476758697e+17
19544.0	7.836265659498492e+17
19545.0	7.837345810219008e+17
19546.0	7.839605596356608e+17
19547.0	7.84323304436531e+17
19548.0	7.844920983289853e+17
19549.0	7.846186690019325e+17
19550.0	7.847956837302272e+17
19551.0	7.849369608912896e+17
19552.0	7.850713250004991e+17
19553.0	7.851952774490794e+17
19554.0	7.853555557859327e+17
19555.0	7.855485408859475e+17
19556.0	7.856654397734911e+17
19557.0	7.857737601908733e+17
19558.0	7.858769430052864e+17
19559.0	7.859761015248211e+17
19560.0	7.860641273828692e+17
19561.0	7.861557376931156e+17
19562.0	7.862478503411711e+17
19563.0	7.863318407195305e+17
19564.0	7.864090984011092e+17
19565.0	7.864829360472063e+17
19566.0	7.865889563082752e+17
19567.0	7.866874142392319e+17
19568.0	7.867404663128063e+17
19569.0	7.868040883120809e+17
19570.0	7.868656068678995e+17
19571.0	7.8691767943168e+17
19572.0	7.869552939499519e+17
19573.0	7.870065571528701e+17
19574.0	7.870260441688745e+17
19575.0	7.870945326792701e+17
19576.0	7.871313688745302e+17
19577.0	7.871572646472361e+17
19578.0	7.871802947316392e+17
19579.0	7.872066131503786e+17
19580.0	7.87230213939746e+17
19581.0	7.87256101323844e+17
19582.0	7.872785590255616e+17
19583.0	7.872950366284458e+17
19584.0	7.873244071023956e+17
19585.0	7.873238751248381e+17
19586.0	7.873235114786817e+17
19587.0	7.873630338460328e+17
19588.0	7.872691714741591e+17
19589.0	7.873758870110207e+17
19590.0	7.873683100008447e+17
19591.0	7.873873609490432e+17
19592.0	7.873888242018985e+17
19593.0	7.873795574464511e+17
19594.0	7.873096800621906e+17
19595.0	7.873647002430122e+17
19596.0	7.870813270529367e+17
19597.0	7.873479147782144e+17
19598.0	7.872782939455488e+17
19599.0	7.873300661971625e+17
19600.0	7.873171916412242e+17
19601.0	7.87282032748134e+17
19602.0	7.872620428350803e+17
19603.0	7.871292555045545e+17
19604.0	7.872095540565332e+17
19605.0	7.871266993558868e+17
19606.0	7.871871195632979e+17
19607.0	7.871625237452114e+17
19608.0	7.871303679737855e+17
19609.0	7.870888769399466e+17
19610.0	7.870706462578003e+17
19611.0	7.870346821981526e+17
19612.0	7.870017351013718e+17
19613.0	7.869608539193343e+17
19614.0	7.869120524932434e+17
19615.0	7.86883890398276e+17
19616.0	7.868210408499881e+17
19617.0	7.8680935132474e+17
19618.0	7.866215995976361e+17
19619.0	7.865417460613117e+17
19620.0	7.865102190160553e+17
19621.0	7.866236689274195e+17
19622.0	7.865781124945236e+17
19623.0	7.865282749355348e+17
19624.0	7.864724172920148e+17
19625.0	7.864211289232726e+17
19626.0	7.863601382905174e+17
19627.0	7.862974447703378e+17
19628.0	7.861703794491392e+17
19629.0	7.861079136796671e+17
19630.0	7.855370454171645e+17
19631.0	7.833376961243822e+17
19632.0	7.858982769131517e+17
19633.0	7.859108708701526e+17
19634.0	7.858825621143551e+17
19635.0	7.858117119311871e+17
19636.0	7.857606232113152e+17
19637.0	7.855639460052992e+17
19638.0	7.856318815666175e+17
19639.0	7.85561474301952e+17
19640.0	7.854714561495039e+17
19641.0	7.852952140120065e+17
19642.0	7.85354306302771e+17
19643.0	7.852811120629076e+17
19644.0	7.851918133734057e+17
19645.0	7.850708539801599e+17
19646.0	7.850641944040786e+17
19647.0	7.849896638589609e+17
19648.0	7.849118143610879e+17
19649.0	7.848342730047485e+17
19650.0	7.847589876247208e+17
19651.0	7.846784102913364e+17
19652.0	7.845982061111977e+17
19653.0	7.845196402262015e+17
19654.0	7.844369836365139e+17
19655.0	7.843537096452777e+17
19656.0	7.842742649137834e+17
19657.0	7.841910079793834e+17
19658.0	7.841090020660564e+17
19659.0	7.840238912492884e+17
19660.0	7.839398621435219e+17
19661.0	7.840584107906386e+17
19662.0	7.840114847776767e+17
19663.0	7.839073052568233e+17
19664.0	7.838207159478953e+17
19665.0	7.837435615860054e+17
19666.0	7.836495280865279e+17
