# Flux units: erg / (cm m2 s)
# Wavelength units: Angstrom
wave	flux
19000.0	7.406117613207551e+17
19001.0	7.404716065554432e+17
19002.0	7.403437599752192e+17
19003.0	7.402089839853568e+17
19004.0	7.400742532939775e+17
19005.0	7.399409616683007e+17
19006.0	7.398064394338303e+17
19007.0	7.396684596947626e+17
19008.0	7.39534593729058e+17
19009.0	7.393969625366527e+17
19010.0	7.392672033538045e+17
19011.0	7.391402877692585e+17
19012.0	7.389830326867284e+17
19013.0	7.388785222352896e+17
19014.0	7.387413164851199e+17
19015.0	7.386079799803901e+17
19016.0	7.384744431277394e+17
19017.0	7.383407049484969e+17
19018.0	7.382049149157373e+17
19019.0	7.380703912831658e+17
19020.0	7.379345468642644e+17
19021.0	7.378007102586879e+17
19022.0	7.376660672282624e+17
19023.0	7.375272898723839e+17
19024.0	7.373931430281212e+17
19025.0	7.372531835775658e+17
19026.0	7.371128420259156e+17
19027.0	7.369617781555197e+17
19028.0	7.368484728078336e+17
19029.0	7.367156731740157e+17
19030.0	7.365814189555711e+17
19031.0	7.364441995040083e+17
19032.0	7.363048724146857e+17
19033.0	7.361548754354173e+17
19034.0	7.359967844281002e+17
19035.0	7.356666047627263e+17
19036.0	7.337902255461716e+17
19037.0	7.354451372627283e+17
19038.0	7.354584624267263e+17
19039.0	7.353490450590378e+17
19040.0	7.352248830350675e+17
19041.0	7.350929918874964e+17
19042.0	7.349442505430355e+17
19043.0	7.348247696419498e+17
19044.0	7.346887377376595e+17
19045.0	7.34551661032243e+17
19046.0	7.344156207393449e+17
19047.0	7.342775139128659e+17
19048.0	7.341340048228351e+17
19049.0	7.339761453410985e+17
19050.0	7.338349111017471e+17
19051.0	7.334650591925586e+17
19052.0	7.334408709210111e+17
19053.0	7.3344136263325e+17
19054.0	7.333245295962793e+17
19055.0	7.331757759485268e+17
19056.0	7.330584282704553e+17
19057.0	7.329255134330879e+17
19058.0	7.32779806667571e+17
19059.0	7.326517326162602e+17
19060.0	7.325192964887892e+17
19061.0	7.323841133718186e+17
19062.0	7.322481645147475e+17
19063.0	7.321119711297535e+17
19064.0	7.319717059144361e+17
19065.0	7.318303350805844e+17
19066.0	7.316973453049855e+17
19067.0	7.315691191402493e+17
19068.0	7.314332887023615e+17
19069.0	7.312973563428863e+17
19070.0	7.311602720877225e+17
19071.0	7.310237034523305e+17
19072.0	7.308856416447145e+17
19073.0	7.307533394553513e+17
19074.0	7.306174002451795e+17
19075.0	7.304812605472765e+17
19076.0	7.303446055092224e+17
19077.0	7.302080189781332e+17
19078.0	7.300718598466217e+17
19079.0	7.299364917608447e+17
19080.0	7.297993216622591e+17
19081.0	7.296608555237375e+17
19082.0	7.295258498258259e+17
19083.0	7.29382735979042e+17
19084.0	7.292370925475156e+17
19085.0	7.29113289695778e+17
19086.0	7.289390099333117e+17
19087.0	7.28813258687556e+17
19088.0	7.286803939022164e+17
19089.0	7.285435295683923e+17
19090.0	7.284244583109972e+17
19091.0	7.282922613986642e+17
19092.0	7.281475531571199e+17
19093.0	7.280264127097513e+17
19094.0	7.278926300708863e+17
19095.0	7.277576744250025e+17
19096.0	7.276218094540116e+17
19097.0	7.274863021173417e+17
19098.0	7.273464251547647e+17
19099.0	7.272096221975892e+17
19100.0	7.270731522681514e+17
19101.0	7.269392649114964e+17
19102.0	7.268017545150463e+17
19103.0	7.26668764320017e+17
19104.0	7.265316337876991e+17
19105.0	7.26383994007279e+17
19106.0	7.262518017086803e+17
19107.0	7.261098380798633e+17
19108.0	7.259568472063999e+17
19109.0	7.257649734571348e+17
19110.0	7.256682567215785e+17
19111.0	7.255607870488573e+17
19112.0	7.254342780321791e+17
19113.0	7.253047925975721e+17
19114.0	7.251670670333267e+17
19115.0	7.250275556742484e+17
19116.0	7.248958598414335e+17
19117.0	7.247587218991786e+17
19118.0	7.246099351164242e+17
19119.0	7.243014016947538e+17
19120.0	7.243300873786708e+17
19121.0	7.242010992487081e+17
19122.0	7.240804103880701e+17
19123.0	7.239438343427411e+17
19124.0	7.237877911344467e+17
19125.0	7.236683263115263e+17
19126.0	7.23524414148881e+17
19127.0	7.233347535940268e+17
19128.0	7.232321472167933e+17
19129.0	7.231191033140564e+17
19130.0	7.2298918852253e+17
19131.0	7.228540790854995e+17
19132.0	7.227182431950164e+17
19133.0	7.225771974197247e+17
19134.0	7.22435367309585e+17
19135.0	7.223079362450772e+17
19136.0	7.221713462187348e+17
19137.0	7.220308649967615e+17
19138.0	7.218979448466089e+17
19139.0	7.217632741337769e+17
19140.0	7.216273213620223e+17
19141.0	7.214910477260118e+17
19142.0	7.21352150552849e+17
19143.0	7.212164656573097e+17
19144.0	7.21078988116241e+17
19145.0	7.209450804871168e+17
19146.0	7.20770823234082e+17
19147.0	7.206695615507113e+17
19148.0	7.205317908277929e+17
19149.0	7.203948796575743e+17
19150.0	7.202621070071126e+17
19151.0	7.201253234835455e+17
19152.0	7.199846810604884e+17
19153.0	7.198422212455081e+17
19154.0	7.197078174302208e+17
19155.0	7.195708450231636e+17
19156.0	7.194302797753002e+17
19157.0	7.192784111577769e+17
19158.0	7.191207269979476e+17
19159.0	7.190047673548799e+17
19160.0	7.18868644434193e+17
19161.0	7.187090064277501e+17
19162.0	7.184811866543444e+17
19163.0	7.184087259982505e+17
19164.0	7.183220806254591e+17
19165.0	7.181902915392851e+17
19166.0	7.180590228264275e+17
19167.0	7.179208702820351e+17
19168.0	7.177923587648169e+17
19169.0	7.176604487428778e+17
19170.0	7.175253956493311e+17
19171.0	7.173874560357716e+17
19172.0	7.17251175129634e+17
19173.0	7.171173671851348e+17
19174.0	7.169805213062484e+17
19175.0	7.168454606629545e+17
19176.0	7.167085532676093e+17
19177.0	7.165610951005523e+17
19178.0	7.16429698601233e+17
19179.0	7.162913054436008e+17
19180.0	7.16157818782788e+17
19181.0	7.160188786879145e+17
19182.0	7.158844418774356e+17
19183.0	7.157499970977791e+17
19184.0	7.15612622177348e+17
19185.0	7.154749300277247e+17
19186.0	7.153369459545428e+17
19187.0	7.151931118059517e+17
19188.0	7.150589803408041e+17
19189.0	7.149188208219476e+17
19190.0	7.147773853958144e+17
19191.0	7.146342753239039e+17
19192.0	7.144935597801471e+17
19193.0	7.143458418458623e+17
19194.0	7.141924846698493e+17
19195.0	7.140332588236799e+17
19196.0	7.138513771648339e+17
19197.0	7.136232695223636e+17
19198.0	7.132631138653523e+17
19199.0	7.124569403949055e+17
19200.0	7.123975902942548e+17
19201.0	7.128770564237994e+17
19202.0	7.129463796006913e+17
19203.0	7.128880814314836e+17
19204.0	7.127971931007658e+17
19205.0	7.126839562600445e+17
19206.0	7.125605236255402e+17
19207.0	7.124196439446868e+17
19208.0	7.122885266462038e+17
19209.0	7.12161565483554e+17
19210.0	7.120272227652948e+17
19211.0	7.118914805476008e+17
19212.0	7.117532474725716e+17
19213.0	7.116048910254079e+17
19214.0	7.114655152821587e+17
19215.0	7.113379616041641e+17
19216.0	7.112043584815104e+17
19217.0	7.1106432087709e+17
19218.0	7.109054515467604e+17
19219.0	7.107779849704787e+17
19220.0	7.106524618948607e+17
19221.0	7.105097287510697e+17
19222.0	7.10377261166319e+17
19223.0	7.102410577149951e+17
19224.0	7.101006666705577e+17
19225.0	7.099622138139987e+17
19226.0	7.098256980268372e+17
19227.0	7.09687357997056e+17
19228.0	7.095505669237417e+17
19229.0	7.094115646133587e+17
19230.0	7.092717648259753e+17
19231.0	7.09131945325363e+17
19232.0	7.089933856538623e+17
19233.0	7.088501719826432e+17
19234.0	7.087147295178751e+17
19235.0	7.085743047791955e+17
19236.0	7.084359878180863e+17
19237.0	7.082955216956074e+17
19238.0	7.081504962248701e+17
19239.0	7.080162580845908e+17
19240.0	7.078765824486057e+17
19241.0	7.077352585909587e+17
19242.0	7.07595160588561e+17
19243.0	7.074376860041215e+17
19244.0	7.073080766977364e+17
19245.0	7.07167023931938e+17
19246.0	7.07026246312482e+17
19247.0	7.068857827065855e+17
19248.0	7.067443054772223e+17
19249.0	7.06602633212723e+17
19250.0	7.064597710241791e+17
19251.0	7.063138913135274e+17
19252.0	7.061601187616083e+17
19253.0	7.060368737523028e+17
19254.0	7.058964108454569e+17
19255.0	7.057417258926079e+17
19256.0	7.0561075050141e+17
19257.0	7.054700900428458e+17
19258.0	7.053272556765183e+17
19259.0	7.051762113795411e+17
19260.0	7.049998052447572e+17
19261.0	7.048952810919252e+17
19262.0	7.047512565219325e+17
19263.0	7.046050781768361e+17
19264.0	7.044476272203092e+17
19265.0	7.043130989740032e+17
19266.0	7.041648194224127e+17
19267.0	7.040232566292479e+17
19268.0	7.038792786160297e+17
19269.0	7.0373445482141e+17
19270.0	7.035869240229887e+17
19271.0	7.034327694398804e+17
19272.0	7.032961530593279e+17
19273.0	7.031348634757802e+17
19274.0	7.029795869163519e+17
19275.0	7.028617834572457e+17
19276.0	7.027148472014164e+17
19277.0	7.025683739967487e+17
19278.0	7.024213212091731e+17
19279.0	7.022708718742186e+17
19280.0	7.021230564223657e+17
19281.0	7.01975282983458e+17
19282.0	7.018260570570751e+17
19283.0	7.016728318618281e+17
19284.0	7.015107083108351e+17
19285.0	7.013545761133908e+17
19286.0	7.011955626388138e+17
19287.0	7.01003536146978e+17
19288.0	7.000874488430587e+17
19289.0	6.995017332337315e+17
19290.0	7.005400941461503e+17
19291.0	7.004315037554004e+17
19292.0	7.003108280369151e+17
19293.0	7.001650020832596e+17
19294.0	7.00015518486801e+17
19295.0	6.998659732340735e+17
19296.0	6.997098024490324e+17
19297.0	6.995579635411625e+17
19298.0	6.994066234758484e+17
19299.0	6.992420358411604e+17
19300.0	6.990920546604372e+17
19301.0	6.989377985052672e+17
19302.0	6.987819935334397e+17
19303.0	6.986198329327615e+17
19304.0	6.984640023057748e+17
19305.0	6.983065301680127e+17
19306.0	6.981479129852586e+17
19307.0	6.97986146439441e+17
19308.0	6.978213817352191e+17
19309.0	6.976350021047636e+17
19310.0	6.974619491063123e+17
19311.0	6.973302253114708e+17
19312.0	6.971789472519508e+17
19313.0	6.969926819861844e+17
19314.0	6.948779060101121e+17
19315.0	6.948539268246205e+17
19316.0	6.964979683033087e+17
19317.0	6.963730841599999e+17
19318.0	6.962173077094397e+17
19319.0	6.960568973219155e+17
19320.0	6.958900316209151e+17
19321.0	6.957198327065257e+17
19322.0	6.955499312381952e+17
19323.0	6.953784689994409e+17
19324.0	6.95210576323106e+17
19325.0	6.950341666930687e+17
19326.0	6.948632936841215e+17
19327.0	6.946958054785023e+17
19328.0	6.945173509854548e+17
19329.0	6.94352453181986e+17
19330.0	6.941769368687956e+17
19331.0	6.939991689134079e+17
19332.0	6.938243334755668e+17
19333.0	6.936450841619113e+17
19334.0	6.934673430500694e+17
19335.0	6.932710477354324e+17
19336.0	6.931036549502291e+17
19337.0	6.929220489270612e+17
19338.0	6.927257816443561e+17
19339.0	6.925516424609791e+17
19340.0	6.923618198661802e+17
19341.0	6.921660486298281e+17
19342.0	6.919540987046569e+17
19343.0	6.917776697808212e+17
19344.0	6.915764259564202e+17
19345.0	6.913220021321727e+17
19346.0	6.911475048251391e+17
19347.0	6.909889329408682e+17
19348.0	6.908056517825876e+17
19349.0	6.906069069245097e+17
19350.0	6.904056341594111e+17
19351.0	6.902071831123284e+17
19352.0	6.899921795241299e+17
19353.0	6.897967299209897e+17
19354.0	6.895861447524351e+17
19355.0	6.893469289152511e+17
19356.0	6.891387451255466e+17
19357.0	6.889224187237716e+17
19358.0	6.887024137775786e+17
19359.0	6.88478776004881e+17
19360.0	6.882503420455594e+17
19361.0	6.880307409409366e+17
19362.0	6.878033371725823e+17
19363.0	6.875718269708969e+17
19364.0	6.873367908974591e+17
19365.0	6.870979044529492e+17
19366.0	6.868293942684329e+17
19367.0	6.865796323431763e+17
19368.0	6.863301002657791e+17
19369.0	6.860645897775785e+17
19370.0	6.858069288594089e+17
19371.0	6.855474763442857e+17
19372.0	6.852860436982441e+17
19373.0	6.850158431393108e+17
19374.0	6.847470872384852e+17
19375.0	6.844729397695828e+17
19376.0	6.841952814585172e+17
19377.0	6.838859903358292e+17
19378.0	6.835975159633235e+17
19379.0	6.833092537526953e+17
19380.0	6.830171204790953e+17
19381.0	6.827205093665449e+17
19382.0	6.824148762361856e+17
19383.0	6.821043085770751e+17
19384.0	6.817674017374205e+17
19385.0	6.814421365380436e+17
19386.0	6.811097552125951e+17
19387.0	6.807693749299881e+17
19388.0	6.804121330559657e+17
19389.0	6.800215542246058e+17
19390.0	6.795826618346153e+17
19391.0	6.777540362371062e+17
19392.0	6.786001284366333e+17
19393.0	6.785126899908607e+17
19394.0	6.781461086601215e+17
19395.0	6.777478987819689e+17
19396.0	6.773307199542612e+17
19397.0	6.768816603616595e+17
19398.0	6.764329299520169e+17
19399.0	6.759626567581695e+17
19400.0	6.755119736203946e+17
19401.0	6.750473958719487e+17
19402.0	6.74559198110242e+17
19403.0	6.740559002249897e+17
19404.0	6.735418279417171e+17
19405.0	6.730128419717119e+17
19406.0	6.724724300884649e+17
19407.0	6.719146490331135e+17
19408.0	6.713331466720596e+17
19409.0	6.707596308949674e+17
19410.0	6.70143052128802e+17
19411.0	6.694890224222207e+17
19412.0	6.68789446349073e+17
19413.0	6.680900872612521e+17
19414.0	6.673783268747944e+17
19415.0	6.666381738464598e+17
19416.0	6.658589789782015e+17
19417.0	6.650636748368553e+17
19418.0	6.642298968342527e+17
19419.0	6.633535269328212e+17
19420.0	6.624336109284008e+17
19421.0	6.614812053558612e+17
19422.0	6.60496451772962e+17
19423.0	6.594805575800148e+17
19424.0	6.584214114445994e+17
19425.0	6.572943691743231e+17
19426.0	6.560914053879123e+17
19427.0	6.548315809600852e+17
19428.0	6.535071720101204e+17
19429.0	6.520916032181588e+17
19430.0	6.50504234336256e+17
19431.0	6.488157401557674e+17
19432.0	6.473599900013907e+17
19433.0	6.456268289998848e+17
19434.0	6.437542756177236e+17
19435.0	6.416510808140457e+17
19436.0	6.394237228679168e+17
19437.0	6.37097258062097e+17
19438.0	6.32468771945404e+17
19439.0	6.314681847949993e+17
19440.0	6.290175664936276e+17
19441.0	6.258074916487165e+17
19442.0	6.222255846937942e+17
19443.0	6.182338946575018e+17
19444.0	6.137191208058876e+17
19445.0	6.085771549212673e+17
19446.0	6.026089600122877e+17
19447.0	5.955546565836795e+17
19448.0	5.869883115962372e+17
19449.0	5.761552201635156e+17
19450.0	5.610049211378335e+17
19451.0	5.511863056640683e+17
19452.0	5.693913877359274e+17
19453.0	5.816698702310062e+17
19454.0	5.909827432393382e+17
19455.0	5.984795936948223e+17
19456.0	6.047059317970263e+17
19457.0	6.099526073625256e+17
19458.0	6.107197332608389e+17
19459.0	6.181825590329353e+17
19460.0	6.220998158319613e+17
19461.0	6.253095144478035e+17
19462.0	6.281695177910956e+17
19463.0	6.307549974364157e+17
19464.0	6.331438418886656e+17
19465.0	6.35300005019648e+17
19466.0	6.372901464134996e+17
19467.0	6.391544416305151e+17
19468.0	6.408443464952489e+17
19469.0	6.42402109043507e+17
19470.0	6.438632026712746e+17
19471.0	6.452329365984595e+17
19472.0	6.465171223827795e+17
19473.0	6.477038205883732e+17
19474.0	6.488087829239124e+17
19475.0	6.498214351295827e+17
19476.0	6.508244788139348e+17
19477.0	6.517470254159188e+17
19478.0	6.525862563632468e+17
19479.0	6.533667178414079e+17
19480.0	6.541191011805866e+17
19481.0	6.548345993210538e+17
19482.0	6.555252386605737e+17
19483.0	6.561715513371306e+17
19484.0	6.567813671376211e+17
19485.0	6.573490320004435e+17
19486.0	6.578715860751699e+17
19487.0	6.583756870298282e+17
19488.0	6.588464469027498e+17
19489.0	6.592769412475561e+17
19490.0	6.596960810521939e+17
19491.0	6.601638311624703e+17
19492.0	6.605484528937642e+17
19493.0	6.609039488188415e+17
19494.0	6.61218232701201e+17
19495.0	6.615161434887508e+17
19496.0	6.617795306804563e+17
19497.0	6.620136087748608e+17
19498.0	6.615897421294248e+17
19499.0	6.60212373730099e+17
19500.0	6.627113896858963e+17
19501.0	6.630545327565482e+17
19502.0	6.632937248260095e+17
19503.0	6.635076685135871e+17
19504.0	6.637022213046271e+17
19505.0	6.638956017876991e+17
19506.0	6.640869908152319e+17
19507.0	6.642376502149119e+17
19508.0	6.643757342523391e+17
19509.0	6.644898333021523e+17
19510.0	6.64508755415313e+17
19511.0	6.613068547096559e+17
19512.0	6.640917597388797e+17
19513.0	6.641333974335483e+17
19514.0	6.644002601653585e+17
19515.0	6.651071394305363e+17
19516.0	6.65244913299183e+17
19517.0	6.653333485213012e+17
19518.0	6.654142915979946e+17
19519.0	6.654903239835647e+17
19520.0	6.655390315271508e+17
19521.0	6.655918477410304e+17
19522.0	6.656296028383914e+17
19523.0	6.656671102621012e+17
19524.0	6.656968953430015e+17
19525.0	6.657451087276712e+17
19526.0	6.657859719441065e+17
19527.0	6.65807674671104e+17
19528.0	6.658243536704851e+17
19529.0	6.658386700883286e+17
19530.0	6.658510810338644e+17
19531.0	6.658604125214036e+17
19532.0	6.658633965589844e+17
19533.0	6.658661069182292e+17
19534.0	6.658704576697684e+17
19535.0	6.658630702421331e+17
19536.0	6.658623487519402e+17
19537.0	6.658662122651648e+17
19538.0	6.658335865219753e+17
19539.0	6.658104095670271e+17
19540.0	6.658014544483667e+17
19541.0	6.657758731785556e+17
19542.0	6.657473761684138e+17
19543.0	6.657094751092735e+17
19544.0	6.656789096082089e+17
19545.0	6.656191369314303e+17
19546.0	6.655735867200852e+17
19547.0	6.655642620832425e+17
19548.0	6.65542748938786e+17
19549.0	6.654919882833919e+17
19550.0	6.654510575386623e+17
19551.0	6.654004662632447e+17
19552.0	6.653466380337151e+17
19553.0	6.652904124099241e+17
19554.0	6.652335784722431e+17
19555.0	6.651750621992275e+17
19556.0	6.651200000054612e+17
19557.0	6.65061606695458e+17
19558.0	6.64999633756706e+17
19559.0	6.649366000784723e+17
19560.0	6.6486829856413e+17
19561.0	6.648185948034388e+17
19562.0	6.647530437039444e+17
19563.0	6.646875322406228e+17
19564.0	6.646183700550996e+17
19565.0	6.645479966244864e+17
19566.0	6.644752688611327e+17
19567.0	6.644037893226495e+17
19568.0	6.643285942599679e+17
19569.0	6.642553776504831e+17
19570.0	6.641799080706045e+17
19571.0	6.641029813895167e+17
19572.0	6.640232136966143e+17
19573.0	6.639449131712511e+17
19574.0	6.63860331955268e+17
19575.0	6.637862599174825e+17
19576.0	6.637038867229353e+17
19577.0	6.636210900434943e+17
19578.0	6.635456133332992e+17
19579.0	6.634600356904959e+17
19580.0	6.633745236186452e+17
19581.0	6.632892943127892e+17
19582.0	6.632024351003988e+17
19583.0	6.631142476218367e+17
19584.0	6.630239126596265e+17
19585.0	6.629278654747987e+17
19586.0	6.628345491314004e+17
19587.0	6.627484775393961e+17
19588.0	6.626454200647679e+17
19589.0	6.625663537993044e+17
19590.0	6.624723377061887e+17
19591.0	6.62384798667025e+17
19592.0	6.622907541924524e+17
19593.0	6.621936710844415e+17
19594.0	6.620842208613715e+17
19595.0	6.62002521341952e+17
19596.0	6.618647901153962e+17
19597.0	6.618086783669588e+17
19598.0	6.616962413101053e+17
19599.0	6.616133458548052e+17
19600.0	6.615157367810729e+17
19601.0	6.614173570738858e+17
19602.0	6.613141736303274e+17
19603.0	6.611961924725417e+17
19604.0	6.611177375967914e+17
19605.0	6.610143334629376e+17
19606.0	6.609300037653844e+17
19607.0	6.608301287888211e+17
19608.0	6.607280844483241e+17
19609.0	6.606251112792061e+17
19610.0	6.605224085028861e+17
19611.0	6.604188279985491e+17
19612.0	6.603214051519146e+17
19613.0	6.602355079031465e+17
19614.0	6.601348156664489e+17
19615.0	6.600302759946921e+17
19616.0	6.59911671353617e+17
19617.0	6.598209469502804e+17
19618.0	6.597024069713919e+17
19619.0	6.59588825288977e+17
19620.0	6.594932875722751e+17
19621.0	6.594056135464276e+17
19622.0	6.593078299896489e+17
19623.0	6.59200469508642e+17
19624.0	6.590912482246655e+17
19625.0	6.58981507965474e+17
19626.0	6.58866399486498e+17
19627.0	6.587392393041236e+17
19628.0	6.585877720115882e+17
19629.0	6.583891036296532e+17
19630.0	6.578862026653695e+17
19631.0	6.573061541199872e+17
19632.0	6.579935171488425e+17
19633.0	6.580425507296595e+17
19634.0	6.579846094957225e+17
19635.0	6.578914982537898e+17
19636.0	6.577972870556329e+17
19637.0	6.576700459231913e+17
19638.0	6.575939511123967e+17
19639.0	6.574866311763284e+17
19640.0	6.57369021424162e+17
19641.0	6.572382449128788e+17
19642.0	6.571625433879891e+17
19643.0	6.570527748172457e+17
19644.0	6.569398657613823e+17
19645.0	6.568260570273108e+17
19646.0	6.567173122861738e+17
19647.0	6.566149858088275e+17
19648.0	6.565048222744575e+17
19649.0	6.563941414425939e+17
19650.0	6.56283408671266e+17
19651.0	6.561720123610452e+17
19652.0	6.560611915093332e+17
19653.0	6.559490226782208e+17
19654.0	6.558380555152042e+17
19655.0	6.55726930366737e+17
19656.0	6.556152355618815e+17
19657.0	6.555036848313684e+17
19658.0	6.553917855541929e+17
19659.0	6.552797199728639e+17
19660.0	6.551720779142484e+17
19661.0	6.550612994949119e+17
19662.0	6.549483524106922e+17
19663.0	6.54833255326242e+17
19664.0	6.547196869956948e+17
19665.0	6.546107340772692e+17
