# Flux units: erg / (cm m2 s)
# Wavelength units: Angstrom
wave	flux
19000.0	6.841012422967295e+17
19001.0	6.839673127174141e+17
19002.0	6.838497157578751e+17
19003.0	6.837237247377407e+17
19004.0	6.835978316546047e+17
19005.0	6.834715000569855e+17
19006.0	6.833461492973568e+17
19007.0	6.83219959816738e+17
19008.0	6.830901203828735e+17
19009.0	6.829567696874154e+17
19010.0	6.828114254495743e+17
19011.0	6.827131763949567e+17
19012.0	6.825796133978111e+17
19013.0	6.824635790961321e+17
19014.0	6.823331769963859e+17
19015.0	6.82208766459904e+17
19016.0	6.820831532766548e+17
19017.0	6.819602812807849e+17
19018.0	6.818333592649727e+17
19019.0	6.817078346514431e+17
19020.0	6.815807289950207e+17
19021.0	6.814563500556287e+17
19022.0	6.813305366642687e+17
19023.0	6.812009685319679e+17
19024.0	6.810768186015741e+17
19025.0	6.809518934239914e+17
19026.0	6.808242462130175e+17
19027.0	6.80695811940898e+17
19028.0	6.805738793992191e+17
19029.0	6.80447184015633e+17
19030.0	6.80323164807714e+17
19031.0	6.8019708507805e+17
19032.0	6.800706010873855e+17
19033.0	6.79936998314257e+17
19034.0	6.798157810412202e+17
19035.0	6.796757604936361e+17
19036.0	6.792192354593449e+17
19037.0	6.794292165782186e+17
19038.0	6.793112579997695e+17
19039.0	6.791886670222674e+17
19040.0	6.790631577878527e+17
19041.0	6.789367148314623e+17
19042.0	6.788019243712511e+17
19043.0	6.786856492466175e+17
19044.0	6.785587352698879e+17
19045.0	6.784335514435583e+17
19046.0	6.783041365431636e+17
19047.0	6.781781202173951e+17
19048.0	6.780418676927145e+17
19049.0	6.779195073320275e+17
19050.0	6.777984068703572e+17
19051.0	6.776233441711444e+17
19052.0	6.775327485329408e+17
19053.0	6.774251747715753e+17
19054.0	6.773003307537748e+17
19055.0	6.77153238609647e+17
19056.0	6.770463167130281e+17
19057.0	6.769225215508479e+17
19058.0	6.767943203422205e+17
19059.0	6.766704386375679e+17
19060.0	6.765444316790783e+17
19061.0	6.764198731535699e+17
19062.0	6.76293734633745e+17
19063.0	6.761677594820605e+17
19064.0	6.760341674044074e+17
19065.0	6.759020912181247e+17
19066.0	6.757849496900948e+17
19067.0	6.756646039934291e+17
19068.0	6.755394514146644e+17
19069.0	6.754137705633108e+17
19070.0	6.752862900759208e+17
19071.0	6.751623430100308e+17
19072.0	6.750358946709504e+17
19073.0	6.749107035045887e+17
19074.0	6.747853049298943e+17
19075.0	6.746595804577791e+17
19076.0	6.745327575673513e+17
19077.0	6.744068386892457e+17
19078.0	6.742802300578473e+17
19079.0	6.741568756471124e+17
19080.0	6.740301709661524e+17
19081.0	6.739018244248915e+17
19082.0	6.737775715243348e+17
19083.0	6.736451653162323e+17
19084.0	6.735096003777876e+17
19085.0	6.734028858195967e+17
19086.0	6.732447007200596e+17
19087.0	6.731444991470249e+17
19088.0	6.730170575268521e+17
19089.0	6.728824530840234e+17
19090.0	6.727717081492138e+17
19091.0	6.726474974014122e+17
19092.0	6.725176312638121e+17
19093.0	6.723988900981417e+17
19094.0	6.722737632444415e+17
19095.0	6.721483942395903e+17
19096.0	6.720220796289023e+17
19097.0	6.718972878301865e+17
19098.0	6.7177137321629e+17
19099.0	6.71645829378867e+17
19100.0	6.715202663874559e+17
19101.0	6.713952942336681e+17
19102.0	6.712636321650003e+17
19103.0	6.711452872212479e+17
19104.0	6.710199714840575e+17
19105.0	6.708924172468223e+17
19106.0	6.707680389365759e+17
19107.0	6.706418558872233e+17
19108.0	6.705156581578068e+17
19109.0	6.703742573346815e+17
19110.0	6.702621248542036e+17
19111.0	6.701415230253738e+17
19112.0	6.700168565664426e+17
19113.0	6.69892509433856e+17
19114.0	6.69767107224098e+17
19115.0	6.696381735501823e+17
19116.0	6.695146334715903e+17
19117.0	6.693891606577151e+17
19118.0	6.692540977774591e+17
19119.0	6.68799188179353e+17
19120.0	6.690088639528959e+17
19121.0	6.688879348984489e+17
19122.0	6.687658159898623e+17
19123.0	6.686408596346196e+17
19124.0	6.685132157091839e+17
19125.0	6.683895368690346e+17
19126.0	6.68258644664866e+17
19127.0	6.680215881252863e+17
19128.0	6.680058638893055e+17
19129.0	6.678823997276159e+17
19130.0	6.677641862053887e+17
19131.0	6.67640589783313e+17
19132.0	6.6751547061917e+17
19133.0	6.673862521520127e+17
19134.0	6.672647241509546e+17
19135.0	6.671406629999955e+17
19136.0	6.670155758523732e+17
19137.0	6.668811795169279e+17
19138.0	6.66764530749713e+17
19139.0	6.666413903882921e+17
19140.0	6.665168101922132e+17
19141.0	6.663919728852991e+17
19142.0	6.662649976018259e+17
19143.0	6.661388499244371e+17
19144.0	6.660137789248852e+17
19145.0	6.658924500134569e+17
19146.0	6.657181690626048e+17
19147.0	6.656373187499348e+17
19148.0	6.655171788537855e+17
19149.0	6.653918254377641e+17
19150.0	6.652681717634388e+17
19151.0	6.651436170128041e+17
19152.0	6.650186740094292e+17
19153.0	6.648903401209855e+17
19154.0	6.647611094204415e+17
19155.0	6.646433829268138e+17
19156.0	6.645186670450004e+17
19157.0	6.64390966845986e+17
19158.0	6.642584312436052e+17
19159.0	6.64141652173346e+17
19160.0	6.640183751475199e+17
19161.0	6.638923669307391e+17
19162.0	6.637407858327551e+17
19163.0	6.636375231168511e+17
19164.0	6.635205808881663e+17
19165.0	6.63394707308544e+17
19166.0	6.632638046186153e+17
19167.0	6.631426176843775e+17
19168.0	6.630179673036116e+17
19169.0	6.62893689377041e+17
19170.0	6.627696194180436e+17
19171.0	6.626441510780927e+17
19172.0	6.625204556704425e+17
19173.0	6.623960820438355e+17
19174.0	6.622680268668927e+17
19175.0	6.621469434620585e+17
19176.0	6.620226338684927e+17
19177.0	6.618855815599443e+17
19178.0	6.617720302862336e+17
19179.0	6.616467651603114e+17
19180.0	6.615229506344276e+17
19181.0	6.613914047479807e+17
19182.0	6.612733289387348e+17
19183.0	6.611505951451817e+17
19184.0	6.610258071912448e+17
19185.0	6.609011825355433e+17
19186.0	6.607767722087764e+17
19187.0	6.606464384062804e+17
19188.0	6.605273726014804e+17
19189.0	6.604030850979155e+17
19190.0	6.602781852958719e+17
19191.0	6.601508142099114e+17
19192.0	6.600287233332564e+17
19193.0	6.599036280766464e+17
19194.0	6.597771815550975e+17
19195.0	6.596522173005823e+17
19196.0	6.595237474467839e+17
19197.0	6.593937166827519e+17
19198.0	6.592457917595647e+17
19199.0	6.589367299254954e+17
19200.0	6.588434873319423e+17
19201.0	6.588756064032084e+17
19202.0	6.587720196074153e+17
19203.0	6.586525849135785e+17
19204.0	6.585297482197674e+17
19205.0	6.584067303320234e+17
19206.0	6.582832356917247e+17
19207.0	6.581492903138644e+17
19208.0	6.580211725718867e+17
19209.0	6.57909977588258e+17
19210.0	6.577860294038868e+17
19211.0	6.576622012465151e+17
19212.0	6.575373055688701e+17
19213.0	6.574043863973887e+17
19214.0	6.572797416090282e+17
19215.0	6.571619755491327e+17
19216.0	6.570379652191571e+17
19217.0	6.569102838945108e+17
19218.0	6.567373143627091e+17
19219.0	6.566465196348756e+17
19220.0	6.565362419455316e+17
19221.0	6.563958367103657e+17
19222.0	6.562859964170239e+17
19223.0	6.561632709421738e+17
19224.0	6.560358617579519e+17
19225.0	6.5590664378013e+17
19226.0	6.55788706313011e+17
19227.0	6.556640543943336e+17
19228.0	6.555415570896212e+17
19229.0	6.55416499511842e+17
19230.0	6.552913826545663e+17
19231.0	6.551653761854121e+17
19232.0	6.550407861327188e+17
19233.0	6.54910741946914e+17
19234.0	6.547899552191828e+17
19235.0	6.54663568396561e+17
19236.0	6.545408427819007e+17
19237.0	6.544147002774868e+17
19238.0	6.542833161513642e+17
19239.0	6.541653432423763e+17
19240.0	6.540397207617535e+17
19241.0	6.539128143347711e+17
19242.0	6.537880269400746e+17
19243.0	6.536503166850388e+17
19244.0	6.535386415235071e+17
19245.0	6.534125567606783e+17
19246.0	6.532865028259839e+17
19247.0	6.531617433234089e+17
19248.0	6.530303375267156e+17
19249.0	6.529034303307776e+17
19250.0	6.527761120930473e+17
19251.0	6.526443356596905e+17
19252.0	6.525010846591657e+17
19253.0	6.523983052668927e+17
19254.0	6.522742125887487e+17
19255.0	6.521318205816832e+17
19256.0	6.520200365080575e+17
19257.0	6.51894752158242e+17
19258.0	6.517684758555304e+17
19259.0	6.516356841908905e+17
19260.0	6.515077233857876e+17
19261.0	6.51388010889216e+17
19262.0	6.512574546487977e+17
19263.0	6.511278898719402e+17
19264.0	6.509719334857385e+17
19265.0	6.508671820016298e+17
19266.0	6.507405309378559e+17
19267.0	6.506289183413588e+17
19268.0	6.505021119485267e+17
19269.0	6.503748615886164e+17
19270.0	6.502454238991699e+17
19271.0	6.500980019429376e+17
19272.0	6.499894257429162e+17
19273.0	6.498353337947476e+17
19274.0	6.496987739673939e+17
19275.0	6.496099977483603e+17
19276.0	6.494810457593172e+17
19277.0	6.49353596379682e+17
19278.0	6.492258417246207e+17
19279.0	6.490957145615017e+17
19280.0	6.489582279327743e+17
19281.0	6.488290845436585e+17
19282.0	6.487019768599891e+17
19283.0	6.4857152421888e+17
19284.0	6.484400665526271e+17
19285.0	6.483059016728576e+17
19286.0	6.481817386003114e+17
19287.0	6.48053860143377e+17
19288.0	6.478123533773481e+17
19289.0	6.475728825264808e+17
19290.0	6.476603670396927e+17
19291.0	6.47512726630127e+17
19292.0	6.474045352574975e+17
19293.0	6.472743264452607e+17
19294.0	6.471433645457407e+17
19295.0	6.470138075283455e+17
19296.0	6.468820376660649e+17
19297.0	6.467508929647956e+17
19298.0	6.466153053771091e+17
19299.0	6.464727354616489e+17
19300.0	6.463417491652605e+17
19301.0	6.46209873256994e+17
19302.0	6.460766892152148e+17
19303.0	6.459397097477459e+17
19304.0	6.458109007145642e+17
19305.0	6.456782602545833e+17
19306.0	6.455456189557417e+17
19307.0	6.45408797893154e+17
19308.0	6.452759418459476e+17
19309.0	6.451366781605203e+17
19310.0	6.449982701131091e+17
19311.0	6.448707363580585e+17
19312.0	6.447292001288191e+17
19313.0	6.445819685939882e+17
19314.0	6.440635545070248e+17
19315.0	6.439600604752559e+17
19316.0	6.441720324205225e+17
19317.0	6.440389248548863e+17
19318.0	6.439024362607956e+17
19319.0	6.437669114478591e+17
19320.0	6.436286990647295e+17
19321.0	6.434895492546559e+17
19322.0	6.433468556771327e+17
19323.0	6.431869425243476e+17
19324.0	6.43043605680401e+17
19325.0	6.429007311885652e+17
19326.0	6.42763454554658e+17
19327.0	6.426226649814356e+17
19328.0	6.424803483320319e+17
19329.0	6.423369779336532e+17
19330.0	6.421857409084074e+17
19331.0	6.420263774890665e+17
19332.0	6.418824859484159e+17
19333.0	6.417374682371412e+17
19334.0	6.415929374845609e+17
19335.0	6.414437427358377e+17
19336.0	6.413004208515753e+17
19337.0	6.411529354215423e+17
19338.0	6.409885833669289e+17
19339.0	6.408562527262036e+17
19340.0	6.406992237865641e+17
19341.0	6.405500820957866e+17
19342.0	6.403818349308586e+17
19343.0	6.402519165042687e+17
19344.0	6.400958516254036e+17
19345.0	6.398177880746664e+17
19346.0	6.397151314356906e+17
19347.0	6.396249297824425e+17
19348.0	6.394650091498154e+17
19349.0	6.393054683813204e+17
19350.0	6.391483175971497e+17
19351.0	6.389880913395711e+17
19352.0	6.388229664844457e+17
19353.0	6.386681998824787e+17
19354.0	6.385048789975037e+17
19355.0	6.383320185875114e+17
19356.0	6.381733301714944e+17
19357.0	6.380055273231699e+17
19358.0	6.378357136556031e+17
19359.0	6.376498655133696e+17
19360.0	6.374594032173055e+17
19361.0	6.372875506985641e+17
19362.0	6.371140480707242e+17
19363.0	6.369364255877801e+17
19364.0	6.367566304553642e+17
19365.0	6.365727569914538e+17
19366.0	6.363827233532585e+17
19367.0	6.361846256762879e+17
19368.0	6.359648147865599e+17
19369.0	6.357701344886781e+17
19370.0	6.35576886825233e+17
19371.0	6.353794763849727e+17
19372.0	6.351855935640916e+17
19373.0	6.349831472327338e+17
19374.0	6.347302827109033e+17
19375.0	6.345163753040553e+17
19376.0	6.343063359542612e+17
19377.0	6.340935935153491e+17
19378.0	6.338788606694739e+17
19379.0	6.336015926383956e+17
19380.0	6.333641373603155e+17
19381.0	6.331405429986644e+17
19382.0	6.32906531873314e+17
19383.0	6.326301549221204e+17
19384.0	6.32330112868898e+17
19385.0	6.320824842365609e+17
19386.0	6.318354720970068e+17
19387.0	6.315118786772992e+17
19388.0	6.312043660094121e+17
19389.0	6.309415244267519e+17
19390.0	6.306446674580818e+17
19391.0	6.299629683474427e+17
19392.0	6.299497209877844e+17
19393.0	6.296712568810153e+17
19394.0	6.292760741718697e+17
19395.0	6.289733992841215e+17
19396.0	6.286650966889812e+17
19397.0	6.283488722419711e+17
19398.0	6.280213254111231e+17
19399.0	6.276477987323904e+17
19400.0	6.272937599085226e+17
19401.0	6.269446001087828e+17
19402.0	6.265893183029247e+17
19403.0	6.262221161452884e+17
19404.0	6.258456891752447e+17
19405.0	6.253746726808233e+17
19406.0	6.249708357943295e+17
19407.0	6.245473260841641e+17
19408.0	6.240477430240596e+17
19409.0	6.235183307729577e+17
19410.0	6.230524899797674e+17
19411.0	6.225633284369065e+17
19412.0	6.219123999987028e+17
19413.0	6.2136449499136e+17
19414.0	6.208084412902057e+17
19415.0	6.200376040620031e+17
19416.0	6.194088764243967e+17
19417.0	6.186931228508159e+17
19418.0	6.17836794801903e+17
19419.0	6.171423519277055e+17
19420.0	6.162077251709608e+17
19421.0	6.15421315260962e+17
19422.0	6.145076349982038e+17
19423.0	6.13477960000034e+17
19424.0	6.125982865948673e+17
19425.0	6.113717093662721e+17
19426.0	6.103146931683327e+17
19427.0	6.091736333243732e+17
19428.0	6.079907405408937e+17
19429.0	6.066916556799999e+17
19430.0	6.053523307364351e+17
19431.0	6.03921158644258e+17
19432.0	6.022790795405992e+17
19433.0	6.006944466731008e+17
19434.0	5.98850295439906e+17
19435.0	5.968318427736745e+17
19436.0	5.947510958850047e+17
19437.0	5.923322437042176e+17
19438.0	5.892145944723453e+17
19439.0	5.867974420332544e+17
19440.0	5.836844193284095e+17
19441.0	5.801594949992445e+17
19442.0	5.76143607394031e+17
19443.0	5.714802878622379e+17
19444.0	5.661850265976829e+17
19445.0	5.59962665185007e+17
19446.0	5.5255404540941645e+17
19447.0	5.4340598925448474e+17
19448.0	5.316677962388826e+17
19449.0	5.15366634721553e+17
19450.0	4.8871126146744186e+17
19451.0	4.704890950866277e+17
19452.0	5.041858970735954e+17
19453.0	5.241769341310299e+17
19454.0	5.3755548050390976e+17
19455.0	5.476021644733098e+17
19456.0	5.5556635050202477e+17
19457.0	5.6210638612288826e+17
19458.0	5.6674758908969094e+17
19459.0	5.723195418782382e+17
19460.0	5.7643416612590906e+17
19461.0	5.799601072941738e+17
19462.0	5.830838650404864e+17
19463.0	5.858222908899324e+17
19464.0	5.882726712344576e+17
19465.0	5.907393439334401e+17
19466.0	5.926773381748051e+17
19467.0	5.944406091060564e+17
19468.0	5.962303075079508e+17
19469.0	5.976414652203007e+17
19470.0	5.990618954203136e+17
19471.0	6.003812338761728e+17
19472.0	6.01481639170321e+17
19473.0	6.026099723774634e+17
19474.0	6.035610536684201e+17
19475.0	6.044842288567635e+17
19476.0	6.054021826958678e+17
19477.0	6.063057978873174e+17
19478.0	6.071137535175337e+17
19479.0	6.077793756512255e+17
19480.0	6.086376333595988e+17
19481.0	6.091607183633065e+17
19482.0	6.098444295514794e+17
19483.0	6.10391496397073e+17
19484.0	6.10906153506133e+17
19485.0	6.115244690636799e+17
19486.0	6.119222288231082e+17
19487.0	6.123950059465386e+17
19488.0	6.128108914606079e+17
19489.0	6.13101492694767e+17
19490.0	6.13418265686835e+17
19491.0	6.138218791567359e+17
19492.0	6.140734960828415e+17
19493.0	6.143539093525844e+17
19494.0	6.146448155126442e+17
19495.0	6.148388959551487e+17
19496.0	6.149933611264682e+17
19497.0	6.152109917470719e+17
19498.0	6.153343033759059e+17
19499.0	6.150826984035667e+17
19500.0	6.156672694572372e+17
19501.0	6.157930752988499e+17
19502.0	6.159430498385917e+17
19503.0	6.160641854625108e+17
19504.0	6.161584605538985e+17
19505.0	6.162451294147924e+17
19506.0	6.163248159479124e+17
19507.0	6.163951579911507e+17
19508.0	6.164998119576916e+17
19509.0	6.166288764938921e+17
19510.0	6.166581262417919e+17
19511.0	6.160938445045752e+17
19512.0	6.167962436938408e+17
19513.0	6.167676428047699e+17
19514.0	6.168372711172776e+17
19515.0	6.170472552420691e+17
19516.0	6.17103153640243e+17
19517.0	6.171130552735062e+17
19518.0	6.171335398348116e+17
19519.0	6.17235389489698e+17
19520.0	6.172303819101524e+17
19521.0	6.172247172928852e+17
19522.0	6.172100240168276e+17
19523.0	6.172430522733908e+17
19524.0	6.172521082650623e+17
19525.0	6.172321172335272e+17
19526.0	6.17209298821666e+17
19527.0	6.171827558678527e+17
19528.0	6.171788577516202e+17
19529.0	6.171777769493844e+17
19530.0	6.171439920403795e+17
19531.0	6.171073264833876e+17
19532.0	6.170682594077353e+17
19533.0	6.170268668701353e+17
19534.0	6.16983053799697e+17
19535.0	6.169732184364371e+17
19536.0	6.169248797119827e+17
19537.0	6.168793553655126e+17
19538.0	6.168171056726015e+17
19539.0	6.167417645782356e+17
19540.0	6.167162532833961e+17
19541.0	6.166604991692799e+17
19542.0	6.166001022402559e+17
19543.0	6.165513438756863e+17
19544.0	6.164993823910569e+17
19545.0	6.163963688168106e+17
19546.0	6.163107710413481e+17
19547.0	6.163007147081727e+17
19548.0	6.162333108447914e+17
19549.0	6.161550898713939e+17
19550.0	6.160913756673364e+17
19551.0	6.16018394358306e+17
19552.0	6.159439649658196e+17
19553.0	6.158668181536768e+17
19554.0	6.157896919635284e+17
19555.0	6.157156632668842e+17
19556.0	6.156519703838719e+17
19557.0	6.155722960142336e+17
19558.0	6.154920359100415e+17
19559.0	6.154110208311295e+17
19560.0	6.153262531783338e+17
19561.0	6.152440968992084e+17
19562.0	6.151626154835967e+17
19563.0	6.150789763781972e+17
19564.0	6.149940854827689e+17
19565.0	6.149085074205353e+17
19566.0	6.148201783143082e+17
19567.0	6.147351752911529e+17
19568.0	6.146455621686611e+17
19569.0	6.145579772717737e+17
19570.0	6.144709326012416e+17
19571.0	6.143813997297664e+17
19572.0	6.143035892389203e+17
19573.0	6.14216356873284e+17
19574.0	6.14118418616593e+17
19575.0	6.140422786471252e+17
19576.0	6.139509016100863e+17
19577.0	6.138565649323348e+17
19578.0	6.137625013037737e+17
19579.0	6.136690257166336e+17
19580.0	6.135877706536276e+17
19581.0	6.135070471487487e+17
19582.0	6.13413266985233e+17
19583.0	6.13318041534464e+17
19584.0	6.132222496429395e+17
19585.0	6.131168483912362e+17
19586.0	6.130180726718463e+17
19587.0	6.129303353120084e+17
19588.0	6.128048280349353e+17
19589.0	6.127346576785407e+17
19590.0	6.126333875366569e+17
19591.0	6.125440413816148e+17
19592.0	6.12462999249442e+17
19593.0	6.123628524819795e+17
19594.0	6.122456869066067e+17
19595.0	6.121644839228756e+17
19596.0	6.12067449049361e+17
19597.0	6.119773119184895e+17
19598.0	6.118512265964202e+17
19599.0	6.117775435104255e+17
19600.0	6.116781340317012e+17
19601.0	6.115722314907647e+17
19602.0	6.114692587410771e+17
19603.0	6.113473124281001e+17
19604.0	6.112679778669908e+17
19605.0	6.111519525830655e+17
19606.0	6.110834378582697e+17
19607.0	6.10982613291281e+17
19608.0	6.108792884996778e+17
19609.0	6.107746209016489e+17
19610.0	6.106751893329236e+17
19611.0	6.105721397575679e+17
19612.0	6.104708046039721e+17
19613.0	6.1036697237149e+17
19614.0	6.102613507790163e+17
19615.0	6.101610978956627e+17
19616.0	6.100544005341183e+17
19617.0	6.099512437942954e+17
19618.0	6.098060076995923e+17
19619.0	6.096910142843561e+17
19620.0	6.095969669436756e+17
19621.0	6.095354938261504e+17
19622.0	6.09435956281344e+17
19623.0	6.093339789099005e+17
19624.0	6.092287947833343e+17
19625.0	6.091249494786047e+17
19626.0	6.09025771315746e+17
19627.0	6.089225416649386e+17
19628.0	6.088119994548223e+17
19629.0	6.086955535521108e+17
19630.0	6.085411596839593e+17
19631.0	6.082869514469376e+17
19632.0	6.083826896513705e+17
19633.0	6.082867175445844e+17
19634.0	6.081871994333866e+17
19635.0	6.080794321747967e+17
19636.0	6.079757090641238e+17
19637.0	6.078406891055788e+17
19638.0	6.077660288166569e+17
19639.0	6.076598940510889e+17
19640.0	6.075445501318484e+17
19641.0	6.073871176302592e+17
19642.0	6.073420543077033e+17
19643.0	6.072360923474601e+17
19644.0	6.071244662592852e+17
19645.0	6.070070075719679e+17
19646.0	6.069168505181524e+17
19647.0	6.068127032934399e+17
19648.0	6.067065258158762e+17
19649.0	6.06600045928994e+17
19650.0	6.064937855440212e+17
19651.0	6.063867622151508e+17
19652.0	6.062806072470186e+17
19653.0	6.061740880734889e+17
19654.0	6.06066825040145e+17
19655.0	6.059599274704896e+17
19656.0	6.058537106363731e+17
19657.0	6.057473927195306e+17
19658.0	6.056405851876009e+17
19659.0	6.055336542732287e+17
19660.0	6.054268617708884e+17
19661.0	6.05319910723857e+17
19662.0	6.05212742132258e+17
19663.0	6.051028810072063e+17
19664.0	6.049974417271465e+17
19665.0	6.048929598668799e+17
