# Flux units: erg / (cm m2 s)
# Wavelength units: Angstrom
wave	flux
19000.0	7.683571298162004e+17
19001.0	7.682125720103594e+17
19002.0	7.680807531446272e+17
19003.0	7.679414474462547e+17
19004.0	7.678019878169258e+17
19005.0	7.676651026513917e+17
19006.0	7.675263048832339e+17
19007.0	7.673752109536596e+17
19008.0	7.672448624710996e+17
19009.0	7.671022276138323e+17
19010.0	7.669440457299286e+17
19011.0	7.668237616196262e+17
19012.0	7.666223131131903e+17
19013.0	7.665505454959274e+17
19014.0	7.664075096631977e+17
19015.0	7.662695690709674e+17
19016.0	7.661296491866794e+17
19017.0	7.659914888129194e+17
19018.0	7.658490129197738e+17
19019.0	7.657116166083923e+17
19020.0	7.655707281195008e+17
19021.0	7.654326179375785e+17
19022.0	7.652925220323327e+17
19023.0	7.651491749822463e+17
19024.0	7.650093234651136e+17
19025.0	7.648614556543658e+17
19026.0	7.647170856135336e+17
19027.0	7.645195229899433e+17
19028.0	7.644457043580244e+17
19029.0	7.643055070904319e+17
19030.0	7.641663516879528e+17
19031.0	7.640248657903616e+17
19032.0	7.638867561676799e+17
19033.0	7.63796976251699e+17
19034.0	7.63651157218645e+17
19035.0	7.634302725870931e+17
19036.0	7.590901183763786e+17
19037.0	7.631713593196543e+17
19038.0	7.630865823694845e+17
19039.0	7.629551228157951e+17
19040.0	7.628163770570067e+17
19041.0	7.626760162115583e+17
19042.0	7.625245509462697e+17
19043.0	7.623938705544532e+17
19044.0	7.622519178308266e+17
19045.0	7.621073583472639e+17
19046.0	7.619655054480723e+17
19047.0	7.618242247917565e+17
19048.0	7.61671921504529e+17
19049.0	7.615259284078591e+17
19050.0	7.613833661120513e+17
19051.0	7.605822582423542e+17
19052.0	7.609203108959572e+17
19053.0	7.609616637973846e+17
19054.0	7.608292651390291e+17
19055.0	7.60671082975505e+17
19056.0	7.605453870945619e+17
19057.0	7.604044491128832e+17
19058.0	7.602546024295084e+17
19059.0	7.601188702781437e+17
19060.0	7.599764125603156e+17
19061.0	7.598358180921343e+17
19062.0	7.596930066546688e+17
19063.0	7.595503864774653e+17
19064.0	7.594015394365439e+17
19065.0	7.592534055671123e+17
19066.0	7.591167619934889e+17
19067.0	7.589798034276352e+17
19068.0	7.58837010445107e+17
19069.0	7.586941834887165e+17
19070.0	7.585498235142143e+17
19071.0	7.584057020557993e+17
19072.0	7.582630569923923e+17
19073.0	7.581221030723581e+17
19074.0	7.579793134452733e+17
19075.0	7.578361828212735e+17
19076.0	7.576919481166505e+17
19077.0	7.575488766323369e+17
19078.0	7.574051185404585e+17
19079.0	7.572631220562602e+17
19080.0	7.571187659964416e+17
19081.0	7.569733705880915e+17
19082.0	7.568301917295956e+17
19083.0	7.566804550767955e+17
19084.0	7.565277434041683e+17
19085.0	7.563972584669184e+17
19086.0	7.562112588404051e+17
19087.0	7.560213216012969e+17
19088.0	7.559249995497471e+17
19089.0	7.557609291426472e+17
19090.0	7.556645678044499e+17
19091.0	7.55529226002978e+17
19092.0	7.553667192324093e+17
19093.0	7.552489321310889e+17
19094.0	7.551088882352125e+17
19095.0	7.549662672191484e+17
19096.0	7.548223979782143e+17
19097.0	7.546795987042301e+17
19098.0	7.545341963053738e+17
19099.0	7.543900953990483e+17
19100.0	7.542405253999274e+17
19101.0	7.541014530446675e+17
19102.0	7.539551589367805e+17
19103.0	7.538162943393791e+17
19104.0	7.536714820790953e+17
19105.0	7.535200377853267e+17
19106.0	7.533646632889e+17
19107.0	7.532291581891923e+17
19108.0	7.53071599858483e+17
19109.0	7.526304152813564e+17
19110.0	7.527376365114708e+17
19111.0	7.526512528632489e+17
19112.0	7.525149951655935e+17
19113.0	7.523744185931092e+17
19114.0	7.522294350654121e+17
19115.0	7.520737494914387e+17
19116.0	7.519403525887315e+17
19117.0	7.517934965839187e+17
19118.0	7.516326040611498e+17
19119.0	7.513155756359675e+17
19120.0	7.51323349918242e+17
19121.0	7.51189666964002e+17
19122.0	7.510763121235284e+17
19123.0	7.509325842306387e+17
19124.0	7.507584691645097e+17
19125.0	7.506414457061373e+17
19126.0	7.504962000344404e+17
19127.0	7.502559659600553e+17
19128.0	7.501323992476326e+17
19129.0	7.500591671192233e+17
19130.0	7.499195381798227e+17
19131.0	7.497734939126441e+17
19132.0	7.496308260601855e+17
19133.0	7.49442553680145e+17
19134.0	7.492730390664535e+17
19135.0	7.491623604715517e+17
19136.0	7.490183616266239e+17
19137.0	7.488648435291475e+17
19138.0	7.487268573588138e+17
19139.0	7.485836333416447e+17
19140.0	7.484389364247209e+17
19141.0	7.482939052217683e+17
19142.0	7.481455307390975e+17
19143.0	7.480005986615296e+17
19144.0	7.478556288352255e+17
19145.0	7.477125819574952e+17
19146.0	7.475271480027817e+17
19147.0	7.474176259173033e+17
19148.0	7.472730471399424e+17
19149.0	7.4712763886906e+17
19150.0	7.469851087295827e+17
19151.0	7.468396740345856e+17
19152.0	7.466883559893672e+17
19153.0	7.46542860476962e+17
19154.0	7.463930897104896e+17
19155.0	7.462501355268778e+17
19156.0	7.460990305523028e+17
19157.0	7.459176264848723e+17
19158.0	7.456395698547368e+17
19159.0	7.456377966428157e+17
19160.0	7.455050481795071e+17
19161.0	7.453359355199487e+17
19162.0	7.447328206094336e+17
19163.0	7.449823148681897e+17
19164.0	7.449251444075177e+17
19165.0	7.447781550238377e+17
19166.0	7.446280468955135e+17
19167.0	7.444518980113748e+17
19168.0	7.443443205450409e+17
19169.0	7.442019029527208e+17
19170.0	7.440593199650131e+17
19171.0	7.438969348292607e+17
19172.0	7.437622210549076e+17
19173.0	7.436223338861908e+17
19174.0	7.43476012655138e+17
19175.0	7.433325155887785e+17
19176.0	7.431851449428649e+17
19177.0	7.430259908192936e+17
19178.0	7.428723523452928e+17
19179.0	7.4271426623133e+17
19180.0	7.425915301309097e+17
19181.0	7.42443350823185e+17
19182.0	7.423011339982163e+17
19183.0	7.421564593111037e+17
19184.0	7.420078253408255e+17
19185.0	7.41861666988578e+17
19186.0	7.417140574071466e+17
19187.0	7.415593991580329e+17
19188.0	7.414158889495208e+17
19189.0	7.412651439860393e+17
19190.0	7.411125311591764e+17
19191.0	7.409616343618902e+17
19192.0	7.408175872824662e+17
19193.0	7.406633153287508e+17
19194.0	7.40507575648256e+17
19195.0	7.403079442541225e+17
19196.0	7.401298845848916e+17
19197.0	7.399191359083859e+17
19198.0	7.395376203388244e+17
19199.0	7.365288408383482e+17
19200.0	7.369377824025265e+17
19201.0	7.391264539759956e+17
19202.0	7.391844913993042e+17
19203.0	7.390836239805097e+17
19204.0	7.38966025483059e+17
19205.0	7.388318048190463e+17
19206.0	7.386900718769492e+17
19207.0	7.385391643142825e+17
19208.0	7.383881042187604e+17
19209.0	7.382511101411327e+17
19210.0	7.381036659550889e+17
19211.0	7.379542117187583e+17
19212.0	7.378023245064874e+17
19213.0	7.376249938072916e+17
19214.0	7.374597376704513e+17
19215.0	7.373391984066557e+17
19216.0	7.372042995236863e+17
19217.0	7.370548924033705e+17
19218.0	7.368601487714982e+17
19219.0	7.367434032556713e+17
19220.0	7.366023774732288e+17
19221.0	7.364375228710911e+17
19222.0	7.363020544016383e+17
19223.0	7.361521325004118e+17
19224.0	7.359981485555711e+17
19225.0	7.357958965602985e+17
19226.0	7.356381731138217e+17
19227.0	7.35486267166993e+17
19228.0	7.353362742422185e+17
19229.0	7.351839525000532e+17
19230.0	7.35028553397043e+17
19231.0	7.348760194230953e+17
19232.0	7.347249263323817e+17
19233.0	7.34567576318771e+17
19234.0	7.344187877184851e+17
19235.0	7.342651844766378e+17
19236.0	7.34113086850116e+17
19237.0	7.339582855752361e+17
19238.0	7.33795205583121e+17
19239.0	7.336509378833064e+17
19240.0	7.334961563216553e+17
19241.0	7.333408332753577e+17
19242.0	7.3318692580666e+17
19243.0	7.330217897667241e+17
19244.0	7.327679918724436e+17
19245.0	7.325963973033983e+17
19246.0	7.324400532236969e+17
19247.0	7.3228493010589e+17
19248.0	7.321279623331839e+17
19249.0	7.319707982670505e+17
19250.0	7.318140095911251e+17
19251.0	7.316517704171519e+17
19252.0	7.31482463421508e+17
19253.0	7.31343426298402e+17
19254.0	7.311871093418666e+17
19255.0	7.310163904036863e+17
19256.0	7.308674171142143e+17
19257.0	7.307124078018557e+17
19258.0	7.305514216062975e+17
19259.0	7.303411569524735e+17
19260.0	7.301088972286632e+17
19261.0	7.300271043859795e+17
19262.0	7.298641509220351e+17
19263.0	7.297028648337407e+17
19264.0	7.295172899504127e+17
19265.0	7.293747368820736e+17
19266.0	7.292151464110761e+17
19267.0	7.290630192846166e+17
19268.0	7.289008990890664e+17
19269.0	7.287382650912765e+17
19270.0	7.285742708806995e+17
19271.0	7.283934419921578e+17
19272.0	7.282451530732884e+17
19273.0	7.280376787501053e+17
19274.0	7.278757291229181e+17
19275.0	7.27753391481378e+17
19276.0	7.2758687984954e+17
19277.0	7.274209392022868e+17
19278.0	7.272546061079891e+17
19279.0	7.270835451942228e+17
19280.0	7.269155171816787e+17
19281.0	7.267188788428799e+17
19282.0	7.264932016597672e+17
19283.0	7.262987890982911e+17
19284.0	7.261244798358868e+17
19285.0	7.259780815694505e+17
19286.0	7.258106478897833e+17
19287.0	7.25627079421679e+17
19288.0	7.242154283892723e+17
19289.0	7.22558688235789e+17
19290.0	7.251059082089811e+17
19291.0	7.249360102359039e+17
19292.0	7.247834786387284e+17
19293.0	7.24610219769856e+17
19294.0	7.244351426701994e+17
19295.0	7.242602225773225e+17
19296.0	7.240813345330516e+17
19297.0	7.239025115004927e+17
19298.0	7.237264311233194e+17
19299.0	7.235457979689641e+17
19300.0	7.233680165218985e+17
19301.0	7.231032358425943e+17
19302.0	7.228765337113939e+17
19303.0	7.22688538714658e+17
19304.0	7.225085734333098e+17
19305.0	7.223236865556477e+17
19306.0	7.221354312324436e+17
19307.0	7.21943165735185e+17
19308.0	7.217501530925738e+17
19309.0	7.214634434734761e+17
19310.0	7.212271396017491e+17
19311.0	7.211524681280169e+17
19312.0	7.209793609531391e+17
19313.0	7.207807387085481e+17
19314.0	7.177838541843107e+17
19315.0	7.177227842792147e+17
19316.0	7.199978952152403e+17
19317.0	7.198271850850985e+17
19318.0	7.196332146032637e+17
19319.0	7.194363574616063e+17
19320.0	7.192344369561599e+17
19321.0	7.190293216493568e+17
19322.0	7.188082205917183e+17
19323.0	7.185809393669462e+17
19324.0	7.183962710125225e+17
19325.0	7.181372570817875e+17
19326.0	7.178015065418406e+17
19327.0	7.175433804054527e+17
19328.0	7.173303276579497e+17
19329.0	7.171204375554729e+17
19330.0	7.169022456670889e+17
19331.0	7.166827866794666e+17
19332.0	7.164638553352872e+17
19333.0	7.162406915189417e+17
19334.0	7.157873967278766e+17
19335.0	7.154744276899155e+17
19336.0	7.152508359147519e+17
19337.0	7.150219355488253e+17
19338.0	7.147763535970301e+17
19339.0	7.145525639905279e+17
19340.0	7.142793301109421e+17
19341.0	7.136849590659753e+17
19342.0	7.134127877434024e+17
19343.0	7.13155436294963e+17
19344.0	7.129012751739561e+17
19345.0	7.125492835898706e+17
19346.0	7.121935316724389e+17
19347.0	7.116669380635305e+17
19348.0	7.114154450791081e+17
19349.0	7.111505451417599e+17
19350.0	7.108856310835881e+17
19351.0	7.103978954642779e+17
19352.0	7.097950687024467e+17
19353.0	7.095323302297599e+17
19354.0	7.092591718476458e+17
19355.0	7.089503968340652e+17
19356.0	7.083845979471871e+17
19357.0	7.080427321120084e+17
19358.0	7.077383156793343e+17
19359.0	7.074505353942356e+17
19360.0	7.071610421553833e+17
19361.0	7.068736406159359e+17
19362.0	7.065835986223104e+17
19363.0	7.062881107443711e+17
19364.0	7.05986073460736e+17
19365.0	7.056774266530474e+17
19366.0	7.053649827419475e+17
19367.0	7.049198056068436e+17
19368.0	7.045924902316713e+17
19369.0	7.042612934475775e+17
19370.0	7.039290535400787e+17
19371.0	7.035960382455807e+17
19372.0	7.032590719167145e+17
19373.0	7.028473528844284e+17
19374.0	7.023624359073107e+17
19375.0	7.020035634277034e+17
19376.0	7.016407157964799e+17
19377.0	7.012713868470953e+17
19378.0	7.008596444665171e+17
19379.0	7.002390834184191e+17
19380.0	6.99850144490018e+17
19381.0	6.994546047756969e+17
19382.0	6.990471589003263e+17
19383.0	6.98291986488798e+17
19384.0	6.978486423344468e+17
19385.0	6.974159533200724e+17
19386.0	6.967890055353682e+17
19387.0	6.960500228576595e+17
19388.0	6.955801641309524e+17
19389.0	6.949067419200175e+17
19390.0	6.940087428317183e+17
19391.0	6.903590076197504e+17
19392.0	6.92458584207086e+17
19393.0	6.917731888660479e+17
19394.0	6.911464672242351e+17
19395.0	6.898381068697599e+17
19396.0	6.892388709913939e+17
19397.0	6.879267255571799e+17
19398.0	6.870798216200191e+17
19399.0	6.860215002245798e+17
19400.0	6.852419806472874e+17
19401.0	6.845681789217449e+17
19402.0	6.838783488731818e+17
19403.0	6.831783328175443e+17
19404.0	6.824697981304831e+17
19405.0	6.817381668793001e+17
19406.0	6.809675582406655e+17
19407.0	6.801846193968467e+17
19408.0	6.79358131933457e+17
19409.0	6.785712665919487e+17
19410.0	6.777375598925139e+17
19411.0	6.768807845210793e+17
19412.0	6.760011935339859e+17
19413.0	6.750875601076224e+17
19414.0	6.741107912911529e+17
19415.0	6.731443824754688e+17
19416.0	6.721153975102122e+17
19417.0	6.710469617603923e+17
19418.0	6.699453050956457e+17
19419.0	6.687690590956202e+17
19420.0	6.676040355850921e+17
19421.0	6.663908681056255e+17
19422.0	6.650089474883583e+17
19423.0	6.637142711205887e+17
19424.0	6.622461822326099e+17
19425.0	6.606230511069865e+17
19426.0	6.590447967272959e+17
19427.0	6.571463395333459e+17
19428.0	6.553299517265236e+17
19429.0	6.532034865747286e+17
19430.0	6.509576985072983e+17
19431.0	6.482350324755122e+17
19432.0	6.462917769691133e+17
19433.0	6.437614783561725e+17
19434.0	6.408752086035113e+17
19435.0	6.379285884786002e+17
19436.0	6.344695291226796e+17
19437.0	6.311925496064682e+17
19438.0	6.241981114788525e+17
19439.0	6.234618665631747e+17
19440.0	6.191966744215551e+17
19441.0	6.143553321304061e+17
19442.0	6.089806092872364e+17
19443.0	6.028653290848255e+17
19444.0	5.960610287539537e+17
19445.0	5.88257901202637e+17
19446.0	5.792338536999594e+17
19447.0	5.6862127437468954e+17
19448.0	5.5580626140528685e+17
19449.0	5.397230390695253e+17
19450.0	5.1793017843657274e+17
19451.0	5.055548774940677e+17
19452.0	5.299128504418302e+17
19453.0	5.4813887781929024e+17
19454.0	5.6214683641009434e+17
19455.0	5.735158200139775e+17
19456.0	5.830311424993965e+17
19457.0	5.911644496461819e+17
19458.0	5.947567615508538e+17
19459.0	6.042959904505864e+17
19460.0	6.098989873801896e+17
19461.0	6.147514928813395e+17
19462.0	6.191714207268865e+17
19463.0	6.231273651568637e+17
19464.0	6.266315318755327e+17
19465.0	6.298836723040256e+17
19466.0	6.330869843230717e+17
19467.0	6.359013626565971e+17
19468.0	6.384722146667177e+17
19469.0	6.410308392321021e+17
19470.0	6.431321723240447e+17
19471.0	6.454084670324736e+17
19472.0	6.472687076857171e+17
19473.0	6.492554722454185e+17
19474.0	6.508910846410751e+17
19475.0	6.524978631540731e+17
19476.0	6.539801431900159e+17
19477.0	6.553044799979521e+17
19478.0	6.566495391143251e+17
19479.0	6.577383222018045e+17
19480.0	6.588189805030056e+17
19481.0	6.598607251701759e+17
19482.0	6.607918310883327e+17
19483.0	6.616894211620864e+17
19484.0	6.626309453818537e+17
19485.0	6.634483351901524e+17
19486.0	6.642176616300543e+17
19487.0	6.649453606513321e+17
19488.0	6.656543332936361e+17
19489.0	6.663382393072297e+17
19490.0	6.669223717765117e+17
19491.0	6.675850095230975e+17
19492.0	6.681740076646399e+17
19493.0	6.687396768776191e+17
19494.0	6.692854091655849e+17
19495.0	6.698071556969812e+17
19496.0	6.703078936586921e+17
19497.0	6.707937175841449e+17
19498.0	6.707579242326698e+17
19499.0	6.670291786792936e+17
19500.0	6.721060909787817e+17
19501.0	6.725615788315988e+17
19502.0	6.729786390304084e+17
19503.0	6.738158839747923e+17
19504.0	6.742613236733268e+17
19505.0	6.753596014766755e+17
19506.0	6.758466361578835e+17
19507.0	6.765727860129788e+17
19508.0	6.772415806483113e+17
19509.0	6.775319966340439e+17
19510.0	6.784079794012161e+17
19511.0	6.733668468916191e+17
19512.0	6.781888338679109e+17
19513.0	6.782415985617556e+17
19514.0	6.787994883194866e+17
19515.0	6.801189168130728e+17
19516.0	6.807339253716308e+17
19517.0	6.809109677823316e+17
19518.0	6.810783349123753e+17
19519.0	6.814552123506688e+17
19520.0	6.817201279467519e+17
19521.0	6.81857952846097e+17
19522.0	6.819832374056276e+17
19523.0	6.822135734818134e+17
19524.0	6.824770644126377e+17
19525.0	6.825850511032319e+17
19526.0	6.826862090474835e+17
19527.0	6.827813427828052e+17
19528.0	6.829070204884307e+17
19529.0	6.831411013790377e+17
19530.0	6.832180722401279e+17
19531.0	6.832900564931924e+17
19532.0	6.833575187972096e+17
19533.0	6.834201194135551e+17
19534.0	6.834779982921727e+17
19535.0	6.835901423069866e+17
19536.0	6.837022547946153e+17
19537.0	6.83748687417617e+17
19538.0	6.837783979797161e+17
19539.0	6.837933845075284e+17
19540.0	6.838463112413181e+17
19541.0	6.838734189581652e+17
19542.0	6.838958265379497e+17
19543.0	6.839137002848255e+17
19544.0	6.839342683127807e+17
19545.0	6.839595723390975e+17
19546.0	6.841404256944124e+17
19547.0	6.843473124655104e+17
19548.0	6.843555277089449e+17
19549.0	6.843547063244116e+17
19550.0	6.844380365193217e+17
19551.0	6.848775696591529e+17
19552.0	6.848755700946259e+17
19553.0	6.848699568575828e+17
19554.0	6.848625632783018e+17
19555.0	6.849255098548227e+17
19556.0	6.852750479807827e+17
19557.0	6.852609867863379e+17
19558.0	6.852448861115732e+17
19559.0	6.852265333052756e+17
19560.0	6.852271354675199e+17
19561.0	6.853372800576173e+17
19562.0	6.855414529742163e+17
19563.0	6.855113048763049e+17
19564.0	6.854776893472767e+17
19565.0	6.854418196594687e+17
19566.0	6.854020745745747e+17
19567.0	6.853637723302569e+17
19568.0	6.854883821660844e+17
19569.0	6.855601272739155e+17
19570.0	6.855144016707583e+17
19571.0	6.854661526345043e+17
19572.0	6.854142758049108e+17
19573.0	6.853636492973395e+17
19574.0	6.85305004888337e+17
19575.0	6.852560092659711e+17
19576.0	6.852872951387473e+17
19577.0	6.853577123998377e+17
19578.0	6.852956995452927e+17
19579.0	6.852341145097555e+17
19580.0	6.851710111361705e+17
19581.0	6.851073310457855e+17
19582.0	6.850422133577044e+17
19583.0	6.84974844027426e+17
19584.0	6.849040970241364e+17
19585.0	6.848283604768084e+17
19586.0	6.847513965363199e+17
19587.0	6.847265996013568e+17
19588.0	6.847528496529407e+17
19589.0	6.84702861238818e+17
19590.0	6.846236442580308e+17
19591.0	6.845538118227286e+17
19592.0	6.844768345303721e+17
19593.0	6.843972436972884e+17
19594.0	6.84311800132403e+17
19595.0	6.842505763662506e+17
19596.0	6.840055840636928e+17
19597.0	6.840859978192212e+17
19598.0	6.839873826018644e+17
19599.0	6.839207095959551e+17
19600.0	6.838362997172906e+17
19601.0	6.837460268307796e+17
19602.0	6.837285488863914e+17
19603.0	6.83618573746176e+17
19604.0	6.835817334265172e+17
19605.0	6.834914227912703e+17
19606.0	6.834204596415146e+17
19607.0	6.833304594546687e+17
19608.0	6.832388044051796e+17
19609.0	6.831442957609641e+17
19610.0	6.830533133380265e+17
19611.0	6.829593254865577e+17
19612.0	6.828678357625513e+17
19613.0	6.827725946530474e+17
19614.0	6.8267539445405e+17
19615.0	6.825803977326591e+17
19616.0	6.824522865617578e+17
19617.0	6.823863695791444e+17
19618.0	6.822586606419965e+17
19619.0	6.821523290237609e+17
19620.0	6.820577938156201e+17
19621.0	6.819925356882601e+17
19622.0	6.818962950062079e+17
19623.0	6.818371802759168e+17
19624.0	6.817656336285693e+17
19625.0	6.816638339558057e+17
19626.0	6.815592087202474e+17
19627.0	6.814449667844778e+17
19628.0	6.812609975506262e+17
19629.0	6.811723169617235e+17
19630.0	6.804355090306387e+17
19631.0	6.777230871669421e+17
19632.0	6.808102926024703e+17
19633.0	6.808047680050516e+17
19634.0	6.80727477887522e+17
19635.0	6.806278165408425e+17
19636.0	6.805261882753023e+17
19637.0	6.804256229163007e+17
19638.0	6.803532470550527e+17
19639.0	6.802475138940927e+17
19640.0	6.801369063227391e+17
19641.0	6.799975512014848e+17
19642.0	6.799294587731965e+17
19643.0	6.798557403851433e+17
19644.0	6.797509790444201e+17
19645.0	6.796330136152746e+17
19646.0	6.795364071899135e+17
19647.0	6.794317223952384e+17
19648.0	6.793233199792127e+17
19649.0	6.792143714648063e+17
19650.0	6.791054212027732e+17
19651.0	6.78996069126417e+17
19652.0	6.78886447775744e+17
19653.0	6.787747278749695e+17
19654.0	6.786664645001213e+17
19655.0	6.785558424584191e+17
19656.0	6.784451512806057e+17
19657.0	6.783347379754323e+17
19658.0	6.782775401818794e+17
19659.0	6.781746399936511e+17
19660.0	6.780632809428308e+17
19661.0	6.779515699899049e+17
19662.0	6.778393677441705e+17
19663.0	6.777213979110058e+17
19664.0	6.776372554891263e+17
19665.0	6.775438449836031e+17
