# Flux units: erg / (cm m2 s)
# Wavelength units: Angstrom
wave	flux
19000.0	6.652403695397546e+17
19001.0	6.651062349288788e+17
19002.0	6.649885329719295e+17
19003.0	6.648621374810793e+17
19004.0	6.647360513900543e+17
19005.0	6.646096342286333e+17
19006.0	6.644836700520447e+17
19007.0	6.643540427800575e+17
19008.0	6.642235563048959e+17
19009.0	6.641031770537984e+17
19010.0	6.639395530604543e+17
19011.0	6.638517528559613e+17
19012.0	6.637177299533823e+17
19013.0	6.636014147731455e+17
19014.0	6.634701649346559e+17
19015.0	6.63346698256384e+17
19016.0	6.632203297488895e+17
19017.0	6.630317216847188e+17
19018.0	6.62971274563857e+17
19019.0	6.628454980124671e+17
19020.0	6.627120805576704e+17
19021.0	6.625899581538303e+17
19022.0	6.624692473430015e+17
19023.0	6.623398838228308e+17
19024.0	6.622162079885993e+17
19025.0	6.620908234648234e+17
19026.0	6.619645049394516e+17
19027.0	6.618402646917119e+17
19028.0	6.617153453162496e+17
19029.0	6.615883890469546e+17
19030.0	6.614652319782228e+17
19031.0	6.613402365460479e+17
19032.0	6.612145345833641e+17
19033.0	6.610811499140436e+17
19034.0	6.609613299034793e+17
19035.0	6.608350052963667e+17
19036.0	6.604727292788733e+17
19037.0	6.605862500040703e+17
19038.0	6.604600127782911e+17
19039.0	6.603363122675711e+17
19040.0	6.602114413363197e+17
19041.0	6.60085610258978e+17
19042.0	6.599532060781225e+17
19043.0	6.598355129991167e+17
19044.0	6.59709334004258e+17
19045.0	6.595852968307369e+17
19046.0	6.594545951178751e+17
19047.0	6.593348599720617e+17
19048.0	6.591919651378516e+17
19049.0	6.590783817078099e+17
19050.0	6.589553926908585e+17
19051.0	6.588069614452735e+17
19052.0	6.587075284085417e+17
19053.0	6.585828353856851e+17
19054.0	6.584588497321983e+17
19055.0	6.583128228713812e+17
19056.0	6.582073610818899e+17
19057.0	6.580839707399508e+17
19058.0	6.579565058413908e+17
19059.0	6.578345778435412e+17
19060.0	6.577082674271571e+17
19061.0	6.575853440510633e+17
19062.0	6.574602175468884e+17
19063.0	6.573355807277055e+17
19064.0	6.571998858357417e+17
19065.0	6.570702854772052e+17
19066.0	6.569559578378239e+17
19067.0	6.568358362568022e+17
19068.0	6.567121554593108e+17
19069.0	6.565878325138772e+17
19070.0	6.564605589454847e+17
19071.0	6.563381807590057e+17
19072.0	6.562141615510868e+17
19073.0	6.560890057566889e+17
19074.0	6.559653716557824e+17
19075.0	6.558408976454995e+17
19076.0	6.557144823715155e+17
19077.0	6.55591379898641e+17
19078.0	6.554536936210431e+17
19079.0	6.55342744773154e+17
19080.0	6.552176123270484e+17
19081.0	6.550899081434452e+17
19082.0	6.549606868800852e+17
19083.0	6.548355343013203e+17
19084.0	6.546998556972372e+17
19085.0	6.545963132212564e+17
19086.0	6.544386820494675e+17
19087.0	6.543442714121556e+17
19088.0	6.542187395284992e+17
19089.0	6.540820453436073e+17
19090.0	6.539738386617684e+17
19091.0	6.538490234448553e+17
19092.0	6.537222259998719e+17
19093.0	6.53604281262626e+17
19094.0	6.534767152813395e+17
19095.0	6.53352216175138e+17
19096.0	6.532300495213908e+17
19097.0	6.531087601063252e+17
19098.0	6.529846296794452e+17
19099.0	6.528590046123348e+17
19100.0	6.527364268468906e+17
19101.0	6.526134290918057e+17
19102.0	6.524825347205801e+17
19103.0	6.523653450978644e+17
19104.0	6.522422849175551e+17
19105.0	6.521181369445034e+17
19106.0	6.519935935883946e+17
19107.0	6.518695522904745e+17
19108.0	6.517475724929706e+17
19109.0	6.515971190336169e+17
19110.0	6.515002723445417e+17
19111.0	6.513765407959722e+17
19112.0	6.512526090392916e+17
19113.0	6.511289629147135e+17
19114.0	6.510051827821225e+17
19115.0	6.508776168707412e+17
19116.0	6.507566500675583e+17
19117.0	6.506335341030057e+17
19118.0	6.505017844432895e+17
19119.0	6.502106631853394e+17
19120.0	6.502624680127145e+17
19121.0	6.501410182354259e+17
19122.0	6.500184444545705e+17
19123.0	6.498896224190463e+17
19124.0	6.497704476322473e+17
19125.0	6.496480031058602e+17
19126.0	6.495230310918825e+17
19127.0	6.49265528718404e+17
19128.0	6.4925233854109e+17
19129.0	6.491480143167487e+17
19130.0	6.49031926817314e+17
19131.0	6.489090916614143e+17
19132.0	6.487862036572842e+17
19133.0	6.48588991537698e+17
19134.0	6.485276458571094e+17
19135.0	6.484176630273363e+17
19136.0	6.482952558302548e+17
19137.0	6.481590383280127e+17
19138.0	6.480412661164714e+17
19139.0	6.479264571807059e+17
19140.0	6.478037405138943e+17
19141.0	6.476809615616682e+17
19142.0	6.47555907059712e+17
19143.0	6.474301070202196e+17
19144.0	6.473081783233193e+17
19145.0	6.471894142986921e+17
19146.0	6.470175808640342e+17
19147.0	6.469372077932541e+17
19148.0	6.468215125311487e+17
19149.0	6.466985839121748e+17
19150.0	6.465750169201321e+17
19151.0	6.464536254436691e+17
19152.0	6.463241880338431e+17
19153.0	6.462070969772713e+17
19154.0	6.460759073969492e+17
19155.0	6.459641327605075e+17
19156.0	6.45841359610402e+17
19157.0	6.457185727589033e+17
19158.0	6.455774000360105e+17
19159.0	6.45472823873809e+17
19160.0	6.453427697614847e+17
19161.0	6.452263229500074e+17
19162.0	6.450650977490259e+17
19163.0	6.449847804624895e+17
19164.0	6.448629957001215e+17
19165.0	6.447395934044159e+17
19166.0	6.446101192245245e+17
19167.0	6.444923242938367e+17
19168.0	6.443538870960127e+17
19169.0	6.442417229485396e+17
19170.0	6.441298333881684e+17
19171.0	6.440059116279123e+17
19172.0	6.438851672626516e+17
19173.0	6.437636268883965e+17
19174.0	6.436368488770217e+17
19175.0	6.435196366749695e+17
19176.0	6.433971389508266e+17
19177.0	6.43263128281634e+17
19178.0	6.431533608992767e+17
19179.0	6.430296780745385e+17
19180.0	6.428963470923091e+17
19181.0	6.427799774560255e+17
19182.0	6.426327985597098e+17
19183.0	6.425429000148308e+17
19184.0	6.424042565271551e+17
19185.0	6.422987697815551e+17
19186.0	6.421789404037119e+17
19187.0	6.420497541627901e+17
19188.0	6.419350775573161e+17
19189.0	6.418127591396692e+17
19190.0	6.416910258973353e+17
19191.0	6.415675112641876e+17
19192.0	6.414473376038911e+17
19193.0	6.413077066372436e+17
19194.0	6.411960454567252e+17
19195.0	6.410820742632788e+17
19196.0	6.409610472718335e+17
19197.0	6.408402928402432e+17
19198.0	6.407194201292799e+17
19199.0	6.403395602612223e+17
19200.0	6.403107556687872e+17
19201.0	6.403552805126141e+17
19202.0	6.402340326211583e+17
19203.0	6.401121960591359e+17
19204.0	6.399889873305599e+17
19205.0	6.398685515262633e+17
19206.0	6.39746874347793e+17
19207.0	6.396197793868457e+17
19208.0	6.394861189420371e+17
19209.0	6.393831032007337e+17
19210.0	6.392614022545407e+17
19211.0	6.391390776852479e+17
19212.0	6.390207033813674e+17
19213.0	6.388906871575891e+17
19214.0	6.38768244588544e+17
19215.0	6.386565762777087e+17
19216.0	6.385221266046976e+17
19217.0	6.384136960868351e+17
19218.0	6.382266034946045e+17
19219.0	6.381585257463807e+17
19220.0	6.380495017345023e+17
19221.0	6.379029749126484e+17
19222.0	6.378094909369001e+17
19223.0	6.376863121975977e+17
19224.0	6.375409287430143e+17
19225.0	6.374279368496468e+17
19226.0	6.373229845981865e+17
19227.0	6.372017227956223e+17
19228.0	6.370831858226516e+17
19229.0	6.369619622581588e+17
19230.0	6.368376509169663e+17
19231.0	6.367148879030953e+17
19232.0	6.365790560671059e+17
19233.0	6.364716042201769e+17
19234.0	6.363547011383295e+17
19235.0	6.362328279460522e+17
19236.0	6.361153200455679e+17
19237.0	6.359929960355156e+17
19238.0	6.358660940125524e+17
19239.0	6.357532552811859e+17
19240.0	6.355928458024276e+17
19241.0	6.354986108365481e+17
19242.0	6.353842935431167e+17
19243.0	6.352527307396435e+17
19244.0	6.351481028476927e+17
19245.0	6.350276106999124e+17
19246.0	6.349063247801002e+17
19247.0	6.347829300341417e+17
19248.0	6.346664362464596e+17
19249.0	6.345456292462591e+17
19250.0	6.344232841248767e+17
19251.0	6.342964613742591e+17
19252.0	6.341476027990016e+17
19253.0	6.340610898963114e+17
19254.0	6.339363679327571e+17
19255.0	6.338033741725695e+17
19256.0	6.336989924163583e+17
19257.0	6.335799608650409e+17
19258.0	6.334583930180948e+17
19259.0	6.333319555842047e+17
19260.0	6.332152224415741e+17
19261.0	6.330966603726847e+17
19262.0	6.329715529525929e+17
19263.0	6.328522379362304e+17
19264.0	6.326908242711891e+17
19265.0	6.325998282167635e+17
19266.0	6.324842904507732e+17
19267.0	6.323725208474964e+17
19268.0	6.322510670856191e+17
19269.0	6.321305650812244e+17
19270.0	6.320099978554025e+17
19271.0	6.318627765267116e+17
19272.0	6.317659461255165e+17
19273.0	6.306628577350984e+17
19274.0	6.310613200404474e+17
19275.0	6.314071840959146e+17
19276.0	6.312848484816212e+17
19277.0	6.311639857670825e+17
19278.0	6.31044058522146e+17
19279.0	6.309123865968637e+17
19280.0	6.307950118655316e+17
19281.0	6.306812733860522e+17
19282.0	6.305618396708863e+17
19283.0	6.304368999530496e+17
19284.0	6.303087957027498e+17
19285.0	6.301786188371284e+17
19286.0	6.300757046678868e+17
19287.0	6.299580046682793e+17
19288.0	6.297820191522815e+17
19289.0	6.295489753732434e+17
19290.0	6.295953528411476e+17
19291.0	6.29451283112482e+17
19292.0	6.293531029842601e+17
19293.0	6.292316379676671e+17
19294.0	6.291102566274388e+17
19295.0	6.289902438187007e+17
19296.0	6.288683159606612e+17
19297.0	6.287452489296553e+17
19298.0	6.286239617515519e+17
19299.0	6.285053480927231e+17
19300.0	6.283841228505087e+17
19301.0	6.282616935634259e+17
19302.0	6.28139951792674e+17
19303.0	6.280102119036243e+17
19304.0	6.278910631215101e+17
19305.0	6.277750916644863e+17
19306.0	6.276540964798463e+17
19307.0	6.27527917834513e+17
19308.0	6.274087984125268e+17
19309.0	6.272820873003007e+17
19310.0	6.271540750450687e+17
19311.0	6.270427398318761e+17
19312.0	6.269184119231827e+17
19313.0	6.267557705154561e+17
19314.0	6.26623254905924e+17
19315.0	6.265053031781716e+17
19316.0	6.264355194667008e+17
19317.0	6.263121381425151e+17
19318.0	6.261892116905983e+17
19319.0	6.260680696354132e+17
19320.0	6.259342423971156e+17
19321.0	6.258225707308371e+17
19322.0	6.256844108464128e+17
19323.0	6.255718230742356e+17
19324.0	6.25453112037649e+17
19325.0	6.253262746768723e+17
19326.0	6.25206493253905e+17
19327.0	6.250817615036415e+17
19328.0	6.249596326685353e+17
19329.0	6.248357811628713e+17
19330.0	6.247080576854697e+17
19331.0	6.245838077908308e+17
19332.0	6.244628147033427e+17
19333.0	6.24336870449698e+17
19334.0	6.241992484148564e+17
19335.0	6.240884818094762e+17
19336.0	6.239632326918143e+17
19337.0	6.238365589088937e+17
19338.0	6.236947787109716e+17
19339.0	6.235863082074112e+17
19340.0	6.234562855523667e+17
19341.0	6.233337529455956e+17
19342.0	6.231675672810836e+17
19343.0	6.230804845821951e+17
19344.0	6.229520927424511e+17
19345.0	6.226539687444474e+17
19346.0	6.226544192126976e+17
19347.0	6.225636560120489e+17
19348.0	6.224412811810132e+17
19349.0	6.223097243893759e+17
19350.0	6.221812543258623e+17
19351.0	6.220502764879871e+17
19352.0	6.219177434720937e+17
19353.0	6.217938922460499e+17
19354.0	6.216617906143231e+17
19355.0	6.215230756137642e+17
19356.0	6.213993900627284e+17
19357.0	6.212658806128639e+17
19358.0	6.211249903763455e+17
19359.0	6.20945319535138e+17
19360.0	6.208624605702826e+17
19361.0	6.207237304702291e+17
19362.0	6.205961561702399e+17
19363.0	6.204595146238634e+17
19364.0	6.203211447446185e+17
19365.0	6.201838275657727e+17
19366.0	6.200463493256532e+17
19367.0	6.199069150019583e+17
19368.0	6.197664285371049e+17
19369.0	6.196061703329107e+17
19370.0	6.193584499152211e+17
19371.0	6.193341966319615e+17
19372.0	6.191941459552937e+17
19373.0	6.190457870614527e+17
19374.0	6.189005244028244e+17
19375.0	6.187523339102889e+17
19376.0	6.186022673754793e+17
19377.0	6.184509233255764e+17
19378.0	6.182984721891327e+17
19379.0	6.181432363843583e+17
19380.0	6.179877452862804e+17
19381.0	6.178288186337962e+17
19382.0	6.176602870251519e+17
19383.0	6.174952543049044e+17
19384.0	6.173400842807978e+17
19385.0	6.171726755572393e+17
19386.0	6.170032182657023e+17
19387.0	6.168305057748307e+17
19388.0	6.16654834831633e+17
19389.0	6.164737640016553e+17
19390.0	6.162911188396714e+17
19391.0	6.158917050564604e+17
19392.0	6.159158738943999e+17
19393.0	6.157225848471551e+17
19394.0	6.155247010097834e+17
19395.0	6.153224176271359e+17
19396.0	6.151133356971348e+17
19397.0	6.149009432029866e+17
19398.0	6.146788941627391e+17
19399.0	6.143982716671315e+17
19400.0	6.142192856858623e+17
19401.0	6.1398313336832e+17
19402.0	6.137366121021439e+17
19403.0	6.134790231162879e+17
19404.0	6.132156123665748e+17
19405.0	6.129382813510314e+17
19406.0	6.126519684431871e+17
19407.0	6.123553515984212e+17
19408.0	6.119858220214956e+17
19409.0	6.117063370211327e+17
19410.0	6.113768002027519e+17
19411.0	6.110180829822975e+17
19412.0	6.106419545767936e+17
19413.0	6.102477499094356e+17
19414.0	6.098273761405609e+17
19415.0	6.093862943937876e+17
19416.0	6.089002801168381e+17
19417.0	6.084097680779945e+17
19418.0	6.078849446051839e+17
19419.0	6.073173797066068e+17
19420.0	6.067154328398506e+17
19421.0	6.060676973854719e+17
19422.0	6.053681459888127e+17
19423.0	6.046171795554303e+17
19424.0	6.038075008352255e+17
19425.0	6.029314397044735e+17
19426.0	6.019728032137215e+17
19427.0	6.009234115614036e+17
19428.0	5.998347749250388e+17
19429.0	5.986119580996948e+17
19430.0	5.972666424317268e+17
19431.0	5.95740088860672e+17
19432.0	5.941654597577384e+17
19433.0	5.92413819212049e+17
19434.0	5.904807911664297e+17
19435.0	5.883190779226793e+17
19436.0	5.858491468087295e+17
19437.0	5.831060898185215e+17
19438.0	5.800016132177917e+17
19439.0	5.771693903577087e+17
19440.0	5.736207217939797e+17
19441.0	5.6948827364174483e+17
19442.0	5.647030985337517e+17
19443.0	5.599014238027775e+17
19444.0	5.544173582505297e+17
19445.0	5.47762034284954e+17
19446.0	5.403718520406015e+17
19447.0	5.319791753560061e+17
19448.0	5.217617807671299e+17
19449.0	5.0722133375276384e+17
19450.0	4.719459907054228e+17
19451.0	4.5860748931017344e+17
19452.0	4.922912881158832e+17
19453.0	5.1557797563378374e+17
19454.0	5.266223934384805e+17
19455.0	5.357982511180459e+17
19456.0	5.43210916719275e+17
19457.0	5.5019615310315475e+17
19458.0	5.5588672094863366e+17
19459.0	5.6080473008373786e+17
19460.0	5.653825062262099e+17
19461.0	5.696530737179307e+17
19462.0	5.73241779290112e+17
19463.0	5.7632490282898765e+17
19464.0	5.790158878845609e+17
19465.0	5.816077609074688e+17
19466.0	5.839765320499197e+17
19467.0	5.860490750197757e+17
19468.0	5.87858311118848e+17
19469.0	5.893027739118249e+17
19470.0	5.909040615915519e+17
19471.0	5.922268007191892e+17
19472.0	5.933982520705023e+17
19473.0	5.944343240813225e+17
19474.0	5.953721805919574e+17
19475.0	5.961410811002879e+17
19476.0	5.969593968011945e+17
19477.0	5.97635459326498e+17
19478.0	5.982421471548756e+17
19479.0	5.987909147208361e+17
19480.0	5.992752449847295e+17
19481.0	5.997151331024895e+17
19482.0	6.001034795854506e+17
19483.0	6.004574336144724e+17
19484.0	6.007685212274687e+17
19485.0	6.010430675746815e+17
19486.0	6.012979430555647e+17
19487.0	6.01524727255313e+17
19488.0	6.017222971490303e+17
19489.0	6.01894316810786e+17
19490.0	6.019376927648424e+17
19491.0	6.021774364551849e+17
19492.0	6.02298672812305e+17
19493.0	6.023998182435498e+17
19494.0	6.024859334563156e+17
19495.0	6.025394685739005e+17
19496.0	6.025796870559058e+17
19497.0	6.026647724971348e+17
19498.0	6.026963241489748e+17
19499.0	6.023721152151547e+17
19500.0	6.027551574414675e+17
19501.0	6.027658947898025e+17
19502.0	6.027712621707263e+17
19503.0	6.027688965133652e+17
19504.0	6.02753756893457e+17
19505.0	6.027449798929065e+17
19506.0	6.027253813084159e+17
19507.0	6.026999109080403e+17
19508.0	6.026712964573865e+17
19509.0	6.026366522753023e+17
19510.0	6.025826864026963e+17
19511.0	6.02342712165444e+17
19512.0	6.024661261352956e+17
19513.0	6.023362190333266e+17
19514.0	6.023400636721833e+17
19515.0	6.02308725300702e+17
19516.0	6.022902798002857e+17
19517.0	6.022241539413331e+17
19518.0	6.02167440450082e+17
19519.0	6.021016448226644e+17
19520.0	6.020306554585087e+17
19521.0	6.019627897323519e+17
19522.0	6.018860020924415e+17
19523.0	6.018165601468415e+17
19524.0	6.017405037139284e+17
19525.0	6.016557243869865e+17
19526.0	6.01582709383714e+17
19527.0	6.015017611340457e+17
19528.0	6.014210253258751e+17
19529.0	6.013374026481663e+17
19530.0	6.012540633655978e+17
19531.0	6.011695165429076e+17
19532.0	6.010827138138112e+17
19533.0	6.009958050387284e+17
19534.0	6.009073714244265e+17
19535.0	6.008160065508692e+17
19536.0	6.007267215627604e+17
19537.0	6.006388271961427e+17
19538.0	6.005445156143104e+17
19539.0	6.004084330288471e+17
19540.0	6.003589034715818e+17
19541.0	6.002674895945727e+17
19542.0	6.001724744881492e+17
19543.0	6.000771374688937e+17
19544.0	5.999818652516351e+17
19545.0	5.998585672542888e+17
19546.0	5.997123813594452e+17
19547.0	5.996862388917588e+17
19548.0	5.995941118432596e+17
19549.0	5.994865967322451e+17
19550.0	5.993972375748608e+17
19551.0	5.992987407067818e+17
19552.0	5.991995452773716e+17
19553.0	5.99098648428544e+17
19554.0	5.989965183844351e+17
19555.0	5.988983330832383e+17
19556.0	5.987985258446847e+17
19557.0	5.986972186531156e+17
19558.0	5.985956619004585e+17
19559.0	5.984896102520148e+17
19560.0	5.983897390503252e+17
19561.0	5.982871778317652e+17
19562.0	5.981862872044884e+17
19563.0	5.98081747952162e+17
19564.0	5.979812423619924e+17
19565.0	5.978775362382506e+17
19566.0	5.977724543827967e+17
19567.0	5.976694298334548e+17
19568.0	5.975645692275369e+17
19569.0	5.974613722223956e+17
19570.0	5.973594387513343e+17
19571.0	5.972548260287828e+17
19572.0	5.97147231785233e+17
19573.0	5.970448340746239e+17
19574.0	5.969315542422868e+17
19575.0	5.968348508585983e+17
19576.0	5.967308261075625e+17
19577.0	5.966070531751933e+17
19578.0	5.965166234916179e+17
19579.0	5.964125151341225e+17
19580.0	5.963074106294271e+17
19581.0	5.96202570575599e+17
19582.0	5.960982151735978e+17
19583.0	5.959923094869332e+17
19584.0	5.958861647948457e+17
19585.0	5.957703499251711e+17
19586.0	5.956585981476863e+17
19587.0	5.955604233322495e+17
19588.0	5.954188620070912e+17
19589.0	5.95346490060527e+17
19590.0	5.952413492051968e+17
19591.0	5.951411490302633e+17
19592.0	5.950349969282388e+17
19593.0	5.949263485162836e+17
19594.0	5.947998187378004e+17
19595.0	5.947125688259923e+17
19596.0	5.945430307241984e+17
19597.0	5.944993431333546e+17
19598.0	5.943733567968595e+17
19599.0	5.942863161109162e+17
19600.0	5.941796093820927e+17
19601.0	5.940671043775146e+17
19602.0	5.939622043451391e+17
19603.0	5.938235946915155e+17
19604.0	5.937462570385408e+17
19605.0	5.936176441589759e+17
19606.0	5.935321919258623e+17
19607.0	5.93428313346321e+17
19608.0	5.933200940815699e+17
19609.0	5.932091212562431e+17
19610.0	5.931064630793556e+17
19611.0	5.929982385717247e+17
19612.0	5.928917668637354e+17
19613.0	5.927823683005097e+17
19614.0	5.926729294020608e+17
19615.0	5.925688646653268e+17
19616.0	5.924596277226154e+17
19617.0	5.923533184040959e+17
19618.0	5.922064996586835e+17
19619.0	5.920837341282301e+17
19620.0	5.919793706871465e+17
19621.0	5.919221614990676e+17
19622.0	5.918150941300052e+17
19623.0	5.917075853104467e+17
19624.0	5.915989461259603e+17
19625.0	5.914919079073108e+17
19626.0	5.913832150357332e+17
19627.0	5.912765224277332e+17
19628.0	5.911621319436969e+17
19629.0	5.910534650068991e+17
19630.0	5.909498576590164e+17
19631.0	5.905819379258707e+17
19632.0	5.90737012040226e+17
19633.0	5.9062544250525e+17
19634.0	5.905215325383337e+17
19635.0	5.904102798131199e+17
19636.0	5.903051606283603e+17
19637.0	5.90162421682449e+17
19638.0	5.900892956000255e+17
19639.0	5.899806750102868e+17
19640.0	5.898691609799337e+17
19641.0	5.897239457169408e+17
19642.0	5.896579008779604e+17
19643.0	5.895477923588778e+17
19644.0	5.894383754106198e+17
19645.0	5.893147028619263e+17
19646.0	5.892278776933033e+17
19647.0	5.89120172929843e+17
19648.0	5.890119497504084e+17
19649.0	5.889038751192404e+17
19650.0	5.887966907290963e+17
19651.0	5.886883300463956e+17
19652.0	5.885804031945386e+17
19653.0	5.884732426420223e+17
19654.0	5.883645513782612e+17
19655.0	5.882563280590164e+17
19656.0	5.881493045204308e+17
19657.0	5.880413576058196e+17
19658.0	5.879342431906473e+17
19659.0	5.878265273122815e+17
19660.0	5.877191436227924e+17
19661.0	5.876110385130154e+17
19662.0	5.875037579334995e+17
19663.0	5.873922830499839e+17
19664.0	5.872866250369705e+17
19665.0	5.871807076761599e+17
