# Flux units: erg / (cm m2 s)
# Wavelength units: Angstrom
wave	flux
19000.0	6.483206171088212e+17
19001.0	6.481468595372031e+17
19002.0	6.480812676131497e+17
19003.0	6.479578551113044e+17
19004.0	6.478370902638591e+17
19005.0	6.477143410212864e+17
19006.0	6.475947771428863e+17
19007.0	6.47460646027264e+17
19008.0	6.473191444709375e+17
19009.0	6.471772320825343e+17
19010.0	6.468592653915473e+17
19011.0	6.469714470152873e+17
19012.0	6.467949638451199e+17
19013.0	6.467462126807721e+17
19014.0	6.46593983353105e+17
19015.0	6.464851396962986e+17
19016.0	6.463566248236372e+17
19017.0	6.462498207170559e+17
19018.0	6.461348943407785e+17
19019.0	6.460152378381654e+17
19020.0	6.45884386738176e+17
19021.0	6.457750587091625e+17
19022.0	6.456568830055764e+17
19023.0	6.455163954921472e+17
19024.0	6.45406057894161e+17
19025.0	6.452916153308499e+17
19026.0	6.451582288439977e+17
19027.0	6.450204878307327e+17
19028.0	6.449329539645439e+17
19029.0	6.448030314834602e+17
19030.0	6.446970767234387e+17
19031.0	6.445795130387113e+17
19032.0	6.444564603382442e+17
19033.0	6.442840780090025e+17
19034.0	6.442069597181267e+17
19035.0	6.440738748017321e+17
19036.0	6.411274185342973e+17
19037.0	6.438465928080041e+17
19038.0	6.437198449956179e+17
19039.0	6.436099654156285e+17
19040.0	6.434915340692137e+17
19041.0	6.433667587680937e+17
19042.0	6.431996153342633e+17
19043.0	6.431288674222079e+17
19044.0	6.430031333730985e+17
19045.0	6.428878322357588e+17
19046.0	6.427325840577876e+17
19047.0	6.426355773560148e+17
19048.0	6.424098357204307e+17
19049.0	6.423648234984788e+17
19050.0	6.422574910494036e+17
19051.0	6.417237390218575e+17
19052.0	6.419575508478633e+17
19053.0	6.419192495123114e+17
19054.0	6.417971872967337e+17
19055.0	6.415388364854616e+17
19056.0	6.415465628827647e+17
19057.0	6.414359060982442e+17
19058.0	6.413089431180628e+17
19059.0	6.41197515350562e+17
19060.0	6.410661973546324e+17
19061.0	6.409592834271914e+17
19062.0	6.408351081212585e+17
19063.0	6.407168578988714e+17
19064.0	6.405232367326548e+17
19065.0	6.403780411129855e+17
19066.0	6.403237419330217e+17
19067.0	6.40227568849169e+17
19068.0	6.401139847899817e+17
19069.0	6.399950320216746e+17
19070.0	6.398586157094227e+17
19071.0	6.39751277458227e+17
19072.0	6.396335539006121e+17
19073.0	6.395101020422143e+17
19074.0	6.393948994710185e+17
19075.0	6.39274609418786e+17
19076.0	6.391427798575785e+17
19077.0	6.390258426620585e+17
19078.0	6.388887619021481e+17
19079.0	6.387906386766506e+17
19080.0	6.386625005922985e+17
19081.0	6.385290227395241e+17
19082.0	6.384065736693076e+17
19083.0	6.382509577207805e+17
19084.0	6.38062355668446e+17
19085.0	6.380637305612969e+17
19086.0	6.377424554732202e+17
19087.0	6.377403753081516e+17
19088.0	6.376641622179837e+17
19089.0	6.374493559717889e+17
19090.0	6.374538786897919e+17
19091.0	6.373329508936362e+17
19092.0	6.371812891252052e+17
19093.0	6.371080845393919e+17
19094.0	6.369879859571369e+17
19095.0	6.368699934048255e+17
19096.0	6.367408700085588e+17
19097.0	6.366286913907369e+17
19098.0	6.365072068706301e+17
19099.0	6.363862879524179e+17
19100.0	6.362627218691412e+17
19101.0	6.361468221347156e+17
19102.0	6.359737609573714e+17
19103.0	6.359067640113833e+17
19104.0	6.357908111491071e+17
19105.0	6.35667117908514e+17
19106.0	6.355346614386688e+17
19107.0	6.354197354119167e+17
19108.0	6.353104282845183e+17
19109.0	6.349499382016677e+17
19110.0	6.350638326393513e+17
19111.0	6.349503737801386e+17
19112.0	6.348313472619859e+17
19113.0	6.347106628752723e+17
19114.0	6.34588732989986e+17
19115.0	6.344413426308438e+17
19116.0	6.343397282065065e+17
19117.0	6.342177091223551e+17
19118.0	6.340566649055914e+17
19119.0	6.317254196417847e+17
19120.0	6.338414859255807e+17
19121.0	6.337353588495699e+17
19122.0	6.336342462038015e+17
19123.0	6.335124478798505e+17
19124.0	6.333797551308799e+17
19125.0	6.332705783065257e+17
19126.0	6.331519389226324e+17
19127.0	6.320667697173844e+17
19128.0	6.328005077674665e+17
19129.0	6.327516797075455e+17
19130.0	6.326644136476672e+17
19131.0	6.325518608280233e+17
19132.0	6.324351548085588e+17
19133.0	6.321951119245313e+17
19134.0	6.321466303141204e+17
19135.0	6.320754392738473e+17
19136.0	6.319601413521408e+17
19137.0	6.317507869321897e+17
19138.0	6.317075059791188e+17
19139.0	6.316004753102163e+17
19140.0	6.314824348729344e+17
19141.0	6.313628096178857e+17
19142.0	6.312281362486612e+17
19143.0	6.310916073193472e+17
19144.0	6.309810520369833e+17
19145.0	6.308819932719785e+17
19146.0	6.30439526705835e+17
19147.0	6.305866700204714e+17
19148.0	6.305238648619008e+17
19149.0	6.304027495803561e+17
19150.0	6.302821361472852e+17
19151.0	6.301658190097066e+17
19152.0	6.300429728787113e+17
19153.0	6.299185530448554e+17
19154.0	6.297393818850643e+17
19155.0	6.296912332324863e+17
19156.0	6.29570457899281e+17
19157.0	6.294468470068563e+17
19158.0	6.291634180325372e+17
19159.0	6.292039751346857e+17
19160.0	6.290845298851839e+17
19161.0	6.289643951620096e+17
19162.0	6.284795019526145e+17
19163.0	6.287253045247999e+17
19164.0	6.286187312447487e+17
19165.0	6.284869002854397e+17
19166.0	6.283088655723178e+17
19167.0	6.282252301718867e+17
19168.0	6.281174414524415e+17
19169.0	6.280009435403604e+17
19170.0	6.279032575710548e+17
19171.0	6.277593629545812e+17
19172.0	6.276613301163348e+17
19173.0	6.275456215023615e+17
19174.0	6.273937332415146e+17
19175.0	6.273071727334739e+17
19176.0	6.271868013816489e+17
19177.0	6.269858356396031e+17
19178.0	6.269419059675136e+17
19179.0	6.267994845304148e+17
19180.0	6.266986642975402e+17
19181.0	6.265321700720637e+17
19182.0	6.26456019407121e+17
19183.0	6.263539628332372e+17
19184.0	6.262142568584532e+17
19185.0	6.261092400846163e+17
19186.0	6.259974237148499e+17
19187.0	6.258372099702781e+17
19188.0	6.25757106802961e+17
19189.0	6.256365978080595e+17
19190.0	6.25516890694178e+17
19191.0	6.253836556217002e+17
19192.0	6.252835568091135e+17
19193.0	6.251578659613353e+17
19194.0	6.250345857897812e+17
19195.0	6.249244832825344e+17
19196.0	6.247976444537514e+17
19197.0	6.246824507604991e+17
19198.0	6.245631135143252e+17
19199.0	6.222820147899045e+17
19200.0	6.22827031249989e+17
19201.0	6.242075855727274e+17
19202.0	6.240932461193898e+17
19203.0	6.239698529113427e+17
19204.0	6.238402603122687e+17
19205.0	6.237297118106963e+17
19206.0	6.236058040314537e+17
19207.0	6.234350517485568e+17
19208.0	6.232654898091347e+17
19209.0	6.232520402141183e+17
19210.0	6.231349697096361e+17
19211.0	6.230232743455401e+17
19212.0	6.229029990432767e+17
19213.0	6.227257244079443e+17
19214.0	6.225827620454399e+17
19215.0	6.225387719054676e+17
19216.0	6.224253249301161e+17
19217.0	6.22304700731665e+17
19218.0	6.217326463199907e+17
19219.0	6.219858293992104e+17
19220.0	6.219370844564138e+17
19221.0	6.216506302005249e+17
19222.0	6.217064802243924e+17
19223.0	6.215801092702208e+17
19224.0	6.214447584509951e+17
19225.0	6.212692033404927e+17
19226.0	6.212216137886377e+17
19227.0	6.211023804912979e+17
19228.0	6.209958404161535e+17
19229.0	6.208767382607187e+17
19230.0	6.20749328097826e+17
19231.0	6.20629691867682e+17
19232.0	6.205113880281087e+17
19233.0	6.203603500924927e+17
19234.0	6.202662057934847e+17
19235.0	6.201411424834899e+17
19236.0	6.200420544282623e+17
19237.0	6.199121137019561e+17
19238.0	6.197511716164948e+17
19239.0	6.196842154251606e+17
19240.0	6.195206793024851e+17
19241.0	6.194184623663785e+17
19242.0	6.193134712477011e+17
19243.0	6.191109470420991e+17
19244.0	6.190854562993492e+17
19245.0	6.189637441683455e+17
19246.0	6.188364464827049e+17
19247.0	6.187202543353855e+17
19248.0	6.186062811146921e+17
19249.0	6.184847956858196e+17
19250.0	6.183563024837289e+17
19251.0	6.181708229509119e+17
19252.0	6.17976769421858e+17
19253.0	6.179933885825023e+17
19254.0	6.178798836558505e+17
19255.0	6.176692466177362e+17
19256.0	6.176183811047423e+17
19257.0	6.175245413821097e+17
19258.0	6.174052946629972e+17
19259.0	6.172468376327508e+17
19260.0	6.171032213782525e+17
19261.0	6.170360299563689e+17
19262.0	6.16891438735906e+17
19263.0	6.167674853086548e+17
19264.0	6.163831689925969e+17
19265.0	6.164523368404307e+17
19266.0	6.163361915295062e+17
19267.0	6.163204291253588e+17
19268.0	6.16195360432674e+17
19269.0	6.16074154484258e+17
19270.0	6.159543309784403e+17
19271.0	6.156462991955288e+17
19272.0	6.156925011318099e+17
19273.0	6.143226758387017e+17
19274.0	6.14697578458862e+17
19275.0	6.153492615222612e+17
19276.0	6.152166776853844e+17
19277.0	6.150963389093206e+17
19278.0	6.149765799258793e+17
19279.0	6.148396066799615e+17
19280.0	6.146840317657085e+17
19281.0	6.146064399379114e+17
19282.0	6.144934874010966e+17
19283.0	6.143362900601514e+17
19284.0	6.142038982524927e+17
19285.0	6.140176402568532e+17
19286.0	6.139858470830079e+17
19287.0	6.138834617455956e+17
19288.0	6.129153382984351e+17
19289.0	6.118419246787217e+17
19290.0	6.135144456912895e+17
19291.0	6.132473020110167e+17
19292.0	6.132659219245738e+17
19293.0	6.131388112349866e+17
19294.0	6.13013048594705e+17
19295.0	6.128948217905151e+17
19296.0	6.127663950681428e+17
19297.0	6.126287201151657e+17
19298.0	6.125038131129002e+17
19299.0	6.123945098302804e+17
19300.0	6.122683859206143e+17
19301.0	6.121408506276522e+17
19302.0	6.120072087076863e+17
19303.0	6.118497215403348e+17
19304.0	6.117419525341183e+17
19305.0	6.116283809879379e+17
19306.0	6.115062331386537e+17
19307.0	6.113560255354196e+17
19308.0	6.112387863500116e+17
19309.0	6.110447205176659e+17
19310.0	6.108836529526099e+17
19311.0	6.108479495689556e+17
19312.0	6.107390421587283e+17
19313.0	6.106105330881876e+17
19314.0	6.082245727092753e+17
19315.0	6.082100741188285e+17
19316.0	6.10224608256546e+17
19317.0	6.100966026422953e+17
19318.0	6.099643626684415e+17
19319.0	6.098416601923583e+17
19320.0	6.097097796004522e+17
19321.0	6.095803140887892e+17
19322.0	6.09396328636962e+17
19323.0	6.092785675403263e+17
19324.0	6.091810101963433e+17
19325.0	6.08979157918242e+17
19326.0	6.089165997342719e+17
19327.0	6.087760860064425e+17
19328.0	6.086502423461888e+17
19329.0	6.085167282126848e+17
19330.0	6.083598299955199e+17
19331.0	6.082214354397865e+17
19332.0	6.081062116873556e+17
19333.0	6.079625237102591e+17
19334.0	6.078306006160724e+17
19335.0	6.076934791015082e+17
19336.0	6.075548040167423e+17
19337.0	6.074153273305769e+17
19338.0	6.071613862008147e+17
19339.0	6.071341635600381e+17
19340.0	6.069479249281023e+17
19341.0	6.068350721458175e+17
19342.0	6.064917268398075e+17
19343.0	6.065631283642367e+17
19344.0	6.064126804273833e+17
19345.0	6.052398392235332e+17
19346.0	6.056314941734906e+17
19347.0	6.059433375301631e+17
19348.0	6.058339421126655e+17
19349.0	6.056655422051668e+17
19350.0	6.05518846632482e+17
19351.0	6.053632280974675e+17
19352.0	6.051891315561812e+17
19353.0	6.050794424674986e+17
19354.0	6.049258425810944e+17
19355.0	6.047153839407104e+17
19356.0	6.046125399561556e+17
19357.0	6.044533303978665e+17
19358.0	6.042799357733548e+17
19359.0	6.0406366208e+17
19360.0	6.039452406601044e+17
19361.0	6.037873039332691e+17
19362.0	6.036440329398953e+17
19363.0	6.034316947619837e+17
19364.0	6.032522130139817e+17
19365.0	6.030800877955753e+17
19366.0	6.029094465219241e+17
19367.0	6.027355963959977e+17
19368.0	6.025603954245631e+17
19369.0	6.0233370580637e+17
19370.0	6.020576330820265e+17
19371.0	6.019912587804672e+17
19372.0	6.018352966620499e+17
19373.0	6.016354178738858e+17
19374.0	6.014561559773183e+17
19375.0	6.012670372566356e+17
19376.0	6.010738697043968e+17
19377.0	6.00871579750673e+17
19378.0	6.00674178048546e+17
19379.0	6.00473178542353e+17
19380.0	6.002672321342121e+17
19381.0	6.000556747958953e+17
19382.0	5.998069537570816e+17
19383.0	5.99569014526225e+17
19384.0	5.994116227093844e+17
19385.0	5.991901121478655e+17
19386.0	5.989657195402579e+17
19387.0	5.987341750151849e+17
19388.0	5.984982792492371e+17
19389.0	5.982235394047999e+17
19390.0	5.979316723296937e+17
19391.0	5.9521414040562e+17
19392.0	5.973665580231334e+17
19393.0	5.971738597436073e+17
19394.0	5.969061993949866e+17
19395.0	5.966362453213183e+17
19396.0	5.963642553324883e+17
19397.0	5.960920642267818e+17
19398.0	5.957945571409919e+17
19399.0	5.950406307173715e+17
19400.0	5.95039813177617e+17
19401.0	5.947700172991146e+17
19402.0	5.94463598645521e+17
19403.0	5.941326819710292e+17
19404.0	5.937854710546432e+17
19405.0	5.932861163743914e+17
19406.0	5.929395066415786e+17
19407.0	5.925863992328191e+17
19408.0	5.917353419560283e+17
19409.0	5.915806277828608e+17
19410.0	5.912015096075604e+17
19411.0	5.905921904126634e+17
19412.0	5.900617878863871e+17
19413.0	5.894233031092905e+17
19414.0	5.887701961495892e+17
19415.0	5.87935425285325e+17
19416.0	5.870688308385105e+17
19417.0	5.86156562518289e+17
19418.0	5.850675922949463e+17
19419.0	5.837192627399341e+17
19420.0	5.822800472309759e+17
19421.0	5.8126345713309e+17
19422.0	5.804086514068137e+17
19423.0	5.795549710123007e+17
19424.0	5.78660347010526e+17
19425.0	5.777195175073108e+17
19426.0	5.767174069157887e+17
19427.0	5.7565802960431776e+17
19428.0	5.7455642019539616e+17
19429.0	5.733456072583849e+17
19430.0	5.720691751343446e+17
19431.0	5.703169101266949e+17
19432.0	5.693603670829736e+17
19433.0	5.6776630255397555e+17
19434.0	5.65946253888717e+17
19435.0	5.6380065509102906e+17
19436.0	5.610388883592525e+17
19437.0	5.57670033173163e+17
19438.0	5.4957607160381574e+17
19439.0	5.4903551998033926e+17
19440.0	5.459191376379902e+17
19441.0	5.4230219195678694e+17
19442.0	5.3833633226205875e+17
19443.0	5.339351909837483e+17
19444.0	5.284284972313257e+17
19445.0	5.199917292541262e+17
19446.0	5.101987769090047e+17
19447.0	5.0063222197889664e+17
19448.0	4.8638289713124755e+17
19449.0	4.6520112450109446e+17
19450.0	4.236093055216284e+17
19451.0	4.1120852648918835e+17
19452.0	4.463702945650012e+17
19453.0	4.7698679039699757e+17
19454.0	4.941231105419938e+17
19455.0	5.0515988821224083e+17
19456.0	5.140385194748587e+17
19457.0	5.2380497661132794e+17
19458.0	5.259324583925128e+17
19459.0	5.345185289120442e+17
19460.0	5.3872654548991974e+17
19461.0	5.4230093422482765e+17
19462.0	5.455193613970091e+17
19463.0	5.484697615684943e+17
19464.0	5.5282353531344237e+17
19465.0	5.568849855731034e+17
19466.0	5.595982135820287e+17
19467.0	5.617855546523646e+17
19468.0	5.6347670934978534e+17
19469.0	5.646995077201917e+17
19470.0	5.662094800890538e+17
19471.0	5.6740737589794144e+17
19472.0	5.6845890566662816e+17
19473.0	5.6941312933014195e+17
19474.0	5.704192119974569e+17
19475.0	5.7085791592338714e+17
19476.0	5.7202249050357754e+17
19477.0	5.7280504158399136e+17
19478.0	5.735064897847294e+17
19479.0	5.741587549476181e+17
19480.0	5.7478658807999136e+17
19481.0	5.754252032300375e+17
19482.0	5.76516419013836e+17
19483.0	5.77687270789393e+17
19484.0	5.786477949266605e+17
19485.0	5.793966914710191e+17
19486.0	5.801530274523818e+17
19487.0	5.807269769904122e+17
19488.0	5.811354581598208e+17
19489.0	5.816205749256195e+17
19490.0	5.81215848287436e+17
19491.0	5.823381156222292e+17
19492.0	5.826046312753834e+17
19493.0	5.827739566560595e+17
19494.0	5.831493576294397e+17
19495.0	5.832886025104042e+17
19496.0	5.832144402950822e+17
19497.0	5.835644407032489e+17
19498.0	5.834563574737578e+17
19499.0	5.800502623906464e+17
19500.0	5.840249121581737e+17
19501.0	5.841110090558122e+17
19502.0	5.84188462891008e+17
19503.0	5.843198902883667e+17
19504.0	5.844526793665193e+17
19505.0	5.845119848677376e+17
19506.0	5.845709091766271e+17
19507.0	5.846051539910655e+17
19508.0	5.846594974209366e+17
19509.0	5.846935784478036e+17
19510.0	5.84619248460322e+17
19511.0	5.802586465282716e+17
19512.0	5.841041927525711e+17
19513.0	5.835531709579247e+17
19514.0	5.840285517654688e+17
19515.0	5.846315143528452e+17
19516.0	5.848911005963604e+17
19517.0	5.848699761240745e+17
19518.0	5.849000360017919e+17
19519.0	5.848895008888147e+17
19520.0	5.848643373017769e+17
19521.0	5.84868783264017e+17
19522.0	5.848308780804778e+17
19523.0	5.848325069384361e+17
19524.0	5.848086605026644e+17
19525.0	5.847705093931007e+17
19526.0	5.847535771975679e+17
19527.0	5.847169279983615e+17
19528.0	5.846847539118079e+17
19529.0	5.846461649169065e+17
19530.0	5.846132292845567e+17
19531.0	5.845757096973654e+17
19532.0	5.845320474121556e+17
19533.0	5.844891968645801e+17
19534.0	5.844406636642303e+17
19535.0	5.843832528699391e+17
19536.0	5.843213828314452e+17
19537.0	5.842893942729385e+17
19538.0	5.841691035216556e+17
19539.0	5.838937016063322e+17
19540.0	5.841076965343232e+17
19541.0	5.840637599416319e+17
19542.0	5.840012410443092e+17
19543.0	5.83937735856401e+17
19544.0	5.838769475289087e+17
19545.0	5.835856105439231e+17
19546.0	5.833256811364352e+17
19547.0	5.837318441140223e+17
19548.0	5.836620659949567e+17
19549.0	5.835394912354301e+17
19550.0	5.835235059040255e+17
19551.0	5.834533423284223e+17
19552.0	5.833797253726207e+17
19553.0	5.832925356490751e+17
19554.0	5.83209648722193e+17
19555.0	5.831479386264916e+17
19556.0	5.830789697983828e+17
19557.0	5.830006194307071e+17
19558.0	5.829219463113385e+17
19559.0	5.828396605680297e+17
19560.0	5.827503862753962e+17
19561.0	5.826688502639274e+17
19562.0	5.825996590678015e+17
19563.0	5.825220017389567e+17
19564.0	5.824381599088639e+17
19565.0	5.823544467040938e+17
19566.0	5.822546001788927e+17
19567.0	5.821873811445076e+17
19568.0	5.820864480848554e+17
19569.0	5.820043500366505e+17
19570.0	5.819301135821482e+17
19571.0	5.818409080761002e+17
19572.0	5.817375344907603e+17
19573.0	5.816558792212479e+17
19574.0	5.815312196130131e+17
19575.0	5.814902055414442e+17
19576.0	5.814015070568447e+17
19577.0	5.812918008414207e+17
19578.0	5.811973628013225e+17
19579.0	5.81117236355618e+17
19580.0	5.810263427820201e+17
19581.0	5.809425048666112e+17
19582.0	5.80859953553954e+17
19583.0	5.807680016875519e+17
19584.0	5.806699306112339e+17
19585.0	5.805226460883625e+17
19586.0	5.804114944458753e+17
19587.0	5.803807035009705e+17
19588.0	5.800427854845272e+17
19589.0	5.801943680505172e+17
19590.0	5.800630425048404e+17
19591.0	5.800156898612564e+17
19592.0	5.799242667567785e+17
19593.0	5.798187838559572e+17
19594.0	5.796056379949055e+17
19595.0	5.796117713955497e+17
19596.0	5.7930292382051e+17
19597.0	5.79430164533521e+17
19598.0	5.791569428174163e+17
19599.0	5.792509437411327e+17
19600.0	5.791584722004648e+17
19601.0	5.790248023883776e+17
19602.0	5.789352629458259e+17
19603.0	5.786179648268966e+17
19604.0	5.787365148721151e+17
19605.0	5.785076868579328e+17
19606.0	5.785693567582207e+17
19607.0	5.784734212816895e+17
19608.0	5.783690459567443e+17
19609.0	5.782493605833386e+17
19610.0	5.781813725932201e+17
19611.0	5.780773546229759e+17
19612.0	5.779859705255252e+17
19613.0	5.778809436853588e+17
19614.0	5.777655660718761e+17
19615.0	5.776874053566463e+17
19616.0	5.775681593365846e+17
19617.0	5.77487463653922e+17
19618.0	5.770737047917903e+17
19619.0	5.769116991007397e+17
19620.0	5.768231026076328e+17
19621.0	5.770864103172777e+17
19622.0	5.769911548073299e+17
19623.0	5.768923913213268e+17
19624.0	5.767869031077204e+17
19625.0	5.766919296647167e+17
19626.0	5.76585072709905e+17
19627.0	5.764909890884948e+17
19628.0	5.763312612540416e+17
19629.0	5.762385294568105e+17
19630.0	5.760294646535509e+17
19631.0	5.7373110594874054e+17
19632.0	5.759819122212862e+17
19633.0	5.7586016513774925e+17
19634.0	5.7578498084044794e+17
19635.0	5.7566328045349536e+17
19636.0	5.7557716433196365e+17
19637.0	5.752745369097558e+17
19638.0	5.753738774620843e+17
19639.0	5.752700295708671e+17
19640.0	5.75113382522607e+17
19641.0	5.746514002793821e+17
19642.0	5.749692001768788e+17
19643.0	5.7486352077291514e+17
19644.0	5.747366290959017e+17
19645.0	5.745196297180497e+17
19646.0	5.745685901781673e+17
19647.0	5.7446820727138963e+17
19648.0	5.7436396623407776e+17
19649.0	5.7426030729625594e+17
19650.0	5.741622150387028e+17
19651.0	5.7405753835301536e+17
19652.0	5.739537407235413e+17
19653.0	5.7385478513841485e+17
19654.0	5.737484316398933e+17
19655.0	5.7364320375275514e+17
19656.0	5.7354590862267725e+17
19657.0	5.7344356355058336e+17
19658.0	5.7334418273293645e+17
19659.0	5.7324150770892794e+17
19660.0	5.731419784129194e+17
19661.0	5.7303725454131194e+17
19662.0	5.729373886524073e+17
19663.0	5.7280760290563405e+17
19664.0	5.7271976956613965e+17
