# Flux units: erg / (cm m2 s)
# Wavelength units: Angstrom
wave	flux
19000.0	6.337650783595177e+17
19001.0	6.336387715082921e+17
19002.0	6.335264504938495e+17
19003.0	6.334067420517716e+17
19004.0	6.332872720558761e+17
19005.0	6.331676536515241e+17
19006.0	6.33048223781137e+17
19007.0	6.329261793913514e+17
19008.0	6.328042869052756e+17
19009.0	6.326884564467711e+17
19010.0	6.325355158350505e+17
19011.0	6.324497258206547e+17
19012.0	6.323241299738623e+17
19013.0	6.322124608940714e+17
19014.0	6.32088794497024e+17
19015.0	6.319714258474324e+17
19016.0	6.318515439708842e+17
19017.0	6.317151772213247e+17
19018.0	6.316153864803668e+17
19019.0	6.314963435345236e+17
19020.0	6.313723045434708e+17
19021.0	6.31255641236002e+17
19022.0	6.311395309475156e+17
19023.0	6.310174740447232e+17
19024.0	6.308998217902762e+17
19025.0	6.307817239609344e+17
19026.0	6.30661313602082e+17
19027.0	6.305428368173738e+17
19028.0	6.304250444731734e+17
19029.0	6.303048435499008e+17
19030.0	6.301878443485865e+17
19031.0	6.300692976588116e+17
19032.0	6.299502110922067e+17
19033.0	6.298247433114963e+17
19034.0	6.297108772552701e+17
19035.0	6.295909230269779e+17
19036.0	6.292601064565416e+17
19037.0	6.293548273325395e+17
19038.0	6.292352099068585e+17
19039.0	6.291177502408704e+17
19040.0	6.289994074641748e+17
19041.0	6.288800726646783e+17
19042.0	6.287552353577641e+17
19043.0	6.286429348255062e+17
19044.0	6.285235352939178e+17
19045.0	6.284057046417408e+17
19046.0	6.282824657141759e+17
19047.0	6.281682900484095e+17
19048.0	6.280341226520575e+17
19049.0	6.279259340057257e+17
19050.0	6.278088978246313e+17
19051.0	6.276623828167337e+17
19052.0	6.275735036974419e+17
19053.0	6.274559464439805e+17
19054.0	6.273381387905705e+17
19055.0	6.272016226538838e+17
19056.0	6.270994554202793e+17
19057.0	6.269824961347583e+17
19058.0	6.268623971330729e+17
19059.0	6.267458736357375e+17
19060.0	6.266261773571412e+17
19061.0	6.265096570754388e+17
19062.0	6.263908399229609e+17
19063.0	6.262727693565951e+17
19064.0	6.261450094586538e+17
19065.0	6.260229043912703e+17
19066.0	6.259134910780756e+17
19067.0	6.257988448813056e+17
19068.0	6.256815083181396e+17
19069.0	6.255635189115561e+17
19070.0	6.254431693002067e+17
19071.0	6.253268164411391e+17
19072.0	6.252091423763112e+17
19073.0	6.250905223561215e+17
19074.0	6.249731748877652e+17
19075.0	6.248551336815274e+17
19076.0	6.247354286647978e+17
19077.0	6.246185079668735e+17
19078.0	6.244949554451796e+17
19079.0	6.243829326457514e+17
19080.0	6.242642306968233e+17
19081.0	6.241437392480937e+17
19082.0	6.240238950503763e+17
19083.0	6.239032082868905e+17
19084.0	6.237756969713663e+17
19085.0	6.236748764588713e+17
19086.0	6.235293101326333e+17
19087.0	6.23434685096482e+17
19088.0	6.233173375582205e+17
19089.0	6.231882906380969e+17
19090.0	6.230846729442644e+17
19091.0	6.229674692706304e+17
19092.0	6.22846056403217e+17
19093.0	6.227338426930516e+17
19094.0	6.226153502496084e+17
19095.0	6.224973914614441e+17
19096.0	6.223795381600255e+17
19097.0	6.222638135377919e+17
19098.0	6.221460532101119e+17
19099.0	6.220279940382719e+17
19100.0	6.219107521265663e+17
19101.0	6.217938641442132e+17
19102.0	6.216699683187369e+17
19103.0	6.215586057027583e+17
19104.0	6.214417846894591e+17
19105.0	6.213241785024512e+17
19106.0	6.212060624278868e+17
19107.0	6.210883439733418e+17
19108.0	6.209724693348351e+17
19109.0	6.208331831399763e+17
19110.0	6.207378821917353e+17
19111.0	6.206207389859837e+17
19112.0	6.205035415339008e+17
19113.0	6.203862283190271e+17
19114.0	6.202688553353215e+17
19115.0	6.201483467598505e+17
19116.0	6.20033251353122e+17
19117.0	6.199164706750463e+17
19118.0	6.197935568060415e+17
19119.0	6.19497309759078e+17
19120.0	6.195640237293565e+17
19121.0	6.194487293029033e+17
19122.0	6.193327853884756e+17
19123.0	6.192140394692608e+17
19124.0	6.19097705484561e+17
19125.0	6.189814901287593e+17
19126.0	6.188636979243689e+17
19127.0	6.18628636824917e+17
19128.0	6.186107832806057e+17
19129.0	6.185076872183808e+17
19130.0	6.183967389996372e+17
19131.0	6.182801976765097e+17
19132.0	6.181638090260479e+17
19133.0	6.17996696350447e+17
19134.0	6.179204469795497e+17
19135.0	6.178137392021503e+17
19136.0	6.176975358700201e+17
19137.0	6.175693910048767e+17
19138.0	6.1745987073693e+17
19139.0	6.173476019415722e+17
19140.0	6.172311279370239e+17
19141.0	6.171145973093716e+17
19142.0	6.169962622921385e+17
19143.0	6.168770203964756e+17
19144.0	6.167620386553855e+17
19145.0	6.166482288727379e+17
19146.0	6.164895735917225e+17
19147.0	6.164093153050624e+17
19148.0	6.162990265008127e+17
19149.0	6.161824278555306e+17
19150.0	6.160656408859988e+17
19151.0	6.159498995564543e+17
19152.0	6.15831367197218e+17
19153.0	6.157161292540586e+17
19154.0	6.155923618441897e+17
19155.0	6.154852755308541e+17
19156.0	6.1536886339229e+17
19157.0	6.152523806496084e+17
19158.0	6.151208900580691e+17
19159.0	6.150190601164115e+17
19160.0	6.149006148588884e+17
19161.0	6.147859072155647e+17
19162.0	6.146375044213418e+17
19163.0	6.145557695998633e+17
19164.0	6.144401164905129e+17
19165.0	6.143229494471338e+17
19166.0	6.142004143237801e+17
19167.0	6.140888956796927e+17
19168.0	6.139625285702995e+17
19169.0	6.138531012061865e+17
19170.0	6.137441772983636e+17
19171.0	6.136263593689087e+17
19172.0	6.135119783919616e+17
19173.0	6.133965738650282e+17
19174.0	6.132765556036948e+17
19175.0	6.131635259615914e+17
19176.0	6.130464068031827e+17
19177.0	6.129202910724095e+17
19178.0	6.128149479817215e+17
19179.0	6.126970985250815e+17
19180.0	6.12576782188544e+17
19181.0	6.124607498442067e+17
19182.0	6.123409622695935e+17
19183.0	6.122360653130409e+17
19184.0	6.121090362725716e+17
19185.0	6.120040121587027e+17
19186.0	6.118897907750227e+17
19187.0	6.11768221110545e+17
19188.0	6.116583261514409e+17
19189.0	6.115424647948969e+17
19190.0	6.114267714202282e+17
19191.0	6.11309614932514e+17
19192.0	6.111963536949245e+17
19193.0	6.110755477433002e+17
19194.0	6.10962092728866e+17
19195.0	6.108494677671935e+17
19196.0	6.107335685920084e+17
19197.0	6.106188183764991e+17
19198.0	6.105040731941546e+17
19199.0	6.101777469756756e+17
19200.0	6.101396267641514e+17
19201.0	6.101581237846015e+17
19202.0	6.100429533697363e+17
19203.0	6.099272678244352e+17
19204.0	6.098105473346217e+17
19205.0	6.096960875047593e+17
19206.0	6.095804686488916e+17
19207.0	6.094604560498687e+17
19208.0	6.093352265056255e+17
19209.0	6.092349808923988e+17
19210.0	6.091198008306346e+17
19211.0	6.090050321601876e+17
19212.0	6.088905941407059e+17
19213.0	6.087680623727956e+17
19214.0	6.086519313924096e+17
19215.0	6.085448001301162e+17
19216.0	6.08425700421359e+17
19217.0	6.083145217256105e+17
19218.0	6.08142270678084e+17
19219.0	6.080733553273513e+17
19220.0	6.079682343250601e+17
19221.0	6.078312914878463e+17
19222.0	6.077402026693972e+17
19223.0	6.076231715913727e+17
19224.0	6.074993751709011e+17
19225.0	6.073824020441769e+17
19226.0	6.072780272085674e+17
19227.0	6.071630511996927e+17
19228.0	6.070502652466516e+17
19229.0	6.069353573253117e+17
19230.0	6.068184100634623e+17
19231.0	6.067030708977663e+17
19232.0	6.065838759084031e+17
19233.0	6.064705444162217e+17
19234.0	6.063588403139924e+17
19235.0	6.062431937058132e+17
19236.0	6.061311871243604e+17
19237.0	6.060149862389076e+17
19238.0	6.058949795119101e+17
19239.0	6.057869285086548e+17
19240.0	6.056456726686376e+17
19241.0	6.055486612133203e+17
19242.0	6.054394319601663e+17
19243.0	6.053138637957801e+17
19244.0	6.052123256378708e+17
19245.0	6.050974737803946e+17
19246.0	6.049819875344383e+17
19247.0	6.048668959724884e+17
19248.0	6.047538081693696e+17
19249.0	6.046389222681258e+17
19250.0	6.04522695238178e+17
19251.0	6.044029813435049e+17
19252.0	6.042685175496704e+17
19253.0	6.041782088717652e+17
19254.0	6.040612527319721e+17
19255.0	6.039349793652735e+17
19256.0	6.038340514785962e+17
19257.0	6.037206159676755e+17
19258.0	6.036057235652607e+17
19259.0	6.034855006218922e+17
19260.0	6.033730181267455e+17
19261.0	6.032608502043988e+17
19262.0	6.031426225613481e+17
19263.0	6.030286706617001e+17
19264.0	6.028802533272233e+17
19265.0	6.027891334709247e+17
19266.0	6.026777287021908e+17
19267.0	6.025731547769514e+17
19268.0	6.02457765838848e+17
19269.0	6.02343052812834e+17
19270.0	6.022285086075561e+17
19271.0	6.020903564126892e+17
19272.0	6.019961559100073e+17
19273.0	6.012056061520544e+17
19274.0	6.014492421565093e+17
19275.0	6.016542354090665e+17
19276.0	6.015378910784169e+17
19277.0	6.014231990938282e+17
19278.0	6.013085480736084e+17
19279.0	6.011892189364224e+17
19280.0	6.010722936946687e+17
19281.0	6.009631237909162e+17
19282.0	6.008492124362068e+17
19283.0	6.007308929378986e+17
19284.0	6.006106053323434e+17
19285.0	6.004872881810089e+17
19286.0	6.003862664118272e+17
19287.0	6.002737104464553e+17
19288.0	6.001104099038548e+17
19289.0	5.998927590806866e+17
19290.0	5.999280067532116e+17
19291.0	5.997933010179414e+17
19292.0	5.996971405170004e+17
19293.0	5.99581270352418e+17
19294.0	5.994655740417366e+17
19295.0	5.993509634266452e+17
19296.0	5.992349062660095e+17
19297.0	5.991154397653673e+17
19298.0	5.989975550765737e+17
19299.0	5.988840860811263e+17
19300.0	5.987683672610131e+17
19301.0	5.986517284203178e+17
19302.0	5.985356348391423e+17
19303.0	5.984129786402131e+17
19304.0	5.982993981461844e+17
19305.0	5.981871505320618e+17
19306.0	5.980715361501183e+17
19307.0	5.979518292459517e+17
19308.0	5.978375341124265e+17
19309.0	5.977165320770899e+17
19310.0	5.975954072884566e+17
19311.0	5.974875467066028e+17
19312.0	5.973712163569663e+17
19313.0	5.972416552151724e+17
19314.0	5.970568358658045e+17
19315.0	5.969451572090198e+17
19316.0	5.969038275160745e+17
19317.0	5.967860018271571e+17
19318.0	5.966683757871104e+17
19319.0	5.965522256527359e+17
19320.0	5.964312147394559e+17
19321.0	5.96317124427776e+17
19322.0	5.961881767728468e+17
19323.0	5.960775109705727e+17
19324.0	5.959631030102698e+17
19325.0	5.958405820776447e+17
19326.0	5.957266268924585e+17
19327.0	5.956071866062163e+17
19328.0	5.954897536439636e+17
19329.0	5.953708648387924e+17
19330.0	5.952487348852052e+17
19331.0	5.951293004010836e+17
19332.0	5.950128835089748e+17
19333.0	5.948920370124116e+17
19334.0	5.9476846589597e+17
19335.0	5.94653079544354e+17
19336.0	5.945325042095444e+17
19337.0	5.944111945220095e+17
19338.0	5.942759597451946e+17
19339.0	5.941696717477203e+17
19340.0	5.940439246962687e+17
19341.0	5.939261262703273e+17
19342.0	5.937738756216148e+17
19343.0	5.936819643700563e+17
19344.0	5.935583659906388e+17
19345.0	5.932841956627791e+17
19346.0	5.932694231143766e+17
19347.0	5.931769753414314e+17
19348.0	5.930577446305791e+17
19349.0	5.929306278592511e+17
19350.0	5.928061426641578e+17
19351.0	5.926794118387028e+17
19352.0	5.925497267552255e+17
19353.0	5.924276349698047e+17
19354.0	5.923002174668799e+17
19355.0	5.921658155390292e+17
19356.0	5.920446568464383e+17
19357.0	5.919152173394601e+17
19358.0	5.917807765443924e+17
19359.0	5.916198933189972e+17
19360.0	5.915190911915347e+17
19361.0	5.913852802411178e+17
19362.0	5.912577305477119e+17
19363.0	5.911244581459284e+17
19364.0	5.909897581428736e+17
19365.0	5.908553149011284e+17
19366.0	5.90720229511441e+17
19367.0	5.905836329140223e+17
19368.0	5.904459563532287e+17
19369.0	5.902928474800127e+17
19370.0	5.900829041797802e+17
19371.0	5.900205471825919e+17
19372.0	5.898822856562004e+17
19373.0	5.897366197851476e+17
19374.0	5.895929413151401e+17
19375.0	5.894465308852223e+17
19376.0	5.892984137231018e+17
19377.0	5.891480056321363e+17
19378.0	5.889960689270783e+17
19379.0	5.888363560523092e+17
19380.0	5.88681596370944e+17
19381.0	5.885234908932778e+17
19382.0	5.883578272098986e+17
19383.0	5.881944904564735e+17
19384.0	5.880379830785366e+17
19385.0	5.878706049034922e+17
19386.0	5.876981834274132e+17
19387.0	5.875214097317887e+17
19388.0	5.873415249111721e+17
19389.0	5.871533582275924e+17
19390.0	5.869641178021887e+17
19391.0	5.865855158059004e+17
19392.0	5.865858210114218e+17
19393.0	5.863908920612179e+17
19394.0	5.861880390221824e+17
19395.0	5.859759822820692e+17
19396.0	5.857654690458281e+17
19397.0	5.855506007239337e+17
19398.0	5.853267957383168e+17
19399.0	5.850397584741715e+17
19400.0	5.848490410945193e+17
19401.0	5.84608731243042e+17
19402.0	5.843381961883648e+17
19403.0	5.840679226485418e+17
19404.0	5.837999371714559e+17
19405.0	5.835061995066708e+17
19406.0	5.832135243988991e+17
19407.0	5.829011131334655e+17
19408.0	5.825171642384385e+17
19409.0	5.822057017944746e+17
19410.0	5.818619622238889e+17
19411.0	5.814847997127338e+17
19412.0	5.810817190592511e+17
19413.0	5.806742914291028e+17
19414.0	5.802556595546793e+17
19415.0	5.79785863602722e+17
19416.0	5.792984184389632e+17
19417.0	5.787877659814569e+17
19418.0	5.782562555996842e+17
19419.0	5.776596161353044e+17
19420.0	5.770404094279677e+17
19421.0	5.7636631305256954e+17
19422.0	5.756216318536362e+17
19423.0	5.7481202702308685e+17
19424.0	5.7394640104106656e+17
19425.0	5.729810124199252e+17
19426.0	5.718874758578174e+17
19427.0	5.708464986783743e+17
19428.0	5.698101328565587e+17
19429.0	5.6868976561138323e+17
19430.0	5.6742833022129485e+17
19431.0	5.660309680641365e+17
19432.0	5.645556228904274e+17
19433.0	5.628698212433919e+17
19434.0	5.609508720082944e+17
19435.0	5.586995967426558e+17
19436.0	5.560344678935207e+17
19437.0	5.531959402255699e+17
19438.0	5.5039825878712294e+17
19439.0	5.478302437343233e+17
19440.0	5.446377669307049e+17
19441.0	5.4092253032174906e+17
19442.0	5.364231471890436e+17
19443.0	5.3075670176453946e+17
19444.0	5.252719248583335e+17
19445.0	5.192334241868461e+17
19446.0	5.116762042051243e+17
19447.0	5.024474844539557e+17
19448.0	4.9193989254239584e+17
19449.0	4.769747463831552e+17
19450.0	4.4448379889691174e+17
19451.0	4.326869552507558e+17
19452.0	4.6287532099720576e+17
19453.0	4.853683196002312e+17
19454.0	4.972266569160014e+17
19455.0	5.0653710722443936e+17
19456.0	5.149155775217668e+17
19457.0	5.2137827611880083e+17
19458.0	5.265975646268075e+17
19459.0	5.3230710960073446e+17
19460.0	5.3713916919807974e+17
19461.0	5.409839877805395e+17
19462.0	5.441928932534954e+17
19463.0	5.4697025447744826e+17
19464.0	5.4942217224410445e+17
19465.0	5.518278870259027e+17
19466.0	5.544775209975804e+17
19467.0	5.566826425614334e+17
19468.0	5.585291844780031e+17
19469.0	5.60011281712196e+17
19470.0	5.6147815082666656e+17
19471.0	5.626916074334889e+17
19472.0	5.637685313361236e+17
19473.0	5.647333623944532e+17
19474.0	5.6560952251077965e+17
19475.0	5.6634742256872083e+17
19476.0	5.672595300373845e+17
19477.0	5.6806261747875834e+17
19478.0	5.687392578393428e+17
19479.0	5.693610905305087e+17
19480.0	5.699179563887274e+17
19481.0	5.7039931268136954e+17
19482.0	5.7083083407141536e+17
19483.0	5.7120842489091386e+17
19484.0	5.715445499822079e+17
19485.0	5.7185545835861325e+17
19486.0	5.721235259042474e+17
19487.0	5.723827880678741e+17
19488.0	5.726065799113385e+17
19489.0	5.727901345382399e+17
19490.0	5.728844455608316e+17
19491.0	5.7314016787169274e+17
19492.0	5.732929040809983e+17
19493.0	5.7341755509090976e+17
19494.0	5.7354067217394336e+17
19495.0	5.7363934611155616e+17
19496.0	5.737006206986921e+17
19497.0	5.7379690031786656e+17
19498.0	5.7385584811485856e+17
19499.0	5.7358388322194714e+17
19500.0	5.739506379871573e+17
19501.0	5.739978731902294e+17
19502.0	5.74017678414097e+17
19503.0	5.740305145222484e+17
19504.0	5.740448721141758e+17
19505.0	5.7404674193489914e+17
19506.0	5.740411332416852e+17
19507.0	5.7402816501295776e+17
19508.0	5.7401544152186874e+17
19509.0	5.740004073188009e+17
19510.0	5.7396170633598285e+17
19511.0	5.73710682903893e+17
19512.0	5.7387432619103546e+17
19513.0	5.737644486382929e+17
19514.0	5.737749575368702e+17
19515.0	5.737661578870784e+17
19516.0	5.737585926209535e+17
19517.0	5.7370466596509005e+17
19518.0	5.736565760327679e+17
19519.0	5.736011999652521e+17
19520.0	5.735415587799038e+17
19521.0	5.7348860387437216e+17
19522.0	5.734247513281875e+17
19523.0	5.733646896638634e+17
19524.0	5.732989211596116e+17
19525.0	5.732265424322558e+17
19526.0	5.731616280980138e+17
19527.0	5.730966233066153e+17
19528.0	5.7302501668072096e+17
19529.0	5.7295121147057485e+17
19530.0	5.7287716306070176e+17
19531.0	5.728015529017342e+17
19532.0	5.727238430042794e+17
19533.0	5.726458190233599e+17
19534.0	5.725661410186581e+17
19535.0	5.724839047681364e+17
19536.0	5.724012702684501e+17
19537.0	5.7232143441810765e+17
19538.0	5.722360609680041e+17
19539.0	5.7211315730513926e+17
19540.0	5.7206729252099405e+17
19541.0	5.7198477392390816e+17
19542.0	5.718978596263253e+17
19543.0	5.7181059447521274e+17
19544.0	5.717232617259007e+17
19545.0	5.716114682150909e+17
19546.0	5.714781956734975e+17
19547.0	5.7145476559230285e+17
19548.0	5.713665558140243e+17
19549.0	5.7126805594002765e+17
19550.0	5.7118482074610336e+17
19551.0	5.71093434901026e+17
19552.0	5.7100132134420474e+17
19553.0	5.709094105120767e+17
19554.0	5.7081764515239245e+17
19555.0	5.7072646447868576e+17
19556.0	5.706337122691754e+17
19557.0	5.705395720945662e+17
19558.0	5.7044516327478605e+17
19559.0	5.703480361265834e+17
19560.0	5.702536799453183e+17
19561.0	5.701583202768211e+17
19562.0	5.700642767809194e+17
19563.0	5.699682502180863e+17
19564.0	5.698727433295188e+17
19565.0	5.6977587441063245e+17
19566.0	5.696775979532287e+17
19567.0	5.695823866931881e+17
19568.0	5.694837160411136e+17
19569.0	5.693867795240276e+17
19570.0	5.692910228646569e+17
19571.0	5.691939308787029e+17
19572.0	5.690951694199466e+17
19573.0	5.689988651941887e+17
19574.0	5.688939946617513e+17
19575.0	5.688026657893034e+17
19576.0	5.6870433368746656e+17
19577.0	5.6859578461061114e+17
19578.0	5.6850373655483725e+17
19579.0	5.6840569483864723e+17
19580.0	5.683069516950185e+17
19581.0	5.682082470690815e+17
19582.0	5.681100860249429e+17
19583.0	5.6801052429298336e+17
19584.0	5.679108082805417e+17
19585.0	5.6780271498472096e+17
19586.0	5.676999342642517e+17
19587.0	5.676076929908736e+17
19588.0	5.674755808733866e+17
19589.0	5.674074200779434e+17
19590.0	5.673044959122772e+17
19591.0	5.672096168411136e+17
19592.0	5.671096051302399e+17
19593.0	5.670075877031935e+17
19594.0	5.668900127637502e+17
19595.0	5.668060260204543e+17
19596.0	5.666591763070975e+17
19597.0	5.666048814612479e+17
19598.0	5.6648576553451494e+17
19599.0	5.664038021234687e+17
19600.0	5.6630321977753594e+17
19601.0	5.661974836805631e+17
19602.0	5.660982574230186e+17
19603.0	5.659696089617747e+17
19604.0	5.658952712148309e+17
19605.0	5.6577513586251085e+17
19606.0	5.6569419208676685e+17
19607.0	5.655941986910207e+17
19608.0	5.6549201852497914e+17
19609.0	5.6538742747299834e+17
19610.0	5.6529015268529485e+17
19611.0	5.6518797447659514e+17
19612.0	5.6508717158017696e+17
19613.0	5.649842815980884e+17
19614.0	5.6488079644426214e+17
19615.0	5.6478205945227936e+17
19616.0	5.646788758689109e+17
19617.0	5.645785083412479e+17
19618.0	5.644424135223977e+17
19619.0	5.643270811374932e+17
19620.0	5.6422825263977805e+17
19621.0	5.641710536578387e+17
19622.0	5.640694651682816e+17
19623.0	5.639677676967252e+17
19624.0	5.638651185375913e+17
19625.0	5.6376385993004365e+17
19626.0	5.63661176517427e+17
19627.0	5.6356003514067616e+17
19628.0	5.6345259021434874e+17
19629.0	5.633513081886036e+17
19630.0	5.632575377418922e+17
19631.0	5.629384263554387e+17
19632.0	5.630555827732479e+17
19633.0	5.629504236726954e+17
19634.0	5.6285164222109005e+17
19635.0	5.627466722836479e+17
19636.0	5.626468053461674e+17
19637.0	5.625162198155264e+17
19638.0	5.6244266472570874e+17
19639.0	5.62340469669888e+17
19640.0	5.622346494771199e+17
19641.0	5.6209459628386995e+17
19642.0	5.62034205925922e+17
19643.0	5.6193040864597325e+17
19644.0	5.618264996577279e+17
19645.0	5.617103210719913e+17
19646.0	5.6162674942498125e+17
19647.0	5.6152464566517754e+17
19648.0	5.6142218958383776e+17
19649.0	5.6131986967756794e+17
19650.0	5.612182535755092e+17
19651.0	5.6111567823612576e+17
19652.0	5.6101347255473485e+17
19653.0	5.609118708531199e+17
19654.0	5.6080902973467296e+17
19655.0	5.6070665725979296e+17
19656.0	5.6060504080820896e+17
19657.0	5.605029025852074e+17
19658.0	5.604013019321684e+17
19659.0	5.602991585361919e+17
19660.0	5.601973938858666e+17
19661.0	5.6009498394187085e+17
