# Flux units: erg / (cm m2 s)
# Wavelength units: Angstrom
wave	flux
19000.0	6.170432995939667e+17
19001.0	6.169203790839808e+17
19002.0	6.168131026987689e+17
19003.0	6.16697027502626e+17
19004.0	6.165812075997866e+17
19005.0	6.164676641554431e+17
19006.0	6.16352512614946e+17
19007.0	6.162200483157332e+17
19008.0	6.161174336197972e+17
19009.0	6.159984921761108e+17
19010.0	6.158560364855295e+17
19011.0	6.157696890481322e+17
19012.0	6.155944997508435e+17
19013.0	6.155457363531092e+17
19014.0	6.15426352550161e+17
19015.0	6.153127321403391e+17
19016.0	6.15196428144913e+17
19017.0	6.150852488899241e+17
19018.0	6.149664045443753e+17
19019.0	6.148547658732884e+17
19020.0	6.147382776081065e+17
19021.0	6.146248555888639e+17
19022.0	6.145108995648169e+17
19023.0	6.143920398401533e+17
19024.0	6.142781925184851e+17
19025.0	6.141587013413546e+17
19026.0	6.140417517027327e+17
19027.0	6.138749038974292e+17
19028.0	6.138198944120831e+17
19029.0	6.137040494133247e+17
19030.0	6.135915099455487e+17
19031.0	6.13480486019618e+17
19032.0	6.133651513977514e+17
19033.0	6.132433061675008e+17
19034.0	6.131342048406186e+17
19035.0	6.130129341601108e+17
19036.0	6.087642162659329e+17
19037.0	6.127878461369002e+17
19038.0	6.126736943786665e+17
19039.0	6.125609139481258e+17
19040.0	6.124461052220756e+17
19041.0	6.123310948898131e+17
19042.0	6.122056919110995e+17
19043.0	6.121017546812074e+17
19044.0	6.119855638620841e+17
19045.0	6.118699862502058e+17
19046.0	6.117531676136787e+17
19047.0	6.116406945557161e+17
19048.0	6.115106335227901e+17
19049.0	6.11400353316864e+17
19050.0	6.11294392684817e+17
19051.0	6.105990010590542e+17
19052.0	6.109386316098217e+17
19053.0	6.109495083488595e+17
19054.0	6.108390816219135e+17
19055.0	6.10703687880977e+17
19056.0	6.106072979516073e+17
19057.0	6.104941983345321e+17
19058.0	6.103719357710336e+17
19059.0	6.102644689644201e+17
19060.0	6.101496245867859e+17
19061.0	6.100368793883988e+17
19062.0	6.099218952006314e+17
19063.0	6.098074707427327e+17
19064.0	6.096839285669887e+17
19065.0	6.095650279478612e+17
19066.0	6.094583065389737e+17
19067.0	6.093492828067156e+17
19068.0	6.092350265404074e+17
19069.0	6.09120575029248e+17
19070.0	6.090042420232191e+17
19071.0	6.088899071836159e+17
19072.0	6.087751703199744e+17
19073.0	6.08662481674786e+17
19074.0	6.085485092929536e+17
19075.0	6.084341273373353e+17
19076.0	6.083181713992361e+17
19077.0	6.082041386893311e+17
19078.0	6.080889282188627e+17
19079.0	6.079765598786899e+17
19080.0	6.078610300119721e+17
19081.0	6.077450167517183e+17
19082.0	6.076304189991594e+17
19083.0	6.07511328657681e+17
19084.0	6.073875937536682e+17
19085.0	6.072908214435839e+17
19086.0	6.071429800569514e+17
19087.0	6.06943703920367e+17
19088.0	6.069352388362239e+17
19089.0	6.067595341987839e+17
19090.0	6.067166585552896e+17
19091.0	6.066028562524842e+17
19092.0	6.064577663292756e+17
19093.0	6.063777334165503e+17
19094.0	6.062636830905684e+17
19095.0	6.061495903322112e+17
19096.0	6.060340813671082e+17
19097.0	6.059214527004672e+17
19098.0	6.058061875642367e+17
19099.0	6.056918938288127e+17
19100.0	6.055732218691583e+17
19101.0	6.054634353328127e+17
19102.0	6.053436900507647e+17
19103.0	6.052381338195284e+17
19104.0	6.04942595679846e+17
19105.0	6.04766166126865e+17
19106.0	6.04633886237218e+17
19107.0	6.045397680827049e+17
19108.0	6.044265287254015e+17
19109.0	6.040829315514365e+17
19110.0	6.041882860366505e+17
19111.0	6.040847778141524e+17
19112.0	6.039720876310527e+17
19113.0	6.038599172620287e+17
19114.0	6.037453718683647e+17
19115.0	6.036200814368084e+17
19116.0	6.035172431145641e+17
19117.0	6.034033265868799e+17
19118.0	6.032654290561706e+17
19119.0	6.027830961897467e+17
19120.0	6.03030455198242e+17
19121.0	6.02925654081536e+17
19122.0	6.028375806181375e+17
19123.0	6.027240059961343e+17
19124.0	6.025917296017405e+17
19125.0	6.024934919416489e+17
19126.0	6.023823276463444e+17
19127.0	6.021304160703828e+17
19128.0	6.020481561919485e+17
19129.0	6.020372816898729e+17
19130.0	6.01928094519569e+17
19131.0	6.018128732837203e+17
19132.0	6.017027879731199e+17
19133.0	6.015617716977664e+17
19134.0	6.014289917771776e+17
19135.0	6.013613548503039e+17
19136.0	6.012498419384319e+17
19137.0	6.011237595523754e+17
19138.0	6.010179983594835e+17
19139.0	6.009097847570431e+17
19140.0	6.00796810130227e+17
19141.0	6.006835605667839e+17
19142.0	6.005673492654761e+17
19143.0	6.004528781109929e+17
19144.0	6.003409761774249e+17
19145.0	6.002298747267753e+17
19146.0	6.000698109285716e+17
19147.0	5.999956043235327e+17
19148.0	5.998880931971071e+17
19149.0	5.997753356255231e+17
19150.0	5.996644132716544e+17
19151.0	5.995518570965674e+17
19152.0	5.994346321018879e+17
19153.0	5.993221477193044e+17
19154.0	5.992023435771904e+17
19155.0	5.990985395863551e+17
19156.0	5.989862716997632e+17
19157.0	5.988672672017066e+17
19158.0	5.985383354116776e+17
19159.0	5.98644823757073e+17
19160.0	5.985297938513919e+17
19161.0	5.984120828067839e+17
19162.0	5.978085052645379e+17
19163.0	5.981771632650921e+17
19164.0	5.980826335794516e+17
19165.0	5.979573338505213e+17
19166.0	5.978348834521088e+17
19167.0	5.976965469175807e+17
19168.0	5.97628062531584e+17
19169.0	5.975078791544831e+17
19170.0	5.97405363793647e+17
19171.0	5.972615760620201e+17
19172.0	5.971771942152873e+17
19173.0	5.970655094068563e+17
19174.0	5.969504519585791e+17
19175.0	5.968423021095594e+17
19176.0	5.967295272015188e+17
19177.0	5.966047930744831e+17
19178.0	5.96490333524241e+17
19179.0	5.963484219746986e+17
19180.0	5.962708132997802e+17
19181.0	5.961564305752063e+17
19182.0	5.960498027692031e+17
19183.0	5.959393466122237e+17
19184.0	5.958246044357972e+17
19185.0	5.957146519448234e+17
19186.0	5.956023330275327e+17
19187.0	5.954833272012799e+17
19188.0	5.953751732278612e+17
19189.0	5.952595691219625e+17
19190.0	5.951448394585427e+17
19191.0	5.950311140513108e+17
19192.0	5.94926042751522e+17
19193.0	5.948101948167508e+17
19194.0	5.946977760051199e+17
19195.0	5.945875686402729e+17
19196.0	5.944740723119444e+17
19197.0	5.943598936402601e+17
19198.0	5.942402695036927e+17
19199.0	5.913041862393844e+17
19200.0	5.920050693275658e+17
19201.0	5.939040362692607e+17
19202.0	5.937981699391487e+17
19203.0	5.936792082229929e+17
19204.0	5.935720289359188e+17
19205.0	5.934621318097577e+17
19206.0	5.933494612699817e+17
19207.0	5.932296767711913e+17
19208.0	5.931095589650432e+17
19209.0	5.930125122076672e+17
19210.0	5.929003156242431e+17
19211.0	5.927884915649193e+17
19212.0	5.926759095249577e+17
19213.0	5.925318592998057e+17
19214.0	5.924049840504831e+17
19215.0	5.923261471435434e+17
19216.0	5.922257083127124e+17
19217.0	5.921134841167871e+17
19218.0	5.919347215521107e+17
19219.0	5.918765198518954e+17
19220.0	5.917724941920938e+17
19221.0	5.916376752805204e+17
19222.0	5.915496870313983e+17
19223.0	5.914367154804052e+17
19224.0	5.913220191617023e+17
19225.0	5.912018832501418e+17
19226.0	5.91099086381602e+17
19227.0	5.909863483834368e+17
19228.0	5.908757551426218e+17
19229.0	5.907631704462676e+17
19230.0	5.906465810983594e+17
19231.0	5.905342407901183e+17
19232.0	5.904239903637504e+17
19233.0	5.903067410421076e+17
19234.0	5.90198396227857e+17
19235.0	5.900859177172991e+17
19236.0	5.899749241301673e+17
19237.0	5.898610104685907e+17
19238.0	5.897379130288809e+17
19239.0	5.896369547334996e+17
19240.0	5.895206618529791e+17
19241.0	5.894087137820671e+17
19242.0	5.892973459232084e+17
19243.0	5.891737690745513e+17
19244.0	5.890735276556287e+17
19245.0	5.889607436599295e+17
19246.0	5.888467265388543e+17
19247.0	5.887350315242836e+17
19248.0	5.886214543157929e+17
19249.0	5.885075799408637e+17
19250.0	5.883943208703316e+17
19251.0	5.882725017146708e+17
19252.0	5.881502656451924e+17
19253.0	5.880557795803135e+17
19254.0	5.879441186794154e+17
19255.0	5.8781839931037e+17
19256.0	5.877123004061011e+17
19257.0	5.876051337718441e+17
19258.0	5.874923694194687e+17
19259.0	5.873740267825833e+17
19260.0	5.871885754914131e+17
19261.0	5.871516826730496e+17
19262.0	5.87035011186688e+17
19263.0	5.869207721869312e+17
19264.0	5.867702402940927e+17
19265.0	5.866835944319657e+17
19266.0	5.865694112863572e+17
19267.0	5.864725770403839e+17
19268.0	5.863590418448383e+17
19269.0	5.862454514941951e+17
19270.0	5.861315597828095e+17
19271.0	5.859915167956991e+17
19272.0	5.85901527933474e+17
19273.0	5.856689113442984e+17
19274.0	5.855949083028137e+17
19275.0	5.855626958383786e+17
19276.0	5.854471710747305e+17
19277.0	5.853334986555391e+17
19278.0	5.85219501457408e+17
19279.0	5.851006629838848e+17
19280.0	5.849852334309376e+17
19281.0	5.848761494405119e+17
19282.0	5.847627973263359e+17
19283.0	5.846023628215636e+17
19284.0	5.844542192353281e+17
19285.0	5.841277883689642e+17
19286.0	5.8402486091776e+17
19287.0	5.839121830379519e+17
19288.0	5.826007028203503e+17
19289.0	5.811898466085513e+17
19290.0	5.835664022394195e+17
19291.0	5.834317322256383e+17
19292.0	5.833359453672788e+17
19293.0	5.832197504237568e+17
19294.0	5.831037297535657e+17
19295.0	5.829886726548138e+17
19296.0	5.828708954101075e+17
19297.0	5.827529636052991e+17
19298.0	5.826379330005674e+17
19299.0	5.825216436153001e+17
19300.0	5.824063398914729e+17
19301.0	5.822895743827967e+17
19302.0	5.821715563151359e+17
19303.0	5.820491046584319e+17
19304.0	5.819355008860159e+17
19305.0	5.81819344879616e+17
19306.0	5.81700417486848e+17
19307.0	5.815782566352212e+17
19308.0	5.814620156242602e+17
19309.0	5.812391367409663e+17
19310.0	5.810921165990568e+17
19311.0	5.810950020005887e+17
19312.0	5.809922412729684e+17
19313.0	5.808733946904575e+17
19314.0	5.767471375406456e+17
19315.0	5.768405620271816e+17
19316.0	5.805034934282921e+17
19317.0	5.803950527741951e+17
19318.0	5.802746916984148e+17
19319.0	5.801555480193705e+17
19320.0	5.80033831903778e+17
19321.0	5.799122544099327e+17
19322.0	5.797783658648916e+17
19323.0	5.796249094236842e+17
19324.0	5.793617807409151e+17
19325.0	5.789929583935488e+17
19326.0	5.789700551169364e+17
19327.0	5.78846429614353e+17
19328.0	5.787206141258409e+17
19329.0	5.785991853200726e+17
19330.0	5.784712287092736e+17
19331.0	5.783452583111338e+17
19332.0	5.78221308518946e+17
19333.0	5.78094659272704e+17
19334.0	5.779691445856937e+17
19335.0	5.778364191211519e+17
19336.0	5.77712379011618e+17
19337.0	5.775855787005268e+17
19338.0	5.774407756677119e+17
19339.0	5.773265075874474e+17
19340.0	5.771899886545578e+17
19341.0	5.770615322225322e+17
19342.0	5.769002681543337e+17
19343.0	5.764877928191315e+17
19344.0	5.762754359066622e+17
19345.0	5.7599529295981184e+17
19346.0	5.759313242314068e+17
19347.0	5.758475381855572e+17
19348.0	5.757185991988564e+17
19349.0	5.755765297337685e+17
19350.0	5.754366629074262e+17
19351.0	5.7529868750247245e+17
19352.0	5.7515089106479776e+17
19353.0	5.750172947229354e+17
19354.0	5.747165901793956e+17
19355.0	5.7426370468249594e+17
19356.0	5.741226610742611e+17
19357.0	5.739732638804649e+17
19358.0	5.738199970917034e+17
19359.0	5.736624809137492e+17
19360.0	5.735108248076287e+17
19361.0	5.733578465170772e+17
19362.0	5.731003461009406e+17
19363.0	5.727806936492713e+17
19364.0	5.726183617811797e+17
19365.0	5.7245443446975136e+17
19366.0	5.722884112646143e+17
19367.0	5.721204265233066e+17
19368.0	5.719503736406015e+17
19369.0	5.7177120632558925e+17
19370.0	5.7158922155677005e+17
19371.0	5.7142244771102714e+17
19372.0	5.712467343354538e+17
19373.0	5.7106231498287776e+17
19374.0	5.708797834166271e+17
19375.0	5.7069189152986445e+17
19376.0	5.705014604813652e+17
19377.0	5.703074308598441e+17
19378.0	5.701106730532862e+17
19379.0	5.699107730139818e+17
19380.0	5.6970708244234234e+17
19381.0	5.694996629247316e+17
19382.0	5.6928280293758285e+17
19383.0	5.6906421825262925e+17
19384.0	5.6885282994476365e+17
19385.0	5.6862909332630176e+17
19386.0	5.684007922565119e+17
19387.0	5.6816730199381325e+17
19388.0	5.679287304716287e+17
19389.0	5.6768478024389965e+17
19390.0	5.6743426383325856e+17
19391.0	5.636799052731687e+17
19392.0	5.6680739650928576e+17
19393.0	5.666516832529066e+17
19394.0	5.6637659926582605e+17
19395.0	5.660905842933758e+17
19396.0	5.658036614638249e+17
19397.0	5.655179561708203e+17
19398.0	5.652121128359253e+17
19399.0	5.648516441440256e+17
19400.0	5.645803683053568e+17
19401.0	5.6425991362314234e+17
19402.0	5.639247551791102e+17
19403.0	5.6357786428811936e+17
19404.0	5.6322396492485965e+17
19405.0	5.628576879607807e+17
19406.0	5.624845790347263e+17
19407.0	5.621001404547071e+17
19408.0	5.616484745215999e+17
19409.0	5.612978827864747e+17
19410.0	5.608822260017834e+17
19411.0	5.604518853782186e+17
19412.0	5.599635262756181e+17
19413.0	5.5950761801373e+17
19414.0	5.590381248206164e+17
19415.0	5.585610289621675e+17
19416.0	5.5804301892648954e+17
19417.0	5.5751894581466445e+17
19418.0	5.570540240633856e+17
19419.0	5.56481914147089e+17
19420.0	5.558890485077332e+17
19421.0	5.553280866320384e+17
19422.0	5.5474518833670816e+17
19423.0	5.540452064646484e+17
19424.0	5.5338352837481805e+17
19425.0	5.526634989180246e+17
19426.0	5.5188894728410445e+17
19427.0	5.509884434273621e+17
19428.0	5.500246674462034e+17
19429.0	5.4885538126452077e+17
19430.0	5.473429743119024e+17
19431.0	5.448899327513949e+17
19432.0	5.429859159375873e+17
19433.0	5.3985094269228384e+17
19434.0	5.380598742908926e+17
19435.0	5.3624138394938e+17
19436.0	5.342006396758696e+17
19437.0	5.324288366215168e+17
19438.0	5.249963734160747e+17
19439.0	5.276326169324203e+17
19440.0	5.2543340451375763e+17
19441.0	5.227027047819946e+17
19442.0	5.191775701084843e+17
19443.0	5.1352846673291834e+17
19444.0	5.05445299484535e+17
19445.0	4.99491567094989e+17
19446.0	4.9293987319644154e+17
19447.0	4.840220935585782e+17
19448.0	4.688740886773766e+17
19449.0	4.493870249279489e+17
19450.0	4.024661597749242e+17
19451.0	3.866690921518393e+17
19452.0	4.2920191679529024e+17
19453.0	4.607823231756983e+17
19454.0	4.766498662907897e+17
19455.0	4.884769412917931e+17
19456.0	4.95578234207164e+17
19457.0	5.015179393761276e+17
19458.0	5.001243967619171e+17
19459.0	5.1483210751672506e+17
19460.0	5.1948667807989766e+17
19461.0	5.223095975542786e+17
19462.0	5.2469935028305914e+17
19463.0	5.26945232232994e+17
19464.0	5.2895465169660576e+17
19465.0	5.308520119402496e+17
19466.0	5.325490862686206e+17
19467.0	5.3418030652893856e+17
19468.0	5.356421731669333e+17
19469.0	5.37893534415804e+17
19470.0	5.406903610550954e+17
19471.0	5.4267260688138234e+17
19472.0	5.4404380811591654e+17
19473.0	5.4513803953438694e+17
19474.0	5.460235795824638e+17
19475.0	5.466562384013992e+17
19476.0	5.472726277947392e+17
19477.0	5.479007016801621e+17
19478.0	5.483225472303103e+17
19479.0	5.4883344931880954e+17
19480.0	5.492462034354175e+17
19481.0	5.496098571419648e+17
19482.0	5.499576927999315e+17
19483.0	5.5037423388371616e+17
19484.0	5.506873551050068e+17
19485.0	5.509840867338921e+17
19486.0	5.5126839504404474e+17
19487.0	5.515458311968084e+17
19488.0	5.518098905956351e+17
19489.0	5.520489326488235e+17
19490.0	5.5220804951299386e+17
19491.0	5.5256471411097594e+17
19492.0	5.527797605509803e+17
19493.0	5.5297990071418874e+17
19494.0	5.531684323721215e+17
19495.0	5.533449970515966e+17
19496.0	5.534810681027241e+17
19497.0	5.5366601852409165e+17
19498.0	5.532176667901951e+17
19499.0	5.485467915692705e+17
19500.0	5.5408068601227936e+17
19501.0	5.5419976314170016e+17
19502.0	5.543073145334441e+17
19503.0	5.54411263996723e+17
19504.0	5.545035138684245e+17
19505.0	5.545902050290347e+17
19506.0	5.546679419797503e+17
19507.0	5.54736748208674e+17
19508.0	5.5480192210042874e+17
19509.0	5.5485932038171296e+17
19510.0	5.5489414470915405e+17
19511.0	5.475534208587073e+17
19512.0	5.540148127902373e+17
19513.0	5.534934219358186e+17
19514.0	5.538644861386734e+17
19515.0	5.55001286946543e+17
19516.0	5.550970570975915e+17
19517.0	5.5510775047563936e+17
19518.0	5.5512092688165536e+17
19519.0	5.5512313140783776e+17
19520.0	5.5512305891628365e+17
19521.0	5.5512402164886176e+17
19522.0	5.5511479012556794e+17
19523.0	5.551060620585642e+17
19524.0	5.5509072705399456e+17
19525.0	5.550743153715881e+17
19526.0	5.55055282528802e+17
19527.0	5.550319426950485e+17
19528.0	5.550055617811796e+17
19529.0	5.5497724491639456e+17
19530.0	5.54946372182562e+17
19531.0	5.549125445615615e+17
19532.0	5.5487630591481165e+17
19533.0	5.548377727740585e+17
19534.0	5.5479673794068474e+17
19535.0	5.547533390577662e+17
19536.0	5.547061704043179e+17
19537.0	5.546624354178389e+17
19538.0	5.546013799131818e+17
19539.0	5.545231903271594e+17
19540.0	5.545088682470057e+17
19541.0	5.544925572978005e+17
19542.0	5.5464646972975776e+17
19543.0	5.545858332360703e+17
19544.0	5.5452777805687456e+17
19545.0	5.54427677286946e+17
19546.0	5.5433780663418874e+17
19547.0	5.543403032237396e+17
19548.0	5.5427487375906125e+17
19549.0	5.5420198157899066e+17
19550.0	5.541776209215483e+17
19551.0	5.544955812511743e+17
19552.0	5.544238305509375e+17
19553.0	5.5434928462670496e+17
19554.0	5.5427501035356154e+17
19555.0	5.5420246748910925e+17
19556.0	5.5412854630645754e+17
19557.0	5.5405234405157536e+17
19558.0	5.539758534382933e+17
19559.0	5.538983710119251e+17
19560.0	5.5381770951284045e+17
19561.0	5.5373976361588045e+17
19562.0	5.53661783605248e+17
19563.0	5.535826856727892e+17
19564.0	5.535397587888808e+17
19565.0	5.5377846746480634e+17
19566.0	5.536931020537855e+17
19567.0	5.536118072147968e+17
19568.0	5.535260533413204e+17
19569.0	5.5344278375410336e+17
19570.0	5.533585897422847e+17
19571.0	5.53272786236211e+17
19572.0	5.531853201080319e+17
19573.0	5.530993853202432e+17
19574.0	5.5300809237899936e+17
19575.0	5.529277079835988e+17
19576.0	5.528405151842302e+17
19577.0	5.5275091443493536e+17
19578.0	5.52661419172386e+17
19579.0	5.5257430354821114e+17
19580.0	5.524855891252564e+17
19581.0	5.523976434483199e+17
19582.0	5.5230965121460896e+17
19583.0	5.522200968123732e+17
19584.0	5.52128055817011e+17
19585.0	5.5203189454711456e+17
19586.0	5.519375968064853e+17
19587.0	5.5184093592507725e+17
19588.0	5.517314683655509e+17
19589.0	5.516744267399167e+17
19590.0	5.5157685387700896e+17
19591.0	5.516050910500181e+17
19592.0	5.516985660080128e+17
19593.0	5.5160459178803194e+17
19594.0	5.5149413521162234e+17
19595.0	5.514163186390357e+17
19596.0	5.511051985201834e+17
19597.0	5.512220853141503e+17
19598.0	5.5111051598888934e+17
19599.0	5.510467404780885e+17
19600.0	5.5095367404530323e+17
19601.0	5.508544718351018e+17
19602.0	5.507610929965737e+17
19603.0	5.505941045422761e+17
19604.0	5.5056606582975136e+17
19605.0	5.5046026430163616e+17
19606.0	5.503879519840938e+17
19607.0	5.502935995077973e+17
19608.0	5.5019725515653114e+17
19609.0	5.5009975821052576e+17
19610.0	5.500075834867711e+17
19611.0	5.499115771964074e+17
19612.0	5.4981839304349005e+17
19613.0	5.4972222967644154e+17
19614.0	5.4962450833517216e+17
19615.0	5.4953039115933005e+17
19616.0	5.494034758544042e+17
19617.0	5.493386112925696e+17
19618.0	5.4919905141937485e+17
19619.0	5.490940289133225e+17
19620.0	5.489998292495017e+17
19621.0	5.4895486127745696e+17
19622.0	5.4886084441538534e+17
19623.0	5.4876464539675296e+17
19624.0	5.48667611292194e+17
19625.0	5.485717460003498e+17
19626.0	5.484754251371862e+17
19627.0	5.483781790105598e+17
19628.0	5.48209767149295e+17
19629.0	5.481719921289898e+17
19630.0	5.478355866484734e+17
19631.0	5.4486192983026406e+17
19632.0	5.478919752209747e+17
19633.0	5.477914048987136e+17
19634.0	5.4770193074749434e+17
19635.0	5.4760760735170554e+17
19636.0	5.475114304929791e+17
19637.0	5.473874416937642e+17
19638.0	5.473190007887188e+17
19639.0	5.4722116326522874e+17
19640.0	5.471150845635241e+17
19641.0	5.4696118065998515e+17
19642.0	5.469308218682026e+17
19643.0	5.468324209797802e+17
19644.0	5.46731912803123e+17
19645.0	5.4661805415683405e+17
19646.0	5.465397599928319e+17
19647.0	5.4644480255808845e+17
19648.0	5.463475734882986e+17
19649.0	5.462499085604181e+17
19650.0	5.461526435594239e+17
19651.0	5.4605468838570656e+17
19652.0	5.459573728433492e+17
19653.0	5.4585839097391776e+17
19654.0	5.4576245018460154e+17
19655.0	5.456644783734783e+17
19656.0	5.4556669649442125e+17
19657.0	5.454695829777066e+17
19658.0	5.453716199047167e+17
19659.0	5.4527408800617805e+17
19660.0	5.451765248600747e+17
19661.0	5.4507880100222285e+17
