# Flux units: erg / (cm m2 s)
# Wavelength units: Angstrom
wave	flux
19000.0	8.230901755762003e+17
19001.0	8.229006386135037e+17
19002.0	8.228052530102271e+17
19003.0	8.226587883339775e+17
19004.0	8.225137739082409e+17
19005.0	8.223701189962408e+17
19006.0	8.222259007892136e+17
19007.0	8.220551984884394e+17
19008.0	8.219123196624893e+17
19009.0	8.217464443065683e+17
19010.0	8.215006931845116e+17
19011.0	8.215102015318698e+17
19012.0	8.212440816112979e+17
19013.0	8.212515560008361e+17
19014.0	8.210938988243624e+17
19015.0	8.209611373587114e+17
19016.0	8.208174844040531e+17
19017.0	8.206772909113343e+17
19018.0	8.205315722619561e+17
19019.0	8.203880856813565e+17
19020.0	8.202368146123433e+17
19021.0	8.201002408039764e+17
19022.0	8.199526552698879e+17
19023.0	8.197855382601725e+17
19024.0	8.196491449466876e+17
19025.0	8.19493131657762e+17
19026.0	8.193341518774271e+17
19027.0	8.190991335598761e+17
19028.0	8.190607959435944e+17
19029.0	8.189075735445501e+17
19030.0	8.187739943294291e+17
19031.0	8.186273726463999e+17
19032.0	8.184745947037696e+17
19033.0	8.182741061337083e+17
19034.0	8.181394161270781e+17
19035.0	8.177961932947453e+17
19036.0	8.104821378777076e+17
19037.0	8.175618606060883e+17
19038.0	8.175444355099306e+17
19039.0	8.174245808963581e+17
19040.0	8.172841294539434e+17
19041.0	8.171345786088105e+17
19042.0	8.169409502423722e+17
19043.0	8.16840396976947e+17
19044.0	8.166856772113747e+17
19045.0	8.165366319196841e+17
19046.0	8.163643159303508e+17
19047.0	8.162233656453802e+17
19048.0	8.160184065064957e+17
19049.0	8.159376068749994e+17
19050.0	8.15779887063586e+17
19051.0	8.144974671511542e+17
19052.0	8.151382107007654e+17
19053.0	8.153582820567722e+17
19054.0	8.152276013853353e+17
19055.0	8.149588014443181e+17
19056.0	8.149221521752063e+17
19057.0	8.147807489054034e+17
19058.0	8.146168732538196e+17
19059.0	8.14479333916672e+17
19060.0	8.143236714113705e+17
19061.0	8.141813905533612e+17
19062.0	8.14027459456751e+17
19063.0	8.138758394216447e+17
19064.0	8.136698811995478e+17
19065.0	8.13483253965346e+17
19066.0	8.133878121583955e+17
19067.0	8.132633702345386e+17
19068.0	8.131173684696404e+17
19069.0	8.129661129195517e+17
19070.0	8.128008277022036e+17
19071.0	8.126533596086271e+17
19072.0	8.125064413883049e+17
19073.0	8.12353844220177e+17
19074.0	8.122051216102739e+17
19075.0	8.120521090662397e+17
19076.0	8.118917703314093e+17
19077.0	8.11738077611076e+17
19078.0	8.115741126208168e+17
19079.0	8.114376744282792e+17
19080.0	8.112778416663209e+17
19081.0	8.111077454424744e+17
19082.0	8.109613176761002e+17
19083.0	8.107581037871101e+17
19084.0	8.10540503854831e+17
19085.0	8.104971090264061e+17
19086.0	8.101233804618408e+17
19087.0	8.100655601636692e+17
19088.0	8.09939795915571e+17
19089.0	8.09717620137438e+17
19090.0	8.096941440587092e+17
19091.0	8.095585956178602e+17
19092.0	8.093693554720767e+17
19093.0	8.092728148972884e+17
19094.0	8.091269002341032e+17
19095.0	8.089773252018177e+17
19096.0	8.088186892146002e+17
19097.0	8.086692177816233e+17
19098.0	8.085129599647743e+17
19099.0	8.083579780552019e+17
19100.0	8.081921853270698e+17
19101.0	8.080450400550911e+17
19102.0	8.078597547185492e+17
19103.0	8.077383346509139e+17
19104.0	8.075854020782762e+17
19105.0	8.074175579160575e+17
19106.0	8.072444837363711e+17
19107.0	8.070909708118697e+17
19108.0	8.069062891754834e+17
19109.0	8.062539211123368e+17
19110.0	8.064997868787028e+17
19111.0	8.064710301712381e+17
19112.0	8.06335894449903e+17
19113.0	8.061865974999721e+17
19114.0	8.060299412242431e+17
19115.0	8.058408182393514e+17
19116.0	8.057090339067219e+17
19117.0	8.055478227566591e+17
19118.0	8.05343264313617e+17
19119.0	8.04127635057321e+17
19120.0	8.050132594109097e+17
19121.0	8.048860218436264e+17
19122.0	8.047874401807016e+17
19123.0	8.046315966212777e+17
19124.0	8.04418657399603e+17
19125.0	8.043106269484374e+17
19126.0	8.041351894182569e+17
19127.0	8.033132305448961e+17
19128.0	8.036410030992037e+17
19129.0	8.036452870214993e+17
19130.0	8.035285862449151e+17
19131.0	8.033743010092374e+17
19132.0	8.032209703971497e+17
19133.0	8.030043909390333e+17
19134.0	8.028240821441878e+17
19135.0	8.027499047594664e+17
19136.0	8.025938165323092e+17
19137.0	8.023779105396054e+17
19138.0	8.022708299584851e+17
19139.0	8.021235272602964e+17
19140.0	8.019681919107071e+17
19141.0	8.01810781638929e+17
19142.0	8.016367364778664e+17
19143.0	8.014719211623763e+17
19144.0	8.013136170844157e+17
19145.0	8.01175171637794e+17
19146.0	8.007270122127363e+17
19147.0	8.008280578894506e+17
19148.0	8.006960108535804e+17
19149.0	8.005360682008573e+17
19150.0	8.003818985881599e+17
19151.0	8.002219798429696e+17
19152.0	8.000463735619583e+17
19153.0	7.998601649192957e+17
19154.0	7.996637929188009e+17
19155.0	7.995407370726057e+17
19156.0	7.993701899610794e+17
19157.0	7.991418372314454e+17
19158.0	7.98789627683362e+17
19159.0	7.988370044441942e+17
19160.0	7.986747682062335e+17
19161.0	7.984545647296512e+17
19162.0	7.975337786867715e+17
19163.0	7.98011386180403e+17
19164.0	7.980467835895807e+17
19165.0	7.978947711074301e+17
19166.0	7.977000276153684e+17
19167.0	7.975178002060628e+17
19168.0	7.974169322280276e+17
19169.0	7.972703926135468e+17
19170.0	7.971199534148266e+17
19171.0	7.969376320531113e+17
19172.0	7.967907613682344e+17
19173.0	7.966436914539178e+17
19174.0	7.964652930247336e+17
19175.0	7.963258328361642e+17
19176.0	7.961628451187369e+17
19177.0	7.959271952788138e+17
19178.0	7.958128140921513e+17
19179.0	7.956364131303421e+17
19180.0	7.955025008874834e+17
19181.0	7.953147987929768e+17
19182.0	7.951831555287721e+17
19183.0	7.950333404424872e+17
19184.0	7.9486417661242e+17
19185.0	7.94701754007552e+17
19186.0	7.945447043061076e+17
19187.0	7.943364473257983e+17
19188.0	7.942109805936639e+17
19189.0	7.940405148516351e+17
19190.0	7.938677292400641e+17
19191.0	7.936872324005888e+17
19192.0	7.935370628956157e+17
19193.0	7.933540543670952e+17
19194.0	7.93163919716079e+17
19195.0	7.929715083968511e+17
19196.0	7.927290100973567e+17
19197.0	7.924023063915178e+17
19198.0	7.916703062512978e+17
19199.0	7.868349983752184e+17
19200.0	7.87481933136965e+17
19201.0	7.912573841528148e+17
19202.0	7.916014324241747e+17
19203.0	7.915747105133906e+17
19204.0	7.91482730684962e+17
19205.0	7.913586451371348e+17
19206.0	7.912129866061139e+17
19207.0	7.910118370137425e+17
19208.0	7.908333295326547e+17
19209.0	7.907401732019539e+17
19210.0	7.905770781103446e+17
19211.0	7.904119971556006e+17
19212.0	7.902391833023827e+17
19213.0	7.899985056104444e+17
19214.0	7.898066817733972e+17
19215.0	7.897171670772394e+17
19216.0	7.895737073401855e+17
19217.0	7.89392915361519e+17
19218.0	7.889062315338406e+17
19219.0	7.889267766329339e+17
19220.0	7.888429194936319e+17
19221.0	7.885734681772032e+17
19222.0	7.885063110787071e+17
19223.0	7.883442760275284e+17
19224.0	7.881601859278164e+17
19225.0	7.879618112869718e+17
19226.0	7.878329096994812e+17
19227.0	7.876631758635005e+17
19228.0	7.875060501053439e+17
19229.0	7.873345445953536e+17
19230.0	7.871543560372221e+17
19231.0	7.869809886756863e+17
19232.0	7.868145216432812e+17
19233.0	7.866102249248083e+17
19234.0	7.864643275980799e+17
19235.0	7.86281028544102e+17
19236.0	7.861265252046164e+17
19237.0	7.859447467256489e+17
19238.0	7.857302126897833e+17
19239.0	7.856034097922047e+17
19240.0	7.854202304157012e+17
19241.0	7.852399630046548e+17
19242.0	7.850717835777363e+17
19243.0	7.84815181092181e+17
19244.0	7.847292617534122e+17
19245.0	7.845492353750356e+17
19246.0	7.843686926778367e+17
19247.0	7.841913119266131e+17
19248.0	7.840009022690646e+17
19249.0	7.837669628663126e+17
19250.0	7.835813233907025e+17
19251.0	7.83357579641924e+17
19252.0	7.830829522747391e+17
19253.0	7.830426719966547e+17
19254.0	7.828707430017705e+17
19255.0	7.82593612473958e+17
19256.0	7.824924022407169e+17
19257.0	7.823257053604521e+17
19258.0	7.821439735780691e+17
19259.0	7.819195932737535e+17
19260.0	7.816375924599464e+17
19261.0	7.815829980009811e+17
19262.0	7.813762249654272e+17
19263.0	7.811815434092543e+17
19264.0	7.80823809962803e+17
19265.0	7.807664374764883e+17
19266.0	7.806002894908073e+17
19267.0	7.804734459084799e+17
19268.0	7.80279012794914e+17
19269.0	7.799927458146986e+17
19270.0	7.797953523613693e+17
19271.0	7.79482727256337e+17
19272.0	7.793967542304767e+17
19273.0	7.788403791058258e+17
19274.0	7.786906314080248e+17
19275.0	7.788395647117993e+17
19276.0	7.786421915309395e+17
19277.0	7.784487407233706e+17
19278.0	7.782556462918313e+17
19279.0	7.780382458686121e+17
19280.0	7.778263307561641e+17
19281.0	7.776534570642089e+17
19282.0	7.774534550334122e+17
19283.0	7.77169224527599e+17
19284.0	7.768357031204179e+17
19285.0	7.76664747483682e+17
19286.0	7.764896717821268e+17
19287.0	7.76274642678579e+17
19288.0	7.738490224290454e+17
19289.0	7.712839225573315e+17
19290.0	7.756232634925056e+17
19291.0	7.753374468407299e+17
19292.0	7.7526649026205e+17
19293.0	7.750614234693632e+17
19294.0	7.74849857602628e+17
19295.0	7.745528218867028e+17
19296.0	7.742646320977236e+17
19297.0	7.740402523526483e+17
19298.0	7.738291727455572e+17
19299.0	7.736265674500777e+17
19300.0	7.734124215271421e+17
19301.0	7.731944625624404e+17
19302.0	7.729694280865106e+17
19303.0	7.72721979250005e+17
19304.0	7.725112276374867e+17
19305.0	7.720980211651926e+17
19306.0	7.718731427173715e+17
19307.0	7.716249551241215e+17
19308.0	7.713926548553727e+17
19309.0	7.710086273171455e+17
19310.0	7.706872246523219e+17
19311.0	7.706695206349481e+17
19312.0	7.704974033158143e+17
19313.0	7.700333172796076e+17
19314.0	7.660041968549884e+17
19315.0	7.660517146842501e+17
19316.0	7.692864871989245e+17
19317.0	7.690848520459604e+17
19318.0	7.687964623284905e+17
19319.0	7.685623234166783e+17
19320.0	7.682224923781798e+17
19321.0	7.679216562034003e+17
19322.0	7.676250326477484e+17
19323.0	7.673579136439636e+17
19324.0	7.671439180169215e+17
19325.0	7.668334525590188e+17
19326.0	7.666501844030803e+17
19327.0	7.664131238789119e+17
19328.0	7.661648145110358e+17
19329.0	7.659119139181908e+17
19330.0	7.656370758571348e+17
19331.0	7.653646518976511e+17
19332.0	7.651163998519293e+17
19333.0	7.648387239247871e+17
19334.0	7.645037515680425e+17
19335.0	7.641933857947647e+17
19336.0	7.63918102438434e+17
19337.0	7.63640017007411e+17
19338.0	7.632653238927356e+17
19339.0	7.63066732406374e+17
19340.0	7.627541028274173e+17
19341.0	7.624608369519272e+17
19342.0	7.620394711602514e+17
19343.0	7.618757725082964e+17
19344.0	7.615516023018836e+17
19345.0	7.60571870768878e+17
19346.0	7.604180929041743e+17
19347.0	7.604437245755391e+17
19348.0	7.601555635874474e+17
19349.0	7.598157133949609e+17
19350.0	7.59493003505391e+17
19351.0	7.591578763788287e+17
19352.0	7.588059770694313e+17
19353.0	7.585031376950611e+17
19354.0	7.580755660111872e+17
19355.0	7.575611111374848e+17
19356.0	7.572447099005608e+17
19357.0	7.568868848784723e+17
19358.0	7.565202253938687e+17
19359.0	7.5614332663453e+17
19360.0	7.557762370939562e+17
19361.0	7.553578556893866e+17
19362.0	7.547794119546195e+17
19363.0	7.544008070922239e+17
19364.0	7.540169908071081e+17
19365.0	7.536169544493738e+17
19366.0	7.532084376283817e+17
19367.0	7.527702947605161e+17
19368.0	7.520231104009556e+17
19369.0	7.515633709219837e+17
19370.0	7.511187019967148e+17
19371.0	7.506890869877417e+17
19372.0	7.502623715011242e+17
19373.0	7.494851472566958e+17
19374.0	7.48921625457459e+17
19375.0	7.484487698306387e+17
19376.0	7.479680107369811e+17
19377.0	7.47441554002193e+17
19378.0	7.465424081911803e+17
19379.0	7.459511329619968e+17
19380.0	7.454339127836671e+17
19381.0	7.449035094884352e+17
19382.0	7.442555271293608e+17
19383.0	7.432369784313172e+17
19384.0	7.427112101216253e+17
19385.0	7.421443509146964e+17
19386.0	7.415618676457471e+17
19387.0	7.40431494189329e+17
19388.0	7.396761389061462e+17
19389.0	7.390497218407081e+17
19390.0	7.383658126114815e+17
19391.0	7.326974944302359e+17
19392.0	7.364880571039739e+17
19393.0	7.361303545555625e+17
19394.0	7.354689932055892e+17
19395.0	7.347085479946921e+17
19396.0	7.339759642869757e+17
19397.0	7.332777077418664e+17
19398.0	7.325380781626708e+17
19399.0	7.316043391303679e+17
19400.0	7.309873210807638e+17
19401.0	7.300556583687508e+17
19402.0	7.292218865177939e+17
19403.0	7.283582109570387e+17
19404.0	7.274761485462185e+17
19405.0	7.265535607701505e+17
19406.0	7.254044379359913e+17
19407.0	7.244323661807616e+17
19408.0	7.232230650107224e+17
19409.0	7.223581238886399e+17
19410.0	7.211390751561044e+17
19411.0	7.1988969237818e+17
19412.0	7.187168581648383e+17
19413.0	7.175090213661353e+17
19414.0	7.161977974904148e+17
19415.0	7.146906256583338e+17
19416.0	7.133086099002708e+17
19417.0	7.119582611374079e+17
19418.0	7.105727192279722e+17
19419.0	7.08872166213768e+17
19420.0	7.072106588143612e+17
19421.0	7.055763353982292e+17
19422.0	7.038479187836927e+17
19423.0	7.020595427060393e+17
19424.0	7.001722267718998e+17
19425.0	6.981987881451519e+17
19426.0	6.959746356259494e+17
19427.0	6.938249162741076e+17
19428.0	6.915977655965012e+17
19429.0	6.892202958869843e+17
19430.0	6.865102836509357e+17
19431.0	6.832955063620954e+17
19432.0	6.812832303677437e+17
19433.0	6.783666614523223e+17
19434.0	6.75226472030754e+17
19435.0	6.717159859639634e+17
19436.0	6.679553226659155e+17
19437.0	6.643969051415891e+17
19438.0	6.559660105880924e+17
19439.0	6.556250502332419e+17
19440.0	6.511894542155775e+17
19441.0	6.460920674910204e+17
19442.0	6.405375066636289e+17
19443.0	6.344503561202346e+17
19444.0	6.277975135049042e+17
19445.0	6.204488877954392e+17
19446.0	6.122908627064148e+17
19447.0	6.031527302747473e+17
19448.0	5.927824890265604e+17
19449.0	5.807698174017535e+17
19450.0	5.659677060759543e+17
19451.0	5.575380468148908e+17
19452.0	5.7386672618209274e+17
19453.0	5.8678377419462e+17
19454.0	5.976638012872017e+17
19455.0	6.071396110521684e+17
19456.0	6.15519103990716e+17
19457.0	6.230035102957564e+17
19458.0	6.264869939227359e+17
19459.0	6.357558630896988e+17
19460.0	6.414276058502483e+17
19461.0	6.465210033722708e+17
19462.0	6.511803994821974e+17
19463.0	6.554901891689128e+17
19464.0	6.594934767353855e+17
19465.0	6.63174181220079e+17
19466.0	6.665717427120808e+17
19467.0	6.698222324023296e+17
19468.0	6.728242611705172e+17
19469.0	6.755372504536403e+17
19470.0	6.781308080488449e+17
19471.0	6.805647885249194e+17
19472.0	6.829133082394623e+17
19473.0	6.850770579576148e+17
19474.0	6.871137752099498e+17
19475.0	6.88818201384277e+17
19476.0	6.90965901668079e+17
19477.0	6.927484353598804e+17
19478.0	6.944237820051455e+17
19479.0	6.959793327570941e+17
19480.0	6.974562440839168e+17
19481.0	6.988618121172308e+17
19482.0	7.001879867992746e+17
19483.0	7.017293919813631e+17
19484.0	7.029371239224659e+17
19485.0	7.040572948742143e+17
19486.0	7.051134345325226e+17
19487.0	7.062449777803263e+17
19488.0	7.074017355060564e+17
19489.0	7.08294690803985e+17
19490.0	7.089067739753126e+17
19491.0	7.101256592698025e+17
19492.0	7.112208662833833e+17
19493.0	7.120152125156008e+17
19494.0	7.127596247198378e+17
19495.0	7.134611069643434e+17
19496.0	7.141387051641513e+17
19497.0	7.149320535714474e+17
19498.0	7.146074660317866e+17
19499.0	7.087300836065252e+17
19500.0	7.166719862068564e+17
19501.0	7.173814193138345e+17
19502.0	7.179706492605782e+17
19503.0	7.184565683268266e+17
19504.0	7.189097370091519e+17
19505.0	7.193507265511423e+17
19506.0	7.197757317403987e+17
19507.0	7.202764063681194e+17
19508.0	7.206851096958292e+17
19509.0	7.210537230270463e+17
19510.0	7.213387480738476e+17
19511.0	7.146137409901868e+17
19512.0	7.209193928916977e+17
19513.0	7.203652123667085e+17
19514.0	7.213066802429932e+17
19515.0	7.237828249387017e+17
19516.0	7.243909432344575e+17
19517.0	7.246830559559679e+17
19518.0	7.24985233608977e+17
19519.0	7.255252878579027e+17
19520.0	7.260245709553661e+17
19521.0	7.262856718319615e+17
19522.0	7.265077090582527e+17
19523.0	7.267498386784253e+17
19524.0	7.273539774185476e+17
19525.0	7.276483575807999e+17
19526.0	7.278693662239402e+17
19527.0	7.280568425250815e+17
19528.0	7.28240192889378e+17
19529.0	7.287772317133478e+17
19530.0	7.289782740713471e+17
19531.0	7.291412518622548e+17
19532.0	7.29292218844228e+17
19533.0	7.294404331044864e+17
19534.0	7.297598680814932e+17
19535.0	7.30028280329011e+17
19536.0	7.301479873030826e+17
19537.0	7.302784115627348e+17
19538.0	7.303244335633748e+17
19539.0	7.302988680222038e+17
19540.0	7.306641197585747e+17
19541.0	7.309102733940051e+17
19542.0	7.309899002981033e+17
19543.0	7.310629895405568e+17
19544.0	7.31135993638639e+17
19545.0	7.310152480150867e+17
19546.0	7.309710325011795e+17
19547.0	7.313783220688211e+17
19548.0	7.316027458540883e+17
19549.0	7.316100309407058e+17
19550.0	7.317075615110484e+17
19551.0	7.317545152064169e+17
19552.0	7.317961907896317e+17
19553.0	7.318259563670185e+17
19554.0	7.318560211380905e+17
19555.0	7.318971567745704e+17
19556.0	7.319727995092991e+17
19557.0	7.320960220091731e+17
19558.0	7.321172646210217e+17
19559.0	7.321353508793e+17
19560.0	7.321343281681747e+17
19561.0	7.321427535462399e+17
19562.0	7.321558977959251e+17
19563.0	7.321620878895785e+17
19564.0	7.321591645995007e+17
19565.0	7.321539389161472e+17
19566.0	7.321345246014122e+17
19567.0	7.321362915218772e+17
19568.0	7.321623529695914e+17
19569.0	7.321886581063679e+17
19570.0	7.321798455940436e+17
19571.0	7.321585909585236e+17
19572.0	7.321177457076905e+17
19573.0	7.321041995038719e+17
19574.0	7.320370914787325e+17
19575.0	7.320517149196287e+17
19576.0	7.320189297229823e+17
19577.0	7.319757348230484e+17
19578.0	7.319333278930259e+17
19579.0	7.318966155695442e+17
19580.0	7.318573540879017e+17
19581.0	7.318518350828884e+17
19582.0	7.319179602427903e+17
19583.0	7.318726774183254e+17
19584.0	7.318210217683625e+17
19585.0	7.317733817450493e+17
19586.0	7.317057801901396e+17
19587.0	7.316967796331862e+17
19588.0	7.314959496467796e+17
19589.0	7.318029746569212e+17
19590.0	7.317452674651475e+17
19591.0	7.317210668903081e+17
19592.0	7.316661785504425e+17
19593.0	7.315959907876863e+17
19594.0	7.314290580477266e+17
19595.0	7.314665867225769e+17
19596.0	7.310289484294829e+17
19597.0	7.314792098998952e+17
19598.0	7.313487523654312e+17
19599.0	7.313947984134143e+17
19600.0	7.313291962832212e+17
19601.0	7.312295050870783e+17
19602.0	7.311485752923475e+17
19603.0	7.308887739509416e+17
19604.0	7.309843053761876e+17
19605.0	7.308317469354669e+17
19606.0	7.309177496010751e+17
19607.0	7.30960859636258e+17
19608.0	7.308802161726804e+17
19609.0	7.307847798183251e+17
19610.0	7.30727939589188e+17
19611.0	7.306441580871679e+17
19612.0	7.30570676956911e+17
19613.0	7.304831407139498e+17
19614.0	7.303849143085738e+17
19615.0	7.303405016623786e+17
19616.0	7.302032943742975e+17
19617.0	7.30165266297651e+17
19618.0	7.298814310350845e+17
19619.0	7.298189946257403e+17
19620.0	7.297667842091688e+17
19621.0	7.29920552706594e+17
19622.0	7.298432585345705e+17
19623.0	7.297534990308692e+17
19624.0	7.296548291477501e+17
19625.0	7.295629708143272e+17
19626.0	7.294550252279123e+17
19627.0	7.293348435984383e+17
19628.0	7.290816990369108e+17
19629.0	7.289476497801215e+17
19630.0	7.275146891668133e+17
19631.0	7.231885203035484e+17
19632.0	7.285399425996116e+17
19633.0	7.287160605857108e+17
19634.0	7.287553345104556e+17
19635.0	7.286574216992084e+17
19636.0	7.285804854411261e+17
19637.0	7.282928423097686e+17
19638.0	7.283937829890729e+17
19639.0	7.282914446278655e+17
19640.0	7.281531974320128e+17
19641.0	7.278551753555972e+17
19642.0	7.279914990436351e+17
19643.0	7.278862907998207e+17
19644.0	7.277573920085331e+17
19645.0	7.275859411643048e+17
19646.0	7.275807762983593e+17
19647.0	7.27481598624836e+17
19648.0	7.273745557924521e+17
19649.0	7.272680125016745e+17
19650.0	7.271648221375145e+17
19651.0	7.270552501398185e+17
19652.0	7.269468765945855e+17
19653.0	7.26896232191317e+17
19654.0	7.268387221318314e+17
19655.0	7.267278076772352e+17
19656.0	7.266240884113407e+17
19657.0	7.265139795427327e+17
19658.0	7.264072016505513e+17
19659.0	7.262970803388415e+17
19660.0	7.26188584739362e+17
19661.0	7.26075201098001e+17
19662.0	7.259650019120467e+17
19663.0	7.258284838879232e+17
19664.0	7.257165369354922e+17
19665.0	7.256298517168127e+17
