# Flux units: erg / (cm m2 s)
# Wavelength units: Angstrom
wave	flux
19000.0	5.394798426980351e+17
19001.0	5.393695264909993e+17
19002.0	5.3928046303204685e+17
19003.0	5.391802771177471e+17
19004.0	5.3908058634103456e+17
19005.0	5.389801949058389e+17
19006.0	5.3888145141268474e+17
19007.0	5.387797967929342e+17
19008.0	5.386746836899157e+17
19009.0	5.385698859985577e+17
19010.0	5.384302348992511e+17
19011.0	5.3837800421021e+17
19012.0	5.382614001822377e+17
19013.0	5.3818213531648e+17
19014.0	5.3807696076690765e+17
19015.0	5.379785377884843e+17
19016.0	5.3787683647214925e+17
19017.0	5.3778329419557536e+17
19018.0	5.376824303419391e+17
19019.0	5.375834763646292e+17
19020.0	5.3748225711363405e+17
19021.0	5.3738458456610125e+17
19022.0	5.372845615306068e+17
19023.0	5.37181607235857e+17
19024.0	5.3708356950425594e+17
19025.0	5.369851811987455e+17
19026.0	5.3688264605477536e+17
19027.0	5.367745377293652e+17
19028.0	5.3668730962793805e+17
19029.0	5.3658598419114656e+17
19030.0	5.364893532291071e+17
19031.0	5.363898121890474e+17
19032.0	5.362895693021183e+17
19033.0	5.36180944937506e+17
19034.0	5.360897363017728e+17
19035.0	5.3598712447194445e+17
19036.0	5.348901513767594e+17
19037.0	5.3579104124928e+17
19038.0	5.3569054894107296e+17
19039.0	5.355935884465492e+17
19040.0	5.354941250710186e+17
19041.0	5.353936370270207e+17
19042.0	5.352821785711957e+17
19043.0	5.351958017736703e+17
19044.0	5.350950428475391e+17
19045.0	5.3499646579834874e+17
19046.0	5.348912493057364e+17
19047.0	5.3479562602523296e+17
19048.0	5.346742723674111e+17
19049.0	5.345856274300928e+17
19050.0	5.344946005475326e+17
19051.0	5.3426300618014694e+17
19052.0	5.3427330368580256e+17
19053.0	5.3420137179163296e+17
19054.0	5.341024908651178e+17
19055.0	5.339753214552747e+17
19056.0	5.3390060426362874e+17
19057.0	5.338039594603859e+17
19058.0	5.3370100369762976e+17
19059.0	5.3360438762536954e+17
19060.0	5.335044093990228e+17
19061.0	5.334078946192041e+17
19062.0	5.333081133154303e+17
19063.0	5.332091322848596e+17
19064.0	5.3309615898624e+17
19065.0	5.32993067258129e+17
19066.0	5.329048948790612e+17
19067.0	5.32811184410897e+17
19068.0	5.3271349284918605e+17
19069.0	5.3261453251051514e+17
19070.0	5.3251226405437434e+17
19071.0	5.324154249849513e+17
19072.0	5.323158677968213e+17
19073.0	5.3221773135926605e+17
19074.0	5.3211927510603085e+17
19075.0	5.3202024779830605e+17
19076.0	5.3191903197265914e+17
19077.0	5.3182032902444365e+17
19078.0	5.317193431165609e+17
19079.0	5.316239977086975e+17
19080.0	5.3152350707821216e+17
19081.0	5.314219913598292e+17
19082.0	5.3132273364500474e+17
19083.0	5.3121832092084896e+17
19084.0	5.311069037090132e+17
19085.0	5.310291776634879e+17
19086.0	5.308927624697172e+17
19087.0	5.30804604211473e+17
19088.0	5.307237885018111e+17
19089.0	5.30604738355746e+17
19090.0	5.305336714668715e+17
19091.0	5.3043433259226445e+17
19092.0	5.3032639937904634e+17
19093.0	5.302401742056106e+17
19094.0	5.3014123036453536e+17
19095.0	5.3004244339042976e+17
19096.0	5.299421506611881e+17
19097.0	5.298449198437717e+17
19098.0	5.2974503361249274e+17
19099.0	5.2964610934483616e+17
19100.0	5.2954650203477325e+17
19101.0	5.294495528648703e+17
19102.0	5.293390443489961e+17
19103.0	5.292529986218665e+17
19104.0	5.2915476676389536e+17
19105.0	5.2905297939442336e+17
19106.0	5.2895302353769805e+17
19107.0	5.2885606423156045e+17
19108.0	5.287592171230547e+17
19109.0	5.2859510582149114e+17
19110.0	5.2856131140539725e+17
19111.0	5.2846398733462176e+17
19112.0	5.2836538623808845e+17
19113.0	5.2826761058058234e+17
19114.0	5.281686867323561e+17
19115.0	5.2806436383621114e+17
19116.0	5.2797040443610445e+17
19117.0	5.278719493712554e+17
19118.0	5.2776340427898874e+17
19119.0	5.2689347438182285e+17
19120.0	5.275703694065662e+17
19121.0	5.27474915156514e+17
19122.0	5.2738246451746125e+17
19123.0	5.272841045235028e+17
19124.0	5.2718185494173e+17
19125.0	5.2708686059711136e+17
19126.0	5.269886555127806e+17
19127.0	5.266927674283349e+17
19128.0	5.267780883797332e+17
19129.0	5.2668660138202445e+17
19130.0	5.265939866058752e+17
19131.0	5.264976546278057e+17
19132.0	5.263993758635349e+17
19133.0	5.262888965679785e+17
19134.0	5.261962922076841e+17
19135.0	5.2610457913698976e+17
19136.0	5.260073002248874e+17
19137.0	5.2589132450365434e+17
19138.0	5.2580889608410445e+17
19139.0	5.2571284694193485e+17
19140.0	5.2561494042214394e+17
19141.0	5.255168325757609e+17
19142.0	5.254161623591594e+17
19143.0	5.2531453297513805e+17
19144.0	5.2521850697154554e+17
19145.0	5.251246876611924e+17
19146.0	5.2496338528501754e+17
19147.0	5.24916382306577e+17
19148.0	5.2482923277844474e+17
19149.0	5.2473052626507085e+17
19150.0	5.2463394710268576e+17
19151.0	5.245363350230357e+17
19152.0	5.24437565944627e+17
19153.0	5.243368635017898e+17
19154.0	5.2422894412977485e+17
19155.0	5.241453821296639e+17
19156.0	5.2404719941495443e+17
19157.0	5.2394783166955514e+17
19158.0	5.2380460779219616e+17
19159.0	5.237517850072404e+17
19160.0	5.2365420711116794e+17
19161.0	5.2355684095754234e+17
19162.0	5.2335628171345926e+17
19163.0	5.233596543533056e+17
19164.0	5.23264895099426e+17
19165.0	5.231615803042473e+17
19166.0	5.230530104655871e+17
19167.0	5.229619700913492e+17
19168.0	5.228723234843306e+17
19169.0	5.227730794708991e+17
19170.0	5.2267852154361165e+17
19171.0	5.225742246521513e+17
19172.0	5.224827809256789e+17
19173.0	5.2238527328419834e+17
19174.0	5.2228155534650016e+17
19175.0	5.221900758286336e+17
19176.0	5.22092313522995e+17
19177.0	5.2197887290900474e+17
19178.0	5.218948881230507e+17
19179.0	5.2179054166889805e+17
19180.0	5.217004562677759e+17
19181.0	5.215902904265385e+17
19182.0	5.215042702147583e+17
19183.0	5.214095199786325e+17
19184.0	5.213104057789098e+17
19185.0	5.212132766034602e+17
19186.0	5.2111671344933536e+17
19187.0	5.2101265898864634e+17
19188.0	5.209214479761407e+17
19189.0	5.2082398199808e+17
19190.0	5.2072594699277645e+17
19191.0	5.206253910709589e+17
19192.0	5.20531800629794e+17
19193.0	5.204331301175296e+17
19194.0	5.2033508203997856e+17
19195.0	5.202393030808915e+17
19196.0	5.20140009644578e+17
19197.0	5.2004325718753274e+17
19198.0	5.199456730000041e+17
19199.0	5.192448598867966e+17
19200.0	5.193347640240812e+17
19201.0	5.196536486384981e+17
19202.0	5.1955719789172045e+17
19203.0	5.1945825726627834e+17
19204.0	5.193597620759211e+17
19205.0	5.1926397472822605e+17
19206.0	5.191661002948607e+17
19207.0	5.190575071079081e+17
19208.0	5.189482885502293e+17
19209.0	5.188744856469504e+17
19210.0	5.187769790540457e+17
19211.0	5.186809540990293e+17
19212.0	5.185836443587925e+17
19213.0	5.1847357890123085e+17
19214.0	5.183711904879957e+17
19215.0	5.182890740547583e+17
19216.0	5.181939148040874e+17
19217.0	5.180960602237611e+17
19218.0	5.179093355418963e+17
19219.0	5.1788692880097274e+17
19220.0	5.1780180742853965e+17
19221.0	5.176719236748628e+17
19222.0	5.176085716489557e+17
19223.0	5.1751009379505485e+17
19224.0	5.17410051465762e+17
19225.0	5.173010704454996e+17
19226.0	5.1721794157718176e+17
19227.0	5.1712042205184e+17
19228.0	5.170254713279828e+17
19229.0	5.169280063984981e+17
19230.0	5.168301919436798e+17
19231.0	5.1673189493418656e+17
19232.0	5.1663468327075834e+17
19233.0	5.1653109374866765e+17
19234.0	5.16438299316497e+17
19235.0	5.16340448371234e+17
19236.0	5.1624592211094176e+17
19237.0	5.161467361886207e+17
19238.0	5.1604043344117754e+17
19239.0	5.1595360205100365e+17
19240.0	5.1585322159090336e+17
19241.0	5.157555130422613e+17
19242.0	5.156591428960255e+17
19243.0	5.155473750403753e+17
19244.0	5.154661015224319e+17
19245.0	5.153680340112725e+17
19246.0	5.152690336869034e+17
19247.0	5.1517284242773325e+17
19248.0	5.1507584040959994e+17
19249.0	5.1497745930431136e+17
19250.0	5.148779097358334e+17
19251.0	5.1476821722180256e+17
19252.0	5.146582023755094e+17
19253.0	5.145847164917077e+17
19254.0	5.144893185851391e+17
19255.0	5.1437425862027936e+17
19256.0	5.142894249071956e+17
19257.0	5.141964854919166e+17
19258.0	5.1409859532991136e+17
19259.0	5.139939202520404e+17
19260.0	5.138813707179347e+17
19261.0	5.1380339671913805e+17
19262.0	5.1370101669451085e+17
19263.0	5.1360154171473914e+17
19264.0	5.1344967023110803e+17
19265.0	5.133899692070228e+17
19266.0	5.1328548077567994e+17
19267.0	5.1321690082945696e+17
19268.0	5.131180215107583e+17
19269.0	5.1302012953122125e+17
19270.0	5.1292204587199123e+17
19271.0	5.127860204688726e+17
19272.0	5.1272188347897165e+17
19273.0	5.1251946741650746e+17
19274.0	5.1245052683004563e+17
19275.0	5.124304840687615e+17
19276.0	5.1232985153099085e+17
19277.0	5.122318941203113e+17
19278.0	5.121334868705279e+17
19279.0	5.120334010602836e+17
19280.0	5.119271000604672e+17
19281.0	5.1183666052027725e+17
19282.0	5.117398064212651e+17
19283.0	5.116313453548885e+17
19284.0	5.1153568215859194e+17
19285.0	5.1142358253349536e+17
19286.0	5.113398862457513e+17
19287.0	5.11244400468514e+17
19288.0	5.108475906490364e+17
19289.0	5.1041156492601926e+17
19290.0	5.109464991181481e+17
19291.0	5.10820801909009e+17
19292.0	5.107474892499626e+17
19293.0	5.1064706894397434e+17
19294.0	5.105470343042388e+17
19295.0	5.10448250266146e+17
19296.0	5.1034623857131514e+17
19297.0	5.10245458743569e+17
19298.0	5.1014489604095994e+17
19299.0	5.1004618701100365e+17
19300.0	5.099465583798953e+17
19301.0	5.098462500618239e+17
19302.0	5.097442670280703e+17
19303.0	5.096376415289343e+17
19304.0	5.095406508354219e+17
19305.0	5.0944144100556794e+17
19306.0	5.093412125889876e+17
19307.0	5.092352924319743e+17
19308.0	5.0913599934518605e+17
19309.0	5.090138118597289e+17
19310.0	5.0890458274638496e+17
19311.0	5.088282273295017e+17
19312.0	5.087310469835434e+17
19313.0	5.086298287811241e+17
19314.0	5.070764703219722e+17
19315.0	5.070650734892386e+17
19316.0	5.083184585419433e+17
19317.0	5.082185293889536e+17
19318.0	5.0811505751709005e+17
19319.0	5.0801350432959136e+17
19320.0	5.079092012864853e+17
19321.0	5.078049928249343e+17
19322.0	5.0769283566796794e+17
19323.0	5.075880254636032e+17
19324.0	5.0749297896980474e+17
19325.0	5.073672068923392e+17
19326.0	5.0728363741238605e+17
19327.0	5.0717676018510496e+17
19328.0	5.0707014615039994e+17
19329.0	5.0696726022280525e+17
19330.0	5.0685694618282656e+17
19331.0	5.0674985497613645e+17
19332.0	5.066473568818517e+17
19333.0	5.0653905638741325e+17
19334.0	5.064330102614698e+17
19335.0	5.063201704116223e+17
19336.0	5.062169489397077e+17
19337.0	5.0610818273771514e+17
19338.0	5.0597735722298016e+17
19339.0	5.058900627117396e+17
19340.0	5.0576418948164256e+17
19341.0	5.0566253262493e+17
19342.0	5.055171056893951e+17
19343.0	5.054480751351125e+17
19344.0	5.053346677959338e+17
19345.0	5.050076130967548e+17
19346.0	5.0500666714139296e+17
19347.0	5.049889071300607e+17
19348.0	5.0488570033821005e+17
19349.0	5.047675046417749e+17
19350.0	5.046522050423466e+17
19351.0	5.0453672089354234e+17
19352.0	5.044136526042453e+17
19353.0	5.0430753286826656e+17
19354.0	5.0419027012485114e+17
19355.0	5.040616697582934e+17
19356.0	5.039526209301162e+17
19357.0	5.038329934381055e+17
19358.0	5.037114278281215e+17
19359.0	5.0358302599195296e+17
19360.0	5.034617030923605e+17
19361.0	5.0334116585581216e+17
19362.0	5.03221155144226e+17
19363.0	5.030958113751039e+17
19364.0	5.029693885513728e+17
19365.0	5.028423782454613e+17
19366.0	5.027139978701483e+17
19367.0	5.025845838086143e+17
19368.0	5.024540752434517e+17
19369.0	5.02316179460369e+17
19370.0	5.0217777183238816e+17
19371.0	5.0204947765002234e+17
19372.0	5.019190770881877e+17
19373.0	5.017797491600042e+17
19374.0	5.016426556074666e+17
19375.0	5.015027747302057e+17
19376.0	5.0136135964644685e+17
19377.0	5.012167476641791e+17
19378.0	5.010719614085802e+17
19379.0	5.009253432208041e+17
19380.0	5.007765518243156e+17
19381.0	5.006254315405311e+17
19382.0	5.004658806358015e+17
19383.0	5.00306255421986e+17
19384.0	5.0016054082710176e+17
19385.0	5.000020062022314e+17
19386.0	4.9984121406313805e+17
19387.0	4.9967790240563194e+17
19388.0	4.9951217007547725e+17
19389.0	4.993438857909588e+17
19390.0	4.991728435418454e+17
19391.0	4.9810409797276883e+17
19392.0	4.987674906940755e+17
19393.0	4.986117266167124e+17
19394.0	4.9842839960070803e+17
19395.0	4.9824155370345805e+17
19396.0	4.9805398512762874e+17
19397.0	4.9786427724704416e+17
19398.0	4.9766591707654816e+17
19399.0	4.9738917081688736e+17
19400.0	4.9726062148102816e+17
19401.0	4.9706508142073165e+17
19402.0	4.968584843362304e+17
19403.0	4.96644824113698e+17
19404.0	4.964312361730047e+17
19405.0	4.9621026080467616e+17
19406.0	4.9598812340442445e+17
19407.0	4.957605302632447e+17
19408.0	4.954418412432043e+17
19409.0	4.952916676138323e+17
19410.0	4.9505451614317216e+17
19411.0	4.9481195192319994e+17
19412.0	4.945640656207871e+17
19413.0	4.94299440550161e+17
19414.0	4.939849806468437e+17
19415.0	4.937235926701395e+17
19416.0	4.9343654177450656e+17
19417.0	4.9316922319175674e+17
19418.0	4.9289861340856314e+17
19419.0	4.9260695395150496e+17
19420.0	4.9221628815824205e+17
19421.0	4.918987141240149e+17
19422.0	4.9158268820739405e+17
19423.0	4.911859871602005e+17
19424.0	4.907820743568043e+17
19425.0	4.903751150206975e+17
19426.0	4.898626441925972e+17
19427.0	4.8928204283794765e+17
19428.0	4.886310182802771e+17
19429.0	4.87797018259183e+17
19430.0	4.8675682674278445e+17
19431.0	4.851068106178562e+17
19432.0	4.832562537037835e+17
19433.0	4.8136711981847866e+17
19434.0	4.8032883545210874e+17
19435.0	4.7918314209061536e+17
19436.0	4.7787637445317965e+17
19437.0	4.766161556209663e+17
19438.0	4.736089793931952e+17
19439.0	4.7355287834023264e+17
19440.0	4.7195466089103334e+17
19441.0	4.7001259209304704e+17
19442.0	4.674273928369495e+17
19443.0	4.626592997310463e+17
19444.0	4.556068670319271e+17
19445.0	4.5090109205599584e+17
19446.0	4.4560968710444365e+17
19447.0	4.397204021531983e+17
19448.0	4.273142174318585e+17
19449.0	4.102632530509823e+17
19450.0	3.6028029358571565e+17
19451.0	3.3976265753668077e+17
19452.0	3.9099765994728346e+17
19453.0	4.190481840515755e+17
19454.0	4.3480584213408326e+17
19455.0	4.4230196515744403e+17
19456.0	4.475950207773356e+17
19457.0	4.524295722805929e+17
19458.0	4.5408551992033696e+17
19459.0	4.640442781357403e+17
19460.0	4.673874945900539e+17
19461.0	4.693600326997334e+17
19462.0	4.710049780509355e+17
19463.0	4.7243929601092243e+17
19464.0	4.737382565107029e+17
19465.0	4.749270569713664e+17
19466.0	4.760415925261651e+17
19467.0	4.770556511518719e+17
19468.0	4.779529277713066e+17
19469.0	4.7902805763031e+17
19470.0	4.8109890945679405e+17
19471.0	4.8261047412326374e+17
19472.0	4.8359948569367885e+17
19473.0	4.843751339982847e+17
19474.0	4.8495825242467e+17
19475.0	4.852884626385576e+17
19476.0	4.856731235865939e+17
19477.0	4.860211124764672e+17
19478.0	4.861801515362985e+17
19479.0	4.864640648129193e+17
19480.0	4.866078401014442e+17
19481.0	4.8673478833165645e+17
19482.0	4.869145562710016e+17
19483.0	4.870779834116778e+17
19484.0	4.871825139258709e+17
19485.0	4.8727403797326496e+17
19486.0	4.873640657027071e+17
19487.0	4.8745498688880634e+17
19488.0	4.875396942834346e+17
19489.0	4.876560172930389e+17
19490.0	4.8758103432232934e+17
19491.0	4.877984844480511e+17
19492.0	4.878611710476287e+17
19493.0	4.879166288341675e+17
19494.0	4.879670493315071e+17
19495.0	4.8801340617741645e+17
19496.0	4.880079148548095e+17
19497.0	4.8809112663053645e+17
19498.0	4.8799143026141856e+17
19499.0	4.8674182231927424e+17
19500.0	4.8818485981784736e+17
19501.0	4.8820744614488736e+17
19502.0	4.8822540244964685e+17
19503.0	4.882426325805739e+17
19504.0	4.8825549937704954e+17
19505.0	4.8826455117441696e+17
19506.0	4.882715483220649e+17
19507.0	4.8827199522515616e+17
19508.0	4.8827455906338125e+17
19509.0	4.8827119711901005e+17
19510.0	4.8824234555037e+17
19511.0	4.8576748340292186e+17
19512.0	4.880040433724072e+17
19513.0	4.87821579823786e+17
19514.0	4.8793995552576806e+17
19515.0	4.8816673042814304e+17
19516.0	4.8819991680996685e+17
19517.0	4.8817142679033165e+17
19518.0	4.8815245770096634e+17
19519.0	4.8812320900164256e+17
19520.0	4.880893397871274e+17
19521.0	4.880623631422804e+17
19522.0	4.880241507958783e+17
19523.0	4.8799165381782176e+17
19524.0	4.879528279845546e+17
19525.0	4.8791309660105376e+17
19526.0	4.878731606054228e+17
19527.0	4.878296072323071e+17
19528.0	4.877844363258538e+17
19529.0	4.877381033874772e+17
19530.0	4.87692555133474e+17
19531.0	4.8764377265165645e+17
19532.0	4.8759366421053446e+17
19533.0	4.875421660566868e+17
19534.0	4.8748924938922656e+17
19535.0	4.874343328077141e+17
19536.0	4.873766619665749e+17
19537.0	4.8732509782234445e+17
19538.0	4.872518316501674e+17
19539.0	4.871500523197782e+17
19540.0	4.8714815635455994e+17
19541.0	4.870904147694932e+17
19542.0	4.8702953843152205e+17
19543.0	4.869662281389396e+17
19544.0	4.8690552439657805e+17
19545.0	4.867854308474879e+17
19546.0	4.8668062113245856e+17
19547.0	4.867138880449194e+17
19548.0	4.8664791045461325e+17
19549.0	4.8657250155233274e+17
19550.0	4.865150707651926e+17
19551.0	4.8644777301770234e+17
19552.0	4.8637948436589216e+17
19553.0	4.8630791646740474e+17
19554.0	4.8623713507082234e+17
19555.0	4.8616971268259834e+17
19556.0	4.861010142472874e+17
19557.0	4.860297505057451e+17
19558.0	4.8595822923393696e+17
19559.0	4.858863150956543e+17
19560.0	4.858109071021396e+17
19561.0	4.8573858716494496e+17
19562.0	4.85667647852817e+17
19563.0	4.855947379867647e+17
19564.0	4.855206918837589e+17
19565.0	4.854462483005439e+17
19566.0	4.8536812694186656e+17
19567.0	4.852960961320276e+17
19568.0	4.8521814876706125e+17
19569.0	4.8514250106907296e+17
19570.0	4.8506869215395834e+17
19571.0	4.849914167863978e+17
19572.0	4.849119791852202e+17
19573.0	4.8483544739785376e+17
19574.0	4.847518902910975e+17
19575.0	4.8468321639246496e+17
19576.0	4.846050421855573e+17
19577.0	4.845238544411306e+17
19578.0	4.8444399524249594e+17
19579.0	4.8436732203717965e+17
19580.0	4.842883832086527e+17
19581.0	4.8421049204735994e+17
19582.0	4.8413306582466554e+17
19583.0	4.840535697129471e+17
19584.0	4.839729091925332e+17
19585.0	4.838826248415914e+17
19586.0	4.837990785701205e+17
19587.0	4.837296710178132e+17
19588.0	4.836007345476949e+17
19589.0	4.8357016729900365e+17
19590.0	4.8348166951185056e+17
19591.0	4.8341475309649914e+17
19592.0	4.833342530082134e+17
19593.0	4.832510509492906e+17
19594.0	4.8314717306879994e+17
19595.0	4.830852989758122e+17
19596.0	4.829769164128255e+17
19597.0	4.8292426545452365e+17
19598.0	4.827934592335871e+17
19599.0	4.827624949241172e+17
19600.0	4.826812406999722e+17
19601.0	4.8259168846479354e+17
19602.0	4.8251049925236045e+17
19603.0	4.8238017901144736e+17
19604.0	4.82345087017506e+17
19605.0	4.8223750332962125e+17
19606.0	4.8218537903609165e+17
19607.0	4.8210342778852685e+17
19608.0	4.8201843371322016e+17
19609.0	4.819317942124543e+17
19610.0	4.818531740811264e+17
19611.0	4.8176845165690874e+17
19612.0	4.8168788914339834e+17
19613.0	4.8160346968773965e+17
19614.0	4.8151704836068685e+17
19615.0	4.814373710550356e+17
19616.0	4.813453645228713e+17
19617.0	4.8126786287261005e+17
19618.0	4.8112034759311334e+17
19619.0	4.810228484101459e+17
19620.0	4.8094308449211725e+17
19621.0	4.809335535654228e+17
19622.0	4.8085157449564154e+17
19623.0	4.8076761690275834e+17
19624.0	4.806826180739071e+17
19625.0	4.8059948906577914e+17
19626.0	4.8051490085928954e+17
19627.0	4.8043108713103354e+17
19628.0	4.803316353597439e+17
19629.0	4.802482937703081e+17
19630.0	4.8013083088868685e+17
19631.0	4.794105280331776e+17
19632.0	4.80008847106594e+17
19633.0	4.799204243974826e+17
19634.0	4.798407233241087e+17
19635.0	4.79752220643601e+17
19636.0	4.7966900509300045e+17
19637.0	4.7955019255425696e+17
19638.0	4.795012097944234e+17
19639.0	4.794164586392234e+17
19640.0	4.793170515372714e+17
19641.0	4.791271242246828e+17
19642.0	4.79162936660241e+17
19643.0	4.790778018660351e+17
19644.0	4.78987567637026e+17
19645.0	4.7887860772809376e+17
19646.0	4.788227063240019e+17
19647.0	4.787401355078314e+17
19648.0	4.786554549567488e+17
19649.0	4.7856980426315085e+17
19650.0	4.7848571986247674e+17
19651.0	4.7840022932138656e+17
19652.0	4.7831500805461325e+17
19653.0	4.7823042061707936e+17
19654.0	4.781452050825214e+17
19655.0	4.7805979688959994e+17
