# Flux units: erg / (cm m2 s)
# Wavelength units: Angstrom
wave	flux
19000.0	5.5261227702900045e+17
19001.0	5.5250024577105914e+17
19002.0	5.5240777506925216e+17
19003.0	5.523045048735062e+17
19004.0	5.5220172471227725e+17
19005.0	5.520999527219199e+17
19006.0	5.5199854186113696e+17
19007.0	5.518860119004501e+17
19008.0	5.517872712034986e+17
19009.0	5.516798663327743e+17
19010.0	5.515424462536702e+17
19011.0	5.5147969401323514e+17
19012.0	5.513246423384062e+17
19013.0	5.512815068577791e+17
19014.0	5.511741718921215e+17
19015.0	5.5107327560253434e+17
19016.0	5.5096923708020045e+17
19017.0	5.5087235285210445e+17
19018.0	5.507671873901908e+17
19019.0	5.5066758804930554e+17
19020.0	5.505638884267349e+17
19021.0	5.5046357067147936e+17
19022.0	5.5036108306295456e+17
19023.0	5.502558183358464e+17
19024.0	5.5015491170030925e+17
19025.0	5.500509982381397e+17
19026.0	5.499452057976831e+17
19027.0	5.498023849929385e+17
19028.0	5.4974854543878816e+17
19029.0	5.496448573505535e+17
19030.0	5.49545156157986e+17
19031.0	5.494433580930388e+17
19032.0	5.493406708356436e+17
19033.0	5.49230145892079e+17
19034.0	5.4913560607020365e+17
19035.0	5.49027912491554e+17
19036.0	5.454007647950165e+17
19037.0	5.488284174822057e+17
19038.0	5.4872639676962125e+17
19039.0	5.4862683182202874e+17
19040.0	5.4852487765906765e+17
19041.0	5.484218873632084e+17
19042.0	5.4830397142685e+17
19043.0	5.482190872423083e+17
19044.0	5.481156462684842e+17
19045.0	5.480134816213673e+17
19046.0	5.479079490879488e+17
19047.0	5.478088234237951e+17
19048.0	5.4768614946897914e+17
19049.0	5.475849447582379e+17
19050.0	5.475002083530068e+17
19051.0	5.469266801328121e+17
19052.0	5.471966154719231e+17
19053.0	5.471974044904106e+17
19054.0	5.470979804714324e+17
19055.0	5.469693179592703e+17
19056.0	5.4689083889636685e+17
19057.0	5.4679176684939936e+17
19058.0	5.466791185394345e+17
19059.0	5.465854734325076e+17
19060.0	5.4648466130862074e+17
19061.0	5.46385846022963e+17
19062.0	5.462836014743551e+17
19063.0	5.461820879929343e+17
19064.0	5.460676777257643e+17
19065.0	5.459623391090004e+17
19066.0	5.45868971455283e+17
19067.0	5.457741460712106e+17
19068.0	5.456738775990271e+17
19069.0	5.4557238984267085e+17
19070.0	5.4546842800619514e+17
19071.0	5.4536779539851936e+17
19072.0	5.452639413556564e+17
19073.0	5.4516561540546554e+17
19074.0	5.4506460286375245e+17
19075.0	5.4496306834090656e+17
19076.0	5.448595505414143e+17
19077.0	5.447583001127593e+17
19078.0	5.4465503306274125e+17
19079.0	5.4455680735641594e+17
19080.0	5.4445390493122554e+17
19081.0	5.443502110408702e+17
19082.0	5.44248431710481e+17
19083.0	5.441417036606121e+17
19084.0	5.440287317600938e+17
19085.0	5.439476233579177e+17
19086.0	5.438060891559253e+17
19087.0	5.4364797969367046e+17
19088.0	5.4362932189156685e+17
19089.0	5.434791375667198e+17
19090.0	5.434385585842858e+17
19091.0	5.4333639086134605e+17
19092.0	5.4320742482138445e+17
19093.0	5.4313790066742605e+17
19094.0	5.4303650148078925e+17
19095.0	5.429352177773226e+17
19096.0	5.4283242517299194e+17
19097.0	5.4273274453251405e+17
19098.0	5.4262823862490445e+17
19099.0	5.4252649173046605e+17
19100.0	5.424236013289471e+17
19101.0	5.4232608292208634e+17
19102.0	5.422157223952382e+17
19103.0	5.4212596051476474e+17
19104.0	5.4202520424502605e+17
19105.0	5.4191634038565536e+17
19106.0	5.418056976520532e+17
19107.0	5.417182883566932e+17
19108.0	5.4161778863854925e+17
19109.0	5.412716685907281e+17
19110.0	5.4141006000073376e+17
19111.0	5.413145719865343e+17
19112.0	5.412141581817173e+17
19113.0	5.4111571674835616e+17
19114.0	5.410134077472767e+17
19115.0	5.4090215152680954e+17
19116.0	5.4081122153267194e+17
19117.0	5.407101528571903e+17
19118.0	5.4058801598300154e+17
19119.0	5.398448311020193e+17
19120.0	5.403816779666772e+17
19121.0	5.4028826899906534e+17
19122.0	5.4020827621184845e+17
19123.0	5.401074406697641e+17
19124.0	5.399921933593257e+17
19125.0	5.399032578266453e+17
19126.0	5.398042052132862e+17
19127.0	5.395225550432938e+17
19128.0	5.3953848375159443e+17
19129.0	5.394957444229802e+17
19130.0	5.3940012163181216e+17
19131.0	5.392992654677332e+17
19132.0	5.3920053539635194e+17
19133.0	5.390792010323285e+17
19134.0	5.3897080350965766e+17
19135.0	5.3889753999387296e+17
19136.0	5.3879854064817485e+17
19137.0	5.38681642459682e+17
19138.0	5.385935656408404e+17
19139.0	5.3849665925283834e+17
19140.0	5.383963246504617e+17
19141.0	5.3829575579620685e+17
19142.0	5.381920111547733e+17
19143.0	5.3808902295606605e+17
19144.0	5.3799034713101645e+17
19145.0	5.378932542362965e+17
19146.0	5.377339622599339e+17
19147.0	5.37681317802803e+17
19148.0	5.3758813204206925e+17
19149.0	5.37487111950609e+17
19150.0	5.373907907379199e+17
19151.0	5.3729111324317005e+17
19152.0	5.3718718139596794e+17
19153.0	5.370834477296298e+17
19154.0	5.3697638057028256e+17
19155.0	5.368888401330174e+17
19156.0	5.367891370530131e+17
19157.0	5.366837230086826e+17
19158.0	5.3641650760581094e+17
19159.0	5.364861021541717e+17
19160.0	5.3638378043037e+17
19161.0	5.362823934072149e+17
19162.0	5.3580393761559917e+17
19163.0	5.3607404086667936e+17
19164.0	5.359869841724756e+17
19165.0	5.358715142143998e+17
19166.0	5.3576287069579936e+17
19167.0	5.3564876661282125e+17
19168.0	5.3558170521436154e+17
19169.0	5.3547550131268256e+17
19170.0	5.3538378111167136e+17
19171.0	5.3525929416895136e+17
19172.0	5.35181674029602e+17
19173.0	5.3508216409729696e+17
19174.0	5.3497795989995514e+17
19175.0	5.348835120032426e+17
19176.0	5.3478380025501005e+17
19177.0	5.3466871491461114e+17
19178.0	5.3457351029555194e+17
19179.0	5.344497570764118e+17
19180.0	5.3437853772458656e+17
19181.0	5.34270657569314e+17
19182.0	5.341798085951487e+17
19183.0	5.340828833327785e+17
19184.0	5.3398111917178874e+17
19185.0	5.338829364570794e+17
19186.0	5.337833568294228e+17
19187.0	5.336763858594474e+17
19188.0	5.33582086021666e+17
19189.0	5.3348084062617594e+17
19190.0	5.3337933832956576e+17
19191.0	5.3327670671660365e+17
19192.0	5.331836641214464e+17
19193.0	5.3308145732157434e+17
19194.0	5.3298067714430285e+17
19195.0	5.328834411539113e+17
19196.0	5.327819712233472e+17
19197.0	5.326820989031764e+17
19198.0	5.325792716958378e+17
19199.0	5.302983914247502e+17
19200.0	5.308516878603613e+17
19201.0	5.322804953437525e+17
19202.0	5.3218393771212794e+17
19203.0	5.3207837847497376e+17
19204.0	5.319816868353364e+17
19205.0	5.318844512643754e+17
19206.0	5.317842434697898e+17
19207.0	5.3167410188561056e+17
19208.0	5.315642727071742e+17
19209.0	5.3148546928476154e+17
19210.0	5.313860462444543e+17
19211.0	5.3128709429439136e+17
19212.0	5.3118727601083725e+17
19213.0	5.310608085876736e+17
19214.0	5.309492949767508e+17
19215.0	5.308787769824596e+17
19216.0	5.307879346492756e+17
19217.0	5.306877906780159e+17
19218.0	5.305047466377215e+17
19219.0	5.3047454093803514e+17
19220.0	5.303853570326526e+17
19221.0	5.3025651647228576e+17
19222.0	5.301878987773268e+17
19223.0	5.300875401975125e+17
19224.0	5.2998523329358496e+17
19225.0	5.298748775202815e+17
19226.0	5.297881975444821e+17
19227.0	5.296882679021567e+17
19228.0	5.2959074977491616e+17
19229.0	5.2949090646534816e+17
19230.0	5.2938859417873056e+17
19231.0	5.2928845475130016e+17
19232.0	5.2919002946600954e+17
19233.0	5.2908445352154445e+17
19234.0	5.2898946819467936e+17
19235.0	5.288892422946815e+17
19236.0	5.2879210962397856e+17
19237.0	5.2869066835449165e+17
19238.0	5.285799710250324e+17
19239.0	5.2849258354005325e+17
19240.0	5.283895651423573e+17
19241.0	5.2828980767621114e+17
19242.0	5.281902130888703e+17
19243.0	5.280754586091519e+17
19244.0	5.2799059931081376e+17
19245.0	5.27890212000017e+17
19246.0	5.277889487088298e+17
19247.0	5.2769071971696634e+17
19248.0	5.27590179803409e+17
19249.0	5.2748911811843405e+17
19250.0	5.2738760309910176e+17
19251.0	5.2727664467421856e+17
19252.0	5.2716595028077216e+17
19253.0	5.2708817460264954e+17
19254.0	5.269901017787051e+17
19255.0	5.2687425664013645e+17
19256.0	5.267842352720553e+17
19257.0	5.26690005688866e+17
19258.0	5.2658999824220154e+17
19259.0	5.264835068209834e+17
19260.0	5.263198271133012e+17
19261.0	5.262879888506879e+17
19262.0	5.2618348769662285e+17
19263.0	5.2608165195284474e+17
19264.0	5.2593262777248403e+17
19265.0	5.258669766388394e+17
19266.0	5.2576217887757645e+17
19267.0	5.2568720282746874e+17
19268.0	5.2558604341521056e+17
19269.0	5.2548579165033805e+17
19270.0	5.253853236690943e+17
19271.0	5.2525039689400314e+17
19272.0	5.251808456168788e+17
19273.0	5.249691862870697e+17
19274.0	5.249013753664851e+17
19275.0	5.248821665726464e+17
19276.0	5.2477939088534176e+17
19277.0	5.2467905656258554e+17
19278.0	5.2457829134499834e+17
19279.0	5.244734184357887e+17
19280.0	5.243686254280704e+17
19281.0	5.2427459395584e+17
19282.0	5.241751272947711e+17
19283.0	5.2403892580078925e+17
19284.0	5.239505442657621e+17
19285.0	5.238534499030356e+17
19286.0	5.2376643752864403e+17
19287.0	5.236681517039615e+17
19288.0	5.224966064002375e+17
19289.0	5.2125233340306477e+17
19290.0	5.2336335946164896e+17
19291.0	5.2323764624424954e+17
19292.0	5.231601333392724e+17
19293.0	5.230575663185919e+17
19294.0	5.229553132415657e+17
19295.0	5.22854199337506e+17
19296.0	5.227479220355071e+17
19297.0	5.2264583106833056e+17
19298.0	5.2254476015588685e+17
19299.0	5.2244073414656e+17
19300.0	5.22341269442833e+17
19301.0	5.222388773246294e+17
19302.0	5.221347003203583e+17
19303.0	5.2202551154223763e+17
19304.0	5.2192678992936954e+17
19305.0	5.2182520150971725e+17
19306.0	5.217213320178346e+17
19307.0	5.2161280244449274e+17
19308.0	5.21511573266978e+17
19309.0	5.213271246940842e+17
19310.0	5.212009797429928e+17
19311.0	5.211908092548437e+17
19312.0	5.2109959810252794e+17
19313.0	5.2099584164713805e+17
19314.0	5.163327231623209e+17
19315.0	5.164913318865611e+17
19316.0	5.206701146548907e+17
19317.0	5.2057658048730445e+17
19318.0	5.2047115127357434e+17
19319.0	5.203674032067924e+17
19320.0	5.2025997156242765e+17
19321.0	5.201529446683989e+17
19322.0	5.200369216214358e+17
19323.0	5.199084219181738e+17
19324.0	5.198350011858942e+17
19325.0	5.196499593286998e+17
19326.0	5.1962288181084154e+17
19327.0	5.195146432522921e+17
19328.0	5.194022505851562e+17
19329.0	5.1930140183101434e+17
19330.0	5.1918959461881165e+17
19331.0	5.190806531648171e+17
19332.0	5.1897508574877005e+17
19333.0	5.188652938297343e+17
19334.0	5.187575525059241e+17
19335.0	5.1863559465861114e+17
19336.0	5.1853676294526285e+17
19337.0	5.1842796815209805e+17
19338.0	5.182971840910676e+17
19339.0	5.1820582564877645e+17
19340.0	5.1808167180369914e+17
19341.0	5.1797365379563514e+17
19342.0	5.178277845008382e+17
19343.0	5.177581927486805e+17
19344.0	5.1764060082230605e+17
19345.0	5.173343597974865e+17
19346.0	5.173196513520297e+17
19347.0	5.172902467644074e+17
19348.0	5.171888079415977e+17
19349.0	5.1706867853120845e+17
19350.0	5.1695092183859194e+17
19351.0	5.168365122005674e+17
19352.0	5.167087058157567e+17
19353.0	5.1660491203106125e+17
19354.0	5.1648680979770016e+17
19355.0	5.1635816790753274e+17
19356.0	5.162475285992788e+17
19357.0	5.161271528434346e+17
19358.0	5.160037576780457e+17
19359.0	5.1587472963229005e+17
19360.0	5.1575183219097594e+17
19361.0	5.1563344677218976e+17
19362.0	5.1551336923135994e+17
19363.0	5.1538793199916365e+17
19364.0	5.1526153420144634e+17
19365.0	5.151346483265534e+17
19366.0	5.1500652555141114e+17
19367.0	5.148774892568574e+17
19368.0	5.147474770176681e+17
19369.0	5.14608926433826e+17
19370.0	5.144703364934315e+17
19371.0	5.1434543005040634e+17
19372.0	5.1421565842445645e+17
19373.0	5.140771731319466e+17
19374.0	5.139420021085523e+17
19375.0	5.138037988130815e+17
19376.0	5.13664233836817e+17
19377.0	5.1352184203946656e+17
19378.0	5.133794695359146e+17
19379.0	5.132357734498303e+17
19380.0	5.130902141840041e+17
19381.0	5.129426873701717e+17
19382.0	5.1278751447995725e+17
19383.0	5.1263248692237645e+17
19384.0	5.124905023919444e+17
19385.0	5.123367982071807e+17
19386.0	5.121810887256746e+17
19387.0	5.1202252648830285e+17
19388.0	5.118627234359978e+17
19389.0	5.117003371817641e+17
19390.0	5.115350277073578e+17
19391.0	5.082324789450028e+17
19392.0	5.110472434341198e+17
19393.0	5.1097416628524365e+17
19394.0	5.1079873036288e+17
19395.0	5.106163728602451e+17
19396.0	5.1043902293715616e+17
19397.0	5.10264962327074e+17
19398.0	5.1007514336733856e+17
19399.0	5.0981800561868794e+17
19400.0	5.0969334985523194e+17
19401.0	5.095097671963989e+17
19402.0	5.0931424922610336e+17
19403.0	5.091131415068672e+17
19404.0	5.0891174417093965e+17
19405.0	5.0870399141587616e+17
19406.0	5.084960766907732e+17
19407.0	5.0825947823909536e+17
19408.0	5.0789551974645754e+17
19409.0	5.0775109972350285e+17
19410.0	5.0752667202355194e+17
19411.0	5.072948631874217e+17
19412.0	5.0705775911239674e+17
19413.0	5.0681309333640525e+17
19414.0	5.0645649144326816e+17
19415.0	5.0617253901981005e+17
19416.0	5.0587838877532154e+17
19417.0	5.0558062534765203e+17
19418.0	5.051744062362966e+17
19419.0	5.0488150924984314e+17
19420.0	5.044605050071722e+17
19421.0	5.040327239576234e+17
19422.0	5.035100426556756e+17
19423.0	5.029895698644988e+17
19424.0	5.0230832324935674e+17
19425.0	5.014818295644159e+17
19426.0	5.004438643146749e+17
19427.0	4.991415332721998e+17
19428.0	4.975313257059664e+17
19429.0	4.963083568371028e+17
19430.0	4.9544738828014944e+17
19431.0	4.94120105043559e+17
19432.0	4.9374957862038163e+17
19433.0	4.927798440012458e+17
19434.0	4.9174321974039885e+17
19435.0	4.905264574627838e+17
19436.0	4.89137514042709e+17
19437.0	4.880878222879402e+17
19438.0	4.8122689801421005e+17
19439.0	4.845998323007491e+17
19440.0	4.825747382337529e+17
19441.0	4.7876440955289626e+17
19442.0	4.7274918824728006e+17
19443.0	4.6889042723908256e+17
19444.0	4.6491724834406374e+17
19445.0	4.604748686688259e+17
19446.0	4.556575270240257e+17
19447.0	4.4731236026941274e+17
19448.0	4.337749259714565e+17
19449.0	4.172157323400554e+17
19450.0	3.662523733289644e+17
19451.0	3.464633431097321e+17
19452.0	3.966574864105473e+17
19453.0	4.27463175202407e+17
19454.0	4.400533715200672e+17
19455.0	4.519852087705587e+17
19456.0	4.5742778035295584e+17
19457.0	4.6182856182988774e+17
19458.0	4.548800142813985e+17
19459.0	4.686438500488574e+17
19460.0	4.743116054943053e+17
19461.0	4.793080941816495e+17
19462.0	4.820048422109178e+17
19463.0	4.837582633085607e+17
19464.0	4.851428480079189e+17
19465.0	4.8636054701342726e+17
19466.0	4.873533192667134e+17
19467.0	4.8840721825792e+17
19468.0	4.8929585642864634e+17
19469.0	4.9007484130208416e+17
19470.0	4.908625445956266e+17
19471.0	4.91562303820049e+17
19472.0	4.922078011938131e+17
19473.0	4.9290091838832595e+17
19474.0	4.942593948035748e+17
19475.0	4.95508764229632e+17
19476.0	4.9648909799478586e+17
19477.0	4.972039212018344e+17
19478.0	4.977315644353197e+17
19479.0	4.9814543053182285e+17
19480.0	4.9855340488949734e+17
19481.0	4.9873197556476576e+17
19482.0	4.9907260408026426e+17
19483.0	4.9919931071856634e+17
19484.0	4.9936207536892576e+17
19485.0	4.9956085084542285e+17
19486.0	4.996392728657918e+17
19487.0	4.9972383688512845e+17
19488.0	4.9986344317528736e+17
19489.0	4.999653747589119e+17
19490.0	4.9989109964690765e+17
19491.0	5.0007879328290125e+17
19492.0	5.0012537480369485e+17
19493.0	5.001632048392874e+17
19494.0	5.0019584568197114e+17
19495.0	5.0030074892997965e+17
19496.0	5.002910195428009e+17
19497.0	5.0035197885808634e+17
19498.0	4.998382476416339e+17
19499.0	4.9549971998201094e+17
19500.0	5.0039619653905056e+17
19501.0	5.004031395102719e+17
19502.0	5.004049241167188e+17
19503.0	5.004090464884053e+17
19504.0	5.0040602763810125e+17
19505.0	5.0040130198568954e+17
19506.0	5.003941833430357e+17
19507.0	5.0038146928913056e+17
19508.0	5.003706668591787e+17
19509.0	5.003550423777279e+17
19510.0	5.0031495168218445e+17
19511.0	4.9226471810880646e+17
19512.0	4.99424711497045e+17
19513.0	4.989380380153153e+17
19514.0	4.9922871824220006e+17
19515.0	5.00184786211089e+17
19516.0	5.002315013903701e+17
19517.0	5.0019482702533965e+17
19518.0	5.001652475352404e+17
19519.0	5.0012582590109005e+17
19520.0	5.000835463380992e+17
19521.0	5.0005124446508365e+17
19522.0	5.0000573326076576e+17
19523.0	4.999642880147456e+17
19524.0	4.999173138371924e+17
19525.0	4.9987353655814816e+17
19526.0	4.9982719411268256e+17
19527.0	4.99777643024657e+17
19528.0	4.9972632068205216e+17
19529.0	4.996745942182571e+17
19530.0	4.9962330256397645e+17
19531.0	4.995691510235136e+17
19532.0	4.995138438124885e+17
19533.0	4.994574114794155e+17
19534.0	4.9939953504747514e+17
19535.0	4.993403174868308e+17
19536.0	4.992777248396627e+17
19537.0	4.992211841537366e+17
19538.0	4.9914116878718285e+17
19539.0	4.990432570944171e+17
19540.0	4.9903127075225594e+17
19541.0	4.989683167657984e+17
19542.0	4.9890367869637965e+17
19543.0	4.988336251513513e+17
19544.0	4.987717704220672e+17
19545.0	4.986525773900457e+17
19546.0	4.9854909831796045e+17
19547.0	4.985693577849513e+17
19548.0	4.984997585529513e+17
19549.0	4.9842164362554016e+17
19550.0	4.983600016173738e+17
19551.0	4.982892920132948e+17
19552.0	4.982176703578111e+17
19553.0	4.981430067833515e+17
19554.0	4.98069226389504e+17
19555.0	4.9799788393485645e+17
19556.0	4.9792607800961696e+17
19557.0	4.9785197814961485e+17
19558.0	4.9777762684108794e+17
19559.0	4.9770261471996576e+17
19560.0	4.976230914850815e+17
19561.0	4.9754896254457165e+17
19562.0	4.9747373399736326e+17
19563.0	4.973990395248639e+17
19564.0	4.973221310889983e+17
19565.0	4.972448540437161e+17
19566.0	4.971642060363093e+17
19567.0	4.970890877992959e+17
19568.0	4.9700852409739936e+17
19569.0	4.9693019602943994e+17
19570.0	4.968534710244691e+17
19571.0	4.967735326233941e+17
19572.0	4.9669213194813434e+17
19573.0	4.9661195496106656e+17
19574.0	4.9652658388773536e+17
19575.0	4.9645467527195296e+17
19576.0	4.963735538674345e+17
19577.0	4.9628925380962976e+17
19578.0	4.962080705391274e+17
19579.0	4.9612867005754016e+17
19580.0	4.960471508931924e+17
19581.0	4.959667157467135e+17
19582.0	4.95886575669521e+17
19583.0	4.958045663308458e+17
19584.0	4.9572021216651936e+17
19585.0	4.9562957766109856e+17
19586.0	4.955430019836585e+17
19587.0	4.954603686723583e+17
19588.0	4.9534361490773325e+17
19589.0	4.953060768656043e+17
19590.0	4.95213348983057e+17
19591.0	4.951410020625065e+17
19592.0	4.9505837210664954e+17
19593.0	4.94972537213201e+17
19594.0	4.9486765535614285e+17
19595.0	4.948021770278228e+17
19596.0	4.945928159668907e+17
19597.0	4.946313739239423e+17
19598.0	4.945096040513536e+17
19599.0	4.9446996766883834e+17
19600.0	4.943865175867392e+17
19601.0	4.9429957826314234e+17
19602.0	4.942156679959893e+17
19603.0	4.940603757079209e+17
19604.0	4.940415103576747e+17
19605.0	4.939380707819519e+17
19606.0	4.938809897997653e+17
19607.0	4.937966583545855e+17
19608.0	4.937094731049642e+17
19609.0	4.9362085696853325e+17
19610.0	4.9353796256180896e+17
19611.0	4.9345094312700576e+17
19612.0	4.933695102954155e+17
19613.0	4.932828628254719e+17
19614.0	4.931943633605972e+17
19615.0	4.9311096836369056e+17
19616.0	4.9299634530549754e+17
19617.0	4.929362105903787e+17
19618.0	4.9279382054065466e+17
19619.0	4.92695359533875e+17
19620.0	4.926120717713407e+17
19621.0	4.9259183006023674e+17
19622.0	4.9251024022186656e+17
19623.0	4.9242370620784634e+17
19624.0	4.923359573136724e+17
19625.0	4.9225115792397645e+17
19626.0	4.9216487081465165e+17
19627.0	4.920779038086483e+17
19628.0	4.919353340329985e+17
19629.0	4.918840450351103e+17
19630.0	4.9162665989242874e+17
19631.0	4.8928053750224256e+17
19632.0	4.916432595495594e+17
19633.0	4.9155076270325754e+17
19634.0	4.9147207364553376e+17
19635.0	4.913809185570815e+17
19636.0	4.9129265690924365e+17
19637.0	4.9117432259106125e+17
19638.0	4.911232795891028e+17
19639.0	4.9103681527043405e+17
19640.0	4.909359113611946e+17
19641.0	4.9075995143045126e+17
19642.0	4.9077633137595725e+17
19643.0	4.906883449443669e+17
19644.0	4.9059721208572576e+17
19645.0	4.904883515817983e+17
19646.0	4.9042399313264634e+17
19647.0	4.903423174508543e+17
19648.0	4.9025567277711354e+17
19649.0	4.9016831996504736e+17
19650.0	4.9008148836515834e+17
19651.0	4.899938212599124e+17
19652.0	4.8990695456768e+17
19653.0	4.898186439163903e+17
19654.0	4.8973213702553594e+17
19655.0	4.896445634532692e+17
