# Flux units: erg / (cm m2 s)
# Wavelength units: Angstrom
wave	flux
19000.0	5.771322597922132e+17
19001.0	5.770193610123946e+17
19002.0	5.769246419539284e+17
19003.0	5.768207677784063e+17
19004.0	5.767168482344959e+17
19005.0	5.766118602615466e+17
19006.0	5.765079428846932e+17
19007.0	5.764037625948842e+17
19008.0	5.7629612417133216e+17
19009.0	5.761817983494826e+17
19010.0	5.760730246676479e+17
19011.0	5.7598372395089914e+17
19012.0	5.758764504317951e+17
19013.0	5.7578095395908256e+17
19014.0	5.756732290629631e+17
19015.0	5.7557030517691725e+17
19016.0	5.7546955988227405e+17
19017.0	5.753670328472915e+17
19018.0	5.752627727258964e+17
19019.0	5.751594881996115e+17
19020.0	5.7505527316698445e+17
19021.0	5.7495315151148365e+17
19022.0	5.748490708363947e+17
19023.0	5.747422161185449e+17
19024.0	5.7463976143530656e+17
19025.0	5.7453789290605216e+17
19026.0	5.744341097469269e+17
19027.0	5.743305010708478e+17
19028.0	5.742273516710569e+17
19029.0	5.741228798771198e+17
19030.0	5.7402144371070285e+17
19031.0	5.739181414285311e+17
19032.0	5.7381352542044154e+17
19033.0	5.7370109039083514e+17
19034.0	5.7359967135115936e+17
19035.0	5.7346938760069114e+17
19036.0	5.7326030147638605e+17
19037.0	5.7327016941540685e+17
19038.0	5.73186597069346e+17
19039.0	5.7308908369565e+17
19040.0	5.7298769723173536e+17
19041.0	5.728844007516842e+17
19042.0	5.727541911005866e+17
19043.0	5.7267907048680083e+17
19044.0	5.7257488851927034e+17
19045.0	5.7247190381581645e+17
19046.0	5.723658381164543e+17
19047.0	5.722607116615679e+17
19048.0	5.721513158246399e+17
19049.0	5.7200981433821856e+17
19050.0	5.71946941092113e+17
19051.0	5.7183017691163296e+17
19052.0	5.717368626653866e+17
19053.0	5.716446354429268e+17
19054.0	5.715443232800767e+17
19055.0	5.714141090152448e+17
19056.0	5.713353105560916e+17
19057.0	5.712364350122666e+17
19058.0	5.711122968259241e+17
19059.0	5.710229004790441e+17
19060.0	5.709280322431657e+17
19061.0	5.7082554987752096e+17
19062.0	5.707224587086506e+17
19063.0	5.70618939511057e+17
19064.0	5.705115990928041e+17
19065.0	5.704016884749653e+17
19066.0	5.7029856151470074e+17
19067.0	5.7020799125203616e+17
19068.0	5.701066853886634e+17
19069.0	5.700041059248809e+17
19070.0	5.698995298325843e+17
19071.0	5.697984136216575e+17
19072.0	5.6968865987078816e+17
19073.0	5.695937518589268e+17
19074.0	5.6949123027653965e+17
19075.0	5.693885566506324e+17
19076.0	5.692854943525547e+17
19077.0	5.6918204883490125e+17
19078.0	5.6907837263052794e+17
19079.0	5.689782183133183e+17
19080.0	5.688749428047871e+17
19081.0	5.6876918720430074e+17
19082.0	5.686701523468287e+17
19083.0	5.6856069226714445e+17
19084.0	5.6844708318194336e+17
19085.0	5.683623727813973e+17
19086.0	5.682191786136916e+17
19087.0	5.681401826727252e+17
19088.0	5.680394547844436e+17
19089.0	5.6793855276264096e+17
19090.0	5.678496087015423e+17
19091.0	5.6774751962180256e+17
19092.0	5.6762755267078816e+17
19093.0	5.6754605210118816e+17
19094.0	5.674440466978132e+17
19095.0	5.6734190770585594e+17
19096.0	5.672394654657194e+17
19097.0	5.671375309460822e+17
19098.0	5.670270002703018e+17
19099.0	5.669227073634303e+17
19100.0	5.6682974047546016e+17
19101.0	5.6672731703978656e+17
19102.0	5.666218816744105e+17
19103.0	5.665245697671167e+17
19104.0	5.6642335988340045e+17
19105.0	5.663022968908458e+17
19106.0	5.662190064020138e+17
19107.0	5.661113729417215e+17
19108.0	5.660065637160276e+17
19109.0	5.6591044508822176e+17
19110.0	5.6580962793117005e+17
19111.0	5.657035714592767e+17
19112.0	5.656010009433428e+17
19113.0	5.655055311743658e+17
19114.0	5.653996029083647e+17
19115.0	5.652976627963221e+17
19116.0	5.651955990921215e+17
19117.0	5.650889879235241e+17
19118.0	5.6493986783341216e+17
19119.0	5.6438908958801875e+17
19120.0	5.6476167876990285e+17
19121.0	5.646843548882259e+17
19122.0	5.645874611530409e+17
19123.0	5.644868464410624e+17
19124.0	5.6438278568891725e+17
19125.0	5.6427907704859296e+17
19126.0	5.6416201584148474e+17
19127.0	5.6401492733242003e+17
19128.0	5.6395652975820794e+17
19129.0	5.638661942367572e+17
19130.0	5.637752412438528e+17
19131.0	5.6367662413905914e+17
19132.0	5.635758490648575e+17
19133.0	5.6347174245498874e+17
19134.0	5.633732430703273e+17
19135.0	5.6327210546845005e+17
19136.0	5.631701006942207e+17
19137.0	5.6306541499077965e+17
19138.0	5.6296665353202336e+17
19139.0	5.628675347185663e+17
19140.0	5.627669729247231e+17
19141.0	5.626659191390207e+17
19142.0	5.625623690433876e+17
19143.0	5.624614645050025e+17
19144.0	5.6235860563066874e+17
19145.0	5.622608533214547e+17
19146.0	5.621048236048383e+17
19147.0	5.6205593675475616e+17
19148.0	5.61950998344499e+17
19149.0	5.6184863971082234e+17
19150.0	5.617561687293951e+17
19151.0	5.616546111378772e+17
19152.0	5.61553402372642e+17
19153.0	5.6143563847980365e+17
19154.0	5.6134729679066445e+17
19155.0	5.612493532211881e+17
19156.0	5.611492344856575e+17
19157.0	5.6104357360653645e+17
19158.0	5.609362752012287e+17
19159.0	5.6084560196840096e+17
19160.0	5.607443288905045e+17
19161.0	5.6064301205203616e+17
19162.0	5.605394388877311e+17
19163.0	5.6044070462204576e+17
19164.0	5.603418426398036e+17
19165.0	5.602251477352446e+17
19166.0	5.6013605239958176e+17
19167.0	5.600395833376767e+17
19168.0	5.599406367003988e+17
19169.0	5.5984042079682554e+17
19170.0	5.597400924159998e+17
19171.0	5.596393066463231e+17
19172.0	5.595390550212607e+17
19173.0	5.5943816642123085e+17
19174.0	5.5933585679100576e+17
19175.0	5.5923656328478714e+17
19176.0	5.591365419270143e+17
19177.0	5.590234148372479e+17
19178.0	5.5893598268293114e+17
19179.0	5.5883528072942925e+17
19180.0	5.587338340772522e+17
19181.0	5.586281457254398e+17
19182.0	5.5853099131426125e+17
19183.0	5.584337622444713e+17
19184.0	5.583336154071039e+17
19185.0	5.582327314907135e+17
19186.0	5.581329838112768e+17
19187.0	5.5802731713003514e+17
19188.0	5.579320368736937e+17
19189.0	5.578317207262547e+17
19190.0	5.577311522914303e+17
19191.0	5.5762787566441805e+17
19192.0	5.575294889667242e+17
19193.0	5.57425734328866e+17
19194.0	5.573218510656853e+17
19195.0	5.5722341892969805e+17
19196.0	5.571181353282217e+17
19197.0	5.5701117519353165e+17
19198.0	5.5689736072724474e+17
19199.0	5.5677046548507296e+17
19200.0	5.566752449276585e+17
19201.0	5.5659863994968723e+17
19202.0	5.5651178667922765e+17
19203.0	5.5641855813659296e+17
19204.0	5.563226529988607e+17
19205.0	5.5622438660778656e+17
19206.0	5.5612642863786656e+17
19207.0	5.5601513382980256e+17
19208.0	5.5591962351588685e+17
19209.0	5.558280430551039e+17
19210.0	5.55729586032913e+17
19211.0	5.5563143931931296e+17
19212.0	5.555312292877652e+17
19213.0	5.5542334829363194e+17
19214.0	5.5532790809449805e+17
19215.0	5.5523065742404256e+17
19216.0	5.55129667531571e+17
19217.0	5.55023155138833e+17
19218.0	5.549086611253929e+17
19219.0	5.5480958537345696e+17
19220.0	5.5472610236607136e+17
19221.0	5.5462410863684256e+17
19222.0	5.545293794421417e+17
19223.0	5.544321071710207e+17
19224.0	5.5433027289524896e+17
19225.0	5.542325788169557e+17
19226.0	5.541347004689066e+17
19227.0	5.5403625001779194e+17
19228.0	5.5393944163669325e+17
19229.0	5.538401229646505e+17
19230.0	5.537403290080596e+17
19231.0	5.536401137336319e+17
19232.0	5.535415698194431e+17
19233.0	5.5343767481221114e+17
19234.0	5.533426872483839e+17
19235.0	5.532408062061225e+17
19236.0	5.5314447276004685e+17
19237.0	5.530445584269312e+17
19238.0	5.529396920188928e+17
19239.0	5.528468023760211e+17
19240.0	5.5274760324164256e+17
19241.0	5.526468910820009e+17
19242.0	5.525480174955179e+17
19243.0	5.5243618959141523e+17
19244.0	5.523511507069609e+17
19245.0	5.522513194909694e+17
19246.0	5.521523061642579e+17
19247.0	5.5205262866950803e+17
19248.0	5.519537796896085e+17
19249.0	5.518540866060287e+17
19250.0	5.517508517822462e+17
19251.0	5.516463155358377e+17
19252.0	5.515303770740052e+17
19253.0	5.5145654299306656e+17
19254.0	5.513592298274815e+17
19255.0	5.512426415281491e+17
19256.0	5.5116008713966925e+17
19257.0	5.510621180548436e+17
19258.0	5.509629160543572e+17
19259.0	5.5085643875396256e+17
19260.0	5.5075859549825696e+17
19261.0	5.506631239117481e+17
19262.0	5.505584927342591e+17
19263.0	5.5045423422068045e+17
19264.0	5.503417888451241e+17
19265.0	5.502511267272021e+17
19266.0	5.5015153549530445e+17
19267.0	5.5006990532171085e+17
19268.0	5.499716630478846e+17
19269.0	5.4987256562537805e+17
19270.0	5.4976990367361696e+17
19271.0	5.4966319289029965e+17
19272.0	5.4957325701611514e+17
19273.0	5.494620874779306e+17
19274.0	5.493451803415892e+17
19275.0	5.492815071019007e+17
19276.0	5.4918139752393376e+17
19277.0	5.490832210307753e+17
19278.0	5.4898410746019834e+17
19279.0	5.488835078477141e+17
19280.0	5.4878427466956794e+17
19281.0	5.486868857967956e+17
19282.0	5.485897827658411e+17
19283.0	5.4849033868410874e+17
19284.0	5.483893652193279e+17
19285.0	5.482883288399871e+17
19286.0	5.4818754020420256e+17
19287.0	5.480852585360041e+17
19288.0	5.479230832552617e+17
19289.0	5.478031713195347e+17
19290.0	5.477879564118698e+17
19291.0	5.476768739753984e+17
19292.0	5.4760269393428474e+17
19293.0	5.4750509660460365e+17
19294.0	5.4740608076130976e+17
19295.0	5.473087440377172e+17
19296.0	5.4720021390513485e+17
19297.0	5.47108821279266e+17
19298.0	5.470103792866645e+17
19299.0	5.4690380307060045e+17
19300.0	5.4681519797917005e+17
19301.0	5.4671699876686496e+17
19302.0	5.46617034940962e+17
19303.0	5.465144383504383e+17
19304.0	5.464201733952852e+17
19305.0	5.46320444170786e+17
19306.0	5.462221823235413e+17
19307.0	5.461207154688e+17
19308.0	5.460224332791807e+17
19309.0	5.4592387426549754e+17
19310.0	5.458228211089407e+17
19311.0	5.457228693766143e+17
19312.0	5.456234845044735e+17
19313.0	5.4551239144243194e+17
19314.0	5.449539780258475e+17
19315.0	5.448809647002967e+17
19316.0	5.4520349353574394e+17
19317.0	5.4512902681395194e+17
19318.0	5.450343802470398e+17
19319.0	5.449386613364053e+17
19320.0	5.448366685858474e+17
19321.0	5.447329888862207e+17
19322.0	5.4464174529795405e+17
19323.0	5.445432910020606e+17
19324.0	5.4444513051716256e+17
19325.0	5.4434682050532685e+17
19326.0	5.442482868671828e+17
19327.0	5.4414927340066125e+17
19328.0	5.44033722142993e+17
19329.0	5.4395188155514874e+17
19330.0	5.4385216316593485e+17
19331.0	5.437499488862207e+17
19332.0	5.4365507030439245e+17
19333.0	5.435550518127273e+17
19334.0	5.4345665183307085e+17
19335.0	5.433231753084928e+17
19336.0	5.4325786985540256e+17
19337.0	5.4315831315660794e+17
19338.0	5.430411960254464e+17
19339.0	5.429577048391679e+17
19340.0	5.428462826640724e+17
19341.0	5.427345894670336e+17
19342.0	5.4264031039105696e+17
19343.0	5.4254881822037325e+17
19344.0	5.4242431757626016e+17
19345.0	5.4226284812697594e+17
19346.0	5.421811076431871e+17
19347.0	5.421245807984639e+17
19348.0	5.420536622481407e+17
19349.0	5.4195497041483085e+17
19350.0	5.4185098096585376e+17
19351.0	5.4175608623595514e+17
19352.0	5.4163765111466656e+17
19353.0	5.415598246155603e+17
19354.0	5.4145975865835514e+17
19355.0	5.413502627872768e+17
19356.0	5.412574675162452e+17
19357.0	5.411564476345002e+17
19358.0	5.410549168865279e+17
19359.0	5.409480065242452e+17
19360.0	5.4083642685303456e+17
19361.0	5.407495839285247e+17
19362.0	5.406487563556181e+17
19363.0	5.40547016102161e+17
19364.0	5.4044483747403085e+17
19365.0	5.403423948144638e+17
19366.0	5.4023968728459936e+17
19367.0	5.401366714034857e+17
19368.0	5.4003323825902925e+17
19369.0	5.3992772285235194e+17
19370.0	5.3982436275869e+17
19371.0	5.3971685918201165e+17
19372.0	5.396175365952852e+17
19373.0	5.3951126076129274e+17
19374.0	5.3940715436113914e+17
19375.0	5.393021268918271e+17
19376.0	5.391964393788756e+17
19377.0	5.390894863745023e+17
19378.0	5.3898288254593696e+17
19379.0	5.3887560609082016e+17
19380.0	5.387671856392874e+17
19381.0	5.3865837364947616e+17
19382.0	5.385425540961621e+17
19383.0	5.384360626749439e+17
19384.0	5.3832949009394336e+17
19385.0	5.3821977360247456e+17
19386.0	5.381086957098324e+17
19387.0	5.379960369840126e+17
19388.0	5.3788184684789754e+17
19389.0	5.37764782215441e+17
19390.0	5.376362914600276e+17
19391.0	5.374159288795135e+17
19392.0	5.3737336242612896e+17
19393.0	5.3729194350564685e+17
19394.0	5.371775001034751e+17
19395.0	5.3705296856132256e+17
19396.0	5.369354052261204e+17
19397.0	5.368122775175167e+17
19398.0	5.3667613544284154e+17
19399.0	5.365274689667071e+17
19400.0	5.364099606467925e+17
19401.0	5.3629575708890445e+17
19402.0	5.36167466541602e+17
19403.0	5.3603190572755616e+17
19404.0	5.3589581699044685e+17
19405.0	5.3575320296488934e+17
19406.0	5.356088715116543e+17
19407.0	5.354486927895209e+17
19408.0	5.352780543120724e+17
19409.0	5.351397587419135e+17
19410.0	5.3499267428734285e+17
19411.0	5.348319898020522e+17
19412.0	5.346635996113578e+17
19413.0	5.3448049048944634e+17
19414.0	5.3430739988206925e+17
19415.0	5.341245430475434e+17
19416.0	5.3392479547118925e+17
19417.0	5.337381475450878e+17
19418.0	5.335291385260715e+17
19419.0	5.333071871432021e+17
19420.0	5.330794012737536e+17
19421.0	5.3283963325644794e+17
19422.0	5.32583733736243e+17
19423.0	5.323218246172671e+17
19424.0	5.320433948338858e+17
19425.0	5.3174766347659936e+17
19426.0	5.314385569032874e+17
19427.0	5.311004822994943e+17
19428.0	5.307381333011113e+17
19429.0	5.303557804086612e+17
19430.0	5.299285263035051e+17
19431.0	5.2946665101503136e+17
19432.0	5.2899194472147616e+17
19433.0	5.2846705595733325e+17
19434.0	5.278898297591124e+17
19435.0	5.2724889459971405e+17
19436.0	5.265487787895467e+17
19437.0	5.2574288472965114e+17
19438.0	5.246676402263379e+17
19439.0	5.2383827819670176e+17
19440.0	5.228414905264809e+17
19441.0	5.216254428883625e+17
19442.0	5.202004476078762e+17
19443.0	5.185495487217664e+17
19444.0	5.166873481401683e+17
19445.0	5.1439968987381754e+17
19446.0	5.1163137114985805e+17
19447.0	5.0818352128109203e+17
19448.0	5.035917834190849e+17
19449.0	4.969431590851926e+17
19450.0	4.844296730225314e+17
19451.0	4.734650782056454e+17
19452.0	4.9195512765262515e+17
19453.0	5.003650815841624e+17
19454.0	5.0557408181398163e+17
19455.0	5.093350090036564e+17
19456.0	5.121834846519296e+17
19457.0	5.1447519580433056e+17
19458.0	5.149738313012577e+17
19459.0	5.1768072402370586e+17
19460.0	5.192700599642793e+17
19461.0	5.204267963689641e+17
19462.0	5.213756534205098e+17
19463.0	5.22213798322722e+17
19464.0	5.2294292103058765e+17
19465.0	5.235843743962453e+17
19466.0	5.241310314583379e+17
19467.0	5.2459762932340045e+17
19468.0	5.25012705406703e+17
19469.0	5.2535147696401043e+17
19470.0	5.2568405905681043e+17
19471.0	5.259671693339306e+17
19472.0	5.262112784558761e+17
19473.0	5.264141878383956e+17
19474.0	5.265766559514623e+17
19475.0	5.267127574811988e+17
19476.0	5.268725566188202e+17
19477.0	5.269935479586815e+17
19478.0	5.270949203716779e+17
19479.0	5.271646260690943e+17
19480.0	5.2724150213891405e+17
19481.0	5.272956729032703e+17
19482.0	5.2734273767778976e+17
19483.0	5.2737479460345165e+17
19484.0	5.2740185855972685e+17
19485.0	5.2741205211654816e+17
19486.0	5.2740280360632314e+17
19487.0	5.274092744387241e+17
19488.0	5.2739405617561594e+17
19489.0	5.2735377778496845e+17
19490.0	5.273143113416703e+17
19491.0	5.2733176314156365e+17
19492.0	5.273146920446634e+17
19493.0	5.2728283204157434e+17
19494.0	5.2724466876852896e+17
19495.0	5.272024321971541e+17
19496.0	5.2713828094661965e+17
19497.0	5.270934978734761e+17
19498.0	5.2697143789486074e+17
19499.0	5.2681815572698445e+17
19500.0	5.269276284594858e+17
19501.0	5.2688899255828474e+17
19502.0	5.268357191652692e+17
19503.0	5.2677648147196576e+17
19504.0	5.2671284269547514e+17
19505.0	5.2664716786401274e+17
19506.0	5.265805001009834e+17
19507.0	5.265096325813589e+17
19508.0	5.2643858498628256e+17
19509.0	5.2635897667693216e+17
19510.0	5.2624432663538336e+17
19511.0	5.255420743166632e+17
19512.0	5.260310954901503e+17
19513.0	5.25978628661794e+17
19514.0	5.2592056145892685e+17
19515.0	5.2589751844208634e+17
19516.0	5.2583692927412896e+17
19517.0	5.25764723422003e+17
19518.0	5.2568695815973536e+17
19519.0	5.256078412830036e+17
19520.0	5.255180551454719e+17
19521.0	5.2545164659042976e+17
19522.0	5.253652895061332e+17
19523.0	5.2528515837678925e+17
19524.0	5.251970938612394e+17
19525.0	5.2512378322943994e+17
19526.0	5.250410019291135e+17
19527.0	5.2495654556357965e+17
19528.0	5.248710771124906e+17
19529.0	5.2478582208157005e+17
19530.0	5.247038713233407e+17
19531.0	5.24618696823057e+17
19532.0	5.2453338831476045e+17
19533.0	5.244509050197332e+17
19534.0	5.2436451179451725e+17
19535.0	5.242759931756543e+17
19536.0	5.241870219214847e+17
19537.0	5.2410071635722214e+17
19538.0	5.239897727522132e+17
19539.0	5.239081566295379e+17
19540.0	5.2383540474893645e+17
19541.0	5.237498411570517e+17
19542.0	5.236635226603519e+17
19543.0	5.235627816299177e+17
19544.0	5.2348098815808845e+17
19545.0	5.233655809048575e+17
19546.0	5.232732639242921e+17
19547.0	5.232164847921834e+17
19548.0	5.2313466237965645e+17
19549.0	5.2303906566307834e+17
19550.0	5.2296009279078394e+17
19551.0	5.228715983590741e+17
19552.0	5.2278306261346976e+17
19553.0	5.2269287123626656e+17
19554.0	5.2260352675894605e+17
19555.0	5.225129166503935e+17
19556.0	5.224256685561173e+17
19557.0	5.223370292112042e+17
19558.0	5.2224754093916154e+17
19559.0	5.221581250188628e+17
19560.0	5.220616946843647e+17
19561.0	5.2197643420084896e+17
19562.0	5.2188389114729805e+17
19563.0	5.217993273376767e+17
19564.0	5.2170937363770016e+17
19565.0	5.2161926747477325e+17
19566.0	5.215283835480746e+17
19567.0	5.214395755921406e+17
19568.0	5.213475596227924e+17
19569.0	5.212580865201493e+17
19570.0	5.21169282408994e+17
19571.0	5.2107906404843514e+17
19572.0	5.2098587626045434e+17
19573.0	5.2089658791690234e+17
19574.0	5.207993382950228e+17
19575.0	5.207181259440126e+17
19576.0	5.206263194102441e+17
19577.0	5.205326733945513e+17
19578.0	5.204453089782442e+17
19579.0	5.2035327860845216e+17
19580.0	5.202632649299285e+17
19581.0	5.201746632638464e+17
19582.0	5.200846151920298e+17
19583.0	5.1999406247553696e+17
19584.0	5.1990326257472845e+17
19585.0	5.198020140335102e+17
19586.0	5.197087450158421e+17
19587.0	5.196256640324947e+17
19588.0	5.1952284759053645e+17
19589.0	5.19441792176401e+17
19590.0	5.193499968274432e+17
19591.0	5.1926704600733005e+17
19592.0	5.1917795787188896e+17
19593.0	5.190845932939945e+17
19594.0	5.1897334000954003e+17
19595.0	5.1890425262243834e+17
19596.0	5.188138511106047e+17
19597.0	5.187211230183423e+17
19598.0	5.186025569648639e+17
19599.0	5.1853851637405e+17
19600.0	5.184511378369195e+17
19601.0	5.183565696335872e+17
19602.0	5.182622244973226e+17
19603.0	5.1816536508552525e+17
19604.0	5.1808123734370976e+17
19605.0	5.179793118418262e+17
19606.0	5.179072514621439e+17
19607.0	5.178184797170346e+17
19608.0	5.1772700089821856e+17
19609.0	5.176346379201193e+17
19610.0	5.175408349675519e+17
19611.0	5.174468302689621e+17
19612.0	5.1736568929102496e+17
19613.0	5.1727394098817696e+17
19614.0	5.1718024890504525e+17
19615.0	5.170918431129598e+17
19616.0	5.1699258896329363e+17
19617.0	5.168925009160874e+17
19618.0	5.1677969007684256e+17
19619.0	5.1667790172869965e+17
19620.0	5.1660237489657165e+17
19621.0	5.1652655823803725e+17
19622.0	5.164554438836223e+17
19623.0	5.1636602607588685e+17
19624.0	5.162738578533034e+17
19625.0	5.1618611846621856e+17
19626.0	5.160944734131541e+17
19627.0	5.160025951567872e+17
19628.0	5.1590798165497165e+17
19629.0	5.1577361544861e+17
19630.0	5.1570159715177805e+17
19631.0	5.1559416928228685e+17
19632.0	5.1553414012381856e+17
19633.0	5.154517521793023e+17
19634.0	5.1536899352821754e+17
19635.0	5.152761409350313e+17
19636.0	5.151764751144276e+17
19637.0	5.1505776400793606e+17
19638.0	5.150092017969833e+17
19639.0	5.1491779141522765e+17
19640.0	5.148023899641172e+17
19641.0	5.146727265512107e+17
19642.0	5.1464351168593894e+17
19643.0	5.145553818091519e+17
19644.0	5.1446080109281274e+17
19645.0	5.143689263316991e+17
19646.0	5.142717657688746e+17
19647.0	5.141984405269161e+17
19648.0	5.1410866480523936e+17
19649.0	5.1401862365402445e+17
19650.0	5.1392900193320954e+17
19651.0	5.1383828990306976e+17
19652.0	5.1374806713849165e+17
19653.0	5.1365853056204794e+17
19654.0	5.1356766963411616e+17
19655.0	5.134774422558036e+17
