# Flux units: erg / (cm m2 s)
# Wavelength units: Angstrom
wave	flux
19000.0	6.431164102694228e+17
19001.0	6.429882044470612e+17
19002.0	6.428792941707263e+17
19003.0	6.427605025335977e+17
19004.0	6.426418402907476e+17
19005.0	6.425227334516736e+17
19006.0	6.424047798364841e+17
19007.0	6.42285925564416e+17
19008.0	6.421617022337023e+17
19009.0	6.420359381254143e+17
19010.0	6.418898043098452e+17
19011.0	6.41808002589218e+17
19012.0	6.416798236104019e+17
19013.0	6.415734775218176e+17
19014.0	6.414498434209108e+17
19015.0	6.413328369494697e+17
19016.0	6.412141634519039e+17
19017.0	6.411000107849044e+17
19018.0	6.409801941297833e+17
19019.0	6.408623019611475e+17
19020.0	6.407425137573887e+17
19021.0	6.406258272414377e+17
19022.0	6.405068642669907e+17
19023.0	6.403850456006653e+17
19024.0	6.402684941413033e+17
19025.0	6.401515179387561e+17
19026.0	6.4003089891328e+17
19027.0	6.399092078237012e+17
19028.0	6.397962386494804e+17
19029.0	6.396769522242899e+17
19030.0	6.395608450815316e+17
19031.0	6.394423904567295e+17
19032.0	6.393234183946239e+17
19033.0	6.391963045593087e+17
19034.0	6.390841128692393e+17
19035.0	6.3895284233885e+17
19036.0	6.384028542304252e+17
19037.0	6.387216133652479e+17
19038.0	6.386101105197055e+17
19039.0	6.384953606537215e+17
19040.0	6.383775099387904e+17
19041.0	6.382586495150761e+17
19042.0	6.38127968494114e+17
19043.0	6.380231505302868e+17
19044.0	6.379038262864553e+17
19045.0	6.377865887088639e+17
19046.0	6.376639634778793e+17
19047.0	6.375466722131967e+17
19048.0	6.374134069417299e+17
19049.0	6.372978603677012e+17
19050.0	6.371893114306559e+17
19051.0	6.370072789166762e+17
19052.0	6.369381502156799e+17
19053.0	6.368407641391101e+17
19054.0	6.367235832545279e+17
19055.0	6.365798794089812e+17
19056.0	6.364845230260223e+17
19057.0	6.36369154150673e+17
19058.0	6.362462798479359e+17
19059.0	6.361315001324884e+17
19060.0	6.360142524885674e+17
19061.0	6.358981168944467e+17
19062.0	6.357797751663274e+17
19063.0	6.356617912123391e+17
19064.0	6.355335487597225e+17
19065.0	6.354094107131903e+17
19066.0	6.353011409769812e+17
19067.0	6.351895912950442e+17
19068.0	6.350730648616959e+17
19069.0	6.34955348714018e+17
19070.0	6.348348325887999e+17
19071.0	6.347192378501801e+17
19072.0	6.346004254512467e+17
19073.0	6.344840293209428e+17
19074.0	6.343667078572714e+17
19075.0	6.342489835307007e+17
19076.0	6.341297626065577e+17
19077.0	6.340119404827988e+17
19078.0	6.338929502453759e+17
19079.0	6.337782665095849e+17
19080.0	6.336594200668841e+17
19081.0	6.335386400500394e+17
19082.0	6.334222911755604e+17
19083.0	6.33297620242705e+17
19084.0	6.331685463392255e+17
19085.0	6.330719301271551e+17
19086.0	6.329165152955049e+17
19087.0	6.328256927454548e+17
19088.0	6.327076920841556e+17
19089.0	6.325807284748287e+17
19090.0	6.32481228329233e+17
19091.0	6.323650289816918e+17
19092.0	6.322406715031551e+17
19093.0	6.321330996292266e+17
19094.0	6.320161017561087e+17
19095.0	6.31898832371712e+17
19096.0	6.317802908549119e+17
19097.0	6.316638966120447e+17
19098.0	6.315450841432063e+17
19099.0	6.314274651635711e+17
19100.0	6.313108635123711e+17
19101.0	6.311945065988095e+17
19102.0	6.310682909736959e+17
19103.0	6.309604268965887e+17
19104.0	6.308436333559807e+17
19105.0	6.307219469500415e+17
19106.0	6.306075900903423e+17
19107.0	6.304892545138688e+17
19108.0	6.303714656649215e+17
19109.0	6.302326072890707e+17
19110.0	6.301348039491583e+17
19111.0	6.30021968433425e+17
19112.0	6.299052469649407e+17
19113.0	6.297898602637993e+17
19114.0	6.29671769285154e+17
19115.0	6.295508120589652e+17
19116.0	6.294363769055914e+17
19117.0	6.293191091290111e+17
19118.0	6.291908995317759e+17
19119.0	6.285836059060899e+17
19120.0	6.289627922388308e+17
19121.0	6.288505603533481e+17
19122.0	6.287373270777855e+17
19123.0	6.286206517466454e+17
19124.0	6.285009696587775e+17
19125.0	6.283860384590505e+17
19126.0	6.282641593947476e+17
19127.0	6.280010130959018e+17
19128.0	6.280280693626198e+17
19129.0	6.279110162644991e+17
19130.0	6.278018864862548e+17
19131.0	6.276866867811668e+17
19132.0	6.275698741564758e+17
19133.0	6.274482231924052e+17
19134.0	6.273357427245055e+17
19135.0	6.272200284482218e+17
19136.0	6.271034453218643e+17
19137.0	6.269742412551507e+17
19138.0	6.268688845329748e+17
19139.0	6.267542484025344e+17
19140.0	6.266380416450559e+17
19141.0	6.265215775670271e+17
19142.0	6.264026174586877e+17
19143.0	6.262841707331583e+17
19144.0	6.261681147609087e+17
19145.0	6.260556658900991e+17
19146.0	6.258797853715114e+17
19147.0	6.258155880535379e+17
19148.0	6.257048173936639e+17
19149.0	6.255876545445887e+17
19150.0	6.254733524205568e+17
19151.0	6.253568242395818e+17
19152.0	6.252403836496554e+17
19153.0	6.251191607143082e+17
19154.0	6.249978213870249e+17
19155.0	6.248912526508032e+17
19156.0	6.247749579527508e+17
19157.0	6.246548281928362e+17
19158.0	6.245262535513427e+17
19159.0	6.244230840188927e+17
19160.0	6.243086854957738e+17
19161.0	6.241916584722431e+17
19162.0	6.240383247144276e+17
19163.0	6.239533553156095e+17
19164.0	6.238451937924435e+17
19165.0	6.23725094441233e+17
19166.0	6.236026535499091e+17
19167.0	6.234939680183636e+17
19168.0	6.233810271556948e+17
19169.0	6.232651277707946e+17
19170.0	6.231498500516521e+17
19171.0	6.230323631925929e+17
19172.0	6.229178297526954e+17
19173.0	6.228021932807508e+17
19174.0	6.226816666697727e+17
19175.0	6.22570100560145e+17
19176.0	6.224541328779946e+17
19177.0	6.223239746071208e+17
19178.0	6.222202245829971e+17
19179.0	6.221009257147049e+17
19180.0	6.219865761251328e+17
19181.0	6.218610092889428e+17
19182.0	6.217543853277184e+17
19183.0	6.216405513579178e+17
19184.0	6.215243874522452e+17
19185.0	6.214078697570304e+17
19186.0	6.21292941283601e+17
19187.0	6.211707094783316e+17
19188.0	6.210611018989567e+17
19189.0	6.209457477036713e+17
19190.0	6.208296337102164e+17
19191.0	6.207106856954538e+17
19192.0	6.205979773370365e+17
19193.0	6.204808668468566e+17
19194.0	6.203635367848618e+17
19195.0	6.202486696181759e+17
19196.0	6.201293539027625e+17
19197.0	6.200096495151785e+17
19198.0	6.198734927604393e+17
19199.0	6.195072308259497e+17
19200.0	6.194397906119338e+17
19201.0	6.195299266243242e+17
19202.0	6.194326819657043e+17
19203.0	6.193208939773951e+17
19204.0	6.192061559253674e+17
19205.0	6.190922571535699e+17
19206.0	6.189775315446441e+17
19207.0	6.188512344801279e+17
19208.0	6.187288100863999e+17
19209.0	6.186313135598249e+17
19210.0	6.185164429677908e+17
19211.0	6.184018245233324e+17
19212.0	6.182860565599572e+17
19213.0	6.181605861228544e+17
19214.0	6.180443397292031e+17
19215.0	6.179379534452051e+17
19216.0	6.178234992077482e+17
19217.0	6.177048276675241e+17
19218.0	6.175260574132905e+17
19219.0	6.174585129708201e+17
19220.0	6.173585695571967e+17
19221.0	6.172210699261268e+17
19222.0	6.171271174466218e+17
19223.0	6.170133354861908e+17
19224.0	6.168950417129471e+17
19225.0	6.167729070058154e+17
19226.0	6.166669021238612e+17
19227.0	6.165516504094036e+17
19228.0	6.164388620096852e+17
19229.0	6.163232569950207e+17
19230.0	6.162075766226944e+17
19231.0	6.16091013559091e+17
19232.0	6.159760277635071e+17
19233.0	6.158546816554324e+17
19234.0	6.157440689810089e+17
19235.0	6.156273607944874e+17
19236.0	6.15514666766609e+17
19237.0	6.153979277519529e+17
19238.0	6.152750123450367e+17
19239.0	6.151683604916906e+17
19240.0	6.150524373390676e+17
19241.0	6.149351123102378e+17
19242.0	6.14820226408994e+17
19243.0	6.14690591028019e+17
19244.0	6.145908153166505e+17
19245.0	6.144745970947411e+17
19246.0	6.143582689820671e+17
19247.0	6.142438279566676e+17
19248.0	6.14128442024482e+17
19249.0	6.140126542779731e+17
19250.0	6.138944436917588e+17
19251.0	6.137712709642921e+17
19252.0	6.136369149640703e+17
19253.0	6.135477613275818e+17
19254.0	6.134343883816959e+17
19255.0	6.13299690545698e+17
19256.0	6.132009930500778e+17
19257.0	6.130872457625599e+17
19258.0	6.12971384545826e+17
19259.0	6.12848103465506e+17
19260.0	6.127287042135379e+17
19261.0	6.126222448088404e+17
19262.0	6.125017783162195e+17
19263.0	6.123829351590569e+17
19264.0	6.122279675101183e+17
19265.0	6.12140716409924e+17
19266.0	6.120225865640618e+17
19267.0	6.119278003268266e+17
19268.0	6.118109218515625e+17
19269.0	6.11690578182144e+17
19270.0	6.115727573865812e+17
19271.0	6.11429720854801e+17
19272.0	6.113384640544767e+17
19273.0	6.11191767573026e+17
19274.0	6.110649711067133e+17
19275.0	6.109933414820521e+17
19276.0	6.108753561998676e+17
19277.0	6.107594628967082e+17
19278.0	6.106433057019219e+17
19279.0	6.105246050811904e+17
19280.0	6.104032820417876e+17
19281.0	6.10292198347025e+17
19282.0	6.101770929438719e+17
19283.0	6.100577707971924e+17
19284.0	6.099386601832447e+17
19285.0	6.098137211644585e+17
19286.0	6.097045803412137e+17
19287.0	6.095897015702868e+17
19288.0	6.093370187317245e+17
19289.0	6.090649883377659e+17
19290.0	6.092378216245929e+17
19291.0	6.090988797121878e+17
19292.0	6.090067393118205e+17
19293.0	6.088891123630079e+17
19294.0	6.087709997137919e+17
19295.0	6.086545557684223e+17
19296.0	6.085341042354857e+17
19297.0	6.084169026590036e+17
19298.0	6.082983337394176e+17
19299.0	6.081805916569599e+17
19300.0	6.080641701511167e+17
19301.0	6.079459525743956e+17
19302.0	6.078264427326121e+17
19303.0	6.077021725655039e+17
19304.0	6.075879880916991e+17
19305.0	6.074698170018474e+17
19306.0	6.073515469264211e+17
19307.0	6.072283844749996e+17
19308.0	6.071105408903849e+17
19309.0	6.06983927435537e+17
19310.0	6.068589720589652e+17
19311.0	6.067415339237375e+17
19312.0	6.066256095128233e+17
19313.0	6.065050880049151e+17
19314.0	6.057941738891941e+17
19315.0	6.057266546824541e+17
19316.0	6.061396624146431e+17
19317.0	6.060242186709673e+17
19318.0	6.059038069839188e+17
19319.0	6.05784836739345e+17
19320.0	6.056626602289834e+17
19321.0	6.055397209844393e+17
19322.0	6.054133675764393e+17
19323.0	6.052927178626388e+17
19324.0	6.051705244352512e+17
19325.0	6.050430271706452e+17
19326.0	6.049255036813311e+17
19327.0	6.048025909308074e+17
19328.0	6.046768392656212e+17
19329.0	6.045572978267476e+17
19330.0	6.044304754955604e+17
19331.0	6.042937407657299e+17
19332.0	6.04172371239458e+17
19333.0	6.040468684363092e+17
19334.0	6.039222585305769e+17
19335.0	6.037891946556074e+17
19336.0	6.036703448574634e+17
19337.0	6.035436143116287e+17
19338.0	6.03397053096482e+17
19339.0	6.032892738841257e+17
19340.0	6.031500981392724e+17
19341.0	6.030247261285033e+17
19342.0	6.028731518812159e+17
19343.0	6.027626693001215e+17
19344.0	6.026208653344767e+17
19345.0	6.023256127569915e+17
19346.0	6.022734886032724e+17
19347.0	6.022240362911062e+17
19348.0	6.021034366293334e+17
19349.0	6.019680091941545e+17
19350.0	6.018346655591082e+17
19351.0	6.016959462943401e+17
19352.0	6.015345884834474e+17
19353.0	6.01410110558481e+17
19354.0	6.01274547507473e+17
19355.0	6.011285003741865e+17
19356.0	6.010002135318527e+17
19357.0	6.008620371498324e+17
19358.0	6.007083286309545e+17
19359.0	6.005443683243348e+17
19360.0	6.004004830052351e+17
19361.0	6.002578236112895e+17
19362.0	6.0011374982813e+17
19363.0	5.999696800295593e+17
19364.0	5.998020859876692e+17
19365.0	5.996337444509012e+17
19366.0	5.994861359879508e+17
19367.0	5.993373196353535e+17
19368.0	5.99185343783458e+17
19369.0	5.990036252830377e+17
19370.0	5.988512077010262e+17
19371.0	5.986949474374995e+17
19372.0	5.985441200559444e+17
19373.0	5.983843341303807e+17
19374.0	5.982256884263594e+17
19375.0	5.980604761199955e+17
19376.0	5.978837088556374e+17
19377.0	5.977171598944938e+17
19378.0	5.975473416830976e+17
19379.0	5.973770047062015e+17
19380.0	5.972049913359017e+17
19381.0	5.9702981441181e+17
19382.0	5.968453659787263e+17
19383.0	5.96664504094993e+17
19384.0	5.964685487986004e+17
19385.0	5.962770347109033e+17
19386.0	5.960895979061247e+17
19387.0	5.958984384468308e+17
19388.0	5.957034665749161e+17
19389.0	5.955037517141332e+17
19390.0	5.952736386351104e+17
19391.0	5.94655829330056e+17
19392.0	5.948110376621395e+17
19393.0	5.946184035554643e+17
19394.0	5.94393849537058e+17
19395.0	5.941036224348159e+17
19396.0	5.938722418371241e+17
19397.0	5.936338259935231e+17
19398.0	5.933418483286015e+17
19399.0	5.9298294530048e+17
19400.0	5.92765855605282e+17
19401.0	5.924514544921257e+17
19402.0	5.921166260699135e+17
19403.0	5.918340850297513e+17
19404.0	5.914160370024449e+17
19405.0	5.911041742820692e+17
19406.0	5.906734673559551e+17
19407.0	5.903079316652031e+17
19408.0	5.897658086457343e+17
19409.0	5.894052317407914e+17
19410.0	5.889479118858922e+17
19411.0	5.885780531260074e+17
19412.0	5.882056020066304e+17
19413.0	5.878158193240746e+17
19414.0	5.873556381848916e+17
19415.0	5.869329148368212e+17
19416.0	5.864792359873193e+17
19417.0	5.859751957102591e+17
19418.0	5.854455972320596e+17
19419.0	5.849310568644605e+17
19420.0	5.842787310938793e+17
19421.0	5.837018133867177e+17
19422.0	5.829842286499155e+17
19423.0	5.823266092482559e+17
19424.0	5.81475157147648e+17
19425.0	5.806608584714924e+17
19426.0	5.796738163365203e+17
19427.0	5.785929256708778e+17
19428.0	5.774917146509312e+17
19429.0	5.7629082243126566e+17
19430.0	5.7489222931578906e+17
19431.0	5.7327039367086106e+17
19432.0	5.7197933195427834e+17
19433.0	5.70656913690897e+17
19434.0	5.6939202792652794e+17
19435.0	5.678268836828499e+17
19436.0	5.661388075346599e+17
19437.0	5.642753281097728e+17
19438.0	5.6138458541151565e+17
19439.0	5.594800462670508e+17
19440.0	5.566927894216702e+17
19441.0	5.534974725150036e+17
19442.0	5.499469862797312e+17
19443.0	5.4565702146020685e+17
19444.0	5.408998709439143e+17
19445.0	5.351836113087148e+17
19446.0	5.2830176423881376e+17
19447.0	5.1957797179009645e+17
19448.0	5.0799970576848256e+17
19449.0	4.909937922670592e+17
19450.0	4.601275325524643e+17
19451.0	4.3864643558441286e+17
19452.0	4.7842899686413677e+17
19453.0	5.0035325609356006e+17
19454.0	5.1390444400366874e+17
19455.0	5.236031346791764e+17
19456.0	5.310969231529304e+17
19457.0	5.370478743693991e+17
19458.0	5.406842510027458e+17
19459.0	5.463303971842734e+17
19460.0	5.5001611861579085e+17
19461.0	5.5320123029149005e+17
19462.0	5.560623259014486e+17
19463.0	5.585056247229094e+17
19464.0	5.606118562026838e+17
19465.0	5.624240126558207e+17
19466.0	5.640557514020179e+17
19467.0	5.654200729294164e+17
19468.0	5.665870505661781e+17
19469.0	5.676366399799296e+17
19470.0	5.688132450822828e+17
19471.0	5.700396084712787e+17
19472.0	5.7128062591959014e+17
19473.0	5.723276232534702e+17
19474.0	5.733438262170965e+17
19475.0	5.7413607131272486e+17
19476.0	5.749411105035604e+17
19477.0	5.7567168108516685e+17
19478.0	5.762899054166013e+17
19479.0	5.767753078844073e+17
19480.0	5.772940812834132e+17
19481.0	5.77686173070131e+17
19482.0	5.781002400737961e+17
19483.0	5.784559995409748e+17
19484.0	5.787417649523369e+17
19485.0	5.790818690400255e+17
19486.0	5.79318434636322e+17
19487.0	5.795363943699795e+17
19488.0	5.797583014330367e+17
19489.0	5.799452758157994e+17
19490.0	5.800108655028905e+17
19491.0	5.802685106225151e+17
19492.0	5.804828371801428e+17
19493.0	5.806686414219946e+17
19494.0	5.809549971117395e+17
19495.0	5.810979065561087e+17
19496.0	5.812903138907476e+17
19497.0	5.814346398913876e+17
19498.0	5.815166139979091e+17
19499.0	5.810913165355688e+17
19500.0	5.817762144321535e+17
19501.0	5.819409737536852e+17
19502.0	5.819966589414058e+17
19503.0	5.820373778737834e+17
19504.0	5.821533581388457e+17
19505.0	5.821777756291072e+17
19506.0	5.821954816737279e+17
19507.0	5.822280487665663e+17
19508.0	5.822745180198228e+17
19509.0	5.822724789589331e+17
19510.0	5.822448187823444e+17
19511.0	5.812389819711479e+17
19512.0	5.821634980085757e+17
19513.0	5.820622808547324e+17
19514.0	5.821043982379688e+17
19515.0	5.821840965850452e+17
19516.0	5.821939580927999e+17
19517.0	5.821593376784383e+17
19518.0	5.821431660500308e+17
19519.0	5.821198318086825e+17
19520.0	5.82076280742434e+17
19521.0	5.820389533242708e+17
19522.0	5.819912471008596e+17
19523.0	5.819466053757609e+17
19524.0	5.818953389572095e+17
19525.0	5.818459146769748e+17
19526.0	5.817951720570879e+17
19527.0	5.817512755199999e+17
19528.0	5.816971717246976e+17
19529.0	5.816377525578409e+17
19530.0	5.81578173588002e+17
19531.0	5.815154371461119e+17
19532.0	5.814511367880703e+17
19533.0	5.81389340848947e+17
19534.0	5.813437699457023e+17
19535.0	5.812741638630057e+17
19536.0	5.812016100933631e+17
19537.0	5.811340026664275e+17
19538.0	5.810671779665236e+17
19539.0	5.809837537492991e+17
19540.0	5.809518697687721e+17
19541.0	5.808795506005334e+17
19542.0	5.808070671553875e+17
19543.0	5.807307014624595e+17
19544.0	5.806686829456042e+17
19545.0	5.805585568803497e+17
19546.0	5.80450385989905e+17
19547.0	5.804455330403667e+17
19548.0	5.803654762201087e+17
19549.0	5.802740022946473e+17
19550.0	5.802005285044224e+17
19551.0	5.801268391968767e+17
19552.0	5.800555702124544e+17
19553.0	5.799684961817942e+17
19554.0	5.798818926821376e+17
19555.0	5.797977082473129e+17
19556.0	5.797125289934848e+17
19557.0	5.796249352186537e+17
19558.0	5.795372663657812e+17
19559.0	5.794492631569748e+17
19560.0	5.793660186656768e+17
19561.0	5.792845389277865e+17
19562.0	5.791966364521812e+17
19563.0	5.791075894908244e+17
19564.0	5.79017043485218e+17
19565.0	5.789260596641791e+17
19566.0	5.788320586006527e+17
19567.0	5.787427541090303e+17
19568.0	5.786483294207999e+17
19569.0	5.785563516895231e+17
19570.0	5.784656668524543e+17
19571.0	5.783723688940884e+17
19572.0	5.782754302099455e+17
19573.0	5.781851856349866e+17
19574.0	5.78092739330048e+17
19575.0	5.780077630106282e+17
19576.0	5.77912766079522e+17
19577.0	5.778162879998634e+17
19578.0	5.777198598324223e+17
19579.0	5.776250781390163e+17
19580.0	5.775311180398591e+17
19581.0	5.77442048708881e+17
19582.0	5.77347457786402e+17
19583.0	5.772512642203648e+17
19584.0	5.77154694844689e+17
19585.0	5.77047052296738e+17
19586.0	5.76947482455791e+17
19587.0	5.768634718748671e+17
19588.0	5.767302199552682e+17
19589.0	5.766690855976959e+17
19590.0	5.765658217633108e+17
19591.0	5.764770291165865e+17
19592.0	5.7637993356547405e+17
19593.0	5.762802102829055e+17
19594.0	5.761602215914153e+17
19595.0	5.760834076672e+17
19596.0	5.7598289774291616e+17
19597.0	5.7589391103972685e+17
19598.0	5.757594378087081e+17
19599.0	5.756970231398399e+17
19600.0	5.755993366811988e+17
19601.0	5.754940200845311e+17
19602.0	5.75393453257523e+17
19603.0	5.752651870371839e+17
19604.0	5.7519625959287456e+17
19605.0	5.750758081298432e+17
19606.0	5.750032113685845e+17
19607.0	5.7490475413667834e+17
19608.0	5.74803554668817e+17
19609.0	5.7470073242473805e+17
19610.0	5.746041000645972e+17
19611.0	5.745032536872275e+17
19612.0	5.744059124897108e+17
19613.0	5.743048164813481e+17
19614.0	5.7420177571403085e+17
19615.0	5.741051373420543e+17
19616.0	5.740000671607466e+17
19617.0	5.739005412900863e+17
19618.0	5.7374918325917e+17
19619.0	5.736348563887443e+17
19620.0	5.7354418728031565e+17
19621.0	5.7349831669405e+17
19622.0	5.734020074351274e+17
19623.0	5.733016459892053e+17
19624.0	5.732000560316415e+17
19625.0	5.731001307234302e+17
19626.0	5.729990129745919e+17
19627.0	5.7289691061288954e+17
19628.0	5.727890933721769e+17
19629.0	5.7267429128710816e+17
19630.0	5.725266601749162e+17
19631.0	5.7221226786979834e+17
19632.0	5.7237965701993805e+17
19633.0	5.722855728392874e+17
19634.0	5.7219045560156154e+17
19635.0	5.720862346969087e+17
19636.0	5.7198568045281274e+17
19637.0	5.718512332264789e+17
19638.0	5.7178624744925856e+17
19639.0	5.716848748265471e+17
19640.0	5.715731376592211e+17
19641.0	5.713954651242497e+17
19642.0	5.7138092878506656e+17
19643.0	5.7127960740276896e+17
19644.0	5.711720443368788e+17
19645.0	5.710548259831806e+17
19646.0	5.709732111187967e+17
19647.0	5.708756014159188e+17
19648.0	5.707743416199849e+17
19649.0	5.7067275194204154e+17
19650.0	5.7057152178585594e+17
19651.0	5.7046942529617914e+17
19652.0	5.703677939548158e+17
19653.0	5.7026693890921805e+17
19654.0	5.7016474273491616e+17
19655.0	5.700629169176575e+17
19656.0	5.699636075429887e+17
19657.0	5.6986464294010874e+17
19658.0	5.6976307905713485e+17
19659.0	5.6966139556659194e+17
19660.0	5.6955993793931936e+17
19661.0	5.694583276393814e+17
19662.0	5.693565461419349e+17
19663.0	5.692512070358356e+17
19664.0	5.691517486235647e+17
