# Flux units: erg / (cm m2 s)
# Wavelength units: Angstrom
wave	flux
19000.0	7.808918793224191e+17
19001.0	7.807206198782634e+17
19002.0	7.806034814959616e+17
19003.0	7.80457057644271e+17
19004.0	7.80311574155537e+17
19005.0	7.801671743351464e+17
19006.0	7.800219281042088e+17
19007.0	7.798237065554604e+17
19008.0	7.797145918767101e+17
19009.0	7.795691402646867e+17
19010.0	7.793176168016552e+17
19011.0	7.792866056557906e+17
19012.0	7.790574006435837e+17
19013.0	7.790040942553769e+17
19014.0	7.788415068143616e+17
19015.0	7.787037844657494e+17
19016.0	7.785560995266557e+17
19017.0	7.784046576096594e+17
19018.0	7.782689615293097e+17
19019.0	7.781291968342696e+17
19020.0	7.779741671096317e+17
19021.0	7.778362111382868e+17
19022.0	7.77694376554223e+17
19023.0	7.775374550586708e+17
19024.0	7.773978799461715e+17
19025.0	7.772494021438121e+17
19026.0	7.770978001442131e+17
19027.0	7.768938502946815e+17
19028.0	7.768198961867433e+17
19029.0	7.766691600313002e+17
19030.0	7.765313091971754e+17
19031.0	7.763871908145833e+17
19032.0	7.762407355056127e+17
19033.0	7.76069428945442e+17
19034.0	7.759433971007487e+17
19035.0	7.75789524444774e+17
19036.0	7.707812322869233e+17
19037.0	7.755049420368552e+17
19038.0	7.753577569189887e+17
19039.0	7.752174659786066e+17
19040.0	7.750731211035987e+17
19041.0	7.74924862104098e+17
19042.0	7.747553740543314e+17
19043.0	7.746355534146217e+17
19044.0	7.744854114522451e+17
19045.0	7.743400858091517e+17
19046.0	7.741791491063807e+17
19047.0	7.740474323020458e+17
19048.0	7.738464960599378e+17
19049.0	7.737383466303487e+17
19050.0	7.735972190661288e+17
19051.0	7.726666261812552e+17
19052.0	7.732071366306473e+17
19053.0	7.731592449490943e+17
19054.0	7.730260386075987e+17
19055.0	7.728095301730303e+17
19056.0	7.727265981573802e+17
19057.0	7.725847697249619e+17
19058.0	7.724247269681833e+17
19059.0	7.722945486345556e+17
19060.0	7.72141976073011e+17
19061.0	7.720035037828434e+17
19062.0	7.718551671887187e+17
19063.0	7.717101545805139e+17
19064.0	7.715273816320681e+17
19065.0	7.713655637060264e+17
19066.0	7.712534398937768e+17
19067.0	7.711210454297258e+17
19068.0	7.70978256921122e+17
19069.0	7.708319737184255e+17
19070.0	7.706772905831081e+17
19071.0	7.705348155288233e+17
19072.0	7.703927762627242e+17
19073.0	7.702444922372093e+17
19074.0	7.701008328512854e+17
19075.0	7.699544249379497e+17
19076.0	7.698019998760957e+17
19077.0	7.696586712809472e+17
19078.0	7.695016889679871e+17
19079.0	7.693676194387284e+17
19080.0	7.692174658721108e+17
19081.0	7.690630588618068e+17
19082.0	7.689149554709842e+17
19083.0	7.687480154608978e+17
19084.0	7.685654004979028e+17
19085.0	7.684849832471212e+17
19086.0	7.682242096660479e+17
19087.0	7.680389952132436e+17
19088.0	7.680153165496317e+17
19089.0	7.677665785238868e+17
19090.0	7.677439952726697e+17
19091.0	7.676009114850644e+17
19092.0	7.674097742555816e+17
19093.0	7.673163198496765e+17
19094.0	7.671697315812691e+17
19095.0	7.670235674968063e+17
19096.0	7.668724470033068e+17
19097.0	7.667313782991528e+17
19098.0	7.665847325687808e+17
19099.0	7.664377999480147e+17
19100.0	7.662841883175594e+17
19101.0	7.661436626359634e+17
19102.0	7.659755736662012e+17
19103.0	7.658518657455446e+17
19104.0	7.657074607521791e+17
19105.0	7.655592997595817e+17
19106.0	7.653841829538476e+17
19107.0	7.652612157472767e+17
19108.0	7.651191879456083e+17
19109.0	7.644563883687927e+17
19110.0	7.648128055028393e+17
19111.0	7.646795942679894e+17
19112.0	7.645354219186858e+17
19113.0	7.643888480507219e+17
19114.0	7.642412897796092e+17
19115.0	7.640731120304128e+17
19116.0	7.6394310678173e+17
19117.0	7.63795505169476e+17
19118.0	7.63608200834799e+17
19119.0	7.628281303356748e+17
19120.0	7.633155638252883e+17
19121.0	7.63186583245073e+17
19122.0	7.630710582717098e+17
19123.0	7.629224633084585e+17
19124.0	7.627482696690344e+17
19125.0	7.626261181147817e+17
19126.0	7.62480126136593e+17
19127.0	7.618805457660582e+17
19128.0	7.618608568642214e+17
19129.0	7.620200206346921e+17
19130.0	7.618935882339667e+17
19131.0	7.617401856196607e+17
19132.0	7.616044884208298e+17
19133.0	7.613265910344365e+17
19134.0	7.61158383365871e+17
19135.0	7.611630921711615e+17
19136.0	7.610198713696256e+17
19137.0	7.608285944698196e+17
19138.0	7.607049867930281e+17
19139.0	7.605788791712424e+17
19140.0	7.604339010961407e+17
19141.0	7.602690118210899e+17
19142.0	7.60078518976512e+17
19143.0	7.599244012333738e+17
19144.0	7.59782552248866e+17
19145.0	7.596441558756008e+17
19146.0	7.593288206909443e+17
19147.0	7.593294160024918e+17
19148.0	7.592037880692735e+17
19149.0	7.590570903295314e+17
19150.0	7.589114868837033e+17
19151.0	7.587662013661183e+17
19152.0	7.586134322315263e+17
19153.0	7.584689829183487e+17
19154.0	7.582929601429503e+17
19155.0	7.581792610899284e+17
19156.0	7.580321275620009e+17
19157.0	7.57870463287296e+17
19158.0	7.573928337036625e+17
19159.0	7.57582096778308e+17
19160.0	7.574340112831827e+17
19161.0	7.572645925792426e+17
19162.0	7.56354766811956e+17
19163.0	7.56983914509107e+17
19164.0	7.568591448702975e+17
19165.0	7.566979804168191e+17
19166.0	7.565224192944808e+17
19167.0	7.563439227185833e+17
19168.0	7.562489708063402e+17
19169.0	7.561021484957693e+17
19170.0	7.559783263502335e+17
19171.0	7.557892769054719e+17
19172.0	7.556798656894291e+17
19173.0	7.555372776685569e+17
19174.0	7.553770282724009e+17
19175.0	7.552460124760745e+17
19176.0	7.550974925908649e+17
19177.0	7.549099535149738e+17
19178.0	7.547851287909715e+17
19179.0	7.54596672700416e+17
19180.0	7.544734413925033e+17
19181.0	7.543346606811817e+17
19182.0	7.542039152776531e+17
19183.0	7.540652321538045e+17
19184.0	7.538978488057855e+17
19185.0	7.537704975728637e+17
19186.0	7.536278908174335e+17
19187.0	7.534562691252221e+17
19188.0	7.533288232408403e+17
19189.0	7.531714711300777e+17
19190.0	7.530204195629738e+17
19191.0	7.528732343052969e+17
19192.0	7.52739987558673e+17
19193.0	7.52568640872994e+17
19194.0	7.524306748353193e+17
19195.0	7.522949527502845e+17
19196.0	7.521428952492713e+17
19197.0	7.519905482014719e+17
19198.0	7.518123256534355e+17
19199.0	7.471530246143987e+17
19200.0	7.483907328267622e+17
19201.0	7.513750368856745e+17
19202.0	7.512561708695552e+17
19203.0	7.511048024926889e+17
19204.0	7.50961593295394e+17
19205.0	7.508203262006612e+17
19206.0	7.506708304407208e+17
19207.0	7.505016290017279e+17
19208.0	7.503277938354858e+17
19209.0	7.502258928003753e+17
19210.0	7.500813109471913e+17
19211.0	7.49936824164898e+17
19212.0	7.49787989287458e+17
19213.0	7.495782954784083e+17
19214.0	7.494025725957459e+17
19215.0	7.493246139061587e+17
19216.0	7.491922349610323e+17
19217.0	7.490454673162241e+17
19218.0	7.486760112095227e+17
19219.0	7.487034654457855e+17
19220.0	7.485914683015168e+17
19221.0	7.483594336720212e+17
19222.0	7.48303022100753e+17
19223.0	7.481477054857215e+17
19224.0	7.479875647220393e+17
19225.0	7.478141192066386e+17
19226.0	7.476994681864191e+17
19227.0	7.475498078699519e+17
19228.0	7.474086976421887e+17
19229.0	7.472598394164564e+17
19230.0	7.470938923379369e+17
19231.0	7.469470968709119e+17
19232.0	7.468036511148713e+17
19233.0	7.466396430630911e+17
19234.0	7.465032394036564e+17
19235.0	7.463496890100394e+17
19236.0	7.462107194152278e+17
19237.0	7.46055187772211e+17
19238.0	7.458784379841193e+17
19239.0	7.45759224819439e+17
19240.0	7.455684106911743e+17
19241.0	7.45439356710639e+17
19242.0	7.453018615534931e+17
19243.0	7.451053345035602e+17
19244.0	7.450062036664319e+17
19245.0	7.448535170198186e+17
19246.0	7.446988565337428e+17
19247.0	7.445497748914173e+17
19248.0	7.444001203071658e+17
19249.0	7.442470523983187e+17
19250.0	7.44091723759616e+17
19251.0	7.439108042741075e+17
19252.0	7.437079070550698e+17
19253.0	7.436348284381864e+17
19254.0	7.434823450755071e+17
19255.0	7.432813118051667e+17
19256.0	7.431649296558761e+17
19257.0	7.430286844013225e+17
19258.0	7.428766442367657e+17
19259.0	7.4270250134842e+17
19260.0	7.424893368926207e+17
19261.0	7.42412368618018e+17
19262.0	7.422457566025044e+17
19263.0	7.42093853172258e+17
19264.0	7.418149046932818e+17
19265.0	7.417503954589011e+17
19266.0	7.416078008669526e+17
19267.0	7.414904798926164e+17
19268.0	7.413331596585641e+17
19269.0	7.411787825676288e+17
19270.0	7.409983512991059e+17
19271.0	7.407068278773078e+17
19272.0	7.406284195583316e+17
19273.0	7.393781642253642e+17
19274.0	7.397160471494646e+17
19275.0	7.401692535805268e+17
19276.0	7.400071338044074e+17
19277.0	7.398501010199891e+17
19278.0	7.396932428584275e+17
19279.0	7.395192778085714e+17
19280.0	7.393545771373908e+17
19281.0	7.392167191729492e+17
19282.0	7.390604444390739e+17
19283.0	7.388314832557395e+17
19284.0	7.386170893096275e+17
19285.0	7.385243691865427e+17
19286.0	7.384131615500968e+17
19287.0	7.382624997736445e+17
19288.0	7.368104314492232e+17
19289.0	7.34770943998902e+17
19290.0	7.377785177767936e+17
19291.0	7.37542452141534e+17
19292.0	7.374545058354516e+17
19293.0	7.372892168432297e+17
19294.0	7.371246064893951e+17
19295.0	7.369640098048681e+17
19296.0	7.367976878953812e+17
19297.0	7.3662570954752e+17
19298.0	7.364603085673811e+17
19299.0	7.363027884048381e+17
19300.0	7.361362072873641e+17
19301.0	7.35967297352499e+17
19302.0	7.357975647748096e+17
19303.0	7.356089678954496e+17
19304.0	7.354510884208639e+17
19305.0	7.352894729398956e+17
19306.0	7.350560019010899e+17
19307.0	7.348365931053055e+17
19308.0	7.346745148527956e+17
19309.0	7.343599212210857e+17
19310.0	7.341195792132773e+17
19311.0	7.341471774539775e+17
19312.0	7.339955484710227e+17
19313.0	7.338155587229011e+17
19314.0	7.314377145319425e+17
19315.0	7.313745423018696e+17
19316.0	7.332819992139092e+17
19317.0	7.331166513616212e+17
19318.0	7.329370781078867e+17
19319.0	7.327620340034217e+17
19320.0	7.325799596862121e+17
19321.0	7.324001205136041e+17
19322.0	7.321794057513641e+17
19323.0	7.31957992497698e+17
19324.0	7.318416700473343e+17
19325.0	7.31435841355776e+17
19326.0	7.313457685375657e+17
19327.0	7.311598156076372e+17
19328.0	7.30976143680034e+17
19329.0	7.307864955682815e+17
19330.0	7.305845438851753e+17
19331.0	7.303906255525203e+17
19332.0	7.302063018300756e+17
19333.0	7.300064780571986e+17
19334.0	7.29786166087953e+17
19335.0	7.29588681478417e+17
19336.0	7.293863088269993e+17
19337.0	7.29062355046673e+17
19338.0	7.287683458007039e+17
19339.0	7.286186575222099e+17
19340.0	7.28399159946991e+17
19341.0	7.282021673293139e+17
19342.0	7.278856794101074e+17
19343.0	7.277832588405416e+17
19344.0	7.275668454768637e+17
19345.0	7.268556216816969e+17
19346.0	7.267533630122662e+17
19347.0	7.26702445839428e+17
19348.0	7.264983937886889e+17
19349.0	7.262626733446484e+17
19350.0	7.260380740976639e+17
19351.0	7.258072274348714e+17
19352.0	7.254314561044477e+17
19353.0	7.251146287262377e+17
19354.0	7.248772150416723e+17
19355.0	7.246103711842301e+17
19356.0	7.243930605191165e+17
19357.0	7.240484032348155e+17
19358.0	7.236018266002772e+17
19359.0	7.233046154226345e+17
19360.0	7.230931119112191e+17
19361.0	7.228248470235817e+17
19362.0	7.224172859446612e+17
19363.0	7.221499383513088e+17
19364.0	7.218413378207744e+17
19365.0	7.215478100809044e+17
19366.0	7.212700319525545e+17
19367.0	7.20985784389905e+17
19368.0	7.206989890671955e+17
19369.0	7.203737537871871e+17
19370.0	7.199842711371775e+17
19371.0	7.197920619834025e+17
19372.0	7.194987520677203e+17
19373.0	7.191784146163028e+17
19374.0	7.188654489337855e+17
19375.0	7.185418418825897e+17
19376.0	7.182127221178365e+17
19377.0	7.177952459838807e+17
19378.0	7.174445318449833e+17
19379.0	7.170944861383338e+17
19380.0	7.167372062359551e+17
19381.0	7.163713988941139e+17
19382.0	7.159801736506026e+17
19383.0	7.155928014345556e+17
19384.0	7.151916291194877e+17
19385.0	7.147130113578323e+17
19386.0	7.143073473626111e+17
19387.0	7.138896742361769e+17
19388.0	7.134640754130944e+17
19389.0	7.130021329458518e+17
19390.0	7.124102148696744e+17
19391.0	7.080803955638213e+17
19392.0	7.114350742820177e+17
19393.0	7.109243273128616e+17
19394.0	7.102721380668756e+17
19395.0	7.09749892133683e+17
19396.0	7.091418496150185e+17
19397.0	7.084136792937811e+17
19398.0	7.078427327376041e+17
19399.0	7.068442079264764e+17
19400.0	7.063208520406356e+17
19401.0	7.054264262197245e+17
19402.0	7.046560226126505e+17
19403.0	7.03557273369532e+17
19404.0	7.026178565079036e+17
19405.0	7.015355021699753e+17
19406.0	7.001983967122772e+17
19407.0	6.991139521429499e+17
19408.0	6.980753836124845e+17
19409.0	6.973593168642047e+17
19410.0	6.964795864165034e+17
19411.0	6.955596716004691e+17
19412.0	6.946047878933162e+17
19413.0	6.935862884084393e+17
19414.0	6.925435345218217e+17
19415.0	6.91482096828416e+17
19416.0	6.90323803148561e+17
19417.0	6.891556511765842e+17
19418.0	6.879566514967892e+17
19419.0	6.867232872551763e+17
19420.0	6.854541688788307e+17
19421.0	6.840242640257023e+17
19422.0	6.826356395824467e+17
19423.0	6.810464412150441e+17
19424.0	6.794291358378666e+17
19425.0	6.77661300944623e+17
19426.0	6.757245765287936e+17
19427.0	6.735698103107584e+17
19428.0	6.712158594618711e+17
19429.0	6.685165160671914e+17
19430.0	6.652584741131603e+17
19431.0	6.612839394093748e+17
19432.0	6.591854499856381e+17
19433.0	6.564752904596138e+17
19434.0	6.535780534408532e+17
19435.0	6.504627648331773e+17
19436.0	6.469330586479272e+17
19437.0	6.434901382048426e+17
19438.0	6.361832393190066e+17
19439.0	6.346354820732247e+17
19440.0	6.293013281461592e+17
19441.0	6.231005766964562e+17
19442.0	6.170710881861633e+17
19443.0	6.106548803731455e+17
19444.0	6.033986946072572e+17
19445.0	5.948686078399832e+17
19446.0	5.850747044364288e+17
19447.0	5.742699049822885e+17
19448.0	5.617812653473796e+17
19449.0	5.47131436756719e+17
19450.0	5.2645405567658214e+17
19451.0	5.185677366220127e+17
19452.0	5.3742910857106784e+17
19453.0	5.546761730217307e+17
19454.0	5.678425201180666e+17
19455.0	5.791784802189312e+17
19456.0	5.892437159444485e+17
19457.0	5.981645352643238e+17
19458.0	6.04056721835079e+17
19459.0	6.122920175381169e+17
19460.0	6.181695102036649e+17
19461.0	6.24188083527133e+17
19462.0	6.297531420682925e+17
19463.0	6.345079433549139e+17
19464.0	6.386282580148224e+17
19465.0	6.422448887737005e+17
19466.0	6.454111380351656e+17
19467.0	6.484423318962176e+17
19468.0	6.511487809312084e+17
19469.0	6.535870665807187e+17
19470.0	6.560760155078655e+17
19471.0	6.58876516706986e+17
19472.0	6.620863751258107e+17
19473.0	6.646910653125976e+17
19474.0	6.669844488039084e+17
19475.0	6.688100927406076e+17
19476.0	6.706669720786258e+17
19477.0	6.722507426671274e+17
19478.0	6.737325190370644e+17
19479.0	6.750281365367465e+17
19480.0	6.762407361773568e+17
19481.0	6.773836436821331e+17
19482.0	6.784740614296916e+17
19483.0	6.79462619456034e+17
19484.0	6.804337606350164e+17
19485.0	6.813667092507305e+17
19486.0	6.822331154432e+17
19487.0	6.830554648761684e+17
19488.0	6.838335268629161e+17
19489.0	6.84585908174848e+17
19490.0	6.850329754730491e+17
19491.0	6.859687009277268e+17
19492.0	6.866125672065705e+17
19493.0	6.872163727791443e+17
19494.0	6.877893434365268e+17
19495.0	6.885518192498003e+17
19496.0	6.893726758600704e+17
19497.0	6.902910803771391e+17
19498.0	6.908372502708227e+17
19499.0	6.86211014677842e+17
19500.0	6.924348529049599e+17
19501.0	6.931094212094634e+17
19502.0	6.935238768852991e+17
19503.0	6.940668317051561e+17
19504.0	6.944604170835284e+17
19505.0	6.947937094817106e+17
19506.0	6.952762805846015e+17
19507.0	6.955213863430825e+17
19508.0	6.957854554587133e+17
19509.0	6.961874177709396e+17
19510.0	6.96347804111121e+17
19511.0	6.914221807064379e+17
19512.0	6.958673443509569e+17
19513.0	6.953147139708216e+17
19514.0	6.959868009250797e+17
19515.0	6.97228902251452e+17
19516.0	6.97539107033361e+17
19517.0	6.976572339432105e+17
19518.0	6.978935171929428e+17
19519.0	6.980153672466431e+17
19520.0	6.981120297358676e+17
19521.0	6.982147056686419e+17
19522.0	6.982920995951955e+17
19523.0	6.983833252877652e+17
19524.0	6.984570370348371e+17
19525.0	6.985187857880404e+17
19526.0	6.986630102166186e+17
19527.0	6.987155997982719e+17
19528.0	6.987638841365844e+17
19529.0	6.988053888019114e+17
19530.0	6.988453344444415e+17
19531.0	6.988784903476563e+17
19532.0	6.98904375005457e+17
19533.0	6.989269427377491e+17
19534.0	6.989429147172863e+17
19535.0	6.989503447870121e+17
19536.0	6.989539293790207e+17
19537.0	6.989672978142548e+17
19538.0	6.989472886773078e+17
19539.0	6.988546413253976e+17
19540.0	6.989990367417684e+17
19541.0	6.991418560785065e+17
19542.0	6.991324602783059e+17
19543.0	6.991133978656767e+17
19544.0	6.990931966296063e+17
19545.0	6.990932749232805e+17
19546.0	6.990788763669846e+17
19547.0	6.992708516184061e+17
19548.0	6.992377443691177e+17
19549.0	6.991722881307987e+17
19550.0	6.991669014560765e+17
19551.0	6.993387507591849e+17
19552.0	6.992935376999764e+17
19553.0	6.992406664708093e+17
19554.0	6.991862752258729e+17
19555.0	6.991413196969299e+17
19556.0	6.99090713322018e+17
19557.0	6.990354419023872e+17
19558.0	6.991550830258858e+17
19559.0	6.9909225682589e+17
19560.0	6.990260764409855e+17
19561.0	6.989623075711657e+17
19562.0	6.989025798433449e+17
19563.0	6.988369796005887e+17
19564.0	6.987678611756372e+17
19565.0	6.986965362671615e+17
19566.0	6.986176829325311e+17
19567.0	6.986449010294784e+17
19568.0	6.98612346729267e+17
19569.0	6.985388416215721e+17
19570.0	6.984663246918998e+17
19571.0	6.983868292093268e+17
19572.0	6.982970162282496e+17
19573.0	6.982199553993386e+17
19574.0	6.981205191469736e+17
19575.0	6.980842489031338e+17
19576.0	6.979992410565289e+17
19577.0	6.97903641403938e+17
19578.0	6.978148355451561e+17
19579.0	6.977299220004861e+17
19580.0	6.976576019234815e+17
19581.0	6.976668365925033e+17
19582.0	6.975799281669459e+17
19583.0	6.974877170226516e+17
19584.0	6.973916291530751e+17
19585.0	6.972689919683241e+17
19586.0	6.971622018427562e+17
19587.0	6.970788603931306e+17
19588.0	6.968886545787564e+17
19589.0	6.969035247146324e+17
19590.0	6.967959060043091e+17
19591.0	6.967181530453331e+17
19592.0	6.966213039794857e+17
19593.0	6.965159081803775e+17
19594.0	6.963493625746771e+17
19595.0	6.963101490479104e+17
19596.0	6.954624249845083e+17
19597.0	6.960999371025066e+17
19598.0	6.959409184549544e+17
19599.0	6.959087524773887e+17
19600.0	6.958067318347091e+17
19601.0	6.956842531247444e+17
19602.0	6.955853430478163e+17
19603.0	6.953522483778897e+17
19604.0	6.95449433477393e+17
19605.0	6.952800127462058e+17
19606.0	6.952540873337513e+17
19607.0	6.951485931083092e+17
19608.0	6.950370070058323e+17
19609.0	6.949167219168595e+17
19610.0	6.948246791039658e+17
19611.0	6.947134163823273e+17
19612.0	6.94606791512337e+17
19613.0	6.944935346088617e+17
19614.0	6.943748030900906e+17
19615.0	6.942754024893097e+17
19616.0	6.941275309036884e+17
19617.0	6.940532017550676e+17
19618.0	6.938011209389395e+17
19619.0	6.936539138009766e+17
19620.0	6.935464850926249e+17
19621.0	6.936032789047977e+17
19622.0	6.934921747977555e+17
19623.0	6.933797514422953e+17
19624.0	6.932634152206335e+17
19625.0	6.931520726674089e+17
19626.0	6.930349968501418e+17
19627.0	6.929229439216297e+17
19628.0	6.926957865686359e+17
19629.0	6.926652833529855e+17
19630.0	6.923484830280365e+17
19631.0	6.876614398836733e+17
19632.0	6.923376845127677e+17
19633.0	6.922166020866047e+17
19634.0	6.921171036886355e+17
19635.0	6.919897066678953e+17
19636.0	6.918817884143615e+17
19637.0	6.916545101955072e+17
19638.0	6.916498724137642e+17
19639.0	6.915289261626708e+17
19640.0	6.913970917081087e+17
19641.0	6.911483667546115e+17
19642.0	6.911810032631807e+17
19643.0	6.910594699493375e+17
19644.0	6.909320434286591e+17
19645.0	6.907605200928765e+17
19646.0	6.907132003745791e+17
19647.0	6.90595014255138e+17
19648.0	6.904752944884394e+17
19649.0	6.903559770953044e+17
19650.0	6.902394226999295e+17
19651.0	6.901187102812841e+17
19652.0	6.899989203998036e+17
19653.0	6.898800501893801e+17
19654.0	6.897603153231872e+17
19655.0	6.896393459335168e+17
19656.0	6.895220511036756e+17
19657.0	6.89402247450897e+17
19658.0	6.893392568341842e+17
19659.0	6.89223791419938e+17
19660.0	6.891050099889492e+17
19661.0	6.889841227377321e+17
19662.0	6.888646639965523e+17
19663.0	6.887295730843647e+17
19664.0	6.88601307353361e+17
19665.0	6.885034545206612e+17
19666.0	6.88377925153587e+17
