# Flux units: erg / (cm m2 s)
# Wavelength units: Angstrom
wave	flux
19000.0	5.586516510244862e+17
19001.0	5.5853325987348474e+17
19002.0	5.5844563589966496e+17
19003.0	5.5834131733763405e+17
19004.0	5.5823814437983565e+17
19005.0	5.581339749253119e+17
19006.0	5.5803212953463456e+17
19007.0	5.579273103824213e+17
19008.0	5.5781884204591776e+17
19009.0	5.5771059432980474e+17
19010.0	5.5754916542545894e+17
19011.0	5.5751235425621325e+17
19012.0	5.573253184268968e+17
19013.0	5.5731301842070176e+17
19014.0	5.5720350905794554e+17
19015.0	5.571016639468884e+17
19016.0	5.569970263381332e+17
19017.0	5.569024512841045e+17
19018.0	5.567953709126996e+17
19019.0	5.566960937642666e+17
19020.0	5.5659235541428896e+17
19021.0	5.5649211742071456e+17
19022.0	5.563888412830377e+17
19023.0	5.5628015386405536e+17
19024.0	5.561764855589547e+17
19025.0	5.560742410802515e+17
19026.0	5.5596612031173965e+17
19027.0	5.558065255765332e+17
19028.0	5.557733015857834e+17
19029.0	5.556678644028756e+17
19030.0	5.555693687930879e+17
19031.0	5.554677824006826e+17
19032.0	5.5536378148727456e+17
19033.0	5.5524807825599136e+17
19034.0	5.5515284196993696e+17
19035.0	5.55017307230481e+17
19036.0	5.501079689800343e+17
19037.0	5.5482471345902925e+17
19038.0	5.5474298744558925e+17
19039.0	5.546465289393492e+17
19040.0	5.545455128324777e+17
19041.0	5.5444270170330445e+17
19042.0	5.54206246417203e+17
19043.0	5.542409537934677e+17
19044.0	5.5413672785565e+17
19045.0	5.5403257573758285e+17
19046.0	5.539249879952041e+17
19047.0	5.538291393407657e+17
19048.0	5.5367762178648723e+17
19049.0	5.533637438428497e+17
19050.0	5.5351199606155936e+17
19051.0	5.526956841893877e+17
19052.0	5.531966715024726e+17
19053.0	5.532161764141739e+17
19054.0	5.531172362780671e+17
19055.0	5.529450512209238e+17
19056.0	5.528976512516094e+17
19057.0	5.528113776339625e+17
19058.0	5.525774743721299e+17
19059.0	5.525583645638655e+17
19060.0	5.525029857700522e+17
19061.0	5.524052187108692e+17
19062.0	5.5230269307398816e+17
19063.0	5.522011675688958e+17
19064.0	5.520822203929941e+17
19065.0	5.5197424565616634e+17
19066.0	5.518413951314602e+17
19067.0	5.5179292100089165e+17
19068.0	5.5169293753166496e+17
19069.0	5.515914829103103e+17
19070.0	5.514855977058304e+17
19071.0	5.5138445269401594e+17
19072.0	5.512371472695294e+17
19073.0	5.511844155708756e+17
19074.0	5.5108358065793696e+17
19075.0	5.5098203585904634e+17
19076.0	5.508776461336574e+17
19077.0	5.507765633373524e+17
19078.0	5.5067086659693216e+17
19079.0	5.505756665916073e+17
19080.0	5.5047261918330874e+17
19081.0	5.503664524711252e+17
19082.0	5.502657171030016e+17
19083.0	5.501573656477694e+17
19084.0	5.5003943922565114e+17
19085.0	5.4996432455379616e+17
19086.0	5.4974332325068794e+17
19087.0	5.495446138344788e+17
19088.0	5.4957178215901843e+17
19089.0	5.4947765463722656e+17
19090.0	5.494515532737194e+17
19091.0	5.493432743799466e+17
19092.0	5.4912583278264326e+17
19093.0	5.491564041557332e+17
19094.0	5.490564436852735e+17
19095.0	5.4895552887084365e+17
19096.0	5.488521014586025e+17
19097.0	5.4875309505249274e+17
19098.0	5.4859793194898765e+17
19099.0	5.484862058965674e+17
19100.0	5.484407259398143e+17
19101.0	5.483458688887466e+17
19102.0	5.4823013028549965e+17
19103.0	5.4814674654330874e+17
19104.0	5.480462608061781e+17
19105.0	5.4782649682274995e+17
19106.0	5.478214644968105e+17
19107.0	5.477088831558996e+17
19108.0	5.4759353630064634e+17
19109.0	5.472437430910972e+17
19110.0	5.4741908163570336e+17
19111.0	5.47303172743714e+17
19112.0	5.4719855617638374e+17
19113.0	5.4713784222788256e+17
19114.0	5.470141046674772e+17
19115.0	5.4691548113141754e+17
19116.0	5.4683344697644365e+17
19117.0	5.4673133762423456e+17
19118.0	5.466022991626239e+17
19119.0	5.453239967285228e+17
19120.0	5.463897278513151e+17
19121.0	5.4630376251501216e+17
19122.0	5.462328378130431e+17
19123.0	5.4613257919747405e+17
19124.0	5.4600914355705165e+17
19125.0	5.4592981948170214e+17
19126.0	5.4582831613651616e+17
19127.0	5.4547283188558483e+17
19128.0	5.456040753627134e+17
19129.0	5.4551841586107725e+17
19130.0	5.454273461966164e+17
19131.0	5.453286638703956e+17
19132.0	5.4522820001355085e+17
19133.0	5.4511782131138554e+17
19134.0	5.4501659723694074e+17
19135.0	5.4492600635228154e+17
19136.0	5.448274705470805e+17
19137.0	5.447043154356906e+17
19138.0	5.4462454536601594e+17
19139.0	5.445268655483562e+17
19140.0	5.444269303136255e+17
19141.0	5.443267692156245e+17
19142.0	5.4422180039666336e+17
19143.0	5.441178716252841e+17
19144.0	5.4402104192314016e+17
19145.0	5.439255861351764e+17
19146.0	5.437386179739649e+17
19147.0	5.437124166462121e+17
19148.0	5.4358154646213965e+17
19149.0	5.434744203728213e+17
19150.0	5.4342488270656845e+17
19151.0	5.433250879111167e+17
19152.0	5.4322058885420365e+17
19153.0	5.430359903349417e+17
19154.0	5.4299821188928845e+17
19155.0	5.4292363702435834e+17
19156.0	5.4282375981083296e+17
19157.0	5.426810684003669e+17
19158.0	5.423757423629652e+17
19159.0	5.425157201286485e+17
19160.0	5.4241826687330976e+17
19161.0	5.423169892515839e+17
19162.0	5.417649741059416e+17
19163.0	5.420943699258026e+17
19164.0	5.4202315539742714e+17
19165.0	5.4181985867093306e+17
19166.0	5.417957418423637e+17
19167.0	5.416832998222506e+17
19168.0	5.4162456083169274e+17
19169.0	5.415192763913556e+17
19170.0	5.414279081623551e+17
19171.0	5.413009969818281e+17
19172.0	5.412245564205738e+17
19173.0	5.4112877144965114e+17
19174.0	5.4102293210289485e+17
19175.0	5.4093176883554976e+17
19176.0	5.408321320255487e+17
19177.0	5.407109866149204e+17
19178.0	5.4061662400238925e+17
19179.0	5.404935990542335e+17
19180.0	5.404316427528874e+17
19181.0	5.403141203121492e+17
19182.0	5.4023217116173645e+17
19183.0	5.401368547644756e+17
19184.0	5.4003715713706656e+17
19185.0	5.399365190068905e+17
19186.0	5.3983876467042976e+17
19187.0	5.397263678788949e+17
19188.0	5.3963328327079245e+17
19189.0	5.395339546023252e+17
19190.0	5.39432321024e+17
19191.0	5.393265357837654e+17
19192.0	5.39235977335057e+17
19193.0	5.3912305674485754e+17
19194.0	5.3901541594453325e+17
19195.0	5.3893426552941216e+17
19196.0	5.3882832426106874e+17
19197.0	5.387196627069609e+17
19198.0	5.385722348787027e+17
19199.0	5.356863999355555e+17
19200.0	5.3637053663587066e+17
19201.0	5.382822261598889e+17
19202.0	5.3822723030603085e+17
19203.0	5.3812925052573e+17
19204.0	5.380385407325524e+17
19205.0	5.379456163468628e+17
19206.0	5.378472182546432e+17
19207.0	5.377355722435242e+17
19208.0	5.376172421895508e+17
19209.0	5.3755275399659514e+17
19210.0	5.3745390942071456e+17
19211.0	5.3735719590079136e+17
19212.0	5.37257391947776e+17
19213.0	5.371235914831188e+17
19214.0	5.3701185599351456e+17
19215.0	5.3694948990866765e+17
19216.0	5.3686311709573114e+17
19217.0	5.3676267791537485e+17
19218.0	5.365498587906045e+17
19219.0	5.3654621736577696e+17
19220.0	5.3646358496324256e+17
19221.0	5.3632543423638176e+17
19222.0	5.362696126638762e+17
19223.0	5.361703872451924e+17
19224.0	5.360685437419519e+17
19225.0	5.359556933364393e+17
19226.0	5.358742718294698e+17
19227.0	5.35776299459106e+17
19228.0	5.356811213340672e+17
19229.0	5.355824662708223e+17
19230.0	5.3548207665315834e+17
19231.0	5.353831661567998e+17
19232.0	5.3528553876794016e+17
19233.0	5.351782785307989e+17
19234.0	5.350868597604351e+17
19235.0	5.3498704734890656e+17
19236.0	5.348931133243391e+17
19237.0	5.3479208757056845e+17
19238.0	5.3467911455156896e+17
19239.0	5.3459818839190176e+17
19240.0	5.3449914892069536e+17
19241.0	5.343985582560598e+17
19242.0	5.3430114016296954e+17
19243.0	5.34183111889169e+17
19244.0	5.3410682421029536e+17
19245.0	5.340077223837694e+17
19246.0	5.339078253172052e+17
19247.0	5.3381067600909645e+17
19248.0	5.3371271768965114e+17
19249.0	5.3361016409074336e+17
19250.0	5.334955908049577e+17
19251.0	5.333854687242921e+17
19252.0	5.332820732586666e+17
19253.0	5.332188351780181e+17
19254.0	5.3312396141963936e+17
19255.0	5.330004229488638e+17
19256.0	5.3292457371456845e+17
19257.0	5.3282962508786336e+17
19258.0	5.327316437696512e+17
19259.0	5.3262310734561274e+17
19260.0	5.3242227679996563e+17
19261.0	5.3243505985017165e+17
19262.0	5.3232954863779834e+17
19263.0	5.322297711788032e+17
19264.0	5.320619931467774e+17
19265.0	5.320143071958357e+17
19266.0	5.319022421038421e+17
19267.0	5.318488261743955e+17
19268.0	5.317499737691477e+17
19269.0	5.316523272962047e+17
19270.0	5.3155385475508896e+17
19271.0	5.3140640392806406e+17
19272.0	5.313535004726613e+17
19273.0	5.312066053909161e+17
19274.0	5.31098361869107e+17
19275.0	5.3106461589722445e+17
19276.0	5.309638353005225e+17
19277.0	5.3086665775076685e+17
19278.0	5.307663645321898e+17
19279.0	5.3066666942136314e+17
19280.0	5.305609571620181e+17
19281.0	5.304731339587583e+17
19282.0	5.303762183432873e+17
19283.0	5.3024191057756154e+17
19284.0	5.3016765734584314e+17
19285.0	5.300594579341311e+17
19286.0	5.2997780993474554e+17
19287.0	5.2987873928587936e+17
19288.0	5.284912203912522e+17
19289.0	5.2642135471553984e+17
19290.0	5.2958284274292045e+17
19291.0	5.294584211614379e+17
19292.0	5.293971172840788e+17
19293.0	5.292989105220265e+17
19294.0	5.291996717514751e+17
19295.0	5.2910438897855136e+17
19296.0	5.289494208402773e+17
19297.0	5.28887438114816e+17
19298.0	5.287983193609556e+17
19299.0	5.286398048687446e+17
19300.0	5.2860372924061e+17
19301.0	5.285075096698879e+17
19302.0	5.284082813850964e+17
19303.0	5.2829946701851296e+17
19304.0	5.282090785090219e+17
19305.0	5.2811248326847136e+17
19306.0	5.2801324540668576e+17
19307.0	5.279066471705258e+17
19308.0	5.2781113007581856e+17
19309.0	5.276135578053289e+17
19310.0	5.2748066834350054e+17
19311.0	5.275031858140501e+17
19312.0	5.2742036250077856e+17
19313.0	5.273149272752128e+17
19314.0	5.189479165154637e+17
19315.0	5.195659349764901e+17
19316.0	5.269319719408981e+17
19317.0	5.2692842565686605e+17
19318.0	5.2683266256622925e+17
19319.0	5.2673779300215456e+17
19320.0	5.266150338330623e+17
19321.0	5.2648996066645325e+17
19322.0	5.264244043240789e+17
19323.0	5.263012281712639e+17
19324.0	5.262353363544747e+17
19325.0	5.260475921771177e+17
19326.0	5.2604124465725434e+17
19327.0	5.25944801600034e+17
19328.0	5.257451037960875e+17
19329.0	5.257449047064575e+17
19330.0	5.256363459827028e+17
19331.0	5.25535970136337e+17
19332.0	5.2544216340889594e+17
19333.0	5.2533923218281805e+17
19334.0	5.2523493689917434e+17
19335.0	5.249280751173633e+17
19336.0	5.2503476646707194e+17
19337.0	5.249391275977385e+17
19338.0	5.248104011923455e+17
19339.0	5.2473845895222605e+17
19340.0	5.246113317650432e+17
19341.0	5.2445625177866246e+17
19342.0	5.243557508022271e+17
19343.0	5.2433816478460576e+17
19344.0	5.241604226241878e+17
19345.0	5.237956551901178e+17
19346.0	5.2390409158000634e+17
19347.0	5.238208756099753e+17
19348.0	5.2382845646493005e+17
19349.0	5.2372158000660474e+17
19350.0	5.2358413238490445e+17
19351.0	5.235183138286249e+17
19352.0	5.233068944130044e+17
19353.0	5.233214758409556e+17
19354.0	5.232201443224235e+17
19355.0	5.231041265183402e+17
19356.0	5.230149758178645e+17
19357.0	5.229126050906111e+17
19358.0	5.228076754184873e+17
19359.0	5.226751001100286e+17
19360.0	5.2251610446124365e+17
19361.0	5.2249283397331616e+17
19362.0	5.223951252149589e+17
19363.0	5.222907395440639e+17
19364.0	5.221858923599188e+17
19365.0	5.2208084322003616e+17
19366.0	5.2197537548861434e+17
19367.0	5.218689954960724e+17
19368.0	5.217636015144959e+17
19369.0	5.2164630535645856e+17
19370.0	5.215316836963668e+17
19371.0	5.214242649145343e+17
19372.0	5.2132334583589536e+17
19373.0	5.2121202872811514e+17
19374.0	5.2110544510211405e+17
19375.0	5.2099551526038176e+17
19376.0	5.2088638583166285e+17
19377.0	5.2077394527955616e+17
19378.0	5.206628880089087e+17
19379.0	5.2055098691420154e+17
19380.0	5.204375994280617e+17
19381.0	5.2032349450622285e+17
19382.0	5.201989842851157e+17
19383.0	5.200689477888681e+17
19384.0	5.199586347974655e+17
19385.0	5.1984212849677645e+17
19386.0	5.19723854996002e+17
19387.0	5.1960297830045005e+17
19388.0	5.1948165288427514e+17
19389.0	5.193566998145706e+17
19390.0	5.1921997836670285e+17
19391.0	5.1461976675231763e+17
19392.0	5.18861851424631e+17
19393.0	5.1882428178541216e+17
19394.0	5.1869516656803834e+17
19395.0	5.1852218109788154e+17
19396.0	5.18386119553843e+17
19397.0	5.182535443851945e+17
19398.0	5.180802007913814e+17
19399.0	5.178261701132287e+17
19400.0	5.177547396481024e+17
19401.0	5.176333111918591e+17
19402.0	5.174844060598272e+17
19403.0	5.1727101881658016e+17
19404.0	5.171119378137087e+17
19405.0	5.169091626489173e+17
19406.0	5.1670490374908576e+17
19407.0	5.164497045378388e+17
19408.0	5.1614550390210586e+17
19409.0	5.160121848037375e+17
19410.0	5.1581825514646176e+17
19411.0	5.156281190274389e+17
19412.0	5.1542936172625914e+17
19413.0	5.1518892562623136e+17
19414.0	5.150023183848789e+17
19415.0	5.1474773881214285e+17
19416.0	5.144771076379988e+17
19417.0	5.1422748069942605e+17
19418.0	5.1400695531001165e+17
19419.0	5.137171136643071e+17
19420.0	5.134492682070697e+17
19421.0	5.1307756940602016e+17
19422.0	5.1275357850610336e+17
19423.0	5.1233107829500576e+17
19424.0	5.1188037215846406e+17
19425.0	5.1135105910265165e+17
19426.0	5.107038909278889e+17
19427.0	5.0991991392392544e+17
19428.0	5.088665946554371e+17
19429.0	5.0787035336321715e+17
19430.0	5.0713842809132397e+17
19431.0	5.058221403624801e+17
19432.0	5.059544442295636e+17
19433.0	5.0526267501445114e+17
19434.0	5.044699871401299e+17
19435.0	5.034812306533035e+17
19436.0	5.021657492094968e+17
19437.0	5.012209103710893e+17
19438.0	4.912708492547426e+17
19439.0	4.9627118153236544e+17
19440.0	4.9217268137765594e+17
19441.0	4.8961430238877e+17
19442.0	4.87328709677329e+17
19443.0	4.8485152898853555e+17
19444.0	4.819926775409323e+17
19445.0	4.7764798264661325e+17
19446.0	4.6901774009412294e+17
19447.0	4.6049389466091475e+17
19448.0	4.522585076618584e+17
19449.0	4.379485726747313e+17
19450.0	4.005211624439854e+17
19451.0	3.793205218770988e+17
19452.0	4.236114871189514e+17
19453.0	4.4636546531328045e+17
19454.0	4.563623201122983e+17
19455.0	4.636618748417362e+17
19456.0	4.733731908616217e+17
19457.0	4.791502307153242e+17
19458.0	4.605261796169423e+17
19459.0	4.8422574917769075e+17
19460.0	4.869657096530601e+17
19461.0	4.889788068921346e+17
19462.0	4.9258773383304646e+17
19463.0	4.9608517680278163e+17
19464.0	4.981625000908113e+17
19465.0	4.99439730950144e+17
19466.0	5.004083142328318e+17
19467.0	5.0119255505851725e+17
19468.0	5.018269550029483e+17
19469.0	5.0224426986591546e+17
19470.0	5.0287043988684806e+17
19471.0	5.033131365804714e+17
19472.0	5.03700658463266e+17
19473.0	5.043373710071124e+17
19474.0	5.051655799526736e+17
19475.0	5.057797983043578e+17
19476.0	5.0643302934555264e+17
19477.0	5.068546131711317e+17
19478.0	5.071549368718677e+17
19479.0	5.072991077531646e+17
19480.0	5.075640110459562e+17
19481.0	5.0771061182737075e+17
19482.0	5.0784671496492365e+17
19483.0	5.079260674916351e+17
19484.0	5.080456545785173e+17
19485.0	5.0809450367986336e+17
19486.0	5.0806533788794886e+17
19487.0	5.081976844670293e+17
19488.0	5.0824910684378445e+17
19489.0	5.0825813193741645e+17
19490.0	5.080639706846546e+17
19491.0	5.0828728046277965e+17
19492.0	5.0829366230603085e+17
19493.0	5.0833220726074003e+17
19494.0	5.083529241864874e+17
19495.0	5.08424174506257e+17
19496.0	5.08339548271411e+17
19497.0	5.084369831417171e+17
19498.0	5.0796089978825434e+17
19499.0	5.013365760633463e+17
19500.0	5.083985824710655e+17
19501.0	5.0837759787881805e+17
19502.0	5.0835834301754016e+17
19503.0	5.0834235188401485e+17
19504.0	5.0829561335644154e+17
19505.0	5.082432413193556e+17
19506.0	5.082132138775893e+17
19507.0	5.081685640435028e+17
19508.0	5.0812014122325325e+17
19509.0	5.0805908753612794e+17
19510.0	5.0793411202689696e+17
19511.0	4.9354996931623814e+17
19512.0	5.068083023926587e+17
19513.0	5.058042484402825e+17
19514.0	5.0630801399043226e+17
19515.0	5.0758707866938035e+17
19516.0	5.07623718990643e+17
19517.0	5.075575048415913e+17
19518.0	5.0747797573468154e+17
19519.0	5.07402425344546e+17
19520.0	5.072928552342868e+17
19521.0	5.0730101014964896e+17
19522.0	5.072113371185151e+17
19523.0	5.07131164884992e+17
19524.0	5.0702015689741645e+17
19525.0	5.069983015676585e+17
19526.0	5.0692513235380896e+17
19527.0	5.068465995339092e+17
19528.0	5.067625996484606e+17
19529.0	5.066800711248554e+17
19530.0	5.0661256303301965e+17
19531.0	5.065330799935487e+17
19532.0	5.06453131526144e+17
19533.0	5.063727304933375e+17
19534.0	5.062915040215039e+17
19535.0	5.0621622493293216e+17
19536.0	5.0613282727963296e+17
19537.0	5.060552848747178e+17
19538.0	5.058875006211414e+17
19539.0	5.0580662891752134e+17
19540.0	5.058042630504447e+17
19541.0	5.0570773149341e+17
19542.0	5.0563305603508896e+17
19543.0	5.05480386445312e+17
19544.0	5.054675049687722e+17
19545.0	5.053173400076286e+17
19546.0	5.051682257196373e+17
19547.0	5.052198864027647e+17
19548.0	5.0513549553827834e+17
19549.0	5.050367003852798e+17
19550.0	5.049650081256787e+17
19551.0	5.048805581215061e+17
19552.0	5.0479608127378765e+17
19553.0	5.0470696888128845e+17
19554.0	5.046181859513685e+17
19555.0	5.045271257240918e+17
19556.0	5.0444532316460365e+17
19557.0	5.043637919765845e+17
19558.0	5.0427805390165325e+17
19559.0	5.041919639945215e+17
19560.0	5.040776769000789e+17
19561.0	5.0402061521169056e+17
19562.0	5.039091565461503e+17
19563.0	5.0385053974964896e+17
19564.0	5.0376332115531085e+17
19565.0	5.036759922507774e+17
19566.0	5.0358422514346656e+17
19567.0	5.0350095317947725e+17
19568.0	5.034103188138665e+17
19569.0	5.033226627536212e+17
19570.0	5.032372145750015e+17
19571.0	5.031491144078676e+17
19572.0	5.0305755806433274e+17
19573.0	5.0296239482907296e+17
19574.0	5.028703671156734e+17
19575.0	5.0279846961479674e+17
19576.0	5.027047306952703e+17
19577.0	5.026050042669738e+17
19578.0	5.025274321524053e+17
19579.0	5.0244172224921594e+17
19580.0	5.0235367290306554e+17
19581.0	5.0226998053000525e+17
19582.0	5.0218958446045856e+17
19583.0	5.021011338592255e+17
19584.0	5.0201055996149754e+17
19585.0	5.019079612039166e+17
19586.0	5.0181702904272205e+17
19587.0	5.01734020481024e+17
19588.0	5.01594530373086e+17
19589.0	5.015711241295188e+17
19590.0	5.0146595650054816e+17
19591.0	5.013959019069439e+17
19592.0	5.013081957946708e+17
19593.0	5.0120978470010874e+17
19594.0	5.0108860230970016e+17
19595.0	5.010382635313834e+17
19596.0	5.0090449501334176e+17
19597.0	5.00862200910097e+17
19598.0	5.007007040580265e+17
19599.0	5.0068574675053216e+17
19600.0	5.005983148059306e+17
19601.0	5.0049975278632954e+17
19602.0	5.004121912377343e+17
19603.0	5.002263848288255e+17
19604.0	5.0022985156089165e+17
19605.0	5.001106590182058e+17
19606.0	5.0006355943096314e+17
19607.0	4.9997594028059296e+17
19608.0	4.998845514995028e+17
19609.0	4.9979047773470694e+17
19610.0	4.996717150382763e+17
19611.0	4.995657245567658e+17
19612.0	4.995311041424041e+17
19613.0	4.994406370596181e+17
19614.0	4.9934757936496634e+17
19615.0	4.992627961932458e+17
19616.0	4.990977535464789e+17
19617.0	4.9903024195938976e+17
19618.0	4.9890630272286694e+17
19619.0	4.9878852380043923e+17
19620.0	4.9869690468215443e+17
19621.0	4.9865364337240723e+17
19622.0	4.9864043299252896e+17
19623.0	4.985472697412266e+17
19624.0	4.984491907656363e+17
19625.0	4.983725944558932e+17
19626.0	4.9828184481682765e+17
19627.0	4.9819046561273165e+17
19628.0	4.980280425185281e+17
19629.0	4.9780370625440416e+17
19630.0	4.976485827171669e+17
19631.0	4.947450581570899e+17
19632.0	4.97715669700881e+17
19633.0	4.9763904137461754e+17
19634.0	4.975689439292074e+17
19635.0	4.9746668295290874e+17
19636.0	4.973083852363091e+17
19637.0	4.9717868484362234e+17
19638.0	4.972073616495956e+17
19639.0	4.971260117953194e+17
19640.0	4.97025313406976e+17
19641.0	4.9676606816037594e+17
19642.0	4.968603188548949e+17
19643.0	4.96770436178466e+17
19644.0	4.9668068247688525e+17
19645.0	4.965605708223828e+17
19646.0	4.964214541473107e+17
19647.0	4.964217432047614e+17
19648.0	4.9633463450118816e+17
19649.0	4.962453713933653e+17
19650.0	4.961573894356992e+17
19651.0	4.960679799466666e+17
19652.0	4.9597897422929914e+17
19653.0	4.958892595347455e+17
19654.0	4.958014398267391e+17
19655.0	4.9571213204957856e+17
