# Flux units: erg / (cm m2 s)
# Wavelength units: Angstrom
wave	flux
19000.0	6.576385234916691e+17
19001.0	6.575124082502314e+17
19002.0	6.573919171510271e+17
19003.0	6.572683407218004e+17
19004.0	6.571447449987753e+17
19005.0	6.570220435013631e+17
19006.0	6.568987373950291e+17
19007.0	6.567610075665747e+17
19008.0	6.566502982134441e+17
19009.0	6.565280878690301e+17
19010.0	6.563916403092138e+17
19011.0	6.562821115827539e+17
19012.0	6.561352218836991e+17
19013.0	6.560355868213247e+17
19014.0	6.55910698623522e+17
19015.0	6.557881208580778e+17
19016.0	6.556646243303423e+17
19017.0	6.555414800542378e+17
19018.0	6.554179744388436e+17
19019.0	6.552963308847103e+17
19020.0	6.551719321621844e+17
19021.0	6.550496727444138e+17
19022.0	6.549272511468884e+17
19023.0	6.548026732576765e+17
19024.0	6.546798324394666e+17
19025.0	6.545541141889023e+17
19026.0	6.544315108382036e+17
19027.0	6.542918370896553e+17
19028.0	6.541881324339199e+17
19029.0	6.540648719056896e+17
19030.0	6.539425639038975e+17
19031.0	6.538195887980543e+17
19032.0	6.536965560904362e+17
19033.0	6.535710405645652e+17
19034.0	6.534501591154687e+17
19035.0	6.533355124293631e+17
19036.0	6.515699084165117e+17
19037.0	6.530903578072403e+17
19038.0	6.529651674098346e+17
19039.0	6.528439397908479e+17
19040.0	6.527210757641556e+17
19041.0	6.525983561613311e+17
19042.0	6.524718283401897e+17
19043.0	6.523525058439849e+17
19044.0	6.522293826093055e+17
19045.0	6.52106076922402e+17
19046.0	6.519826480627711e+17
19047.0	6.518614604294825e+17
19048.0	6.517323680011604e+17
19049.0	6.516139893631657e+17
19050.0	6.514919904116735e+17
19051.0	6.511530010301774e+17
19052.0	6.512335146101417e+17
19053.0	6.511215046732457e+17
19054.0	6.510026060114601e+17
19055.0	6.508724931788799e+17
19056.0	6.507565672300543e+17
19057.0	6.506340553850879e+17
19058.0	6.505082032663209e+17
19059.0	6.503895315163817e+17
19060.0	6.502661963295402e+17
19061.0	6.501443464855551e+17
19062.0	6.500217030093482e+17
19063.0	6.498992782660948e+17
19064.0	6.497736696266751e+17
19065.0	6.496493458423808e+17
19066.0	6.49530176647987e+17
19067.0	6.494095908274176e+17
19068.0	6.492845665943551e+17
19069.0	6.491598506426367e+17
19070.0	6.490367402005844e+17
19071.0	6.489144302414505e+17
19072.0	6.487927297146879e+17
19073.0	6.486704195458388e+17
19074.0	6.485483091656703e+17
19075.0	6.484260565985961e+17
19076.0	6.483031754451625e+17
19077.0	6.481813636994388e+17
19078.0	6.480584725495807e+17
19079.0	6.479372352836948e+17
19080.0	6.47814826828322e+17
19081.0	6.476916875154772e+17
19082.0	6.475694623511892e+17
19083.0	6.474456105659049e+17
19084.0	6.473199032205311e+17
19085.0	6.472046697512959e+17
19086.0	6.470702074254676e+17
19087.0	6.469186514234026e+17
19088.0	6.468374489989119e+17
19089.0	6.46689185665297e+17
19090.0	6.465939163141459e+17
19091.0	6.464720211017728e+17
19092.0	6.463394035007487e+17
19093.0	6.462288317906943e+17
19094.0	6.461065323872255e+17
19095.0	6.459845309890559e+17
19096.0	6.458616966021119e+17
19097.0	6.457412721923412e+17
19098.0	6.456197118252372e+17
19099.0	6.454979723613523e+17
19100.0	6.453738170482687e+17
19101.0	6.452536804376575e+17
19102.0	6.451299130277887e+17
19103.0	6.450110133174272e+17
19104.0	6.448893329233235e+17
19105.0	6.447677118786217e+17
19106.0	6.44638239166737e+17
19107.0	6.445240173636265e+17
19108.0	6.444027570989737e+17
19109.0	6.441487399124988e+17
19110.0	6.441622988390399e+17
19111.0	6.44037646431027e+17
19112.0	6.439166366362282e+17
19113.0	6.437945415652692e+17
19114.0	6.436727612768255e+17
19115.0	6.435473870989993e+17
19116.0	6.434293345681407e+17
19117.0	6.4330813945501e+17
19118.0	6.431795202839894e+17
19119.0	6.429719154480466e+17
19120.0	6.429317994468692e+17
19121.0	6.428156221893288e+17
19122.0	6.427018012218707e+17
19123.0	6.425803457822719e+17
19124.0	6.424518058835968e+17
19125.0	6.42337147523345e+17
19126.0	6.422147108263251e+17
19127.0	6.420478217071274e+17
19128.0	6.418860409006761e+17
19129.0	6.418506898385578e+17
19130.0	6.417315637755901e+17
19131.0	6.416079696603817e+17
19132.0	6.414896494630228e+17
19133.0	6.413482162738516e+17
19134.0	6.412057229044394e+17
19135.0	6.41125851332608e+17
19136.0	6.410054735495165e+17
19137.0	6.40879688819234e+17
19138.0	6.407562145213098e+17
19139.0	6.406423462980265e+17
19140.0	6.405214942789632e+17
19141.0	6.40400588153378e+17
19142.0	6.402786400228692e+17
19143.0	6.401568931490474e+17
19144.0	6.400359872331776e+17
19145.0	6.399165189150036e+17
19146.0	6.39776466211089e+17
19147.0	6.396733529522173e+17
19148.0	6.395536967292244e+17
19149.0	6.394332096146089e+17
19150.0	6.39312474406912e+17
19151.0	6.391922143439529e+17
19152.0	6.390696790807892e+17
19153.0	6.389500947202047e+17
19154.0	6.388264378302463e+17
19155.0	6.387088947675136e+17
19156.0	6.385885142581247e+17
19157.0	6.384676616798207e+17
19158.0	6.382581113858729e+17
19159.0	6.382259346429267e+17
19160.0	6.381040406888447e+17
19161.0	6.379773144072191e+17
19162.0	6.376606566187009e+17
19163.0	6.377484990458537e+17
19164.0	6.376239520546815e+17
19165.0	6.374998416905556e+17
19166.0	6.373752159163732e+17
19167.0	6.372431930676563e+17
19168.0	6.37139983409698e+17
19169.0	6.370166950592511e+17
19170.0	6.369010649486676e+17
19171.0	6.36768769610001e+17
19172.0	6.366597033754623e+17
19173.0	6.365393618731007e+17
19174.0	6.364180445659135e+17
19175.0	6.362992997651796e+17
19176.0	6.361790026525353e+17
19177.0	6.360544296566783e+17
19178.0	6.359357444849664e+17
19179.0	6.358008030298111e+17
19180.0	6.356853481013247e+17
19181.0	6.355741400454484e+17
19182.0	6.354557409951744e+17
19183.0	6.353355677543082e+17
19184.0	6.352133247642281e+17
19185.0	6.350964884417193e+17
19186.0	6.349764602538666e+17
19187.0	6.348537326818643e+17
19188.0	6.347350749828438e+17
19189.0	6.346120839386451e+17
19190.0	6.344911695642623e+17
19191.0	6.343723374521002e+17
19192.0	6.342550169670995e+17
19193.0	6.341290322384212e+17
19194.0	6.340121422288212e+17
19195.0	6.338942885778772e+17
19196.0	6.337748333319508e+17
19197.0	6.336545082572799e+17
19198.0	6.335334181415593e+17
19199.0	6.322400700399613e+17
19200.0	6.325503884875096e+17
19201.0	6.331671677414057e+17
19202.0	6.330484265757353e+17
19203.0	6.329259598195369e+17
19204.0	6.328075867040425e+17
19205.0	6.326888289009663e+17
19206.0	6.325688050472276e+17
19207.0	6.324468958538409e+17
19208.0	6.32322897617442e+17
19209.0	6.322079095848959e+17
19210.0	6.320895103249065e+17
19211.0	6.319694715813887e+17
19212.0	6.318496503824383e+17
19213.0	6.317167687499776e+17
19214.0	6.315918418946729e+17
19215.0	6.314857651503103e+17
19216.0	6.313696818451796e+17
19217.0	6.312502948265983e+17
19218.0	6.311071604277247e+17
19219.0	6.310061246775295e+17
19220.0	6.308892321513471e+17
19221.0	6.307605281854804e+17
19222.0	6.306513153600169e+17
19223.0	6.30530750161442e+17
19224.0	6.304094045427027e+17
19225.0	6.302872739599699e+17
19226.0	6.30170427990562e+17
19227.0	6.300505029126825e+17
19228.0	6.299320542298111e+17
19229.0	6.298121822098771e+17
19230.0	6.296890502370644e+17
19231.0	6.29569748083234e+17
19232.0	6.294517727974739e+17
19233.0	6.293305054724095e+17
19234.0	6.292122423175848e+17
19235.0	6.29092427759616e+17
19236.0	6.289732522038612e+17
19237.0	6.288529506871978e+17
19238.0	6.287290729671337e+17
19239.0	6.286137997918207e+17
19240.0	6.284889258546516e+17
19241.0	6.283719281912489e+17
19242.0	6.28253727391744e+17
19243.0	6.281290608629075e+17
19244.0	6.280141807637844e+17
19245.0	6.278943620814164e+17
19246.0	6.277739528410452e+17
19247.0	6.276544060194815e+17
19248.0	6.275343385449812e+17
19249.0	6.274139799857834e+17
19250.0	6.272942771361108e+17
19251.0	6.271721230652756e+17
19252.0	6.270455123367252e+17
19253.0	6.269337946030077e+17
19254.0	6.268137091629055e+17
19255.0	6.266883376414719e+17
19256.0	6.265712925125289e+17
19257.0	6.264540228485119e+17
19258.0	6.26333976764962e+17
19259.0	6.264491547295741e+17
19260.0	6.263458330836991e+17
19261.0	6.262474496016383e+17
19262.0	6.261257875925673e+17
19263.0	6.260061926763178e+17
19264.0	6.258719787231913e+17
19265.0	6.257616606986239e+17
19266.0	6.256415267444052e+17
19267.0	6.255262374210218e+17
19268.0	6.254058885786282e+17
19269.0	6.252765246390271e+17
19270.0	6.251466422834516e+17
19271.0	6.250165649626452e+17
19272.0	6.249046270279679e+17
19273.0	6.246483473640105e+17
19274.0	6.245932542022995e+17
19275.0	6.2454394519552e+17
19276.0	6.244227229592233e+17
19277.0	6.243021420320084e+17
19278.0	6.241816672206845e+17
19279.0	6.240575886633642e+17
19280.0	6.238809996569257e+17
19281.0	6.237012685575508e+17
19282.0	6.235807144738815e+17
19283.0	6.234412503007231e+17
19284.0	6.233081912492031e+17
19285.0	6.232114376736765e+17
19286.0	6.230952985843027e+17
19287.0	6.229750084621652e+17
19288.0	6.225554440541522e+17
19289.0	6.218051872270995e+17
19290.0	6.22610830467618e+17
19291.0	6.224816453451776e+17
19292.0	6.223676826801492e+17
19293.0	6.222454947053567e+17
19294.0	6.221236364028585e+17
19295.0	6.220018470966612e+17
19296.0	6.218796835187369e+17
19297.0	6.217559015686143e+17
19298.0	6.216345539925332e+17
19299.0	6.215129433636863e+17
19300.0	6.213903927913129e+17
19301.0	6.212675607112361e+17
19302.0	6.211447822483455e+17
19303.0	6.210193481618772e+17
19304.0	6.208976437903359e+17
19305.0	6.207754077907625e+17
19306.0	6.206480924890452e+17
19307.0	6.205188373916329e+17
19308.0	6.20396318626065e+17
19309.0	6.202350606396072e+17
19310.0	6.200958862928552e+17
19311.0	6.20023957824034e+17
19312.0	6.199032739266559e+17
19313.0	6.197780979995987e+17
19314.0	6.188292896718845e+17
19315.0	6.187776580692668e+17
19316.0	6.19403139874816e+17
19317.0	6.192816728309759e+17
19318.0	6.191569178722304e+17
19319.0	6.190320126874964e+17
19320.0	6.189059311403007e+17
19321.0	6.187802755246761e+17
19322.0	6.186499297684138e+17
19323.0	6.185074415020714e+17
19324.0	6.184000694168233e+17
19325.0	6.182367641206783e+17
19326.0	6.181464053208404e+17
19327.0	6.180185213414058e+17
19328.0	6.178911955539284e+17
19329.0	6.176846598460754e+17
19330.0	6.174968892446036e+17
19331.0	6.173677738175145e+17
19332.0	6.172393357705215e+17
19333.0	6.171092260836694e+17
19334.0	6.16978986373393e+17
19335.0	6.168487505078953e+17
19336.0	6.167015690250921e+17
19337.0	6.165620710877865e+17
19338.0	6.164181286562474e+17
19339.0	6.162887702391466e+17
19340.0	6.161544537352874e+17
19341.0	6.160233428680701e+17
19342.0	6.15876565017122e+17
19343.0	6.157550910526806e+17
19344.0	6.156202743081642e+17
19345.0	6.154268511830013e+17
19346.0	6.153312124534783e+17
19347.0	6.152104366309376e+17
19348.0	6.150595486416895e+17
19349.0	6.149006494618966e+17
19350.0	6.146230652502013e+17
19351.0	6.144830229621418e+17
19352.0	6.143408842211328e+17
19353.0	6.142014891141801e+17
19354.0	6.14008532116002e+17
19355.0	6.138416035004415e+17
19356.0	6.137009490537129e+17
19357.0	6.135557746152788e+17
19358.0	6.133888838882644e+17
19359.0	6.132245228158975e+17
19360.0	6.130823775038121e+17
19361.0	6.129090241232896e+17
19362.0	6.126924062173865e+17
19363.0	6.125329440920916e+17
19364.0	6.123788595538602e+17
19365.0	6.122267037663231e+17
19366.0	6.120701892580692e+17
19367.0	6.119121457861972e+17
19368.0	6.117525563637759e+17
19369.0	6.115876468861609e+17
19370.0	6.113820538481321e+17
19371.0	6.112230305868457e+17
19372.0	6.110578616216233e+17
19373.0	6.108882663374847e+17
19374.0	6.107185508865363e+17
19375.0	6.105454275635881e+17
19376.0	6.103700350522708e+17
19377.0	6.101890042778963e+17
19378.0	6.099643764397395e+17
19379.0	6.09781253476625e+17
19380.0	6.095953545134079e+17
19381.0	6.094065369437524e+17
19382.0	6.09211268534545e+17
19383.0	6.089853357785088e+17
19384.0	6.087625198097748e+17
19385.0	6.085604967535956e+17
19386.0	6.083549640436393e+17
19387.0	6.081092702437373e+17
19388.0	6.078482576572415e+17
19389.0	6.076296115956394e+17
19390.0	6.074057352369492e+17
19391.0	6.058581545713638e+17
19392.0	6.069056879372968e+17
19393.0	6.066209820071252e+17
19394.0	6.063342985325225e+17
19395.0	6.060812735086591e+17
19396.0	6.058243276494163e+17
19397.0	6.055742004002815e+17
19398.0	6.05299973169698e+17
19399.0	6.049664271559337e+17
19400.0	6.04699535483426e+17
19401.0	6.044056618532863e+17
19402.0	6.040767429257897e+17
19403.0	6.03769402364177e+17
19404.0	6.034486851884372e+17
19405.0	6.030583356456959e+17
19406.0	6.027099609497599e+17
19407.0	6.023758271741951e+17
19408.0	6.019820598329344e+17
19409.0	6.015511516501331e+17
19410.0	6.011765882093567e+17
19411.0	6.00725083407428e+17
19412.0	6.000920729660073e+17
19413.0	5.99634757095697e+17
19414.0	5.991031257082537e+17
19415.0	5.986555018958166e+17
19416.0	5.980019640412841e+17
19417.0	5.972729775783933e+17
19418.0	5.966117626795348e+17
19419.0	5.956847223002452e+17
19420.0	5.946973313389906e+17
19421.0	5.937345879954769e+17
19422.0	5.924406273856851e+17
19423.0	5.912855810757976e+17
19424.0	5.901868532236289e+17
19425.0	5.88798981168606e+17
19426.0	5.871996109149523e+17
19427.0	5.853114756934299e+17
19428.0	5.828668568545967e+17
19429.0	5.806064931613362e+17
19430.0	5.799235418412364e+17
19431.0	5.794176009153189e+17
19432.0	5.800285498769405e+17
19433.0	5.788682260840448e+17
19434.0	5.765800438093137e+17
19435.0	5.736452284132013e+17
19436.0	5.704539137114115e+17
19437.0	5.6784066721437005e+17
19438.0	5.6346153442781875e+17
19439.0	5.6229934759499066e+17
19440.0	5.5819296669259226e+17
19441.0	5.524729351198013e+17
19442.0	5.441699188135233e+17
19443.0	5.407460103815165e+17
19444.0	5.3707836402346656e+17
19445.0	5.295060215485779e+17
19446.0	5.215203695613268e+17
19447.0	5.0736738151519584e+17
19448.0	4.971763608496811e+17
19449.0	4.7756372683871443e+17
19450.0	4.436492451577862e+17
19451.0	4.3343947700196506e+17
19452.0	4.618892260059836e+17
19453.0	4.885698180022273e+17
19454.0	5.016743437139972e+17
19455.0	5.147040411549687e+17
19456.0	5.251053463273474e+17
19457.0	5.3229756119777274e+17
19458.0	5.364958453126533e+17
19459.0	5.403119872289444e+17
19460.0	5.4672693185740864e+17
19461.0	5.5379107239690266e+17
19462.0	5.582544049274884e+17
19463.0	5.614920587892052e+17
19464.0	5.639905475908949e+17
19465.0	5.66344048740489e+17
19466.0	5.6901093870796755e+17
19467.0	5.719774515778896e+17
19468.0	5.743119287626412e+17
19469.0	5.759859702803115e+17
19470.0	5.7588705852566054e+17
19471.0	5.755493323287205e+17
19472.0	5.758223517395622e+17
19473.0	5.770870969248434e+17
19474.0	5.792950953618084e+17
19475.0	5.81252531949841e+17
19476.0	5.828413257067178e+17
19477.0	5.83905582321937e+17
19478.0	5.850767450352297e+17
19479.0	5.858844378223956e+17
19480.0	5.867995681259525e+17
19481.0	5.878966331462996e+17
19482.0	5.884070966504108e+17
19483.0	5.8930113806336e+17
19484.0	5.897821711848787e+17
19485.0	5.902551983587325e+17
19486.0	5.908121636219564e+17
19487.0	5.910084118205782e+17
19488.0	5.913144178944682e+17
19489.0	5.915710452662271e+17
19490.0	5.917884757486248e+17
19491.0	5.922144932331519e+17
19492.0	5.9239069398685e+17
19493.0	5.925581565373098e+17
19494.0	5.927538996718249e+17
19495.0	5.928850771585705e+17
19496.0	5.929829080410793e+17
19497.0	5.931225225800361e+17
19498.0	5.932683314768558e+17
19499.0	5.912956594290669e+17
19500.0	5.934283794765139e+17
19501.0	5.935308028422826e+17
19502.0	5.935851717875028e+17
19503.0	5.936408915782314e+17
19504.0	5.937202789875712e+17
19505.0	5.93766010462754e+17
19506.0	5.937890541786451e+17
19507.0	5.938147895891284e+17
19508.0	5.938382407816534e+17
19509.0	5.938945760165887e+17
19510.0	5.939004575492778e+17
19511.0	5.920471226078534e+17
19512.0	5.937590258980173e+17
19513.0	5.934366028289352e+17
19514.0	5.935972675310926e+17
19515.0	5.939562284406102e+17
19516.0	5.939942711973204e+17
19517.0	5.939837676814335e+17
19518.0	5.939590222665044e+17
19519.0	5.939339348060841e+17
19520.0	5.939483368576342e+17
19521.0	5.939128097745578e+17
19522.0	5.938724764385279e+17
19523.0	5.938323151388672e+17
19524.0	5.937875583500287e+17
19525.0	5.937450696310781e+17
19526.0	5.93734193451281e+17
19527.0	5.93681953534771e+17
19528.0	5.936273914418516e+17
19529.0	5.935710690694484e+17
19530.0	5.935126158508031e+17
19531.0	5.934520770144937e+17
19532.0	5.933894470380201e+17
19533.0	5.93325357863185e+17
19534.0	5.932782277274282e+17
19535.0	5.93227434496273e+17
19536.0	5.931577723497129e+17
19537.0	5.930886089058985e+17
19538.0	5.930157618845012e+17
19539.0	5.929277501472768e+17
19540.0	5.928686161930922e+17
19541.0	5.927996957392896e+17
19542.0	5.927229454985897e+17
19543.0	5.926452821579092e+17
19544.0	5.926240212309331e+17
19545.0	5.925531393108649e+17
19546.0	5.924549661032447e+17
19547.0	5.923985884359337e+17
19548.0	5.923268142475946e+17
19549.0	5.922568499014313e+17
19550.0	5.921748590176938e+17
19551.0	5.920892680230228e+17
19552.0	5.920028939517951e+17
19553.0	5.9192009293824e+17
19554.0	5.918371291856895e+17
19555.0	5.917496443928575e+17
19556.0	5.91661207003682e+17
19557.0	5.915716070932479e+17
19558.0	5.914815881718441e+17
19559.0	5.914592909721599e+17
19560.0	5.914435484210515e+17
19561.0	5.913514340952744e+17
19562.0	5.912597371726506e+17
19563.0	5.911666039106217e+17
19564.0	5.910731577535146e+17
19565.0	5.909792258960042e+17
19566.0	5.908840720979284e+17
19567.0	5.907900780249087e+17
19568.0	5.906941823942655e+17
19569.0	5.905992336277504e+17
19570.0	5.905036085297152e+17
19571.0	5.904073447090857e+17
19572.0	5.903099347249833e+17
19573.0	5.902224172165801e+17
19574.0	5.901291443541332e+17
19575.0	5.900345213452287e+17
19576.0	5.899737268660905e+17
19577.0	5.899062668689408e+17
19578.0	5.898082332617385e+17
19579.0	5.89710033350383e+17
19580.0	5.896250954787497e+17
19581.0	5.895334602123946e+17
19582.0	5.89434648072465e+17
19583.0	5.893351173783551e+17
19584.0	5.892348918278826e+17
19585.0	5.891321771677012e+17
19586.0	5.890301968602452e+17
19587.0	5.889263010840576e+17
19588.0	5.888207449926314e+17
19589.0	5.887306347752106e+17
19590.0	5.88629704511761e+17
19591.0	5.885316460882602e+17
19592.0	5.884303860826111e+17
19593.0	5.884430995772755e+17
19594.0	5.883411691121321e+17
19595.0	5.882474307518463e+17
19596.0	5.879452823890604e+17
19597.0	5.880440939697492e+17
19598.0	5.879330197121705e+17
19599.0	5.878395391617705e+17
19600.0	5.877371629120169e+17
19601.0	5.876326248480768e+17
19602.0	5.875311619080191e+17
19603.0	5.873976892981247e+17
19604.0	5.873245249077247e+17
19605.0	5.872145314523818e+17
19606.0	5.871199612917076e+17
19607.0	5.870170142670847e+17
19608.0	5.869135511333546e+17
19609.0	5.86808563999266e+17
19610.0	5.867070519858516e+17
19611.0	5.866033260090708e+17
19612.0	5.864999582258516e+17
19613.0	5.863959211016191e+17
19614.0	5.862913668197033e+17
19615.0	5.861890910934356e+17
19616.0	5.860737444478975e+17
19617.0	5.859808992646484e+17
19618.0	5.858624077998761e+17
19619.0	5.857540501230932e+17
19620.0	5.856501169476948e+17
19621.0	5.855647123199315e+17
19622.0	5.854604480741376e+17
19623.0	5.853561901897044e+17
19624.0	5.852516393331369e+17
19625.0	5.851472073151828e+17
19626.0	5.850427636929876e+17
19627.0	5.849386474362196e+17
19628.0	5.8480555720704e+17
19629.0	5.847265688158207e+17
19630.0	5.846360922259456e+17
19631.0	5.832122854014972e+17
19632.0	5.844146721215828e+17
19633.0	5.843085614033577e+17
19634.0	5.842059715936255e+17
19635.0	5.841000854104745e+17
19636.0	5.83996436259362e+17
19637.0	5.838806908753235e+17
19638.0	5.83786793341201e+17
19639.0	5.836811293163517e+17
19640.0	5.835762352259071e+17
19641.0	5.834513714249728e+17
19642.0	5.833673561604095e+17
19643.0	5.832627495195988e+17
19644.0	5.831574128601769e+17
19645.0	5.830461897048064e+17
19646.0	5.829489740567892e+17
19647.0	5.828439651123199e+17
19648.0	5.827388718623402e+17
19649.0	5.82633733034257e+17
19650.0	5.825287362532692e+17
19651.0	5.824235157061631e+17
19652.0	5.823184688731476e+17
19653.0	5.822128145651028e+17
19654.0	5.82108291670562e+17
19655.0	5.820030185548457e+17
19656.0	5.818977991262205e+17
19657.0	5.817928326141267e+17
19658.0	5.816875559332521e+17
19659.0	5.815824589083988e+17
19660.0	5.814773130199039e+17
19661.0	5.813721260272297e+17
19662.0	5.812669249836371e+17
19663.0	5.811603702284287e+17
19664.0	5.810512691811667e+17
19665.0	5.809513089204223e+17
