# Flux units: erg / (cm m2 s)
# Wavelength units: Angstrom
wave	flux
19000.0	5.7282940384925005e+17
19001.0	5.72714695786496e+17
19002.0	5.726165330646358e+17
19003.0	5.725096612899498e+17
19004.0	5.724032843732309e+17
19005.0	5.7229639407370234e+17
19006.0	5.7219064693172896e+17
19007.0	5.7207972926149965e+17
19008.0	5.719726707703807e+17
19009.0	5.718615599524522e+17
19010.0	5.717263075595604e+17
19011.0	5.716541394561705e+17
19012.0	5.715295903678462e+17
19013.0	5.714447011501396e+17
19014.0	5.713338976348842e+17
19015.0	5.7122888897003494e+17
19016.0	5.711211064721406e+17
19017.0	5.710192573065898e+17
19018.0	5.7091158644708685e+17
19019.0	5.708089008674132e+17
19020.0	5.7070179295341216e+17
19021.0	5.705971359809535e+17
19022.0	5.704912732159999e+17
19023.0	5.703817082088105e+17
19024.0	5.702768659879253e+17
19025.0	5.7017092381081594e+17
19026.0	5.7006237102899174e+17
19027.0	5.699442558631935e+17
19028.0	5.6985341373972474e+17
19029.0	5.697468754821119e+17
19030.0	5.696419119759358e+17
19031.0	5.6953573037397325e+17
19032.0	5.6942911801698976e+17
19033.0	5.6931576981749754e+17
19034.0	5.6921604660483405e+17
19035.0	5.691068040697172e+17
19036.0	5.678309565617492e+17
19037.0	5.688974534246399e+17
19038.0	5.687905967494485e+17
19039.0	5.686865003457193e+17
19040.0	5.6858042038572365e+17
19041.0	5.68473472274705e+17
19042.0	5.683594479534079e+17
19043.0	5.6826227858254496e+17
19044.0	5.6815514368518816e+17
19045.0	5.6804966511848096e+17
19046.0	5.679398025953279e+17
19047.0	5.678359907751252e+17
19048.0	5.677143353371305e+17
19049.0	5.6761807445251405e+17
19050.0	5.675167698474324e+17
19051.0	5.6725437964178746e+17
19052.0	5.672718050874709e+17
19053.0	5.6720145633334605e+17
19054.0	5.670964714362196e+17
19055.0	5.6696934732485965e+17
19056.0	5.6688244798696096e+17
19057.0	5.667784319041534e+17
19058.0	5.66670290583552e+17
19059.0	5.6656681521643514e+17
19060.0	5.6645979524300794e+17
19061.0	5.6635596412900685e+17
19062.0	5.66249773858816e+17
19063.0	5.661441806477994e+17
19064.0	5.6602814564706976e+17
19065.0	5.6591876141438285e+17
19066.0	5.6582222202798074e+17
19067.0	5.657212657598462e+17
19068.0	5.656158816348842e+17
19069.0	5.655102525625685e+17
19070.0	5.6540265363537914e+17
19071.0	5.6529860917111456e+17
19072.0	5.6519276954473805e+17
19073.0	5.650874736399701e+17
19074.0	5.649496742559743e+17
19075.0	5.6480499327740576e+17
19076.0	5.6469781496900256e+17
19077.0	5.645925627549013e+17
19078.0	5.644856315609087e+17
19079.0	5.64382834832179e+17
19080.0	5.642761525002239e+17
19081.0	5.641689429442558e+17
19082.0	5.640632041209855e+17
19083.0	5.63953020314146e+17
19084.0	5.6383780795624096e+17
19085.0	5.637506485714943e+17
19086.0	5.636148802792106e+17
19087.0	5.635073113412947e+17
19088.0	5.6342702635089914e+17
19089.0	5.632994801527466e+17
19090.0	5.632218407195988e+17
19091.0	5.6311634523586554e+17
19092.0	5.6300205261892256e+17
19093.0	5.62908519080482e+17
19094.0	5.628030510694399e+17
19095.0	5.6269780444774394e+17
19096.0	5.6259153483530234e+17
19097.0	5.6248755069911034e+17
19098.0	5.6238214874835616e+17
19099.0	5.6227691708634445e+17
19100.0	5.621701209489407e+17
19101.0	5.620663860243113e+17
19102.0	5.6195342446974304e+17
19103.0	5.618574074839039e+17
19104.0	5.617523837894655e+17
19105.0	5.616460640550911e+17
19106.0	5.6153670435908256e+17
19107.0	5.614357903835136e+17
19108.0	5.613318911120724e+17
19109.0	5.611426917209427e+17
19110.0	5.6111926143003296e+17
19111.0	5.6101730097561594e+17
19112.0	5.609123892690943e+17
19113.0	5.6080772306916685e+17
19114.0	5.6070289979255456e+17
19115.0	5.6059237408003405e+17
19116.0	5.604916601727658e+17
19117.0	5.603867471380478e+17
19118.0	5.6027184571787936e+17
19119.0	5.596923140505593e+17
19120.0	5.6006449911125325e+17
19121.0	5.599626430251007e+17
19122.0	5.598649824313343e+17
19123.0	5.5976023514152954e+17
19124.0	5.5965072584867834e+17
19125.0	5.5954995713583776e+17
19126.0	5.5944569079289165e+17
19127.0	5.591910986372436e+17
19128.0	5.5920952036993696e+17
19129.0	5.5912629775892474e+17
19130.0	5.5902595015420576e+17
19131.0	5.5892300676464634e+17
19132.0	5.5881839236437325e+17
19133.0	5.586987717929641e+17
19134.0	5.5859735624854176e+17
19135.0	5.5850449058310816e+17
19136.0	5.584008456962047e+17
19137.0	5.582828232245247e+17
19138.0	5.5818951547944954e+17
19139.0	5.580873995561642e+17
19140.0	5.579831508991999e+17
19141.0	5.578787116111188e+17
19142.0	5.577723612583253e+17
19143.0	5.5766560272984723e+17
19144.0	5.5756251191050234e+17
19145.0	5.574611103470933e+17
19146.0	5.5730868409685325e+17
19147.0	5.572428838557013e+17
19148.0	5.571475427120468e+17
19149.0	5.570427922066089e+17
19150.0	5.569392632922111e+17
19151.0	5.568357260591103e+17
19152.0	5.5672998185314976e+17
19153.0	5.566249483720019e+17
19154.0	5.565122803488084e+17
19155.0	5.5641903943297696e+17
19156.0	5.563146271981568e+17
19157.0	5.5620919106382496e+17
19158.0	5.5604744751677414e+17
19159.0	5.560008067863892e+17
19160.0	5.558963533774847e+17
19161.0	5.557918486582611e+17
19162.0	5.555584913549995e+17
19163.0	5.555813039647402e+17
19164.0	5.5548211496659616e+17
19165.0	5.5537378238573216e+17
19166.0	5.552606338351103e+17
19167.0	5.5515769303203834e+17
19168.0	5.550638842773502e+17
19169.0	5.549583325899434e+17
19170.0	5.548581902964053e+17
19171.0	5.547459811999744e+17
19172.0	5.5464979301662714e+17
19173.0	5.5454610961203194e+17
19174.0	5.544378667892734e+17
19175.0	5.543387135126185e+17
19176.0	5.5423512790521165e+17
19177.0	5.5411868402974714e+17
19178.0	5.5402385179497805e+17
19179.0	5.539120186479957e+17
19180.0	5.538170166138196e+17
19181.0	5.5370583071784954e+17
19182.0	5.5360959835450016e+17
19183.0	5.5350818791314765e+17
19184.0	5.534027825370452e+17
19185.0	5.533003638549162e+17
19186.0	5.531969918074879e+17
19187.0	5.530879313750697e+17
19188.0	5.529893795616085e+17
19189.0	5.5288507693793274e+17
19190.0	5.527806465277951e+17
19191.0	5.52674958315793e+17
19192.0	5.5257493535020365e+17
19193.0	5.524705522657962e+17
19194.0	5.5236649899349325e+17
19195.0	5.522639326019582e+17
19196.0	5.521588800367274e+17
19197.0	5.520557325243732e+17
19198.0	5.519517371334655e+17
19199.0	5.5108357177999334e+17
19200.0	5.51207705562317e+17
19201.0	5.5164129089945594e+17
19202.0	5.5153874051618125e+17
19203.0	5.5143330990434976e+17
19204.0	5.5132980426833914e+17
19205.0	5.512273991477929e+17
19206.0	5.5112349687043405e+17
19207.0	5.5101126554419194e+17
19208.0	5.5090009111265274e+17
19209.0	5.508134737018879e+17
19210.0	5.507102952914943e+17
19211.0	5.5060752400820896e+17
19212.0	5.5050406695621965e+17
19213.0	5.5038835813253114e+17
19214.0	5.5028005407293434e+17
19215.0	5.5019050868845216e+17
19216.0	5.500899568211285e+17
19217.0	5.4998674429706234e+17
19218.0	5.498136430641151e+17
19219.0	5.4976782364835834e+17
19220.0	5.4967418944662176e+17
19221.0	5.495465278352042e+17
19222.0	5.49468298613009e+17
19223.0	5.4936428385839776e+17
19224.0	5.4925858068671136e+17
19225.0	5.4914640402623123e+17
19226.0	5.490540291642708e+17
19227.0	5.4895045033765536e+17
19228.0	5.488490041049088e+17
19229.0	5.4874556040478714e+17
19230.0	5.4864089070960634e+17
19231.0	5.485369992675326e+17
19232.0	5.4843427363225594e+17
19233.0	5.4832619788260685e+17
19234.0	5.482265440856745e+17
19235.0	5.48123308003601e+17
19236.0	5.480215887216639e+17
19237.0	5.4791681871271245e+17
19238.0	5.47806179893794e+17
19239.0	5.4771132822541645e+17
19240.0	5.476041681622356e+17
19241.0	5.475014747531945e+17
19242.0	5.473993582706687e+17
19243.0	5.47284719903266e+17
19244.0	5.471941796997802e+17
19245.0	5.470903324377087e+17
19246.0	5.4698575159186765e+17
19247.0	5.4688372235086496e+17
19248.0	5.467803324077396e+17
19249.0	5.4667608389058554e+17
19250.0	5.46571441877811e+17
19251.0	5.464583599467177e+17
19252.0	5.4634510919488845e+17
19253.0	5.4626060284723194e+17
19254.0	5.4615850670708045e+17
19255.0	5.4604178565802643e+17
19256.0	5.4594716740266656e+17
19257.0	5.458482406883326e+17
19258.0	5.457446652171604e+17
19259.0	5.4563570873357645e+17
19260.0	5.4551424658309114e+17
19261.0	5.454325439179434e+17
19262.0	5.453252625694719e+17
19263.0	5.452202176937983e+17
19264.0	5.45076394799923e+17
19265.0	5.45001346048546e+17
19266.0	5.4489555241970336e+17
19267.0	5.448111721807871e+17
19268.0	5.4470732505852576e+17
19269.0	5.446034507431936e+17
19270.0	5.4449924801385805e+17
19271.0	5.4436686033059834e+17
19272.0	5.442886443903658e+17
19273.0	5.440620587210066e+17
19274.0	5.439996241990995e+17
19275.0	5.4397948895341216e+17
19276.0	5.438737393647615e+17
19277.0	5.43770027299089e+17
19278.0	5.43665968714001e+17
19279.0	5.4356032069741216e+17
19280.0	5.4345134184420685e+17
19281.0	5.433526842643798e+17
19282.0	5.432498890036564e+17
19283.0	5.431331181821951e+17
19284.0	5.4303060757490336e+17
19285.0	5.429209792337236e+17
19286.0	5.428289875214335e+17
19287.0	5.4272723098009594e+17
19288.0	5.4226243100344256e+17
19289.0	5.4178756560595514e+17
19290.0	5.4241315821103776e+17
19291.0	5.4228763191978656e+17
19292.0	5.4220340302533965e+17
19293.0	5.4209788181654176e+17
19294.0	5.419926284140542e+17
19295.0	5.418884158980096e+17
19296.0	5.417825546709674e+17
19297.0	5.416761924343124e+17
19298.0	5.415703750377471e+17
19299.0	5.414664815684266e+17
19300.0	5.41361060323874e+17
19301.0	5.4125545634747725e+17
19302.0	5.411485677256704e+17
19303.0	5.4103831946635936e+17
19304.0	5.409352281576788e+17
19305.0	5.408307769857364e+17
19306.0	5.4072527094633805e+17
19307.0	5.406152233844735e+17
19308.0	5.405105261466964e+17
19309.0	5.4037723004709536e+17
19310.0	5.402622024482815e+17
19311.0	5.401875948677802e+17
19312.0	5.400861923956051e+17
19313.0	5.399797499079338e+17
19314.0	5.3852847144086304e+17
19315.0	5.384946024360628e+17
19316.0	5.396554294755328e+17
19317.0	5.395505969015466e+17
19318.0	5.3944265236370765e+17
19319.0	5.3933622637363194e+17
19320.0	5.392278932335274e+17
19321.0	5.3911973289874765e+17
19322.0	5.390032873455615e+17
19323.0	5.388915083051007e+17
19324.0	5.387941423611904e+17
19325.0	5.386587103821824e+17
19326.0	5.385766641336319e+17
19327.0	5.384663157702655e+17
19328.0	5.3835697592729594e+17
19329.0	5.3824856379446605e+17
19330.0	5.381354792069802e+17
19331.0	5.380247546145449e+17
19332.0	5.3791758609285114e+17
19333.0	5.378062740182356e+17
19334.0	5.3769621086754125e+17
19335.0	5.3758320834860365e+17
19336.0	5.37473139745314e+17
19337.0	5.373616133417641e+17
19338.0	5.3723251923572045e+17
19339.0	5.37137367744512e+17
19340.0	5.3701504499275085e+17
19341.0	5.369072657104894e+17
19342.0	5.367654962080425e+17
19343.0	5.3668455327115936e+17
19344.0	5.3656992531961165e+17
19345.0	5.36295848175206e+17
19346.0	5.36258838405666e+17
19347.0	5.3621967989418656e+17
19348.0	5.361112881037311e+17
19349.0	5.3599255141198496e+17
19350.0	5.35875845951761e+17
19351.0	5.3575894398839456e+17
19352.0	5.3563690568034976e+17
19353.0	5.3552619597769376e+17
19354.0	5.354079772125866e+17
19355.0	5.3528097774196045e+17
19356.0	5.351692465864703e+17
19357.0	5.350492522326698e+17
19358.0	5.3492729857966074e+17
19359.0	5.347995307824468e+17
19360.0	5.34680720970001e+17
19361.0	5.345595511625044e+17
19362.0	5.344394833384789e+17
19363.0	5.343153300526419e+17
19364.0	5.341904899495253e+17
19365.0	5.340300672587092e+17
19366.0	5.3384244618417485e+17
19367.0	5.337153539495252e+17
19368.0	5.3358747129828685e+17
19369.0	5.334528047797589e+17
19370.0	5.3331496904512845e+17
19371.0	5.331937763087701e+17
19372.0	5.330661664970068e+17
19373.0	5.3293162196282016e+17
19374.0	5.3279960205011616e+17
19375.0	5.326644280208042e+17
19376.0	5.325285843708585e+17
19377.0	5.3239037128867834e+17
19378.0	5.3225211164972365e+17
19379.0	5.321128309074602e+17
19380.0	5.319715260639913e+17
19381.0	5.31828419137809e+17
19382.0	5.3167910974477645e+17
19383.0	5.3153002006336845e+17
19384.0	5.313919978919252e+17
19385.0	5.3124377887812256e+17
19386.0	5.3109381076964685e+17
19387.0	5.309396351451136e+17
19388.0	5.306524428315306e+17
19389.0	5.304958058495999e+17
19390.0	5.3033694609626445e+17
19391.0	5.291390711889906e+17
19392.0	5.299763968038227e+17
19393.0	5.2984733485410976e+17
19394.0	5.2967823072296954e+17
19395.0	5.2950580043885216e+17
19396.0	5.2933268543460685e+17
19397.0	5.2906839108485094e+17
19398.0	5.2879705372972365e+17
19399.0	5.2855451509500576e+17
19400.0	5.2841978160742394e+17
19401.0	5.2823563649242445e+17
19402.0	5.2804116227467936e+17
19403.0	5.276420596389205e+17
19404.0	5.2739914882962765e+17
19405.0	5.2716809070400845e+17
19406.0	5.269442855785813e+17
19407.0	5.2644506483643725e+17
19408.0	5.261448204080469e+17
19409.0	5.2590804733351264e+17
19410.0	5.253795736278355e+17
19411.0	5.251175678301524e+17
19412.0	5.244616822838613e+17
19413.0	5.2409671261443405e+17
19414.0	5.233836859675988e+17
19415.0	5.227605947056125e+17
19416.0	5.2199831106136755e+17
19417.0	5.211287553660242e+17
19418.0	5.2045218973395616e+17
19419.0	5.200209820778494e+17
19420.0	5.195703218689364e+17
19421.0	5.190946199175167e+17
19422.0	5.185915265744896e+17
19423.0	5.180587281219583e+17
19424.0	5.1744484223877114e+17
19425.0	5.168584319128915e+17
19426.0	5.162395320887979e+17
19427.0	5.155866839875583e+17
19428.0	5.148231931527168e+17
19429.0	5.140643240214527e+17
19430.0	5.132122894718293e+17
19431.0	5.1215516422198624e+17
19432.0	5.1128925225833805e+17
19433.0	5.101291473382061e+17
19434.0	5.086432641155076e+17
19435.0	5.067028036932941e+17
19436.0	5.0387171930712877e+17
19437.0	4.998815246800209e+17
19438.0	4.956359015530502e+17
19439.0	4.948425177737899e+17
19440.0	4.9239514670257485e+17
19441.0	4.896646974406655e+17
19442.0	4.86681764499729e+17
19443.0	4.8350213366087654e+17
19444.0	4.7987879851676986e+17
19445.0	4.7455081441088755e+17
19446.0	4.645320601021073e+17
19447.0	4.561431525588988e+17
19448.0	4.4595624007434304e+17
19449.0	4.250810411472214e+17
19450.0	3.751197587188386e+17
19451.0	3.5719702391029523e+17
19452.0	4.046370052767763e+17
19453.0	4.371325168648197e+17
19454.0	4.512813582123002e+17
19455.0	4.5974487019028474e+17
19456.0	4.6911096702893926e+17
19457.0	4.7670097374521946e+17
19458.0	4.773703288793807e+17
19459.0	4.835698044218037e+17
19460.0	4.866855093141502e+17
19461.0	4.893632764400981e+17
19462.0	4.918178958977707e+17
19463.0	4.9405510053178016e+17
19464.0	4.9610186349172077e+17
19465.0	4.995646591336447e+17
19466.0	5.02787045169561e+17
19467.0	5.049070148823722e+17
19468.0	5.063425406621013e+17
19469.0	5.074278046586195e+17
19470.0	5.083630652446037e+17
19471.0	5.090898838115668e+17
19472.0	5.098264072290303e+17
19473.0	5.103703897931775e+17
19474.0	5.109767590641662e+17
19475.0	5.114045803790334e+17
19476.0	5.1190893599784954e+17
19477.0	5.1232283683717126e+17
19478.0	5.1272082623474336e+17
19479.0	5.1311208111800326e+17
19480.0	5.134291817551188e+17
19481.0	5.13722824209203e+17
19482.0	5.1399272578416634e+17
19483.0	5.1424090296156154e+17
19484.0	5.1456318384373754e+17
19485.0	5.151007254249469e+17
19486.0	5.157503279038464e+17
19487.0	5.163458923681108e+17
19488.0	5.166742589057707e+17
19489.0	5.170759005634559e+17
19490.0	5.172468805970603e+17
19491.0	5.176364088251732e+17
19492.0	5.177669714968574e+17
19493.0	5.180830504015188e+17
19494.0	5.1812582055826765e+17
19495.0	5.18239136391714e+17
19496.0	5.1842527995275936e+17
19497.0	5.184784189882367e+17
19498.0	5.183110374577492e+17
19499.0	5.1695768920828563e+17
19500.0	5.1875148006249805e+17
19501.0	5.187499827658751e+17
19502.0	5.187437476533589e+17
19503.0	5.187361248553642e+17
19504.0	5.1872354858434554e+17
19505.0	5.1877373385113606e+17
19506.0	5.1885913400497485e+17
19507.0	5.1883471322917536e+17
19508.0	5.1881132606969165e+17
19509.0	5.187833509008724e+17
19510.0	5.1873524831573325e+17
19511.0	5.1628568187589894e+17
19512.0	5.183902354243581e+17
19513.0	5.1817215957838445e+17
19514.0	5.1825070714825325e+17
19515.0	5.1852283904436896e+17
19516.0	5.1864908696562336e+17
19517.0	5.186001062330366e+17
19518.0	5.185580193284096e+17
19519.0	5.185080699912191e+17
19520.0	5.18455686210082e+17
19521.0	5.1840707136061434e+17
19522.0	5.183513333246634e+17
19523.0	5.1829923713297056e+17
19524.0	5.1824296033867085e+17
19525.0	5.1818499198156794e+17
19526.0	5.1812783759906125e+17
19527.0	5.1806796894262605e+17
19528.0	5.1800688624489805e+17
19529.0	5.179455553142783e+17
19530.0	5.1788324221747194e+17
19531.0	5.1781942294609914e+17
19532.0	5.1775464178100896e+17
19533.0	5.176889240278355e+17
19534.0	5.176219972665343e+17
19535.0	5.175539646769834e+17
19536.0	5.17483118198784e+17
19537.0	5.174174042903892e+17
19538.0	5.173348740191574e+17
19539.0	5.172325723581098e+17
19540.0	5.172033438613503e+17
19541.0	5.171333703576234e+17
19542.0	5.170605228468906e+17
19543.0	5.170013665929898e+17
19544.0	5.17002692202769e+17
19545.0	5.1688435949240314e+17
19546.0	5.1677994033698125e+17
19547.0	5.1677759306465274e+17
19548.0	5.167008980489556e+17
19549.0	5.16617060552977e+17
19550.0	5.1654722497194656e+17
19551.0	5.164696732696575e+17
19552.0	5.1639136093033805e+17
19553.0	5.16310492652066e+17
19554.0	5.1623051181861536e+17
19555.0	5.1615293599907834e+17
19556.0	5.16074288185344e+17
19557.0	5.159936261270187e+17
19558.0	5.1591308276749645e+17
19559.0	5.1583189089867085e+17
19560.0	5.1574834987007994e+17
19561.0	5.156667749214889e+17
19562.0	5.1558680827876685e+17
19563.0	5.155047911806292e+17
19564.0	5.1542217786217805e+17
19565.0	5.153392584993451e+17
19566.0	5.1525352287109114e+17
19567.0	5.1517241083385165e+17
19568.0	5.150868826838356e+17
19569.0	5.150034218363562e+17
19570.0	5.149205955870719e+17
19571.0	5.1483560144186016e+17
19572.0	5.147491332085076e+17
19573.0	5.1466437394431994e+17
19574.0	5.145743335620607e+17
19575.0	5.1449585009513805e+17
19576.0	5.144104317659817e+17
19577.0	5.143217766225237e+17
19578.0	5.142349155926015e+17
19579.0	5.1415028865870496e+17
19580.0	5.140638966218751e+17
19581.0	5.1397851282582176e+17
19582.0	5.138932659737941e+17
19583.0	5.138064803015338e+17
19584.0	5.1371862578080403e+17
19585.0	5.136237208447658e+17
19586.0	5.1353345914306554e+17
19587.0	5.1345282455743136e+17
19588.0	5.133302465123669e+17
19589.0	5.132805714826581e+17
19590.0	5.131859324654932e+17
19591.0	5.131062622901589e+17
19592.0	5.130188031524862e+17
19593.0	5.129292507774975e+17
19594.0	5.1282385588715514e+17
19595.0	5.12749877731874e+17
19596.0	5.12607867965713e+17
19597.0	5.12573024763904e+17
19598.0	5.124535792347817e+17
19599.0	5.1239955072723616e+17
19600.0	5.123114235767466e+17
19601.0	5.1221686159496525e+17
19602.0	5.121284109238272e+17
19603.0	5.119991412861609e+17
19604.0	5.11949014110481e+17
19605.0	5.1184193338955085e+17
19606.0	5.117761632075775e+17
19607.0	5.1168755329269754e+17
19608.0	5.115964877526355e+17
19609.0	5.1150428241046176e+17
19610.0	5.1141860410436256e+17
19611.0	5.113282842416468e+17
19612.0	5.1123977212395514e+17
19613.0	5.111491797013845e+17
19614.0	5.110570254598143e+17
19615.0	5.1096996541016736e+17
19616.0	5.1087126246195194e+17
19617.0	5.1078936902587725e+17
19618.0	5.106503481207464e+17
19619.0	5.1055056080513683e+17
19620.0	5.104633285094058e+17
19621.0	5.1042966901009056e+17
19622.0	5.1034051299682976e+17
19623.0	5.102540939067392e+17
19624.0	5.101630644376917e+17
19625.0	5.1007348605801805e+17
19626.0	5.099832077189119e+17
19627.0	5.098926619929257e+17
19628.0	5.097831798232405e+17
19629.0	5.09702608851217e+17
19630.0	5.095504692117503e+17
19631.0	5.08681205439966e+17
19632.0	5.0943994797315405e+17
19633.0	5.093459455115262e+17
19634.0	5.092593770343081e+17
19635.0	5.0916571193453216e+17
19636.0	5.0907687783410336e+17
19637.0	5.0895841929461754e+17
19638.0	5.08895992811793e+17
19639.0	5.0880494943163725e+17
19640.0	5.087026012138154e+17
19641.0	5.085455868144299e+17
19642.0	5.085334468209322e+17
19643.0	5.084423233994751e+17
19644.0	5.083471588360191e+17
19645.0	5.082384160522239e+17
19646.0	5.081702226111146e+17
19647.0	5.08080308617216e+17
19648.0	5.079895641511251e+17
19649.0	5.078985009179307e+17
19650.0	5.0780788815298554e+17
19651.0	5.077165688575317e+17
19652.0	5.0762591247182496e+17
19653.0	5.0753471592966816e+17
19654.0	5.074437299415721e+17
19655.0	5.0735250250137594e+17
