# Flux units: erg / (cm m2 s)
# Wavelength units: Angstrom
wave	flux
19000.0	5.880756528218112e+17
19001.0	5.879545943031807e+17
19002.0	5.878586039511721e+17
19003.0	5.87749795176994e+17
19004.0	5.87641093357568e+17
19005.0	5.875316713062399e+17
19006.0	5.874243109650431e+17
19007.0	5.873156445175807e+17
19008.0	5.871990524433748e+17
19009.0	5.870860555168425e+17
19010.0	5.869276744734035e+17
19011.0	5.868770966896639e+17
19012.0	5.867546434251433e+17
19013.0	5.86663436886562e+17
19014.0	5.865486836651347e+17
19015.0	5.86441563447842e+17
19016.0	5.86331805712384e+17
19017.0	5.862302320427008e+17
19018.0	5.8612035616768e+17
19019.0	5.860124516854442e+17
19020.0	5.859030398402559e+17
19021.0	5.857969228305748e+17
19022.0	5.856880368812032e+17
19023.0	5.855757253738495e+17
19024.0	5.854692359798781e+17
19025.0	5.853635704870228e+17
19026.0	5.852516705807018e+17
19027.0	5.851388764487679e+17
19028.0	5.850389796618237e+17
19029.0	5.849288621249875e+17
19030.0	5.848242592590505e+17
19031.0	5.847160906754729e+17
19032.0	5.84607081693184e+17
19033.0	5.844881215149395e+17
19034.0	5.843890937178793e+17
19035.0	5.842719918959273e+17
19036.0	5.835024004459174e+17
19037.0	5.840607188615168e+17
19038.0	5.839558054772736e+17
19039.0	5.838509040467968e+17
19040.0	5.837437729243135e+17
19041.0	5.836349298966527e+17
19042.0	5.835045380030463e+17
19043.0	5.834202229156521e+17
19044.0	5.833108970536959e+17
19045.0	5.832043866182996e+17
19046.0	5.830890645094399e+17
19047.0	5.829856942096383e+17
19048.0	5.828516908105727e+17
19049.0	5.827400537473023e+17
19050.0	5.82657987575808e+17
19051.0	5.824521256828925e+17
19052.0	5.824291480272895e+17
19053.0	5.823417486584489e+17
19054.0	5.822345158939988e+17
19055.0	5.820915818430464e+17
19056.0	5.820143966530218e+17
19057.0	5.819108305491284e+17
19058.0	5.817902906561876e+17
19059.0	5.816910418892116e+17
19060.0	5.815862084064596e+17
19061.0	5.814815187184298e+17
19062.0	5.813733557971625e+17
19063.0	5.812660004891305e+17
19064.0	5.811436030787583e+17
19065.0	5.810297821812052e+17
19066.0	5.80932329345297e+17
19067.0	5.808350026880339e+17
19068.0	5.807291493602644e+17
19069.0	5.806219265922388e+17
19070.0	5.805108094129492e+17
19071.0	5.804065205605716e+17
19072.0	5.80295272309282e+17
19073.0	5.801920517461332e+17
19074.0	5.800853838845267e+17
19075.0	5.79978108477986e+17
19076.0	5.798684326013609e+17
19077.0	5.797614924595199e+17
19078.0	5.796515185775956e+17
19079.0	5.795489017146025e+17
19080.0	5.794403817881599e+17
19081.0	5.793291905094995e+17
19082.0	5.792227378855935e+17
19083.0	5.791085619402068e+17
19084.0	5.789867452312233e+17
19085.0	5.789045643455146e+17
19086.0	5.787477694480383e+17
19087.0	5.786674025289044e+17
19088.0	5.785675648816468e+17
19089.0	5.784487248702122e+17
19090.0	5.783670061268991e+17
19091.0	5.782604218717524e+17
19092.0	5.781391330159274e+17
19093.0	5.780506438270975e+17
19094.0	5.779440255980884e+17
19095.0	5.778372113552723e+17
19096.0	5.777283890894164e+17
19097.0	5.776232194331988e+17
19098.0	5.775114954779306e+17
19099.0	5.774031051554815e+17
19100.0	5.773006019581268e+17
19101.0	5.771960357923497e+17
19102.0	5.770748404695037e+17
19103.0	5.769826950359722e+17
19104.0	5.768764874992297e+17
19105.0	5.767582423100074e+17
19106.0	5.766603339027796e+17
19107.0	5.765509629520553e+17
19108.0	5.764445821206526e+17
19109.0	5.7630315704046925e+17
19110.0	5.762324592503466e+17
19111.0	5.7612674237726714e+17
19112.0	5.7601986535970125e+17
19113.0	5.7591692141090125e+17
19114.0	5.758084235744596e+17
19115.0	5.756971744144041e+17
19116.0	5.755951210561535e+17
19117.0	5.7548864228775245e+17
19118.0	5.753695509676031e+17
19119.0	5.743656566084936e+17
19120.0	5.7516306293500576e+17
19121.0	5.750614872380756e+17
19122.0	5.749598222024703e+17
19123.0	5.7485365814667936e+17
19124.0	5.747439904489471e+17
19125.0	5.746405019396777e+17
19126.0	5.7453135216858445e+17
19127.0	5.742065870001492e+17
19128.0	5.7431608217217683e+17
19129.0	5.742057769402367e+17
19130.0	5.7410842539677005e+17
19131.0	5.7400398359210656e+17
19132.0	5.738977120223232e+17
19133.0	5.737848425327273e+17
19134.0	5.736845230997503e+17
19135.0	5.735794819290452e+17
19136.0	5.734739500946772e+17
19137.0	5.733484452642815e+17
19138.0	5.732601625750185e+17
19139.0	5.7315412525711354e+17
19140.0	5.73046833422882e+17
19141.0	5.7294095171365536e+17
19142.0	5.728318487789566e+17
19143.0	5.7272196458523296e+17
19144.0	5.726184087573845e+17
19145.0	5.725175040791892e+17
19146.0	5.7233427101559475e+17
19147.0	5.7229451439636474e+17
19148.0	5.7219582997299194e+17
19149.0	5.7208868347139405e+17
19150.0	5.7198785505962656e+17
19151.0	5.7188224311405216e+17
19152.0	5.7177630610991776e+17
19153.0	5.7166028054637216e+17
19154.0	5.7154981676974074e+17
19155.0	5.714598528636243e+17
19156.0	5.71354022744337e+17
19157.0	5.7124322719825914e+17
19158.0	5.7111189193577805e+17
19159.0	5.710339958811305e+17
19160.0	5.7093027535694483e+17
19161.0	5.708251827361109e+17
19162.0	5.706577728241663e+17
19163.0	5.706094608034474e+17
19164.0	5.705098520952831e+17
19165.0	5.703931520177491e+17
19166.0	5.702823326340436e+17
19167.0	5.701872563606867e+17
19168.0	5.700823763211604e+17
19169.0	5.699762951028735e+17
19170.0	5.6987245958485325e+17
19171.0	5.697637943257769e+17
19172.0	5.6966138172538874e+17
19173.0	5.695567715194196e+17
19174.0	5.6944465896188576e+17
19175.0	5.6934609778114554e+17
19176.0	5.6924081949245434e+17
19177.0	5.691170229321726e+17
19178.0	5.6902852213910176e+17
19179.0	5.68920554742306e+17
19180.0	5.6881915268956154e+17
19181.0	5.68698004972066e+17
19182.0	5.6860847986005325e+17
19183.0	5.68505518924322e+17
19184.0	5.68399915786786e+17
19185.0	5.682939808098986e+17
19186.0	5.681900997836799e+17
19187.0	5.680773614359892e+17
19188.0	5.6797984065235616e+17
19189.0	5.6787552740311034e+17
19190.0	5.677701908135935e+17
19191.0	5.6766116708133536e+17
19192.0	5.67560413258274e+17
19193.0	5.674534110407338e+17
19194.0	5.673465772944042e+17
19195.0	5.672446053755562e+17
19196.0	5.671366087584426e+17
19197.0	5.6703057479598074e+17
19198.0	5.669152647107924e+17
19199.0	5.664169033116329e+17
19200.0	5.6641451626332166e+17
19201.0	5.6660291761821005e+17
19202.0	5.6650802980891296e+17
19203.0	5.664043813568511e+17
19204.0	5.662986787444052e+17
19205.0	5.6619616142622714e+17
19206.0	5.6609173430162765e+17
19207.0	5.65974372782353e+17
19208.0	5.658542971988649e+17
19209.0	5.657781731677524e+17
19210.0	5.656735295471615e+17
19211.0	5.655707011514368e+17
19212.0	5.654660146091349e+17
19213.0	5.6534818668325523e+17
19214.0	5.6524102186653005e+17
19215.0	5.6515045572826445e+17
19216.0	5.650475937781077e+17
19217.0	5.649409553465343e+17
19218.0	5.647400892192083e+17
19219.0	5.6471404776434336e+17
19220.0	5.646261791227903e+17
19221.0	5.6448677318055245e+17
19222.0	5.64418468450577e+17
19223.0	5.6431383454679034e+17
19224.0	5.642063524309673e+17
19225.0	5.64090148889122e+17
19226.0	5.640006806798336e+17
19227.0	5.6389644341739514e+17
19228.0	5.637952436699136e+17
19229.0	5.6369076222907725e+17
19230.0	5.635854593338025e+17
19231.0	5.634805437825023e+17
19232.0	5.633769197972138e+17
19233.0	5.6326502058994323e+17
19234.0	5.6316650876218016e+17
19235.0	5.630607565870421e+17
19236.0	5.6296061450321914e+17
19237.0	5.628545175562922e+17
19238.0	5.627403281891326e+17
19239.0	5.626482150517417e+17
19240.0	5.625432998499668e+17
19241.0	5.624369898323968e+17
19242.0	5.623336304377856e+17
19243.0	5.622119283032063e+17
19244.0	5.6212737833478816e+17
19245.0	5.6202244558684154e+17
19246.0	5.619169535284564e+17
19247.0	5.618136764820137e+17
19248.0	5.6171076098457606e+17
19249.0	5.6160635755779405e+17
19250.0	5.6149802190110714e+17
19251.0	5.613837243908094e+17
19252.0	5.6125855209881594e+17
19253.0	5.611868039850666e+17
19254.0	5.6108594152953165e+17
19255.0	5.609582399324158e+17
19256.0	5.608748775112703e+17
19257.0	5.607737928974335e+17
19258.0	5.606696198078464e+17
19259.0	5.605564138651646e+17
19260.0	5.604451093402963e+17
19261.0	5.603555319392937e+17
19262.0	5.602458004182356e+17
19263.0	5.601396339157673e+17
19264.0	5.5997535428280294e+17
19265.0	5.5991429290612045e+17
19266.0	5.598016150263126e+17
19267.0	5.5973279572514125e+17
19268.0	5.596279168040958e+17
19269.0	5.5952418935930874e+17
19270.0	5.594136998576126e+17
19271.0	5.5926590537728006e+17
19272.0	5.592002920622762e+17
19273.0	5.590534501782867e+17
19274.0	5.589394665417385e+17
19275.0	5.5889272235185485e+17
19276.0	5.587862460301311e+17
19277.0	5.5868287405260794e+17
19278.0	5.585791843565567e+17
19279.0	5.584727918510079e+17
19280.0	5.583606966299305e+17
19281.0	5.5826556820739405e+17
19282.0	5.581634992603135e+17
19283.0	5.580544895789737e+17
19284.0	5.579504621715455e+17
19285.0	5.578310043391317e+17
19286.0	5.5774140715499514e+17
19287.0	5.5764088003406496e+17
19288.0	5.5735369778681146e+17
19289.0	5.569815313907703e+17
19290.0	5.5732791127572474e+17
19291.0	5.5719413227192326e+17
19292.0	5.571214368047103e+17
19293.0	5.5701647602483194e+17
19294.0	5.569116278620158e+17
19295.0	5.5680866091444896e+17
19296.0	5.566979551264767e+17
19297.0	5.565962045969749e+17
19298.0	5.5649136048865274e+17
19299.0	5.563845019959294e+17
19300.0	5.56285182554931e+17
19301.0	5.561808656706218e+17
19302.0	5.5607518738513914e+17
19303.0	5.5596252306691405e+17
19304.0	5.558610116826452e+17
19305.0	5.557552932017492e+17
19306.0	5.5565147117540685e+17
19307.0	5.5554120453106336e+17
19308.0	5.554388567326719e+17
19309.0	5.553220064990547e+17
19310.0	5.552103231586303e+17
19311.0	5.551210281041919e+17
19312.0	5.550206040932351e+17
19313.0	5.549157389434879e+17
19314.0	5.5368476992907846e+17
19315.0	5.536837772072295e+17
19316.0	5.5459048108414285e+17
19317.0	5.544944134171306e+17
19318.0	5.5438918832619514e+17
19319.0	5.5428620138577914e+17
19320.0	5.5417827243677e+17
19321.0	5.5406979948653216e+17
19322.0	5.539595682141524e+17
19323.0	5.5385682657061536e+17
19324.0	5.537553430085631e+17
19325.0	5.5363863104716794e+17
19326.0	5.535438399165779e+17
19327.0	5.5343168898116256e+17
19328.0	5.533158794941781e+17
19329.0	5.53219760796467e+17
19330.0	5.531085161802409e+17
19331.0	5.5300027517501434e+17
19332.0	5.5289937608922445e+17
19333.0	5.5279099038050976e+17
19334.0	5.526850724604586e+17
19335.0	5.5255769179750394e+17
19336.0	5.5247003979175245e+17
19337.0	5.523621790001834e+17
19338.0	5.522285444202494e+17
19339.0	5.521463808709972e+17
19340.0	5.5201711340038803e+17
19341.0	5.5191617362984954e+17
19342.0	5.5177289487701325e+17
19343.0	5.517114945306623e+17
19344.0	5.5159378607254176e+17
19345.0	5.5123174179034406e+17
19346.0	5.5127135908877645e+17
19347.0	5.5125661757822285e+17
19348.0	5.511658100577621e+17
19349.0	5.5105136483805856e+17
19350.0	5.509383911899136e+17
19351.0	5.5082963722130765e+17
19352.0	5.507044014555135e+17
19353.0	5.506124577680041e+17
19354.0	5.505010688677204e+17
19355.0	5.5037674515333114e+17
19356.0	5.5026502951676576e+17
19357.0	5.501489071347028e+17
19358.0	5.500353744557397e+17
19359.0	5.4991481429032954e+17
19360.0	5.497946309831338e+17
19361.0	5.4968883896210765e+17
19362.0	5.495785872774483e+17
19363.0	5.494631138940245e+17
19364.0	5.493469171329705e+17
19365.0	5.492278198009855e+17
19366.0	5.491106149389652e+17
19367.0	5.4899288921429325e+17
19368.0	5.4887457817449805e+17
19369.0	5.487441028142421e+17
19370.0	5.4861425268490234e+17
19371.0	5.48491913924881e+17
19372.0	5.483774122218835e+17
19373.0	5.48253024334643e+17
19374.0	5.481315254839979e+17
19375.0	5.480079640843605e+17
19376.0	5.4788354348154874e+17
19377.0	5.4775631024837965e+17
19378.0	5.476065487792809e+17
19379.0	5.4747824341210445e+17
19380.0	5.473491346959018e+17
19381.0	5.4721793260257274e+17
19382.0	5.4707711730428576e+17
19383.0	5.469353101230079e+17
19384.0	5.467842790380885e+17
19385.0	5.466490422340266e+17
19386.0	5.465116081040043e+17
19387.0	5.4637185599187616e+17
19388.0	5.4619852330325325e+17
19389.0	5.46041903517969e+17
19390.0	5.4588747232051194e+17
19391.0	5.4511110951621875e+17
19392.0	5.455125491482623e+17
19393.0	5.4537690542680723e+17
19394.0	5.451912979677182e+17
19395.0	5.4498792833024006e+17
19396.0	5.448249624231935e+17
19397.0	5.4462225737318394e+17
19398.0	5.444479996308138e+17
19399.0	5.441854027158868e+17
19400.0	5.440945938672298e+17
19401.0	5.4390735349568845e+17
19402.0	5.4372514398208e+17
19403.0	5.43536102576401e+17
19404.0	5.433471830152532e+17
19405.0	5.431485263773694e+17
19406.0	5.4294262107340794e+17
19407.0	5.4269834473854285e+17
19408.0	5.4238741755767475e+17
19409.0	5.4226146959906125e+17
19410.0	5.4201628946158925e+17
19411.0	5.417389727765845e+17
19412.0	5.4149259041177594e+17
19413.0	5.4117658889202323e+17
19414.0	5.4088006551033165e+17
19415.0	5.405344613619028e+17
19416.0	5.401765137962324e+17
19417.0	5.3974462547449165e+17
19418.0	5.3933831345930214e+17
19419.0	5.388692545863678e+17
19420.0	5.382973587193852e+17
19421.0	5.3767673328872115e+17
19422.0	5.369292048564221e+17
19423.0	5.3626307150697786e+17
19424.0	5.3575463867514874e+17
19425.0	5.352798036863658e+17
19426.0	5.347822594774356e+17
19427.0	5.341883722454358e+17
19428.0	5.336277556308649e+17
19429.0	5.3294093974896634e+17
19430.0	5.3224449500337504e+17
19431.0	5.313170226107733e+17
19432.0	5.304356152104277e+17
19433.0	5.2919549114886835e+17
19434.0	5.276744670685863e+17
19435.0	5.2558068875700934e+17
19436.0	5.2272959712133075e+17
19437.0	5.200476267435349e+17
19438.0	5.173155784731306e+17
19439.0	5.1671492023637344e+17
19440.0	5.1490020211206835e+17
19441.0	5.127630057635841e+17
19442.0	5.099268666818561e+17
19443.0	5.05857637945616e+17
19444.0	4.9946651318900045e+17
19445.0	4.929396937501356e+17
19446.0	4.876865297361578e+17
19447.0	4.810253282224807e+17
19448.0	4.712412367639894e+17
19449.0	4.547649773851987e+17
19450.0	4.187499863037256e+17
19451.0	3.962152598285017e+17
19452.0	4.4065044558424557e+17
19453.0	4.641301954472626e+17
19454.0	4.763723506559656e+17
19455.0	4.840092961778345e+17
19456.0	4.896331479558828e+17
19457.0	4.948706864398329e+17
19458.0	4.987806239686712e+17
19459.0	5.0665583405957126e+17
19460.0	5.0986602152154496e+17
19461.0	5.120811200064167e+17
19462.0	5.138642123096064e+17
19463.0	5.154276110936745e+17
19464.0	5.168213595783167e+17
19465.0	5.1867139842594125e+17
19466.0	5.2154885203121434e+17
19467.0	5.236948858481326e+17
19468.0	5.2534817576714285e+17
19469.0	5.264199209626285e+17
19470.0	5.27335702991121e+17
19471.0	5.2802475143113395e+17
19472.0	5.285943183409151e+17
19473.0	5.2908766447097165e+17
19474.0	5.29487026524433e+17
19475.0	5.297768338467497e+17
19476.0	5.3021763149933216e+17
19477.0	5.305126294825641e+17
19478.0	5.3080171384668154e+17
19479.0	5.311724541094568e+17
19480.0	5.3170226607773e+17
19481.0	5.321996641850706e+17
19482.0	5.325819446558719e+17
19483.0	5.3286053375290016e+17
19484.0	5.331423965042005e+17
19485.0	5.3336348637702835e+17
19486.0	5.3350903138222074e+17
19487.0	5.33708701433856e+17
19488.0	5.3379474597259936e+17
19489.0	5.339091521852757e+17
19490.0	5.3380599754260454e+17
19491.0	5.3403699009727136e+17
19492.0	5.3412854364460365e+17
19493.0	5.341554345858388e+17
19494.0	5.341742092692138e+17
19495.0	5.3419566201569286e+17
19496.0	5.341734863110142e+17
19497.0	5.3422325480379725e+17
19498.0	5.341500267997866e+17
19499.0	5.3321307087612506e+17
19500.0	5.341959178682367e+17
19501.0	5.3418850918946125e+17
19502.0	5.3418154888178336e+17
19503.0	5.341574204489726e+17
19504.0	5.3412820726142285e+17
19505.0	5.3410810633912314e+17
19506.0	5.341033320327849e+17
19507.0	5.340610252068181e+17
19508.0	5.340877832585215e+17
19509.0	5.3404479359986336e+17
19510.0	5.339710592734549e+17
19511.0	5.32111185272284e+17
19512.0	5.3379824311336915e+17
19513.0	5.3358943234512154e+17
19514.0	5.3366482733629414e+17
19515.0	5.337733330021035e+17
19516.0	5.3377332216681805e+17
19517.0	5.3370687761066656e+17
19518.0	5.3365164918265165e+17
19519.0	5.336149090369536e+17
19520.0	5.335436999611732e+17
19521.0	5.334880942555136e+17
19522.0	5.334142577978026e+17
19523.0	5.333482299457535e+17
19524.0	5.3327404619967136e+17
19525.0	5.332256156898644e+17
19526.0	5.3315726503226003e+17
19527.0	5.330825870573567e+17
19528.0	5.3300678983243085e+17
19529.0	5.329306014187518e+17
19530.0	5.328570485658964e+17
19531.0	5.3277991860087456e+17
19532.0	5.3270203352132256e+17
19533.0	5.326234388354388e+17
19534.0	5.3255793750835194e+17
19535.0	5.3247658506758816e+17
19536.0	5.323933760181588e+17
19537.0	5.323170821177342e+17
19538.0	5.322141481653589e+17
19539.0	5.320818136099501e+17
19540.0	5.3206679436656634e+17
19541.0	5.3198524884800845e+17
19542.0	5.319019987643049e+17
19543.0	5.318112842874879e+17
19544.0	5.3173326009685325e+17
19545.0	5.3158708084299066e+17
19546.0	5.314482741269845e+17
19547.0	5.314785203017045e+17
19548.0	5.313933316106922e+17
19549.0	5.313024269221887e+17
19550.0	5.312298835684009e+17
19551.0	5.311432704917503e+17
19552.0	5.3105588797003085e+17
19553.0	5.30969277759488e+17
19554.0	5.3088068063723514e+17
19555.0	5.307960483905535e+17
19556.0	5.307100532047872e+17
19557.0	5.306216263013717e+17
19558.0	5.305327963253417e+17
19559.0	5.304441653690367e+17
19560.0	5.3034925784651085e+17
19561.0	5.3026292138420896e+17
19562.0	5.301764122563924e+17
19563.0	5.300899830300671e+17
19564.0	5.30000113635601e+17
19565.0	5.299100571751764e+17
19566.0	5.2981606960332794e+17
19567.0	5.2972935117974176e+17
19568.0	5.2963600988023456e+17
19569.0	5.295455678234623e+17
19570.0	5.294576379450709e+17
19571.0	5.2936621148514976e+17
19572.0	5.29271180300561e+17
19573.0	5.291815494920874e+17
19574.0	5.2908132519990605e+17
19575.0	5.290019832288596e+17
19576.0	5.289094577214804e+17
19577.0	5.2881474355636896e+17
19578.0	5.287221127020543e+17
19579.0	5.286318914753876e+17
19580.0	5.2854030605134496e+17
19581.0	5.284496107984212e+17
19582.0	5.283598009630718e+17
19583.0	5.2826772550451194e+17
19584.0	5.2817532722435405e+17
19585.0	5.280689545718441e+17
19586.0	5.279781808854357e+17
19587.0	5.279008618971135e+17
19588.0	5.277528810498731e+17
19589.0	5.277154676484778e+17
19590.0	5.276115723616255e+17
19591.0	5.275328013751635e+17
19592.0	5.274408396521471e+17
19593.0	5.2734530298402125e+17
19594.0	5.272233260526249e+17
19595.0	5.271595074103977e+17
19596.0	5.2706155587174394e+17
19597.0	5.2697522213573965e+17
19598.0	5.2682393331083923e+17
19599.0	5.2679006724205216e+17
19600.0	5.2669841016531616e+17
19601.0	5.2659685886525434e+17
19602.0	5.2650449413952845e+17
19603.0	5.263630210345641e+17
19604.0	5.2631926913105914e+17
19605.0	5.261954139204266e+17
19606.0	5.261387537667413e+17
19607.0	5.2604669753207456e+17
19608.0	5.259513194785449e+17
19609.0	5.25857232851217e+17
19610.0	5.2576725489418234e+17
19611.0	5.256710091789653e+17
19612.0	5.2558447893981875e+17
19613.0	5.254898100032853e+17
19614.0	5.253927901593598e+17
19615.0	5.2530409076599456e+17
19616.0	5.2520182035251194e+17
19617.0	5.251099109883903e+17
19618.0	5.249480060305406e+17
19619.0	5.2483373578321894e+17
19620.0	5.247490863398911e+17
19621.0	5.2473469106913274e+17
19622.0	5.2465003526444365e+17
19623.0	5.245562871873535e+17
19624.0	5.2446087439100576e+17
19625.0	5.2436968693650765e+17
19626.0	5.242754556755967e+17
19627.0	5.2418179379145376e+17
19628.0	5.240776975974398e+17
19629.0	5.239629727574697e+17
19630.0	5.238490869880147e+17
19631.0	5.2337322733076474e+17
19632.0	5.2370738746053965e+17
19633.0	5.2361469453052576e+17
19634.0	5.235273729660245e+17
19635.0	5.2342893831345485e+17
19636.0	5.2333186408338765e+17
19637.0	5.231976525070336e+17
19638.0	5.2315205007660365e+17
19639.0	5.230590631258794e+17
19640.0	5.2295419371192314e+17
19641.0	5.227239169851395e+17
19642.0	5.2277790333992954e+17
19643.0	5.226841766537897e+17
19644.0	5.2258402904746656e+17
19645.0	5.2246441798314656e+17
19646.0	5.223968646627326e+17
19647.0	5.223123380426068e+17
19648.0	5.2221856004614816e+17
19649.0	5.221247152903509e+17
19650.0	5.220321408494251e+17
19651.0	5.219378763137024e+17
19652.0	5.218441993999701e+17
19653.0	5.2175147766906874e+17
19654.0	5.216572478761643e+17
19655.0	5.215633202828628e+17
19656.0	5.2147045405818874e+17
19657.0	5.213770228607658e+17
