# Flux units: erg / (cm m2 s)
# Wavelength units: Angstrom
wave	flux
19000.0	5.2718941132991136e+17
19001.0	5.2708062031162016e+17
19002.0	5.2699471949769376e+17
19003.0	5.2689691503930016e+17
19004.0	5.2679952406937594e+17
19005.0	5.2670137441976314e+17
19006.0	5.2660507005419514e+17
19007.0	5.265065556399445e+17
19008.0	5.2640246678596256e+17
19009.0	5.2629790020075514e+17
19010.0	5.261600216143187e+17
19011.0	5.261130877719892e+17
19012.0	5.2600363531195725e+17
19013.0	5.259220981121024e+17
19014.0	5.258189175346517e+17
19015.0	5.2572276535241376e+17
19016.0	5.2562318523542176e+17
19017.0	5.2553266041105056e+17
19018.0	5.254343534750378e+17
19019.0	5.253374032565589e+17
19020.0	5.2523861138909856e+17
19021.0	5.251433928589311e+17
19022.0	5.250455661008213e+17
19023.0	5.249448089223167e+17
19024.0	5.2484929693067936e+17
19025.0	5.2475385456448845e+17
19026.0	5.246534539018238e+17
19027.0	5.2455175908666016e+17
19028.0	5.2446249863522976e+17
19029.0	5.24364034482722e+17
19030.0	5.2426930388991994e+17
19031.0	5.2417213437924685e+17
19032.0	5.240741255883435e+17
19033.0	5.2396720159457274e+17
19034.0	5.2387905654838605e+17
19035.0	5.237784779074217e+17
19036.0	5.229925179064319e+17
19037.0	5.235874677653504e+17
19038.0	5.234891790046549e+17
19039.0	5.233947313875625e+17
19040.0	5.232976218554367e+17
19041.0	5.23199301357841e+17
19042.0	5.230897371895124e+17
19043.0	5.2300634009545376e+17
19044.0	5.229079371797844e+17
19045.0	5.2281218632253434e+17
19046.0	5.227083201161898e+17
19047.0	5.2261478399126176e+17
19048.0	5.2249508023282336e+17
19049.0	5.224098003856041e+17
19050.0	5.223212393343658e+17
19051.0	5.2213563236461203e+17
19052.0	5.2211137097236474e+17
19053.0	5.220360640615764e+17
19054.0	5.219387913710251e+17
19055.0	5.218120919329451e+17
19056.0	5.2174154674558285e+17
19057.0	5.2164739874160634e+17
19058.0	5.2154679738149536e+17
19059.0	5.214524813257385e+17
19060.0	5.213547922107049e+17
19061.0	5.212608044291412e+17
19062.0	5.211633274759849e+17
19063.0	5.2106670406369274e+17
19064.0	5.2095503652181325e+17
19065.0	5.208541233851051e+17
19066.0	5.207692897419264e+17
19067.0	5.2067801511581005e+17
19068.0	5.205828499931134e+17
19069.0	5.204862315440811e+17
19070.0	5.2038613371016525e+17
19071.0	5.2029287657635834e+17
19072.0	5.2019485114804896e+17
19073.0	5.2009885184819194e+17
19074.0	5.200027901231103e+17
19075.0	5.199061130936319e+17
19076.0	5.1980714317796685e+17
19077.0	5.197105875036841e+17
19078.0	5.196120032542719e+17
19079.0	5.195192129465002e+17
19080.0	5.194209434796032e+17
19081.0	5.193217170822483e+17
19082.0	5.1922481600703136e+17
19083.0	5.1912233350157645e+17
19084.0	5.190124927188992e+17
19085.0	5.189390585648468e+17
19086.0	5.1880274445380256e+17
19087.0	5.187261693952e+17
19088.0	5.186396524380159e+17
19089.0	5.1852686858212685e+17
19090.0	5.184547472452266e+17
19091.0	5.1835754264221005e+17
19092.0	5.182541064918356e+17
19093.0	5.1816841623197005e+17
19094.0	5.1807186845696e+17
19095.0	5.179754472800255e+17
19096.0	5.178773708210175e+17
19097.0	5.177824809844735e+17
19098.0	5.176850159850836e+17
19099.0	5.175884483570345e+17
19100.0	5.174913655985493e+17
19101.0	5.1739678222581754e+17
19102.0	5.1728739757370016e+17
19103.0	5.1720472504565754e+17
19104.0	5.1710887303577594e+17
19105.0	5.170094707572735e+17
19106.0	5.1691326642585594e+17
19107.0	5.16817078592034e+17
19108.0	5.1672277337156256e+17
19109.0	5.16583439082018e+17
19110.0	5.1652976813888845e+17
19111.0	5.1643456561698125e+17
19112.0	5.1633831836385274e+17
19113.0	5.1624283209727994e+17
19114.0	5.1614626181283834e+17
19115.0	5.1604466458514765e+17
19116.0	5.15952550678801e+17
19117.0	5.1585634271232e+17
19118.0	5.1575016271817376e+17
19119.0	5.147550480859124e+17
19120.0	5.155644010485077e+17
19121.0	5.154706720555007e+17
19122.0	5.153788839067647e+17
19123.0	5.152828804825087e+17
19124.0	5.1518432699132576e+17
19125.0	5.1509047943932576e+17
19126.0	5.149944667876009e+17
19127.0	5.146839817562794e+17
19128.0	5.1479514723997005e+17
19129.0	5.1469913402900474e+17
19130.0	5.14608874074931e+17
19131.0	5.145151612299946e+17
19132.0	5.144192461657427e+17
19133.0	5.143123840379563e+17
19134.0	5.1422423011382605e+17
19135.0	5.141316025450494e+17
19136.0	5.140366121151146e+17
19137.0	5.1392169818193914e+17
19138.0	5.138428531660117e+17
19139.0	5.1374918946433696e+17
19140.0	5.1365366370140154e+17
19141.0	5.135578730681685e+17
19142.0	5.134594099642367e+17
19143.0	5.1335990590395725e+17
19144.0	5.132662052924074e+17
19145.0	5.131751414300671e+17
19146.0	5.13012695826432e+17
19147.0	5.129696526204927e+17
19148.0	5.128868883070975e+17
19149.0	5.127904400769023e+17
19150.0	5.1269611017994234e+17
19151.0	5.126008652955646e+17
19152.0	5.125046731975338e+17
19153.0	5.124060580500821e+17
19154.0	5.122994377239209e+17
19155.0	5.122193421762559e+17
19156.0	5.121235085514068e+17
19157.0	5.1202668108622496e+17
19158.0	5.119004370097493e+17
19159.0	5.1183508248330234e+17
19160.0	5.1174021242989216e+17
19161.0	5.116454003976874e+17
19162.0	5.114812147870379e+17
19163.0	5.114527931345578e+17
19164.0	5.113599986324821e+17
19165.0	5.112596785004543e+17
19166.0	5.111524271412564e+17
19167.0	5.11067429081361e+17
19168.0	5.1097703022591994e+17
19169.0	5.1088066469341856e+17
19170.0	5.107877695979519e+17
19171.0	5.106880338023764e+17
19172.0	5.105971997179903e+17
19173.0	5.105018196372138e+17
19174.0	5.103996489782613e+17
19175.0	5.103109803431251e+17
19176.0	5.102156311603881e+17
19177.0	5.1010327533322234e+17
19178.0	5.100236331199145e+17
19179.0	5.099240467813715e+17
19180.0	5.098335530647552e+17
19181.0	5.097242209113428e+17
19182.0	5.0964109504894285e+17
19183.0	5.095493513598291e+17
19184.0	5.094528230184277e+17
19185.0	5.0935830437778765e+17
19186.0	5.0926354687153485e+17
19187.0	5.091615112691711e+17
19188.0	5.0907294567410336e+17
19189.0	5.089781664273747e+17
19190.0	5.088826592591871e+17
19191.0	5.087843042284885e+17
19192.0	5.0869277500811936e+17
19193.0	5.0859657738758816e+17
19194.0	5.0850082904692045e+17
19195.0	5.084073716350974e+17
19196.0	5.0831038136101536e+17
19197.0	5.082161138892798e+17
19198.0	5.0812122922571085e+17
19199.0	5.0762227531120614e+17
19200.0	5.076478937705132e+17
19201.0	5.0783624493356365e+17
19202.0	5.077419081859071e+17
19203.0	5.0764582325234336e+17
19204.0	5.0754891518661965e+17
19205.0	5.07455514677521e+17
19206.0	5.0735985847173114e+17
19207.0	5.0725221578397e+17
19208.0	5.0714535393580365e+17
19209.0	5.0707553799809696e+17
19210.0	5.069809316265983e+17
19211.0	5.0688688638306976e+17
19212.0	5.0679187700886176e+17
19213.0	5.0668543207451296e+17
19214.0	5.065852602111317e+17
19215.0	5.065051867534676e+17
19216.0	5.064116296570196e+17
19217.0	5.0631607418443085e+17
19218.0	5.0612468557632826e+17
19219.0	5.061108489868628e+17
19220.0	5.0602889948692474e+17
19221.0	5.058992021700607e+17
19222.0	5.0583981879459834e+17
19223.0	5.057442057202346e+17
19224.0	5.0564636400244045e+17
19225.0	5.055388531556351e+17
19226.0	5.054592758142293e+17
19227.0	5.0536414389643936e+17
19228.0	5.052716441141247e+17
19229.0	5.0517657657890125e+17
19230.0	5.050811214899883e+17
19231.0	5.0498517608693754e+17
19232.0	5.048902869494442e+17
19233.0	5.047887013958996e+17
19234.0	5.0469861809192954e+17
19235.0	5.0460316642836474e+17
19236.0	5.0451117506559994e+17
19237.0	5.044142398767104e+17
19238.0	5.0431009929297914e+17
19239.0	5.042259744172713e+17
19240.0	5.0412836233762125e+17
19241.0	5.04032669012241e+17
19242.0	5.0393843236863994e+17
19243.0	5.038285432116564e+17
19244.0	5.0375053803519994e+17
19245.0	5.036548394669396e+17
19246.0	5.0355812944226976e+17
19247.0	5.0346441107483296e+17
19248.0	5.0336988096976205e+17
19249.0	5.032742148374527e+17
19250.0	5.031766551866026e+17
19251.0	5.030678858388819e+17
19252.0	5.029606027427839e+17
19253.0	5.0289058456971936e+17
19254.0	5.027978598329002e+17
19255.0	5.0268442530065056e+17
19256.0	5.026019099191978e+17
19257.0	5.0251224506695674e+17
19258.0	5.024167656510804e+17
19259.0	5.023142290391039e+17
19260.0	5.022098008659283e+17
19261.0	5.021287060253353e+17
19262.0	5.0202849585397754e+17
19263.0	5.019305577370964e+17
19264.0	5.017774154492585e+17
19265.0	5.0172268104034976e+17
19266.0	5.016196570502486e+17
19267.0	5.0155696968171514e+17
19268.0	5.014604886660436e+17
19269.0	5.0136504595032736e+17
19270.0	5.0126926831943674e+17
19271.0	5.011327231721472e+17
19272.0	5.010738898796543e+17
19273.0	5.008798217404414e+17
19274.0	5.008083593986046e+17
19275.0	5.0079016527680845e+17
19276.0	5.0069184401025683e+17
19277.0	5.005964206582442e+17
19278.0	5.0050043694721696e+17
19279.0	5.004027832740522e+17
19280.0	5.002984568826538e+17
19281.0	5.0021099404001274e+17
19282.0	5.001168358298964e+17
19283.0	5.0001391942369274e+17
19284.0	4.9991972423379616e+17
19285.0	4.9980699609224525e+17
19286.0	4.997265667478868e+17
19287.0	4.996338708818602e+17
19288.0	4.993224013774844e+17
19289.0	4.9900852126678976e+17
19290.0	4.9934353626562554e+17
19291.0	4.9921856404193274e+17
19292.0	4.991494376478036e+17
19293.0	4.990515737001983e+17
19294.0	4.989540683655849e+17
19295.0	4.988578602592938e+17
19296.0	4.987583847901866e+17
19297.0	4.986608663833257e+17
19298.0	4.985623554643283e+17
19299.0	4.9846601293059405e+17
19300.0	4.983687054972245e+17
19301.0	4.982710935573845e+17
19302.0	4.9817134839453005e+17
19303.0	4.980672201839957e+17
19304.0	4.9797295872409594e+17
19305.0	4.978764085723136e+17
19306.0	4.977789864247296e+17
19307.0	4.9767551797821434e+17
19308.0	4.975788049476265e+17
19309.0	4.9746664052053325e+17
19310.0	4.9736190364658336e+17
19311.0	4.972794875303253e+17
19312.0	4.971842817228798e+17
19313.0	4.9708581861894816e+17
19314.0	4.9589405488250976e+17
19315.0	4.958573043209565e+17
19316.0	4.967827417071615e+17
19317.0	4.966848839811072e+17
19318.0	4.9658403152199674e+17
19319.0	4.964851589840896e+17
19320.0	4.963835580514304e+17
19321.0	4.962820187750398e+17
19322.0	4.961723595358207e+17
19323.0	4.9607355431649274e+17
19324.0	4.959784440692736e+17
19325.0	4.9586195636333235e+17
19326.0	4.9577402942095366e+17
19327.0	4.95669651579426e+17
19328.0	4.9556581081852576e+17
19329.0	4.9546563629875194e+17
19330.0	4.953577792820564e+17
19331.0	4.952532287051092e+17
19332.0	4.9515365879425696e+17
19333.0	4.9504908885360634e+17
19334.0	4.9494483677129376e+17
19335.0	4.948347852947455e+17
19336.0	4.947341301077332e+17
19337.0	4.946280784592896e+17
19338.0	4.944982529365332e+17
19339.0	4.944153769847466e+17
19340.0	4.9428987005719885e+17
19341.0	4.941915172634623e+17
19342.0	4.9404799684881043e+17
19343.0	4.9398407719376205e+17
19344.0	4.9387344005256525e+17
19345.0	4.9353506248021286e+17
19346.0	4.9353646568461626e+17
19347.0	4.9353513427271674e+17
19348.0	4.934351754799785e+17
19349.0	4.933194123400532e+17
19350.0	4.932068416946175e+17
19351.0	4.930938237266601e+17
19352.0	4.9297309278317216e+17
19353.0	4.928700074164223e+17
19354.0	4.927553847776596e+17
19355.0	4.926285767071061e+17
19356.0	4.925227813306366e+17
19357.0	4.9240565630020256e+17
19358.0	4.922865189825194e+17
19359.0	4.921606396706815e+17
19360.0	4.920411877102932e+17
19361.0	4.9192313007636474e+17
19362.0	4.918056209175893e+17
19363.0	4.9168248048626336e+17
19364.0	4.915582125561172e+17
19365.0	4.914332839531861e+17
19366.0	4.9130691607483725e+17
19367.0	4.9117942594054816e+17
19368.0	4.910507702790826e+17
19369.0	4.9091420541856416e+17
19370.0	4.90778238525986e+17
19371.0	4.9065038299791354e+17
19372.0	4.9052159759264416e+17
19373.0	4.903834042935978e+17
19374.0	4.902474313192789e+17
19375.0	4.9010847200051194e+17
19376.0	4.89967836078626e+17
19377.0	4.8982371091524256e+17
19378.0	4.896793181552639e+17
19379.0	4.8953307270130336e+17
19380.0	4.893844027998207e+17
19381.0	4.892330892285268e+17
19382.0	4.890727044262571e+17
19383.0	4.8891181693665274e+17
19384.0	4.8876550863803725e+17
19385.0	4.8860574081788576e+17
19386.0	4.8844295044246176e+17
19387.0	4.882768083987113e+17
19388.0	4.8810774809804794e+17
19389.0	4.879356411248639e+17
19390.0	4.877602424619007e+17
19391.0	4.8697025578925997e+17
19392.0	4.873775243853823e+17
19393.0	4.8721448696545274e+17
19394.0	4.870244127124138e+17
19395.0	4.86831178261026e+17
19396.0	4.866360603574272e+17
19397.0	4.86437217702161e+17
19398.0	4.862295710629887e+17
19399.0	4.859369406944596e+17
19400.0	4.857994586095615e+17
19401.0	4.8559261958362445e+17
19402.0	4.8537174515821216e+17
19403.0	4.851424127090687e+17
19404.0	4.849122448943785e+17
19405.0	4.846734085018966e+17
19406.0	4.844332383207423e+17
19407.0	4.841871213854719e+17
19408.0	4.8384187186544646e+17
19409.0	4.836772230638251e+17
19410.0	4.834179199358292e+17
19411.0	4.831501826916351e+17
19412.0	4.828761534322005e+17
19413.0	4.8259682676681376e+17
19414.0	4.823084081086464e+17
19415.0	4.8202132939079674e+17
19416.0	4.8168992009530016e+17
19417.0	4.8138422188332365e+17
19418.0	4.8108605531313485e+17
19419.0	4.807738941680298e+17
19420.0	4.8045600381337594e+17
19421.0	4.8013065395896314e+17
19422.0	4.797931289488042e+17
19423.0	4.7945286254155085e+17
19424.0	4.7906070504407046e+17
19425.0	4.7867192403121485e+17
19426.0	4.7830980641860256e+17
19427.0	4.779226053301587e+17
19428.0	4.7744070091188896e+17
19429.0	4.770251208130559e+17
19430.0	4.7642535924858874e+17
19431.0	4.757400008873302e+17
19432.0	4.751091865135788e+17
19433.0	4.741632209453058e+17
19434.0	4.7281164457956666e+17
19435.0	4.707853726821031e+17
19436.0	4.67921071994743e+17
19437.0	4.6628938700554234e+17
19438.0	4.637463569323352e+17
19439.0	4.631688158816938e+17
19440.0	4.6146815388549114e+17
19441.0	4.5959901865137466e+17
19442.0	4.5750352116449274e+17
19443.0	4.551342999033173e+17
19444.0	4.514602101156528e+17
19445.0	4.435609236013045e+17
19446.0	4.369758463284565e+17
19447.0	4.3065070202825344e+17
19448.0	4.222117395912046e+17
19449.0	4.029593242217129e+17
19450.0	3.552772682153984e+17
19451.0	3.343834960013974e+17
19452.0	3.8501314989479514e+17
19453.0	4.136112729620486e+17
19454.0	4.268509307600887e+17
19455.0	4.333503852314623e+17
19456.0	4.392032441204734e+17
19457.0	4.472238684241923e+17
19458.0	4.4941749556784166e+17
19459.0	4.548778918237534e+17
19460.0	4.5714040355990163e+17
19461.0	4.589510599901183e+17
19462.0	4.605838877873494e+17
19463.0	4.621088543036755e+17
19464.0	4.6345193307941536e+17
19465.0	4.646675303890944e+17
19466.0	4.6692668563346765e+17
19467.0	4.6925890138931155e+17
19468.0	4.7069310428555955e+17
19469.0	4.7154939843051494e+17
19470.0	4.722685909139454e+17
19471.0	4.7277440803799034e+17
19472.0	4.731420041805823e+17
19473.0	4.7347052429967354e+17
19474.0	4.7373308856893446e+17
19475.0	4.7390494066824525e+17
19476.0	4.741910976877908e+17
19477.0	4.7438275347305805e+17
19478.0	4.746293850494293e+17
19479.0	4.748060264147626e+17
19480.0	4.7496708677959674e+17
19481.0	4.7511788661855565e+17
19482.0	4.752659077311146e+17
19483.0	4.7540692435599354e+17
19484.0	4.755379167341225e+17
19485.0	4.756569867332266e+17
19486.0	4.758013878119083e+17
19487.0	4.759320746349908e+17
19488.0	4.760429435813887e+17
19489.0	4.7612536822606496e+17
19490.0	4.760761567368532e+17
19491.0	4.763319070097408e+17
19492.0	4.764224751053481e+17
19493.0	4.765029312233471e+17
19494.0	4.765771063711061e+17
19495.0	4.7664616111254176e+17
19496.0	4.766579493437438e+17
19497.0	4.767668840169471e+17
19498.0	4.767126485204991e+17
19499.0	4.7591136057535123e+17
19500.0	4.7691982008483834e+17
19501.0	4.7695991881946445e+17
19502.0	4.76994394600243e+17
19503.0	4.770262090951338e+17
19504.0	4.770526580266326e+17
19505.0	4.7707427805593594e+17
19506.0	4.770930911870975e+17
19507.0	4.77104445797171e+17
19508.0	4.7711770566983674e+17
19509.0	4.771246385747285e+17
19510.0	4.7710379050707616e+17
19511.0	4.752951644695205e+17
19512.0	4.769502287189332e+17
19513.0	4.768118727507963e+17
19514.0	4.768929285144573e+17
19515.0	4.770402449839445e+17
19516.0	4.770790195767978e+17
19517.0	4.770559497863166e+17
19518.0	4.770428503457791e+17
19519.0	4.7701880125521914e+17
19520.0	4.769896413353302e+17
19521.0	4.769669774136662e+17
19522.0	4.7693356286170445e+17
19523.0	4.7690434380212896e+17
19524.0	4.7686934464211616e+17
19525.0	4.768332392344234e+17
19526.0	4.767968608474453e+17
19527.0	4.767565663087274e+17
19528.0	4.76714728895283e+17
19529.0	4.76671614456081e+17
19530.0	4.7662884143322445e+17
19531.0	4.76582910309171e+17
19532.0	4.76535535505681e+17
19533.0	4.764867883958272e+17
19534.0	4.7643630798984525e+17
19535.0	4.763842676523007e+17
19536.0	4.763281581408255e+17
19537.0	4.7627912148418554e+17
19538.0	4.7620505084450125e+17
19539.0	4.761048220783957e+17
19540.0	4.76108335227426e+17
19541.0	4.760530741537449e+17
19542.0	4.7599390769370445e+17
19543.0	4.759325230759936e+17
19544.0	4.75873640780049e+17
19545.0	4.757485809653076e+17
19546.0	4.756458730160127e+17
19547.0	4.7568757166789965e+17
19548.0	4.756231699475113e+17
19549.0	4.75549266031411e+17
19550.0	4.7549405081545376e+17
19551.0	4.75428508803618e+17
19552.0	4.7536193142783994e+17
19553.0	4.752917126272341e+17
19554.0	4.7522271702548474e+17
19555.0	4.751574151375529e+17
19556.0	4.750904063077034e+17
19557.0	4.750206282585429e+17
19558.0	4.749510410502143e+17
19559.0	4.748808184747349e+17
19560.0	4.748066763920725e+17
19561.0	4.7473596147520845e+17
19562.0	4.746668962480127e+17
19563.0	4.7459564844482554e+17
19564.0	4.7452325748408314e+17
19565.0	4.7445048386300576e+17
19566.0	4.743738156209493e+17
19567.0	4.7430359947673594e+17
19568.0	4.742272278418773e+17
19569.0	4.741532195575125e+17
19570.0	4.740812587226453e+17
19571.0	4.7400551560424096e+17
19572.0	4.7392773069864954e+17
19573.0	4.738530021823829e+17
19574.0	4.7377086023379635e+17
19575.0	4.73704135987473e+17
19576.0	4.73627687457041e+17
19577.0	4.7354811731585696e+17
19578.0	4.734696412588713e+17
19579.0	4.7339490148788896e+17
19580.0	4.733175744604842e+17
19581.0	4.7324158178099194e+17
19582.0	4.7316598735066445e+17
19583.0	4.730882143988394e+17
19584.0	4.7300895407691085e+17
19585.0	4.729200321757182e+17
19586.0	4.7283918465925114e+17
19587.0	4.727772243034111e+17
19588.0	4.7264430953594874e+17
19589.0	4.7261974559457274e+17
19590.0	4.725294032224255e+17
19591.0	4.724631489478654e+17
19592.0	4.7238442689495034e+17
19593.0	4.723031224789674e+17
19594.0	4.7219979020752205e+17
19595.0	4.721398018736128e+17
19596.0	4.7204689831963296e+17
19597.0	4.7198351972980045e+17
19598.0	4.718478126743551e+17
19599.0	4.7182509946961914e+17
19600.0	4.7174572037898234e+17
19601.0	4.716574262951936e+17
19602.0	4.715773726905683e+17
19603.0	4.714503913253546e+17
19604.0	4.7141639816915616e+17
19605.0	4.713090220294143e+17
19606.0	4.712606899459412e+17
19607.0	4.711806309586261e+17
19608.0	4.7109727322112e+17
19609.0	4.7101231304977056e+17
19610.0	4.709359329563989e+17
19611.0	4.708533707385514e+17
19612.0	4.7077426106204154e+17
19613.0	4.706916541049514e+17
19614.0	4.706068735896234e+17
19615.0	4.7052937019173536e+17
19616.0	4.7044163052503034e+17
19617.0	4.703632969345706e+17
19618.0	4.702114109805908e+17
19619.0	4.701154799779839e+17
19620.0	4.700382185215317e+17
19621.0	4.7003673660402336e+17
19622.0	4.699565717105321e+17
19623.0	4.698744933056511e+17
19624.0	4.6979131389597005e+17
19625.0	4.697101517367978e+17
19626.0	4.6962792799928314e+17
19627.0	4.695455249552725e+17
19628.0	4.694529484870996e+17
19629.0	4.693659643543551e+17
19630.0	4.6925902057745056e+17
19631.0	4.687610166728022e+17
19632.0	4.6913287996047354e+17
19633.0	4.690464628976298e+17
19634.0	4.6896842850085536e+17
19635.0	4.688816021438463e+17
19636.0	4.688005318399317e+17
19637.0	4.686816543593812e+17
19638.0	4.6863635986077005e+17
19639.0	4.685535370368341e+17
19640.0	4.6845133715756384e+17
19641.0	4.6825476250228064e+17
19642.0	4.6830609407235405e+17
19643.0	4.6822286684760736e+17
19644.0	4.681336639979519e+17
19645.0	4.6802494631007565e+17
19646.0	4.6797350491914234e+17
19647.0	4.678927929485993e+17
19648.0	4.678100781978964e+17
19649.0	4.677263023581866e+17
19650.0	4.6764421654336845e+17
19651.0	4.6756063420088314e+17
19652.0	4.674779509074601e+17
19653.0	4.673950596464639e+17
19654.0	4.6731141592733005e+17
19655.0	4.672278903477589e+17
