# Flux units: erg / (cm m2 s)
# Wavelength units: Angstrom
wave	flux
19000.0	7.91339057038404e+17
19001.0	7.911746714992637e+17
19002.0	7.910397745736361e+17
19003.0	7.908889166435667e+17
19004.0	7.907383943976275e+17
19005.0	7.905889021329407e+17
19006.0	7.90438720324676e+17
19007.0	7.902402652930047e+17
19008.0	7.901259875658409e+17
19009.0	7.899845160686931e+17
19010.0	7.897680874657106e+17
19011.0	7.896849908935338e+17
19012.0	7.894883138273276e+17
19013.0	7.893880557010943e+17
19014.0	7.892282254557183e+17
19015.0	7.890828668174335e+17
19016.0	7.889321186383187e+17
19017.0	7.887099578198696e+17
19018.0	7.886331917107199e+17
19019.0	7.88486857756945e+17
19020.0	7.883249029567828e+17
19021.0	7.881807739486207e+17
19022.0	7.880388802248703e+17
19023.0	7.878823179015508e+17
19024.0	7.877361171868328e+17
19025.0	7.875830719272276e+17
19026.0	7.874320156065791e+17
19027.0	7.872641183165097e+17
19028.0	7.871396436770815e+17
19029.0	7.869869500399616e+17
19030.0	7.868418552233981e+17
19031.0	7.866930544596308e+17
19032.0	7.86543074816819e+17
19033.0	7.863794867546792e+17
19034.0	7.862399270212948e+17
19035.0	7.860878028308479e+17
19036.0	7.833999903468183e+17
19037.0	7.85792046936883e+17
19038.0	7.856409527276883e+17
19039.0	7.854942684097193e+17
19040.0	7.853456238138706e+17
19041.0	7.851947774880426e+17
19042.0	7.850323490111485e+17
19043.0	7.848964436350291e+17
19044.0	7.847452213597523e+17
19045.0	7.845962107409748e+17
19046.0	7.844366493504851e+17
19047.0	7.842982858326016e+17
19048.0	7.841174625364646e+17
19049.0	7.839881370446505e+17
19050.0	7.83842336186914e+17
19051.0	7.833867310333942e+17
19052.0	7.835282351063041e+17
19053.0	7.833889782016681e+17
19054.0	7.832513851774292e+17
19055.0	7.830640313499648e+17
19056.0	7.829488349304147e+17
19057.0	7.828022764415657e+17
19058.0	7.826392140655273e+17
19059.0	7.825047136414377e+17
19060.0	7.82352355968068e+17
19061.0	7.822072090023251e+17
19062.0	7.820570032865279e+17
19063.0	7.819083377191593e+17
19064.0	7.817391481640276e+17
19065.0	7.815809222399314e+17
19066.0	7.814507520152915e+17
19067.0	7.813096890433535e+17
19068.0	7.811624224161791e+17
19069.0	7.810136647139327e+17
19070.0	7.808593853502804e+17
19071.0	7.807130017639081e+17
19072.0	7.805662310432767e+17
19073.0	7.804162789430611e+17
19074.0	7.802688182594216e+17
19075.0	7.801198153302015e+17
19076.0	7.799673115552424e+17
19077.0	7.798207231470249e+17
19078.0	7.796544630336168e+17
19079.0	7.795232570955092e+17
19080.0	7.793727973446996e+17
19081.0	7.792182603109718e+17
19082.0	7.790641043996671e+17
19083.0	7.789088666375508e+17
19084.0	7.787394764548777e+17
19085.0	7.786280757406377e+17
19086.0	7.784164759000402e+17
19087.0	7.782680481497088e+17
19088.0	7.781706390743721e+17
19089.0	7.779715978188115e+17
19090.0	7.778809705136125e+17
19091.0	7.777325956115114e+17
19092.0	7.775642962274985e+17
19093.0	7.774401871915688e+17
19094.0	7.772893755386538e+17
19095.0	7.771398664967508e+17
19096.0	7.76984138560307e+17
19097.0	7.768447562459817e+17
19098.0	7.766974267042472e+17
19099.0	7.765471544388268e+17
19100.0	7.763965968209236e+17
19101.0	7.762516262955689e+17
19102.0	7.760922776961021e+17
19103.0	7.759552134337876e+17
19104.0	7.758080695599101e+17
19105.0	7.756590722230953e+17
19106.0	7.754982817617234e+17
19107.0	7.753598570070017e+17
19108.0	7.75214325423582e+17
19109.0	7.747592872001531e+17
19110.0	7.749154242210472e+17
19111.0	7.747688960709972e+17
19112.0	7.74621347586594e+17
19113.0	7.74473308648243e+17
19114.0	7.743247361944232e+17
19115.0	7.741662668608851e+17
19116.0	7.740255019641514e+17
19117.0	7.738778571505663e+17
19118.0	7.737074808870227e+17
19119.0	7.733022535188474e+17
19120.0	7.734176755919528e+17
19121.0	7.732784014906706e+17
19122.0	7.731406503411711e+17
19123.0	7.729858216635049e+17
19124.0	7.728316556858708e+17
19125.0	7.726901476982781e+17
19126.0	7.725333753801385e+17
19127.0	7.72158441232793e+17
19128.0	7.719614419042299e+17
19129.0	7.720904029110271e+17
19130.0	7.719553196184915e+17
19131.0	7.717989608587263e+17
19132.0	7.716609354017446e+17
19133.0	7.71364796428015e+17
19134.0	7.712239434508974e+17
19135.0	7.712174839431165e+17
19136.0	7.710712784748543e+17
19137.0	7.708988605639338e+17
19138.0	7.70716322636322e+17
19139.0	7.70626791023138e+17
19140.0	7.704807290000726e+17
19141.0	7.70333368001058e+17
19142.0	7.70180948112179e+17
19143.0	7.700282761456297e+17
19144.0	7.698815550575956e+17
19145.0	7.697410633498621e+17
19146.0	7.694979986795177e+17
19147.0	7.694353280882003e+17
19148.0	7.69298375254562e+17
19149.0	7.691509918859263e+17
19150.0	7.689998877502121e+17
19151.0	7.688575192312489e+17
19152.0	7.687010279314772e+17
19153.0	7.685603214753791e+17
19154.0	7.683974219781458e+17
19155.0	7.682682827134292e+17
19156.0	7.681211469485396e+17
19157.0	7.679691066441727e+17
19158.0	7.67611473721207e+17
19159.0	7.676755726128467e+17
19160.0	7.675182772649981e+17
19161.0	7.673527877850454e+17
19162.0	7.667660547074733e+17
19163.0	7.670866907933353e+17
19164.0	7.669438894221994e+17
19165.0	7.66790035640593e+17
19166.0	7.666289545139539e+17
19167.0	7.664576747973288e+17
19168.0	7.663225789218815e+17
19169.0	7.661869138793811e+17
19170.0	7.660610727357096e+17
19171.0	7.658945225162751e+17
19172.0	7.65764527054302e+17
19173.0	7.656196557941417e+17
19174.0	7.654649614740138e+17
19175.0	7.653264500370089e+17
19176.0	7.651784787667625e+17
19177.0	7.650099499543209e+17
19178.0	7.648799528146259e+17
19179.0	7.647091434192893e+17
19180.0	7.644870448163501e+17
19181.0	7.644280558452735e+17
19182.0	7.64262174757137e+17
19183.0	7.641391577781586e+17
19184.0	7.639694130369875e+17
19185.0	7.638535100170237e+17
19186.0	7.637101145926314e+17
19187.0	7.635486081635667e+17
19188.0	7.634127679389696e+17
19189.0	7.632566629345961e+17
19190.0	7.631073156530173e+17
19191.0	7.629651827141289e+17
19192.0	7.628161446925654e+17
19193.0	7.625516369226409e+17
19194.0	7.624770609392298e+17
19195.0	7.62377382465809e+17
19196.0	7.622380978787666e+17
19197.0	7.620913082837674e+17
19198.0	7.619393852801024e+17
19199.0	7.590464415509153e+17
19200.0	7.59862382297089e+17
19201.0	7.615004313736531e+17
19202.0	7.613596979341993e+17
19203.0	7.612089457005906e+17
19204.0	7.610634388635647e+17
19205.0	7.609194313504083e+17
19206.0	7.607722281970345e+17
19207.0	7.606152661565439e+17
19208.0	7.604500349059071e+17
19209.0	7.603299965818195e+17
19210.0	7.601855054654122e+17
19211.0	7.600384517690706e+17
19212.0	7.598948164304893e+17
19213.0	7.597108352428713e+17
19214.0	7.595484622706004e+17
19215.0	7.594446490522964e+17
19216.0	7.592938898281811e+17
19217.0	7.591597111072084e+17
19218.0	7.588949649610066e+17
19219.0	7.588421725148499e+17
19220.0	7.587157065596927e+17
19221.0	7.585225152397311e+17
19222.0	7.584277965307901e+17
19223.0	7.582758006860458e+17
19224.0	7.581033931210751e+17
19225.0	7.579580639827283e+17
19226.0	7.578348990846292e+17
19227.0	7.576877970139817e+17
19228.0	7.575459625697279e+17
19229.0	7.573991849983997e+17
19230.0	7.572373249895084e+17
19231.0	7.570916067595604e+17
19232.0	7.569382172874068e+17
19233.0	7.568001012334591e+17
19234.0	7.566606815898281e+17
19235.0	7.565118290963113e+17
19236.0	7.563711255762259e+17
19237.0	7.562213757812735e+17
19238.0	7.560597548477097e+17
19239.0	7.559297754639017e+17
19240.0	7.557201831570088e+17
19241.0	7.55614944154965e+17
19242.0	7.554808958768467e+17
19243.0	7.553113646257491e+17
19244.0	7.551936447731028e+17
19245.0	7.550460570020521e+17
19246.0	7.548976442114047e+17
19247.0	7.547483125885609e+17
19248.0	7.546055682599594e+17
19249.0	7.5445774085434e+17
19250.0	7.543082003551572e+17
19251.0	7.541495540219901e+17
19252.0	7.539571263449768e+17
19253.0	7.538659624484863e+17
19254.0	7.537119923448489e+17
19255.0	7.535411766580563e+17
19256.0	7.534154153459711e+17
19257.0	7.532780825083901e+17
19258.0	7.531299799564289e+17
19259.0	7.529710312139432e+17
19260.0	7.528084162303315e+17
19261.0	7.526859830984701e+17
19262.0	7.525303422637395e+17
19263.0	7.523842254351017e+17
19264.0	7.521668381540348e+17
19265.0	7.520681288444586e+17
19266.0	7.519298766154409e+17
19267.0	7.517988146817705e+17
19268.0	7.516483858290002e+17
19269.0	7.515009310173864e+17
19270.0	7.513513425633279e+17
19271.0	7.511562324890966e+17
19272.0	7.510505244240553e+17
19273.0	7.493549343899626e+17
19274.0	7.500037543515466e+17
19275.0	7.506099716489215e+17
19276.0	7.504581716781738e+17
19277.0	7.503084213239807e+17
19278.0	7.501604356532905e+17
19279.0	7.4999089084061e+17
19280.0	7.498491274199037e+17
19281.0	7.49711883501568e+17
19282.0	7.495642700054525e+17
19283.0	7.493689653155155e+17
19284.0	7.491527977380518e+17
19285.0	7.490778397933568e+17
19286.0	7.489596814961321e+17
19287.0	7.48815121593139e+17
19288.0	7.480852348228946e+17
19289.0	7.46761854036647e+17
19290.0	7.483636757910868e+17
19291.0	7.481712267231233e+17
19292.0	7.480615158939645e+17
19293.0	7.479094488858621e+17
19294.0	7.477573252546557e+17
19295.0	7.476078006938281e+17
19296.0	7.474549044718249e+17
19297.0	7.472986628729514e+17
19298.0	7.471471899181055e+17
19299.0	7.469996052228777e+17
19300.0	7.468472268576084e+17
19301.0	7.46692618101282e+17
19302.0	7.465386341564415e+17
19303.0	7.463708366908074e+17
19304.0	7.462227031009962e+17
19305.0	7.460777768954538e+17
19306.0	7.459228665686696e+17
19307.0	7.45759744913135e+17
19308.0	7.456103780581373e+17
19309.0	7.453797356579496e+17
19310.0	7.451727573811197e+17
19311.0	7.451404683706365e+17
19312.0	7.449904788013055e+17
19313.0	7.447950990333271e+17
19314.0	7.440673260524874e+17
19315.0	7.439466995471715e+17
19316.0	7.443668952678399e+17
19317.0	7.442124728784212e+17
19318.0	7.440539543317161e+17
19319.0	7.438984319161683e+17
19320.0	7.43729091645713e+17
19321.0	7.435808508215296e+17
19322.0	7.433926536593408e+17
19323.0	7.43213323255808e+17
19324.0	7.430989433274368e+17
19325.0	7.42883897586483e+17
19326.0	7.42777745764079e+17
19327.0	7.426133107321513e+17
19328.0	7.424530753170089e+17
19329.0	7.422901215734441e+17
19330.0	7.421203168537257e+17
19331.0	7.419557404737533e+17
19332.0	7.417961058227539e+17
19333.0	7.416257765354153e+17
19334.0	7.41448702108194e+17
19335.0	7.412957247963135e+17
19336.0	7.411269999700649e+17
19337.0	7.409578748674049e+17
19338.0	7.407594679304191e+17
19339.0	7.406200043864063e+17
19340.0	7.404431437288787e+17
19341.0	7.402773642827091e+17
19342.0	7.400379391497555e+17
19343.0	7.399314038281556e+17
19344.0	7.39754418180369e+17
19345.0	7.392854074720247e+17
19346.0	7.393269951146666e+17
19347.0	7.392153114247168e+17
19348.0	7.390471807915347e+17
19349.0	7.388607725000019e+17
19350.0	7.386800009336148e+17
19351.0	7.38496283288098e+17
19352.0	7.383075038167037e+17
19353.0	7.381335804302676e+17
19354.0	7.37944003481873e+17
19355.0	7.377401067601919e+17
19356.0	7.375657320666454e+17
19357.0	7.373722976168617e+17
19358.0	7.371644465053696e+17
19359.0	7.368981666420055e+17
19360.0	7.367793379551914e+17
19361.0	7.365758768818858e+17
19362.0	7.363851762794493e+17
19363.0	7.361806218909011e+17
19364.0	7.359729107293522e+17
19365.0	7.357634414553769e+17
19366.0	7.355534453768191e+17
19367.0	7.353388063435433e+17
19368.0	7.35120142316339e+17
19369.0	7.348660322260308e+17
19370.0	7.344767864143871e+17
19371.0	7.344367340268202e+17
19372.0	7.342151056053586e+17
19373.0	7.339769348489215e+17
19374.0	7.337432807986516e+17
19375.0	7.335025333414569e+17
19376.0	7.33256075199556e+17
19377.0	7.330024513688916e+17
19378.0	7.327490284453887e+17
19379.0	7.324890214432769e+17
19380.0	7.322263787405311e+17
19381.0	7.319554803892223e+17
19382.0	7.316674231402493e+17
19383.0	7.313767094987433e+17
19384.0	7.311012706735444e+17
19385.0	7.308067347628032e+17
19386.0	7.305060590900564e+17
19387.0	7.301940206283433e+17
19388.0	7.298736696153428e+17
19389.0	7.295472249776808e+17
19390.0	7.292072151220223e+17
19391.0	7.267069861735048e+17
19392.0	7.284936292346536e+17
19393.0	7.281361910672041e+17
19394.0	7.277571592246611e+17
19395.0	7.273685865988096e+17
19396.0	7.269646829529769e+17
19397.0	7.265530587119615e+17
19398.0	7.261241599503017e+17
19399.0	7.25593798038869e+17
19400.0	7.252163972213416e+17
19401.0	7.24740370141457e+17
19402.0	7.242491772971689e+17
19403.0	7.237199552577535e+17
19404.0	7.231822946981203e+17
19405.0	7.226254837852841e+17
19406.0	7.220281069622612e+17
19407.0	7.214277959439699e+17
19408.0	7.206826476393814e+17
19409.0	7.20077159731473e+17
19410.0	7.193914199681705e+17
19411.0	7.186381544270505e+17
19412.0	7.17855566926097e+17
19413.0	7.170234616119293e+17
19414.0	7.1617907537565e+17
19415.0	7.153092039890262e+17
19416.0	7.143428510274899e+17
19417.0	7.133593395877204e+17
19418.0	7.123567520339284e+17
19419.0	7.112547197692586e+17
19420.0	7.10105124516659e+17
19421.0	7.088527957994153e+17
19422.0	7.075294909300735e+17
19423.0	7.061017239835987e+17
19424.0	7.04550736634402e+17
19425.0	7.028991225495551e+17
19426.0	7.010770464975529e+17
19427.0	6.99284419842321e+17
19428.0	6.974769162005161e+17
19429.0	6.955086895557289e+17
19430.0	6.933356035964928e+17
19431.0	6.907304957968392e+17
19432.0	6.886446810005501e+17
19433.0	6.859343772603734e+17
19434.0	6.829557530580311e+17
19435.0	6.796156836599124e+17
19436.0	6.760048050394451e+17
19437.0	6.727022824215892e+17
19438.0	6.671631039944019e+17
19439.0	6.647739088983384e+17
19440.0	6.602074878552746e+17
19441.0	6.550738339627005e+17
19442.0	6.494787959346519e+17
19443.0	6.4371442595485e+17
19444.0	6.372910129567058e+17
19445.0	6.300088733969069e+17
19446.0	6.221482309626537e+17
19447.0	6.132419665767077e+17
19448.0	6.029848080984751e+17
19449.0	5.891179763728383e+17
19450.0	5.5691821935055725e+17
19451.0	5.435748587143175e+17
19452.0	5.7574707943178304e+17
19453.0	5.967439995076613e+17
19454.0	6.078193682699601e+17
19455.0	6.171066727312042e+17
19456.0	6.251497157296132e+17
19457.0	6.325251110251174e+17
19458.0	6.386496504332294e+17
19459.0	6.44926093900732e+17
19460.0	6.502737559333546e+17
19461.0	6.554602128976553e+17
19462.0	6.60035868679646e+17
19463.0	6.641184885003603e+17
19464.0	6.678015841577641e+17
19465.0	6.711407716335617e+17
19466.0	6.742094659278161e+17
19467.0	6.774967739875327e+17
19468.0	6.803515494804138e+17
19469.0	6.827466456126802e+17
19470.0	6.852349025495721e+17
19471.0	6.873268988411904e+17
19472.0	6.892378515658067e+17
19473.0	6.909993645943465e+17
19474.0	6.92636607315968e+17
19475.0	6.940536557884755e+17
19476.0	6.956601084739583e+17
19477.0	6.971323153296042e+17
19478.0	6.984417021001728e+17
19479.0	6.996467213052585e+17
19480.0	7.007384160785748e+17
19481.0	7.017435482466985e+17
19482.0	7.0266037221021e+17
19483.0	7.035270572539904e+17
19484.0	7.04301043565636e+17
19485.0	7.050271936304467e+17
19486.0	7.056970284531711e+17
19487.0	7.063281782314323e+17
19488.0	7.068948302397439e+17
19489.0	7.074531485854378e+17
19490.0	7.078195126512294e+17
19491.0	7.084621339907411e+17
19492.0	7.089066910679039e+17
19493.0	7.093287670950569e+17
19494.0	7.097060935335935e+17
19495.0	7.100395760735572e+17
19496.0	7.103170558470824e+17
19497.0	7.106664044604074e+17
19498.0	7.108293678508718e+17
19499.0	7.077586969209477e+17
19500.0	7.114174967928147e+17
19501.0	7.116156343156735e+17
19502.0	7.118147068887037e+17
19503.0	7.119864369337684e+17
19504.0	7.121325087435434e+17
19505.0	7.122802518436522e+17
19506.0	7.124171579807059e+17
19507.0	7.125275930263551e+17
19508.0	7.126322059586217e+17
19509.0	7.127236742217727e+17
19510.0	7.127776466654547e+17
19511.0	7.106711162017097e+17
19512.0	7.125148775743468e+17
19513.0	7.119975813393047e+17
19514.0	7.123810399901004e+17
19515.0	7.129746563399683e+17
19516.0	7.131099841604265e+17
19517.0	7.131205876405587e+17
19518.0	7.131429853637289e+17
19519.0	7.131492119478271e+17
19520.0	7.131535045383508e+17
19521.0	7.131552070063444e+17
19522.0	7.131370217624916e+17
19523.0	7.131290049096361e+17
19524.0	7.131080319915348e+17
19525.0	7.130711161044991e+17
19526.0	7.130503721953961e+17
19527.0	7.130198782072147e+17
19528.0	7.129831565164543e+17
19529.0	7.129405976128169e+17
19530.0	7.128968977186815e+17
19531.0	7.128494103680339e+17
19532.0	7.127963834602836e+17
19533.0	7.12742257365265e+17
19534.0	7.126837729689599e+17
19535.0	7.126224432966313e+17
19536.0	7.125581920119466e+17
19537.0	7.125001382308521e+17
19538.0	7.124270050880169e+17
19539.0	7.122815720707416e+17
19540.0	7.122834996330496e+17
19541.0	7.122125257179135e+17
19542.0	7.12134210093056e+17
19543.0	7.120546110111743e+17
19544.0	7.11974435631923e+17
19545.0	7.118438852635302e+17
19546.0	7.116751134610774e+17
19547.0	7.117153812960595e+17
19548.0	7.116337330170538e+17
19549.0	7.115276743081981e+17
19550.0	7.114535123025917e+17
19551.0	7.113621704278015e+17
19552.0	7.112685661454335e+17
19553.0	7.111731198645587e+17
19554.0	7.110747009406292e+17
19555.0	7.109817010574676e+17
19556.0	7.108853152524969e+17
19557.0	7.10785414341154e+17
19558.0	7.106856187068416e+17
19559.0	7.105782118088704e+17
19560.0	7.10478358712593e+17
19561.0	7.103752508364116e+17
19562.0	7.102745251850921e+17
19563.0	7.101683761588905e+17
19564.0	7.100652914911913e+17
19565.0	7.099578922827775e+17
19566.0	7.098476814925823e+17
19567.0	7.097426573787135e+17
19568.0	7.096305128745642e+17
19569.0	7.095227915436032e+17
19570.0	7.094170784453972e+17
19571.0	7.093064478053718e+17
19572.0	7.09189636858402e+17
19573.0	7.090821456549204e+17
19574.0	7.089551080161279e+17
19575.0	7.088577808695293e+17
19576.0	7.087449553502207e+17
19577.0	7.086152305606655e+17
19578.0	7.08512150786321e+17
19579.0	7.083992227861844e+17
19580.0	7.082848924904106e+17
19581.0	7.081711421270697e+17
19582.0	7.080577356966569e+17
19583.0	7.079413569028096e+17
19584.0	7.078233704322387e+17
19585.0	7.076881990593193e+17
19586.0	7.075490263203839e+17
19587.0	7.074292505597267e+17
19588.0	7.072762190015148e+17
19589.0	7.071915105583101e+17
19590.0	7.071037672565417e+17
19591.0	7.069985781667155e+17
19592.0	7.068802123912532e+17
19593.0	7.0675598423709e+17
19594.0	7.065978069669203e+17
19595.0	7.06517396427025e+17
19596.0	7.056934293209092e+17
19597.0	7.062763034989908e+17
19598.0	7.061267715282259e+17
19599.0	7.060394258464765e+17
19600.0	7.059190273714858e+17
19601.0	7.05787879035153e+17
19602.0	7.056701020001619e+17
19603.0	7.054551467163645e+17
19604.0	7.054219380348244e+17
19605.0	7.05263172443614e+17
19606.0	7.051828000718847e+17
19607.0	7.050633205689002e+17
19608.0	7.049386211147773e+17
19609.0	7.048085852476755e+17
19610.0	7.046952952791039e+17
19611.0	7.0457062602397e+17
19612.0	7.044490152553129e+17
19613.0	7.043228645720063e+17
19614.0	7.041949594113364e+17
19615.0	7.040773592361642e+17
19616.0	7.039343315124224e+17
19617.0	7.03828518449971e+17
19618.0	7.036358486917119e+17
19619.0	7.034855427320488e+17
19620.0	7.033662020605267e+17
19621.0	7.033302542188541e+17
19622.0	7.032067294494719e+17
19623.0	7.030823540752383e+17
19624.0	7.029558150692861e+17
19625.0	7.028316970156031e+17
19626.0	7.027053432580778e+17
19627.0	7.025818927977812e+17
19628.0	7.02391592681472e+17
19629.0	7.023171462321491e+17
19630.0	7.021573960280748e+17
19631.0	6.992588438153884e+17
19632.0	7.019517957898237e+17
19633.0	7.018204408141139e+17
19634.0	7.017029559823017e+17
19635.0	7.015706955262633e+17
19636.0	7.01449553121553e+17
19637.0	7.012599270298966e+17
19638.0	7.011978175665491e+17
19639.0	7.01069174907426e+17
19640.0	7.009372507646634e+17
19641.0	7.00751009476335e+17
19642.0	7.006931191332863e+17
19643.0	7.005624556584959e+17
19644.0	7.004334092277076e+17
19645.0	7.002792657595049e+17
19646.0	7.001899231696212e+17
19647.0	7.000634679798441e+17
19648.0	6.999362003533823e+17
19649.0	6.998092096208895e+17
19650.0	6.996838133530623e+17
19651.0	6.995560206696447e+17
19652.0	6.994290837640531e+17
19653.0	6.993024944963583e+17
19654.0	6.991750867102378e+17
19655.0	6.990477098221567e+17
19656.0	6.989213605385556e+17
19657.0	6.987950076897961e+17
19658.0	6.98668505244194e+17
19659.0	6.985422995455999e+17
19660.0	6.984160548399785e+17
19661.0	6.982883591148884e+17
19662.0	6.981621643214847e+17
19663.0	6.980279045106345e+17
19664.0	6.978939355747667e+17
19665.0	6.977811715719167e+17
19666.0	6.976512274901672e+17
