# Flux units: erg / (cm m2 s)
# Wavelength units: Angstrom
wave	flux
19000.0	7.890474877233833e+17
19001.0	7.888873159218515e+17
19002.0	7.887511082762239e+17
19003.0	7.886024171236009e+17
19004.0	7.884617316390228e+17
19005.0	7.88316502045491e+17
19006.0	7.881683582495402e+17
19007.0	7.879994195137876e+17
19008.0	7.878631400057514e+17
19009.0	7.877192306393085e+17
19010.0	7.875184448329042e+17
19011.0	7.874229176019626e+17
19012.0	7.872490671964156e+17
19013.0	7.871283935750826e+17
19014.0	7.869722060827305e+17
19015.0	7.868272329009833e+17
19016.0	7.866779120435201e+17
19017.0	7.865124190683133e+17
19018.0	7.863833246826493e+17
19019.0	7.862363547325779e+17
19020.0	7.860808176369663e+17
19021.0	7.859361987340969e+17
19022.0	7.857915163574271e+17
19023.0	7.856377731656362e+17
19024.0	7.854919626610003e+17
19025.0	7.853437661566292e+17
19026.0	7.851927127719936e+17
19027.0	7.850322196867754e+17
19028.0	7.848997129551872e+17
19029.0	7.847491891713364e+17
19030.0	7.846037899881128e+17
19031.0	7.844558802343254e+17
19032.0	7.84307032634163e+17
19033.0	7.841476518783658e+17
19034.0	7.840072377652564e+17
19035.0	7.838562349918889e+17
19036.0	7.823739605483511e+17
19037.0	7.835621545825619e+17
19038.0	7.834119485871442e+17
19039.0	7.832658618176854e+17
19040.0	7.831178544764244e+17
19041.0	7.829680918189396e+17
19042.0	7.828091872564564e+17
19043.0	7.826719110419794e+17
19044.0	7.825215115493375e+17
19045.0	7.823736399637161e+17
19046.0	7.822182693819732e+17
19047.0	7.820765452479144e+17
19048.0	7.819028408041471e+17
19049.0	7.81770962519108e+17
19050.0	7.816250573630122e+17
19051.0	7.812771113249445e+17
19052.0	7.813167217726804e+17
19053.0	7.811797889318911e+17
19054.0	7.810361129085609e+17
19055.0	7.808567711804076e+17
19056.0	7.807355646028458e+17
19057.0	7.805890391091881e+17
19058.0	7.804344804048893e+17
19059.0	7.802927009060179e+17
19060.0	7.801415945333417e+17
19061.0	7.799960486892884e+17
19062.0	7.798469456560125e+17
19063.0	7.796986340879017e+17
19064.0	7.795341896886954e+17
19065.0	7.793787726899881e+17
19066.0	7.792448175254185e+17
19067.0	7.791026225108308e+17
19068.0	7.789557635700051e+17
19069.0	7.788073741276499e+17
19070.0	7.786549527008595e+17
19071.0	7.785086590124032e+17
19072.0	7.783615751170728e+17
19073.0	7.782119909971284e+17
19074.0	7.780646889979903e+17
19075.0	7.77916171489553e+17
19076.0	7.777649019584511e+17
19077.0	7.776181491335167e+17
19078.0	7.774623429033983e+17
19079.0	7.773218309231956e+17
19080.0	7.771718410742442e+17
19081.0	7.770192192995327e+17
19082.0	7.768689889771517e+17
19083.0	7.767129974986067e+17
19084.0	7.765483523320489e+17
19085.0	7.764209812460884e+17
19086.0	7.762217291568468e+17
19087.0	7.760836044346708e+17
19088.0	7.759645211536042e+17
19089.0	7.757823918910121e+17
19090.0	7.756742241462953e+17
19091.0	7.75527062516531e+17
19092.0	7.753655846087336e+17
19093.0	7.752338631906646e+17
19094.0	7.750838143418365e+17
19095.0	7.749349091398995e+17
19096.0	7.747852611267242e+17
19097.0	7.746401573623126e+17
19098.0	7.744918369861632e+17
19099.0	7.743430158101162e+17
19100.0	7.741933956191574e+17
19101.0	7.740469658954409e+17
19102.0	7.738892472025087e+17
19103.0	7.73750432657135e+17
19104.0	7.736031470157821e+17
19105.0	7.734544344722088e+17
19106.0	7.732993534372521e+17
19107.0	7.731560051288748e+17
19108.0	7.730100412525225e+17
19109.0	7.727123410190331e+17
19110.0	7.727118841195177e+17
19111.0	7.725653651969363e+17
19112.0	7.72417836425762e+17
19113.0	7.722697953902592e+17
19114.0	7.721210459368105e+17
19115.0	7.719655135947434e+17
19116.0	7.718225436125864e+17
19117.0	7.716746943965868e+17
19118.0	7.715124942296403e+17
19119.0	7.711284178976763e+17
19120.0	7.712203808090794e+17
19121.0	7.710781996356948e+17
19122.0	7.709372268412927e+17
19123.0	7.707873327622824e+17
19124.0	7.70633280869717e+17
19125.0	7.704914233567914e+17
19126.0	7.703416402870271e+17
19127.0	7.700014133062312e+17
19128.0	7.699233170434728e+17
19129.0	7.698896615287466e+17
19130.0	7.697515018540372e+17
19131.0	7.696011950555135e+17
19132.0	7.694569620286122e+17
19133.0	7.692286504031572e+17
19134.0	7.691008685550252e+17
19135.0	7.690128013131773e+17
19136.0	7.688660213650772e+17
19137.0	7.686987495855444e+17
19138.0	7.685552301495636e+17
19139.0	7.684218336662868e+17
19140.0	7.682746264584191e+17
19141.0	7.68126889509956e+17
19142.0	7.679755205738493e+17
19143.0	7.678242109172394e+17
19144.0	7.676784658437459e+17
19145.0	7.675344312074239e+17
19146.0	7.673135030949204e+17
19147.0	7.67229567242513e+17
19148.0	7.670913106793811e+17
19149.0	7.669429907226624e+17
19150.0	7.667948217608872e+17
19151.0	7.666481085022208e+17
19152.0	7.664972821692415e+17
19153.0	7.663507214434303e+17
19154.0	7.661904312227154e+17
19155.0	7.660573618951508e+17
19156.0	7.659094959019347e+17
19157.0	7.657589628906153e+17
19158.0	7.655114701537276e+17
19159.0	7.65463281934882e+17
19160.0	7.653131361976319e+17
19161.0	7.651576793530367e+17
19162.0	7.647917191987201e+17
19163.0	7.648723658779305e+17
19164.0	7.647280361024169e+17
19165.0	7.645760903097002e+17
19166.0	7.64417124090948e+17
19167.0	7.642631952313e+17
19168.0	7.641189241760425e+17
19169.0	7.63977347961105e+17
19170.0	7.638416384589824e+17
19171.0	7.636823284471126e+17
19172.0	7.635453198292308e+17
19173.0	7.633983988127059e+17
19174.0	7.632443378324819e+17
19175.0	7.631036038337876e+17
19176.0	7.629550050956627e+17
19177.0	7.627900267615572e+17
19178.0	7.626561714214228e+17
19179.0	7.624955312559446e+17
19180.0	7.62338647928559e+17
19181.0	7.622045273686015e+17
19182.0	7.620577925791744e+17
19183.0	7.619186238947327e+17
19184.0	7.617556377152168e+17
19185.0	7.61623699731251e+17
19186.0	7.614780425983315e+17
19187.0	7.61319550755362e+17
19188.0	7.611808809134761e+17
19189.0	7.610292661911552e+17
19190.0	7.608802639609855e+17
19191.0	7.607324522141011e+17
19192.0	7.605887584348841e+17
19193.0	7.604199718125568e+17
19194.0	7.602831915046227e+17
19195.0	7.601449712921257e+17
19196.0	7.599964676248915e+17
19197.0	7.598484851698345e+17
19198.0	7.596960928235517e+17
19199.0	7.581779147183442e+17
19200.0	7.585003005280261e+17
19201.0	7.592532735863464e+17
19202.0	7.591102686516564e+17
19203.0	7.58960628887279e+17
19204.0	7.588123803735382e+17
19205.0	7.58666523451938e+17
19206.0	7.585176825626621e+17
19207.0	7.583613925894825e+17
19208.0	7.581997786464252e+17
19209.0	7.580730181113172e+17
19210.0	7.579256639629994e+17
19211.0	7.577785926505811e+17
19212.0	7.576309513322492e+17
19213.0	7.574612471360169e+17
19214.0	7.573061139518804e+17
19215.0	7.571812430905343e+17
19216.0	7.57033884048862e+17
19217.0	7.568888833245183e+17
19218.0	7.566452051673083e+17
19219.0	7.565722783842301e+17
19220.0	7.564405572457812e+17
19221.0	7.562556516335616e+17
19222.0	7.561474048961194e+17
19223.0	7.559957826240511e+17
19224.0	7.558376143017299e+17
19225.0	7.556817318750889e+17
19226.0	7.555489101512703e+17
19227.0	7.553999108571135e+17
19228.0	7.552552665087999e+17
19229.0	7.551062859492009e+17
19230.0	7.549501905917266e+17
19231.0	7.548020887388157e+17
19232.0	7.54652456943616e+17
19233.0	7.545007800057856e+17
19234.0	7.543573574582272e+17
19235.0	7.542069319609e+17
19236.0	7.540623224253097e+17
19237.0	7.539105976724136e+17
19238.0	7.537508858462207e+17
19239.0	7.53614324760576e+17
19240.0	7.534300329148415e+17
19241.0	7.533022724576595e+17
19242.0	7.531615378997245e+17
19243.0	7.529922514561706e+17
19244.0	7.528654309425151e+17
19245.0	7.527149031041705e+17
19246.0	7.525636043527508e+17
19247.0	7.524138643445078e+17
19248.0	7.522656165298175e+17
19249.0	7.521146445146794e+17
19250.0	7.519622885190313e+17
19251.0	7.518020473716735e+17
19252.0	7.516216458827092e+17
19253.0	7.515104434192381e+17
19254.0	7.513571144848722e+17
19255.0	7.511857122945704e+17
19256.0	7.510544286220288e+17
19257.0	7.509087520555008e+17
19258.0	7.507576698699775e+17
19259.0	7.505968696218963e+17
19260.0	7.504362645487615e+17
19261.0	7.503019476953769e+17
19262.0	7.501444521394173e+17
19263.0	7.499942381748221e+17
19264.0	7.49779374466662e+17
19265.0	7.496610885227858e+17
19266.0	7.495157129674751e+17
19267.0	7.493781098769066e+17
19268.0	7.492245524927828e+17
19269.0	7.490723006556841e+17
19270.0	7.48919353402982e+17
19271.0	7.48728774295552e+17
19272.0	7.486086034314582e+17
19273.0	7.475773185895071e+17
19274.0	7.478663317203619e+17
19275.0	7.481524043644927e+17
19276.0	7.479961977181523e+17
19277.0	7.478421616241321e+17
19278.0	7.47688252617523e+17
19279.0	7.475254563001683e+17
19280.0	7.47369012256222e+17
19281.0	7.472232094411434e+17
19282.0	7.470698245827241e+17
19283.0	7.468928685746858e+17
19284.0	7.467102803154259e+17
19285.0	7.465751644471293e+17
19286.0	7.464422449960276e+17
19287.0	7.462900513199444e+17
19288.0	7.458215404328275e+17
19289.0	7.450630714381635e+17
19290.0	7.458189291989674e+17
19291.0	7.45628445442048e+17
19292.0	7.455033511641087e+17
19293.0	7.453440640811007e+17
19294.0	7.45184961966899e+17
19295.0	7.450275451240449e+17
19296.0	7.448673926163112e+17
19297.0	7.447050410349906e+17
19298.0	7.445446037340157e+17
19299.0	7.443882530832383e+17
19300.0	7.442272178143232e+17
19301.0	7.440648138042026e+17
19302.0	7.439028390111913e+17
19303.0	7.437304132709033e+17
19304.0	7.435720443210408e+17
19305.0	7.433994014556157e+17
19306.0	7.432337005827411e+17
19307.0	7.430633787053396e+17
19308.0	7.429024829669375e+17
19309.0	7.426984869800616e+17
19310.0	7.425101041500157e+17
19311.0	7.424034098642943e+17
19312.0	7.422417899094015e+17
19313.0	7.420642357936128e+17
19314.0	7.41451027290521e+17
19315.0	7.413109488615432e+17
19316.0	7.415703093815977e+17
19317.0	7.413946906574847e+17
19318.0	7.412180715918676e+17
19319.0	7.410493000690344e+17
19320.0	7.408747696269993e+17
19321.0	7.407058075429545e+17
19322.0	7.405142992573782e+17
19323.0	7.40335879577054e+17
19324.0	7.40182168122163e+17
19325.0	7.399648145353385e+17
19326.0	7.398084131334825e+17
19327.0	7.396344363395753e+17
19328.0	7.39458324225502e+17
19329.0	7.392792643545769e+17
19330.0	7.39094261993745e+17
19331.0	7.389127543270058e+17
19332.0	7.387355760208553e+17
19333.0	7.385500128815785e+17
19334.0	7.383637238480893e+17
19335.0	7.381823980743336e+17
19336.0	7.379946340439378e+17
19337.0	7.378062851877548e+17
19338.0	7.375811671053651e+17
19339.0	7.373970550554623e+17
19340.0	7.371993394795862e+17
19341.0	7.370111553197395e+17
19342.0	7.367677606974802e+17
19343.0	7.366194920510804e+17
19344.0	7.36420175229747e+17
19345.0	7.3598903587089e+17
19346.0	7.359524970517844e+17
19347.0	7.35795197649442e+17
19348.0	7.355743918708051e+17
19349.0	7.353625026232317e+17
19350.0	7.351543633630547e+17
19351.0	7.349313380985514e+17
19352.0	7.347022481500842e+17
19353.0	7.344958098199892e+17
19354.0	7.342526704910335e+17
19355.0	7.340012137174356e+17
19356.0	7.33789417443601e+17
19357.0	7.33563435614208e+17
19358.0	7.333270454796287e+17
19359.0	7.330544105466538e+17
19360.0	7.328385715230036e+17
19361.0	7.326009566516564e+17
19362.0	7.323669788011177e+17
19363.0	7.32121586152243e+17
19364.0	7.318672147567956e+17
19365.0	7.316162280248659e+17
19366.0	7.313430785906004e+17
19367.0	7.310711313836714e+17
19368.0	7.308087045477718e+17
19369.0	7.305227837374463e+17
19370.0	7.301654491693055e+17
19371.0	7.299876937269247e+17
19372.0	7.297132813877247e+17
19373.0	7.294240623165439e+17
19374.0	7.291348133259945e+17
19375.0	7.288087698036051e+17
19376.0	7.284898263990271e+17
19377.0	7.281797031963305e+17
19378.0	7.278644931417427e+17
19379.0	7.275422749644116e+17
19380.0	7.272132810287786e+17
19381.0	7.268441480232957e+17
19382.0	7.264615138328573e+17
19383.0	7.261067415650304e+17
19384.0	7.257585476435965e+17
19385.0	7.253884200288255e+17
19386.0	7.249352828037802e+17
19387.0	7.245433027253587e+17
19388.0	7.241444741873661e+17
19389.0	7.236993950591658e+17
19390.0	7.232160856888659e+17
19391.0	7.216924858864963e+17
19392.0	7.222693879349245e+17
19393.0	7.217424376703657e+17
19394.0	7.21265082114594e+17
19395.0	7.206401250863785e+17
19396.0	7.201366980165632e+17
19397.0	7.194725812884822e+17
19398.0	7.188995003908093e+17
19399.0	7.18112706282564e+17
19400.0	7.175499307898195e+17
19401.0	7.169095443152896e+17
19402.0	7.162687602207402e+17
19403.0	7.156336410929833e+17
19404.0	7.149796155807059e+17
19405.0	7.142972139241471e+17
19406.0	7.135914808923475e+17
19407.0	7.128084296411817e+17
19408.0	7.119693080952833e+17
19409.0	7.112376380467881e+17
19410.0	7.103911922674345e+17
19411.0	7.094893569288874e+17
19412.0	7.085914716460372e+17
19413.0	7.075734563236521e+17
19414.0	7.06574854337331e+17
19415.0	7.054449963608748e+17
19416.0	7.043068075180033e+17
19417.0	7.030754396951891e+17
19418.0	7.017594295593642e+17
19419.0	7.00344076005103e+17
19420.0	6.988175148843008e+17
19421.0	6.971372126688598e+17
19422.0	6.952416626169175e+17
19423.0	6.933407128180052e+17
19424.0	6.916548523109034e+17
19425.0	6.899413877609812e+17
19426.0	6.881280490733565e+17
19427.0	6.862274765520895e+17
19428.0	6.842070195677865e+17
19429.0	6.82043702911522e+17
19430.0	6.796921796558849e+17
19431.0	6.770214022676483e+17
19432.0	6.744652482871295e+17
19433.0	6.71462251893009e+17
19434.0	6.68159697957683e+17
19435.0	6.643938122618195e+17
19436.0	6.602588746503508e+17
19437.0	6.565959452065791e+17
19438.0	6.517869830122152e+17
19439.0	6.482840336203777e+17
19440.0	6.43500771324723e+17
19441.0	6.381340387704826e+17
19442.0	6.319351779033093e+17
19443.0	6.254678757081087e+17
19444.0	6.186960657842172e+17
19445.0	6.110495485110958e+17
19446.0	6.023975890408788e+17
19447.0	5.929675396218874e+17
19448.0	5.822627471949827e+17
19449.0	5.69141186597137e+17
19450.0	5.4367639309734675e+17
19451.0	5.328604112093188e+17
19452.0	5.582895239047855e+17
19453.0	5.760629593167194e+17
19454.0	5.873242640220155e+17
19455.0	5.97095856734208e+17
19456.0	6.05902225591501e+17
19457.0	6.138017211919014e+17
19458.0	6.204535087300612e+17
19459.0	6.26983225034889e+17
19460.0	6.332415398117371e+17
19461.0	6.387186186321919e+17
19462.0	6.435202907766784e+17
19463.0	6.478117129770322e+17
19464.0	6.516794020506282e+17
19465.0	6.552668285698048e+17
19466.0	6.588365793831596e+17
19467.0	6.626163311684266e+17
19468.0	6.658518069979818e+17
19469.0	6.686399217882449e+17
19470.0	6.713236716694185e+17
19471.0	6.736670944657409e+17
19472.0	6.758106644785833e+17
19473.0	6.778051578822655e+17
19474.0	6.79617978573346e+17
19475.0	6.812476987408381e+17
19476.0	6.828713110929405e+17
19477.0	6.843817816752127e+17
19478.0	6.857606775002451e+17
19479.0	6.873179760186706e+17
19480.0	6.8894922389149e+17
19481.0	6.90445078652518e+17
19482.0	6.917805180627626e+17
19483.0	6.92978660077295e+17
19484.0	6.940634963946149e+17
19485.0	6.950361734578175e+17
19486.0	6.959526873224532e+17
19487.0	6.968055510160723e+17
19488.0	6.975738840350719e+17
19489.0	6.983134827162282e+17
19490.0	6.988602535837692e+17
19491.0	6.995874815847081e+17
19492.0	7.002248189400403e+17
19493.0	7.007549760995325e+17
19494.0	7.012542380856659e+17
19495.0	7.017501676972713e+17
19496.0	7.021846706782205e+17
19497.0	7.026331410410153e+17
19498.0	7.02970434875119e+17
19499.0	7.016675401181848e+17
19500.0	7.037422442730836e+17
19501.0	7.040902597967871e+17
19502.0	7.044908091179007e+17
19503.0	7.048403249441449e+17
19504.0	7.052237722703187e+17
19505.0	7.055524373725185e+17
19506.0	7.058624674616662e+17
19507.0	7.061301505993385e+17
19508.0	7.064126313813331e+17
19509.0	7.065996117759316e+17
19510.0	7.068651040888148e+17
19511.0	7.057816971902967e+17
19512.0	7.069879117720224e+17
19513.0	7.069168957740362e+17
19514.0	7.072280605622266e+17
19515.0	7.076139846249132e+17
19516.0	7.078036660114772e+17
19517.0	7.07950387798562e+17
19518.0	7.080441639075839e+17
19519.0	7.081217508420266e+17
19520.0	7.081892819326292e+17
19521.0	7.082857598724777e+17
19522.0	7.083612889415679e+17
19523.0	7.084143115152041e+17
19524.0	7.084551497755305e+17
19525.0	7.084829475252905e+17
19526.0	7.085162150668969e+17
19527.0	7.085448683148628e+17
19528.0	7.085977822560253e+17
19529.0	7.086087976168106e+17
19530.0	7.086161555445076e+17
19531.0	7.086176733233151e+17
19532.0	7.086139391344639e+17
19533.0	7.086058007866025e+17
19534.0	7.085929102923092e+17
19535.0	7.085734627027625e+17
19536.0	7.085510743468713e+17
19537.0	7.085506272340649e+17
19538.0	7.085284439796394e+17
19539.0	7.084389699682305e+17
19540.0	7.084631347516755e+17
19541.0	7.0842814838429e+17
19542.0	7.08392899453474e+17
19543.0	7.083591348868436e+17
19544.0	7.083275726094336e+17
19545.0	7.08237504824388e+17
19546.0	7.081222150116692e+17
19547.0	7.081696956514301e+17
19548.0	7.081139747422207e+17
19549.0	7.080637550821373e+17
19550.0	7.080331015705939e+17
19551.0	7.079694738391039e+17
19552.0	7.079033408498345e+17
19553.0	7.078342763216893e+17
19554.0	7.077805865740969e+17
19555.0	7.07711937421858e+17
19556.0	7.076438725361663e+17
19557.0	7.075971064659968e+17
19558.0	7.075200797507581e+17
19559.0	7.07438555762961e+17
19560.0	7.073584185518761e+17
19561.0	7.072770196941481e+17
19562.0	7.071965676306432e+17
19563.0	7.071124595321514e+17
19564.0	7.070275402552659e+17
19565.0	7.06939588916019e+17
19566.0	7.068487362368851e+17
19567.0	7.067869484067496e+17
19568.0	7.066943745250644e+17
19569.0	7.066041224702633e+17
19570.0	7.065141602418687e+17
19571.0	7.064201506499242e+17
19572.0	7.063207639602516e+17
19573.0	7.062278042025983e+17
19574.0	7.061204382689961e+17
19575.0	7.060347392709972e+17
19576.0	7.059365110480896e+17
19577.0	7.058300200463017e+17
19578.0	7.057324029334867e+17
19579.0	7.056327117373437e+17
19580.0	7.05531596435183e+17
19581.0	7.054304050763092e+17
19582.0	7.053427462198611e+17
19583.0	7.052453693008553e+17
19584.0	7.051401371495081e+17
19585.0	7.050216556112553e+17
19586.0	7.049092600081066e+17
19587.0	7.048104360542207e+17
19588.0	7.046592759944532e+17
19589.0	7.045991075850922e+17
19590.0	7.044904918887081e+17
19591.0	7.043907010079402e+17
19592.0	7.04282430083345e+17
19593.0	7.041698997032275e+17
19594.0	7.040304364388351e+17
19595.0	7.039486725368492e+17
19596.0	7.035395103522817e+17
19597.0	7.037256759334228e+17
19598.0	7.035879627423743e+17
19599.0	7.035104280969215e+17
19600.0	7.034040018272255e+17
19601.0	7.032826896930132e+17
19602.0	7.031721541238783e+17
19603.0	7.029976432552616e+17
19604.0	7.029417015159465e+17
19605.0	7.027968765329407e+17
19606.0	7.027169120572755e+17
19607.0	7.026036498410153e+17
19608.0	7.02485755994658e+17
19609.0	7.023690149527551e+17
19610.0	7.022704725065728e+17
19611.0	7.021526455593641e+17
19612.0	7.020370229286228e+17
19613.0	7.019181553745919e+17
19614.0	7.017971438321661e+17
19615.0	7.016846584709119e+17
19616.0	7.015567413564756e+17
19617.0	7.014483025199103e+17
19618.0	7.012731453090472e+17
19619.0	7.011344924540925e+17
19620.0	7.010197899138387e+17
19621.0	7.009726867614377e+17
19622.0	7.008542193440084e+17
19623.0	7.007347213161812e+17
19624.0	7.006137148069204e+17
19625.0	7.0049485305501e+17
19626.0	7.003737951655252e+17
19627.0	7.002544934311252e+17
19628.0	7.001021470124714e+17
19629.0	7.000024146422441e+17
19630.0	6.99860376424721e+17
19631.0	6.983378455407268e+17
19632.0	6.996486086721535e+17
19633.0	6.995233664750932e+17
19634.0	6.994078153572351e+17
19635.0	6.992809984786431e+17
19636.0	6.991632217931775e+17
19637.0	6.989914220527616e+17
19638.0	6.989198961672191e+17
19639.0	6.987963273576447e+17
19640.0	6.986683199258623e+17
19641.0	6.984932261888001e+17
19642.0	6.984302172569599e+17
19643.0	6.983053217191252e+17
19644.0	6.981790693239466e+17
19645.0	6.980335510224895e+17
19646.0	6.979407370868051e+17
19647.0	6.978177190592511e+17
19648.0	6.976939995343529e+17
19649.0	6.975704400221524e+17
19650.0	6.974480584103252e+17
19651.0	6.973237480478036e+17
19652.0	6.972000024483155e+17
19653.0	6.970768030171136e+17
19654.0	6.969525856283305e+17
19655.0	6.968281975313748e+17
19656.0	6.967054527627264e+17
19657.0	6.965813754636969e+17
19658.0	6.964579656182441e+17
19659.0	6.963341918470143e+17
19660.0	6.962102551270739e+17
19661.0	6.960860631837353e+17
19662.0	6.959617967915007e+17
19663.0	6.958317397431636e+17
19664.0	6.957064210000553e+17
19665.0	6.955886561984511e+17
