# Flux units: erg / (cm m2 s)
# Wavelength units: Angstrom
wave	flux
19000.0	8.63765500613973e+17
19001.0	8.636169850628777e+17
19002.0	8.634753116798976e+17
19003.0	8.633296344143187e+17
19004.0	8.631836680213842e+17
19005.0	8.630375158207828e+17
19006.0	8.628909529978195e+17
19007.0	8.627399987385684e+17
19008.0	8.625948878438397e+17
19009.0	8.624462587669161e+17
19010.0	8.622872981405695e+17
19011.0	8.621521475993597e+17
19012.0	8.619942056296447e+17
19013.0	8.618567550719315e+17
19014.0	8.617058164714152e+17
19015.0	8.615577899761661e+17
19016.0	8.614074925449213e+17
19017.0	8.612584661275987e+17
19018.0	8.61109302137105e+17
19019.0	8.609594074988544e+17
19020.0	8.60807635350323e+17
19021.0	8.606580501118973e+17
19022.0	8.605074204917757e+17
19023.0	8.603562036690944e+17
19024.0	8.602037952446461e+17
19025.0	8.600522055483391e+17
19026.0	8.598989978293587e+17
19027.0	8.597393510148777e+17
19028.0	8.595965278333609e+17
19029.0	8.594440469872639e+17
19030.0	8.592912427603284e+17
19031.0	8.591381768088232e+17
19032.0	8.589848440995839e+17
19033.0	8.588279554594131e+17
19034.0	8.586769282192723e+17
19035.0	8.585167002140671e+17
19036.0	8.57768042395511e+17
19037.0	8.582111483833001e+17
19038.0	8.580593021353981e+17
19039.0	8.579060969330004e+17
19040.0	8.577513883522387e+17
19041.0	8.575963828147539e+17
19042.0	8.574382172886356e+17
19043.0	8.572857685988692e+17
19044.0	8.571300930912253e+17
19045.0	8.569743420861097e+17
19046.0	8.568166932982441e+17
19047.0	8.566613274700456e+17
19048.0	8.564992591440554e+17
19049.0	8.563464563152212e+17
19050.0	8.561898942715219e+17
19051.0	8.559388907623762e+17
19052.0	8.55856139800849e+17
19053.0	8.557195027983016e+17
19054.0	8.555635917105833e+17
19055.0	8.553968608564566e+17
19056.0	8.552484359023273e+17
19057.0	8.550905263685631e+17
19058.0	8.54932445986816e+17
19059.0	8.547740921364479e+17
19060.0	8.54615028609843e+17
19061.0	8.544571873034239e+17
19062.0	8.542983058096125e+17
19063.0	8.541394243158013e+17
19064.0	8.539766298159786e+17
19065.0	8.538144720115028e+17
19066.0	8.536594583650303e+17
19067.0	8.535023682584573e+17
19068.0	8.533427271761919e+17
19069.0	8.531829350989821e+17
19070.0	8.530226610962431e+17
19071.0	8.528628585332735e+17
19072.0	8.527025954357247e+17
19073.0	8.525420144099328e+17
19074.0	8.523816266017449e+17
19075.0	8.522209233818962e+17
19076.0	8.520594250618196e+17
19077.0	8.518986369772201e+17
19078.0	8.517370553303039e+17
19079.0	8.51576634806545e+17
19080.0	8.514149638209536e+17
19081.0	8.512519791793491e+17
19082.0	8.510904288499028e+17
19083.0	8.509256891716948e+17
19084.0	8.507582387148118e+17
19085.0	8.506052502181204e+17
19086.0	8.504268562628607e+17
19087.0	8.50268223770897e+17
19088.0	8.501108367076009e+17
19089.0	8.499415666218324e+17
19090.0	8.497901424607231e+17
19091.0	8.496281352317608e+17
19092.0	8.494621374021631e+17
19093.0	8.493034817017174e+17
19094.0	8.491393507568297e+17
19095.0	8.489758039386792e+17
19096.0	8.488133270874794e+17
19097.0	8.486987772897961e+17
19098.0	8.485572602145449e+17
19099.0	8.483930351774377e+17
19100.0	8.48227633218628e+17
19101.0	8.480640852819969e+17
19102.0	8.478967939290451e+17
19103.0	8.477347310556498e+17
19104.0	8.475697379016703e+17
19105.0	8.474043144121001e+17
19106.0	8.472369997108564e+17
19107.0	8.470727548207103e+17
19108.0	8.46906175800388e+17
19109.0	8.466892686273192e+17
19110.0	8.465685315321855e+17
19111.0	8.464107566355795e+17
19112.0	8.462455824274772e+17
19113.0	8.460797181165567e+17
19114.0	8.459135367162536e+17
19115.0	8.457452283843923e+17
19116.0	8.455806206869501e+17
19117.0	8.45412853420305e+17
19118.0	8.452422520624467e+17
19119.0	8.450075030192127e+17
19120.0	8.449077635885737e+17
19121.0	8.447420362915837e+17
19122.0	8.44578932391936e+17
19123.0	8.444115238780927e+17
19124.0	8.442399314061994e+17
19125.0	8.440759090937855e+17
19126.0	8.43907692896802e+17
19127.0	8.436853856971434e+17
19128.0	8.43549879898385e+17
19129.0	8.434009359690409e+17
19130.0	8.432357358960639e+17
19131.0	8.430674360926207e+17
19132.0	8.42898510918451e+17
19133.0	8.427213292568576e+17
19134.0	8.425500888268799e+17
19135.0	8.423919233007612e+17
19136.0	8.422227077409452e+17
19137.0	8.420482516779004e+17
19138.0	8.418830075647315e+17
19139.0	8.417141139876522e+17
19140.0	8.415444454430036e+17
19141.0	8.413744807804928e+17
19142.0	8.412034557979305e+17
19143.0	8.410324187916969e+17
19144.0	8.408632281180841e+17
19145.0	8.406927994257408e+17
19146.0	8.405007444825428e+17
19147.0	8.403484863539881e+17
19148.0	8.40179789070336e+17
19149.0	8.400085756237139e+17
19150.0	8.398371868551846e+17
19151.0	8.396657702644392e+17
19152.0	8.394937892601853e+17
19153.0	8.393211363284306e+17
19154.0	8.391455431895721e+17
19155.0	8.389768780622506e+17
19156.0	8.38803435622673e+17
19157.0	8.386257611303594e+17
19158.0	8.384304621726378e+17
19159.0	8.382813026560681e+17
19160.0	8.381104148272468e+17
19161.0	8.37933090279697e+17
19162.0	8.376820365787135e+17
19163.0	8.375792438345727e+17
19164.0	8.37416853386035e+17
19165.0	8.372428174524415e+17
19166.0	8.370652081116498e+17
19167.0	8.368873974442666e+17
19168.0	8.367185927864319e+17
19169.0	8.365444276682752e+17
19170.0	8.363705333623464e+17
19171.0	8.360699522012502e+17
19172.0	8.358587285897215e+17
19173.0	8.356834079408127e+17
19174.0	8.355059154812925e+17
19175.0	8.353314064302076e+17
19176.0	8.351548571298473e+17
19177.0	8.349724760692051e+17
19178.0	8.347985321306792e+17
19179.0	8.346197208421718e+17
19180.0	8.344453093785597e+17
19181.0	8.342658107834367e+17
19182.0	8.340904525256019e+17
19183.0	8.339131762125481e+17
19184.0	8.33734016237568e+17
19185.0	8.33556146290688e+17
19186.0	8.333775251439615e+17
19187.0	8.331958203449345e+17
19188.0	8.330189535357609e+17
19189.0	8.328384242603347e+17
19190.0	8.326578010324991e+17
19191.0	8.324784021220009e+17
19192.0	8.322985066059091e+17
19193.0	8.321167330202964e+17
19194.0	8.319356828123133e+17
19195.0	8.317535315995306e+17
19196.0	8.315686792549718e+17
19197.0	8.313792966426621e+17
19198.0	8.311675202218664e+17
19199.0	8.305188732054182e+17
19200.0	8.304368798750039e+17
19201.0	8.306251494588416e+17
19202.0	8.304689941228202e+17
19203.0	8.302919739419306e+17
19204.0	8.301122111056554e+17
19205.0	8.299307505549311e+17
19206.0	8.297471963474604e+17
19207.0	8.295613587608914e+17
19208.0	8.293733124538365e+17
19209.0	8.291945045207722e+17
19210.0	8.289537664308561e+17
19211.0	8.286057091039231e+17
19212.0	8.284188592919892e+17
19213.0	8.282262901271208e+17
19214.0	8.28036764209425e+17
19215.0	8.278548905197569e+17
19216.0	8.276690003645782e+17
19217.0	8.274805621697194e+17
19218.0	8.272662234486098e+17
19219.0	8.270960641703936e+17
19220.0	8.269121197528403e+17
19221.0	8.267131050612051e+17
19222.0	8.26531650662127e+17
19223.0	8.263413281062911e+17
19224.0	8.261486146573651e+17
19225.0	8.259535540759208e+17
19226.0	8.257657408323583e+17
19227.0	8.255720945702228e+17
19228.0	8.253798118763177e+17
19229.0	8.251860646712659e+17
19230.0	8.249908153461417e+17
19231.0	8.24797284007936e+17
19232.0	8.246017547829247e+17
19233.0	8.24404116661862e+17
19234.0	8.239670898982912e+17
19235.0	8.237284517565782e+17
19236.0	8.235313679826944e+17
19237.0	8.233324181629609e+17
19238.0	8.231301279995219e+17
19239.0	8.229343578816511e+17
19240.0	8.227323931962026e+17
19241.0	8.225328291905536e+17
19242.0	8.223323836820137e+17
19243.0	8.221242365924691e+17
19244.0	8.219276954217128e+17
19245.0	8.217192118091776e+17
19246.0	8.21511986487842e+17
19247.0	8.2130734443834e+17
19248.0	8.211017934831615e+17
19249.0	8.208685211145553e+17
19250.0	8.203277377557843e+17
19251.0	8.201147226172073e+17
19252.0	8.198984728313855e+17
19253.0	8.196986738049024e+17
19254.0	8.194877514842111e+17
19255.0	8.192694354444285e+17
19256.0	8.190623009996797e+17
19257.0	8.188511187719508e+17
19258.0	8.186374925232812e+17
19259.0	8.184203476729855e+17
19260.0	8.181988109669715e+17
19261.0	8.179455133133484e+17
19262.0	8.17328670585651e+17
19263.0	8.171081814769661e+17
19264.0	8.16875037733683e+17
19265.0	8.166636706769577e+17
19266.0	8.16443866218496e+17
19267.0	8.162254861456724e+17
19268.0	8.160022812251475e+17
19269.0	8.157782352068608e+17
19270.0	8.155530756008617e+17
19271.0	8.153168796625578e+17
19272.0	8.145647644792151e+17
19273.0	8.142742341287935e+17
19274.0	8.140621171305128e+17
19275.0	8.138704655395498e+17
19276.0	8.136385138174633e+17
19277.0	8.134057015640061e+17
19278.0	8.131720398241791e+17
19279.0	8.129373035036671e+17
19280.0	8.126726788524717e+17
19281.0	8.121466049178281e+17
19282.0	8.119073676896937e+17
19283.0	8.116638352146431e+17
19284.0	8.114186430534995e+17
19285.0	8.11181984203844e+17
19286.0	8.109394329163092e+17
19287.0	8.106918821582164e+17
19288.0	8.102852892644691e+17
19289.0	8.098311424704503e+17
19290.0	8.099386872212136e+17
19291.0	8.096770220709204e+17
19292.0	8.09431330647791e+17
19293.0	8.091748181999615e+17
19294.0	8.089171997141673e+17
19295.0	8.086579729924097e+17
19296.0	8.083972607879849e+17
19297.0	8.081350252123476e+17
19298.0	8.078713775543636e+17
19299.0	8.076061644423167e+17
19300.0	8.073393054853802e+17
19301.0	8.070708118683647e+17
19302.0	8.068005201532244e+17
19303.0	8.065269489117864e+17
19304.0	8.062549909394772e+17
19305.0	8.059811609094825e+17
19306.0	8.057043969638399e+17
19307.0	8.054236906520575e+17
19308.0	8.051435010785279e+17
19309.0	8.048481881030655e+17
19310.0	8.045560758009853e+17
19311.0	8.042898729730047e+17
19312.0	8.040070669926397e+17
19313.0	8.037180316319743e+17
19314.0	8.031984434894164e+17
19315.0	8.029216057240236e+17
19316.0	8.028397632487421e+17
19317.0	8.025459948956328e+17
19318.0	8.022484457968979e+17
19319.0	8.019410530861053e+17
19320.0	8.016228562676392e+17
19321.0	8.013172805293396e+17
19322.0	8.010050726177449e+17
19323.0	8.006931343998973e+17
19324.0	8.00385236555093e+17
19325.0	8.000634547251878e+17
19326.0	7.997539761870164e+17
19327.0	7.99435774754816e+17
19328.0	7.991146556249427e+17
19329.0	7.987904251603625e+17
19330.0	7.984623724265471e+17
19331.0	7.981323262798505e+17
19332.0	7.978013284455764e+17
19333.0	7.974662495535101e+17
19334.0	7.971281271346518e+17
19335.0	7.967873526573738e+17
19336.0	7.964433976393727e+17
19337.0	7.96096356871919e+17
19338.0	7.957399829392041e+17
19339.0	7.953933599244288e+17
19340.0	7.950357077076649e+17
19341.0	7.9467506593082e+17
19342.0	7.942645257775788e+17
19343.0	7.938889535367849e+17
19344.0	7.935162227971411e+17
19345.0	7.930893310099453e+17
19346.0	7.927386193876308e+17
19347.0	7.923791550917288e+17
19348.0	7.919947141349377e+17
19349.0	7.916035919314944e+17
19350.0	7.912097055419049e+17
19351.0	7.908121151624532e+17
19352.0	7.904091960595796e+17
19353.0	7.900061760137897e+17
19354.0	7.895541446868991e+17
19355.0	7.890885200401747e+17
19356.0	7.886724861875539e+17
19357.0	7.88249628202325e+17
19358.0	7.87821528875008e+17
19359.0	7.87387120755234e+17
19360.0	7.86951474057489e+17
19361.0	7.865094728493738e+17
19362.0	7.860629848544595e+17
19363.0	7.855720120713212e+17
19364.0	7.850007556958889e+17
19365.0	7.845267671875581e+17
19366.0	7.840458794685779e+17
19367.0	7.835598590399828e+17
19368.0	7.830681438650365e+17
19369.0	7.825657395063466e+17
19370.0	7.818693319502508e+17
19371.0	7.813370950451197e+17
19372.0	7.808093930214739e+17
19373.0	7.8027291623424e+17
19374.0	7.797269531896489e+17
19375.0	7.789452736157012e+17
19376.0	7.783389167878143e+17
19377.0	7.777597168200361e+17
19378.0	7.771692832478548e+17
19379.0	7.763680860394831e+17
19380.0	7.756160800478548e+17
19381.0	7.749858384762196e+17
19382.0	7.743394601588054e+17
19383.0	7.732876759356756e+17
19384.0	7.72598962410837e+17
19385.0	7.718991241936896e+17
19386.0	7.708199251607546e+17
19387.0	7.699713633550333e+17
19388.0	7.692269131224404e+17
19389.0	7.679959678058486e+17
19390.0	7.671340906228393e+17
19391.0	7.658671904740692e+17
19392.0	7.648947494802772e+17
19393.0	7.640700062881108e+17
19394.0	7.6266436848954e+17
19395.0	7.616780307879251e+17
19396.0	7.60583855852749e+17
19397.0	7.595429645167276e+17
19398.0	7.586339170724521e+17
19399.0	7.576841228036777e+17
19400.0	7.56738918641391e+17
19401.0	7.557606398754815e+17
19402.0	7.547091222702761e+17
19403.0	7.536808012633427e+17
19404.0	7.526271586839209e+17
19405.0	7.515446173499391e+17
19406.0	7.504310218085718e+17
19407.0	7.492494579903145e+17
19408.0	7.479835727233021e+17
19409.0	7.467554312989353e+17
19410.0	7.454789498219177e+17
19411.0	7.441363996682921e+17
19412.0	7.426997805034153e+17
19413.0	7.413176008878762e+17
19414.0	7.399010678254249e+17
19415.0	7.382988733371732e+17
19416.0	7.367843110016339e+17
19417.0	7.351435038905682e+17
19418.0	7.332996779256489e+17
19419.0	7.315444179053226e+17
19420.0	7.29562146214161e+17
19421.0	7.275617628192768e+17
19422.0	7.254589500467884e+17
19423.0	7.23205570568738e+17
19424.0	7.209965268413101e+17
19425.0	7.185050878956883e+17
19426.0	7.161551458926591e+17
19427.0	7.134772607669591e+17
19428.0	7.108730265010173e+17
19429.0	7.07849622720785e+17
19430.0	7.049440862928896e+17
19431.0	7.017378403581948e+17
19432.0	6.985346344550397e+17
19433.0	6.952328631768406e+17
19434.0	6.915134368077143e+17
19435.0	6.876821938591058e+17
19436.0	6.836966866463402e+17
19437.0	6.794815980524884e+17
19438.0	6.746767926231037e+17
19439.0	6.700442092306433e+17
19440.0	6.648629899733674e+17
19441.0	6.592893038187858e+17
19442.0	6.533433842292055e+17
19443.0	6.469429286841002e+17
19444.0	6.400791537516539e+17
19445.0	6.326978235858947e+17
19446.0	6.247586099538602e+17
19447.0	6.162035009475921e+17
19448.0	6.06934768864461e+17
19449.0	5.967451144934739e+17
19450.0	5.848753238616737e+17
19451.0	5.785307295252484e+17
19452.0	5.9104750979427e+17
19453.0	6.016965503440216e+17
19454.0	6.111522600255483e+17
19455.0	6.198148380753919e+17
19456.0	6.278143872598017e+17
19457.0	6.352220257779708e+17
19458.0	6.419956423983104e+17
19459.0	6.484691980910593e+17
19460.0	6.543927885343398e+17
19461.0	6.598777805384361e+17
19462.0	6.6501888952675e+17
19463.0	6.697533131369128e+17
19464.0	6.742023923739305e+17
19465.0	6.78355721379294e+17
19466.0	6.821715956290898e+17
19467.0	6.857941281931263e+17
19468.0	6.893268502227628e+17
19469.0	6.925338642743292e+17
19470.0	6.955015045032617e+17
19471.0	6.985131696149846e+17
19472.0	7.012184177508351e+17
19473.0	7.039250002345981e+17
19474.0	7.064405967634432e+17
19475.0	7.087919035929938e+17
19476.0	7.110357689914708e+17
19477.0	7.131544893609299e+17
19478.0	7.152472163702099e+17
19479.0	7.171440158354089e+17
19480.0	7.191051961892863e+17
19481.0	7.207980413310291e+17
19482.0	7.225791319725395e+17
19483.0	7.241138097706326e+17
19484.0	7.256225160189268e+17
19485.0	7.270962101747711e+17
19486.0	7.283651488950956e+17
19487.0	7.29641843163136e+17
19488.0	7.308506723341651e+17
19489.0	7.319578248653481e+17
19490.0	7.33046813963059e+17
19491.0	7.341913634679464e+17
19492.0	7.351961499555156e+17
19493.0	7.361642792047956e+17
19494.0	7.371060334122323e+17
19495.0	7.380583593629012e+17
19496.0	7.388893756959402e+17
19497.0	7.3970007160477e+17
19498.0	7.404320848871423e+17
19499.0	7.406791875537573e+17
19500.0	7.419707177740969e+17
19501.0	7.426912195095212e+17
19502.0	7.433655630692348e+17
19503.0	7.44018307641071e+17
19504.0	7.446482263911081e+17
19505.0	7.452534141266598e+17
19506.0	7.462015070459219e+17
19507.0	7.467605824634879e+17
19508.0	7.47858481241566e+17
19509.0	7.485262830851411e+17
19510.0	7.492971637243895e+17
19511.0	7.496839808942076e+17
19512.0	7.505499078175398e+17
19513.0	7.51351717673915e+17
19514.0	7.519766122070011e+17
19515.0	7.52525915735108e+17
19516.0	7.533604088665425e+17
19517.0	7.538343181025276e+17
19518.0	7.542250467404458e+17
19519.0	7.548429980226902e+17
19520.0	7.553313595719679e+17
19521.0	7.556687630871208e+17
19522.0	7.559920968095059e+17
19523.0	7.56614507196143e+17
19524.0	7.569151511319892e+17
19525.0	7.571989410960723e+17
19526.0	7.574722683688274e+17
19527.0	7.579152267171156e+17
19528.0	7.582340831597908e+17
19529.0	7.584744089496233e+17
19530.0	7.587053947234985e+17
19531.0	7.589295924357802e+17
19532.0	7.592614712137046e+17
19533.0	7.595353963145897e+17
19534.0	7.597301010792445e+17
19535.0	7.599171854925821e+17
19536.0	7.600984586977279e+17
19537.0	7.602753819901952e+17
19538.0	7.604722514351444e+17
19539.0	7.607215403128147e+17
19540.0	7.608833901155667e+17
19541.0	7.61027694305826e+17
19542.0	7.6116569124154e+17
19543.0	7.612985358942207e+17
19544.0	7.614263416498858e+17
19545.0	7.61536690991923e+17
19546.0	7.616449339544915e+17
19547.0	7.617820615507968e+17
19548.0	7.619709285433341e+17
19549.0	7.620782356168703e+17
19550.0	7.621823041284777e+17
19551.0	7.622792340744874e+17
19552.0	7.623721983060649e+17
19553.0	7.624608042363561e+17
19554.0	7.625460541642067e+17
19555.0	7.626282309255165e+17
19556.0	7.627049236343466e+17
19557.0	7.627782578241536e+17
19558.0	7.628491320546644e+17
19559.0	7.629166397969748e+17
19560.0	7.630041265471487e+17
19561.0	7.630880372337321e+17
19562.0	7.631429064196093e+17
19563.0	7.631941830443007e+17
19564.0	7.632422384435197e+17
19565.0	7.632870720580266e+17
19566.0	7.633282274077354e+17
19567.0	7.633673875270313e+17
19568.0	7.634020779163647e+17
19569.0	7.634356824003922e+17
19570.0	7.634658022566569e+17
19571.0	7.634928239203666e+17
19572.0	7.635162883948543e+17
19573.0	7.635384920615593e+17
19574.0	7.635550696286889e+17
19575.0	7.635748337483773e+17
19576.0	7.635889305245011e+17
19577.0	7.63600325329988e+17
19578.0	7.636086650044415e+17
19579.0	7.63615791686178e+17
19580.0	7.636204371574783e+17
19581.0	7.636230577586173e+17
19582.0	7.636231290617855e+17
19583.0	7.636199763432787e+17
19584.0	7.636306195294888e+17
19585.0	7.636242485215232e+17
19586.0	7.636135868803753e+17
19587.0	7.636051482203475e+17
19588.0	7.635809062617088e+17
19589.0	7.635781904498687e+17
19590.0	7.635603805962239e+17
19591.0	7.635445361934336e+17
19592.0	7.635246058394966e+17
19593.0	7.635021425453736e+17
19594.0	7.634716857466876e+17
19595.0	7.634535129459368e+17
19596.0	7.63373629630054e+17
19597.0	7.633966065866068e+17
19598.0	7.633602690940925e+17
19599.0	7.633352952294058e+17
19600.0	7.633014319568211e+17
19601.0	7.632637522870273e+17
19602.0	7.632268438099283e+17
19603.0	7.631716695583402e+17
19604.0	7.631465751773183e+17
19605.0	7.630987862562131e+17
19606.0	7.630653653428906e+17
19607.0	7.630209722701139e+17
19608.0	7.629748716961791e+17
19609.0	7.629268773939881e+17
19610.0	7.628788124876799e+17
19611.0	7.628285802446845e+17
19612.0	7.627772633546751e+17
19613.0	7.62724476920354e+17
19614.0	7.626688921862143e+17
19615.0	7.626148098517674e+17
19616.0	7.625533294641151e+17
19617.0	7.624967945803092e+17
19618.0	7.624172652636841e+17
19619.0	7.623491661245097e+17
19620.0	7.623291633489233e+17
19621.0	7.625182415945727e+17
19622.0	7.624503042157225e+17
19623.0	7.623813185404925e+17
19624.0	7.62311409279522e+17
19625.0	7.622405590963538e+17
19626.0	7.6216892653568e+17
19627.0	7.620956707793577e+17
19628.0	7.62010363109922e+17
19629.0	7.620136336883704e+17
19630.0	7.622597695679145e+17
19631.0	7.617250022391807e+17
19632.0	7.62173381865199e+17
19633.0	7.621035313244841e+17
19634.0	7.620252575028564e+17
19635.0	7.619433577054207e+17
19636.0	7.618633944181417e+17
19637.0	7.617661229159764e+17
19638.0	7.616974190979753e+17
19639.0	7.616130675900415e+17
19640.0	7.619030753301846e+17
19641.0	7.618072219222016e+17
19642.0	7.617353125374632e+17
19643.0	7.616461574329683e+17
19644.0	7.615542763104938e+17
19645.0	7.614580456947711e+17
19646.0	7.61375124304691e+17
19647.0	7.612834787622911e+17
19648.0	7.611911499677696e+17
19649.0	7.610980991937194e+17
19650.0	7.61004573065216e+17
19651.0	7.609103536182612e+17
19652.0	7.611070450849108e+17
19653.0	7.610238010130433e+17
19654.0	7.609263156013736e+17
19655.0	7.608280553619455e+17
19656.0	7.607293199078739e+17
19657.0	7.606303197932202e+17
19658.0	7.60530477462323e+17
19659.0	7.604295063044096e+17
19660.0	7.603279538159615e+17
19661.0	7.602258102102698e+17
19662.0	7.601230645821439e+17
19663.0	7.600180615796051e+17
19664.0	7.599142396930732e+17
19665.0	7.598118702940157e+17
19666.0	7.597067251045715e+17
