# Flux units: erg / (cm m2 s)
# Wavelength units: Angstrom
wave	flux
19000.0	7.863044074547881e+17
19001.0	7.861555465726633e+17
19002.0	7.860090921025533e+17
19003.0	7.858613730497876e+17
19004.0	7.857136127530323e+17
19005.0	7.85565906842419e+17
19006.0	7.854181317257897e+17
19007.0	7.852620750957225e+17
19008.0	7.851216833522344e+17
19009.0	7.849743361944233e+17
19010.0	7.848210945015808e+17
19011.0	7.846785183645693e+17
19012.0	7.845220519510015e+17
19013.0	7.8438316652189e+17
19014.0	7.842345475112957e+17
19015.0	7.840872975215273e+17
19016.0	7.839386537645396e+17
19017.0	7.837890616754175e+17
19018.0	7.836427285605032e+17
19019.0	7.834953802842111e+17
19020.0	7.833467965057705e+17
19021.0	7.831989064652118e+17
19022.0	7.83051351269922e+17
19023.0	7.829033043623933e+17
19024.0	7.827551416920745e+17
19025.0	7.82606821315925e+17
19026.0	7.824579263201279e+17
19027.0	7.823037439847081e+17
19028.0	7.821629926495574e+17
19029.0	7.820149226733565e+17
19030.0	7.818668287896234e+17
19031.0	7.817187298727254e+17
19032.0	7.815706313752575e+17
19033.0	7.814214280981162e+17
19034.0	7.812744041813332e+17
19035.0	7.81125694853393e+17
19036.0	7.804356137058298e+17
19037.0	7.808299740517715e+17
19038.0	7.806819548266496e+17
19039.0	7.805338487794345e+17
19040.0	7.80385734763042e+17
19041.0	7.802376157134845e+17
19042.0	7.800884925475497e+17
19043.0	7.79941415363106e+17
19044.0	7.79793384813363e+17
19045.0	7.796453039319721e+17
19046.0	7.794964701730132e+17
19047.0	7.793490465390591e+17
19048.0	7.791984847268521e+17
19049.0	7.790520348704767e+17
19050.0	7.789042029909331e+17
19051.0	7.786760514480808e+17
19052.0	7.786028808361299e+17
19053.0	7.784583516913664e+17
19054.0	7.783123415378602e+17
19055.0	7.781611317056854e+17
19056.0	7.780161797750783e+17
19057.0	7.778679701285545e+17
19058.0	7.777179758056787e+17
19059.0	7.775719667706538e+17
19060.0	7.774236013756415e+17
19061.0	7.77275843735279e+17
19062.0	7.771277477543935e+17
19063.0	7.7697972727098e+17
19064.0	7.768303146980694e+17
19065.0	7.766813815341055e+17
19066.0	7.765348328319654e+17
19067.0	7.763876266027689e+17
19068.0	7.762396277899263e+17
19069.0	7.760916390434132e+17
19070.0	7.759434861598036e+17
19071.0	7.757953528496127e+17
19072.0	7.75647628484062e+17
19073.0	7.754996491048274e+17
19074.0	7.753517624197119e+17
19075.0	7.752038103034538e+17
19076.0	7.750555959033855e+17
19077.0	7.749078406397951e+17
19078.0	7.747593857662973e+17
19079.0	7.746121020822867e+17
19080.0	7.74464158913877e+17
19081.0	7.743157245924691e+17
19082.0	7.741677818434902e+17
19083.0	7.740192425246719e+17
19084.0	7.738694826633897e+17
19085.0	7.737247740024147e+17
19086.0	7.735713441251327e+17
19087.0	7.734129792297641e+17
19088.0	7.732796193767421e+17
19089.0	7.731226829215059e+17
19090.0	7.729853628066473e+17
19091.0	7.728374299841875e+17
19092.0	7.72685503345459e+17
19093.0	7.725422626908841e+17
19094.0	7.723927669309439e+17
19095.0	7.722445252678996e+17
19096.0	7.720981983046313e+17
19097.0	7.719511441888596e+17
19098.0	7.718036224081917e+17
19099.0	7.716559005592233e+17
19100.0	7.715073717261651e+17
19101.0	7.713605942946472e+17
19102.0	7.712119285874687e+17
19103.0	7.710652690158932e+17
19104.0	7.709176125980671e+17
19105.0	7.707699284978345e+17
19106.0	7.706193926903123e+17
19107.0	7.704744634089472e+17
19108.0	7.703269810547368e+17
19109.0	7.70119400895283e+17
19110.0	7.700310987724118e+17
19111.0	7.698843385375402e+17
19112.0	7.697368303184553e+17
19113.0	7.695892939975338e+17
19114.0	7.694417631292074e+17
19115.0	7.692929562137939e+17
19116.0	7.691467111792639e+17
19117.0	7.689989549370025e+17
19118.0	7.688479065855315e+17
19119.0	7.686784238485503e+17
19120.0	7.685524440132266e+17
19121.0	7.68406543470865e+17
19122.0	7.68261839982865e+17
19123.0	7.681141925128874e+17
19124.0	7.679638483850582e+17
19125.0	7.678188567483731e+17
19126.0	7.676708775089492e+17
19127.0	7.675048778618195e+17
19128.0	7.673286822810963e+17
19129.0	7.672207989101908e+17
19130.0	7.670725474604372e+17
19131.0	7.669235991969791e+17
19132.0	7.667778256022185e+17
19133.0	7.666185814409215e+17
19134.0	7.664598942831956e+17
19135.0	7.663357329582761e+17
19136.0	7.661885848900947e+17
19137.0	7.660391871370582e+17
19138.0	7.6588842497693e+17
19139.0	7.657464876324182e+17
19140.0	7.655994567251283e+17
19141.0	7.654522353964372e+17
19142.0	7.653049714256553e+17
19143.0	7.651570297951574e+17
19144.0	7.650104693489663e+17
19145.0	7.648630184520365e+17
19146.0	7.647073313401514e+17
19147.0	7.645678375971498e+17
19148.0	7.644212402410836e+17
19149.0	7.642741546680319e+17
19150.0	7.641268539271849e+17
19151.0	7.6398002714269e+17
19152.0	7.638320351805437e+17
19153.0	7.636856714472105e+17
19154.0	7.635369493965481e+17
19155.0	7.633912795409064e+17
19156.0	7.632439881673385e+17
19157.0	7.630956503149225e+17
19158.0	7.629086921501353e+17
19159.0	7.628018963622569e+17
19160.0	7.626543050959528e+17
19161.0	7.625029031646547e+17
19162.0	7.622688071745536e+17
19163.0	7.622128632681812e+17
19164.0	7.620668476620799e+17
19165.0	7.619183708383913e+17
19166.0	7.617696961833641e+17
19167.0	7.61616755082308e+17
19168.0	7.614765118171816e+17
19169.0	7.61329065673796e+17
19170.0	7.611840594968573e+17
19171.0	7.610324850398547e+17
19172.0	7.608893833565526e+17
19173.0	7.607425676170578e+17
19174.0	7.605950304572755e+17
19175.0	7.604485527786836e+17
19176.0	7.603013971607552e+17
19177.0	7.601523968879274e+17
19178.0	7.600055028547581e+17
19179.0	7.598531724443647e+17
19180.0	7.597030025199615e+17
19181.0	7.595639667949568e+17
19182.0	7.594173082020522e+17
19183.0	7.592701819442518e+17
19184.0	7.59121609350622e+17
19185.0	7.589768458840745e+17
19186.0	7.588297688394409e+17
19187.0	7.586817034769747e+17
19188.0	7.58534812659439e+17
19189.0	7.583858754409812e+17
19190.0	7.582381724663808e+17
19191.0	7.580924926842196e+17
19192.0	7.579454006799017e+17
19193.0	7.577901662732287e+17
19194.0	7.576478345243305e+17
19195.0	7.575035553600854e+17
19196.0	7.573567752721747e+17
19197.0	7.572089522006696e+17
19198.0	7.57059486220288e+17
19199.0	7.563593412597075e+17
19200.0	7.564049565526701e+17
19201.0	7.566177903575039e+17
19202.0	7.564723619539624e+17
19203.0	7.563242979895977e+17
19204.0	7.56177894130756e+17
19205.0	7.560308345623892e+17
19206.0	7.558832727960234e+17
19207.0	7.557353578692607e+17
19208.0	7.555860769974952e+17
19209.0	7.554409125554858e+17
19210.0	7.55293322547473e+17
19211.0	7.551456339733161e+17
19212.0	7.549980779391657e+17
19213.0	7.548449128622762e+17
19214.0	7.546944988293802e+17
19215.0	7.545529012234921e+17
19216.0	7.54406858494225e+17
19217.0	7.542595057440084e+17
19218.0	7.541020287827969e+17
19219.0	7.53961789152734e+17
19220.0	7.53815742648593e+17
19221.0	7.536636713063764e+17
19222.0	7.535200741359615e+17
19223.0	7.53372031702357e+17
19224.0	7.532233405497341e+17
19225.0	7.530740353510058e+17
19226.0	7.529277664089428e+17
19227.0	7.527795890585597e+17
19228.0	7.52631386542353e+17
19229.0	7.524830786093055e+17
19230.0	7.523326894626131e+17
19231.0	7.521849775401641e+17
19232.0	7.520372460442963e+17
19233.0	7.518884974297088e+17
19234.0	7.517405427968681e+17
19235.0	7.515922400367955e+17
19236.0	7.514435579718314e+17
19237.0	7.512946221514752e+17
19238.0	7.511440736212308e+17
19239.0	7.509971619719849e+17
19240.0	7.508447444598783e+17
19241.0	7.506982144922963e+17
19242.0	7.505501200493226e+17
19243.0	7.503987217530876e+17
19244.0	7.502516900069375e+17
19245.0	7.501023979503615e+17
19246.0	7.499528101953535e+17
19247.0	7.498034310370644e+17
19248.0	7.496539630993407e+17
19249.0	7.495042799938216e+17
19250.0	7.493544605734228e+17
19251.0	7.492035657334784e+17
19252.0	7.490504399432361e+17
19253.0	7.489045852585981e+17
19254.0	7.487540181336061e+17
19255.0	7.486016705265663e+17
19256.0	7.48452213494033e+17
19257.0	7.483033709270356e+17
19258.0	7.481528065982463e+17
19259.0	7.48001122530099e+17
19260.0	7.478443985862655e+17
19261.0	7.477003594760192e+17
19262.0	7.475492525441024e+17
19263.0	7.473977516272297e+17
19264.0	7.472410141218131e+17
19265.0	7.470929725270697e+17
19266.0	7.469420248388947e+17
19267.0	7.467917260095488e+17
19268.0	7.46639776302148e+17
19269.0	7.464852470977876e+17
19270.0	7.463221699018751e+17
19271.0	7.461660327411711e+17
19272.0	7.460168571464361e+17
19273.0	7.457749182272851e+17
19274.0	7.456662686968489e+17
19275.0	7.455584338400596e+17
19276.0	7.454051339862016e+17
19277.0	7.452516172868264e+17
19278.0	7.450978890547199e+17
19279.0	7.449423992149332e+17
19280.0	7.447888763639123e+17
19281.0	7.446353841313106e+17
19282.0	7.444806470292819e+17
19283.0	7.443175503997609e+17
19284.0	7.441524821677395e+17
19285.0	7.440130348417023e+17
19286.0	7.438596333458774e+17
19287.0	7.43704177619763e+17
19288.0	7.434254672374441e+17
19289.0	7.430182141602465e+17
19290.0	7.432350554827433e+17
19291.0	7.430748037098152e+17
19292.0	7.429208629663062e+17
19293.0	7.427631950244522e+17
19294.0	7.426053941231615e+17
19295.0	7.424471765876733e+17
19296.0	7.422886232282451e+17
19297.0	7.421296944786089e+17
19298.0	7.419704335400957e+17
19299.0	7.41810789941248e+17
19300.0	7.416507449475071e+17
19301.0	7.414902292130474e+17
19302.0	7.413293791925587e+17
19303.0	7.411670125117437e+17
19304.0	7.41005739285982e+17
19305.0	7.408443765817341e+17
19306.0	7.406815731340627e+17
19307.0	7.405142535394644e+17
19308.0	7.403372017614847e+17
19309.0	7.40156595310865e+17
19310.0	7.399832450061654e+17
19311.0	7.398421598044157e+17
19312.0	7.396784329108136e+17
19313.0	7.395109424682323e+17
19314.0	7.391575604723707e+17
19315.0	7.39003169680043e+17
19316.0	7.390087934028457e+17
19317.0	7.388415704170496e+17
19318.0	7.386722976748883e+17
19319.0	7.385023223868074e+17
19320.0	7.383312771317757e+17
19321.0	7.381601526043986e+17
19322.0	7.379839367512063e+17
19323.0	7.377923452786004e+17
19324.0	7.376314758245033e+17
19325.0	7.374432014871208e+17
19326.0	7.372813288953172e+17
19327.0	7.37091836392243e+17
19328.0	7.369054107642538e+17
19329.0	7.367272312777385e+17
19330.0	7.365475472943785e+17
19331.0	7.363673193097897e+17
19332.0	7.36186567876062e+17
19333.0	7.360042402228904e+17
19334.0	7.358203448786943e+17
19335.0	7.356361174854314e+17
19336.0	7.354502169843028e+17
19337.0	7.352630272939347e+17
19338.0	7.350721927533908e+17
19339.0	7.348793445274963e+17
19340.0	7.346645726745939e+17
19341.0	7.344724710348116e+17
19342.0	7.342734873810259e+17
19343.0	7.340830057212585e+17
19344.0	7.33885869658385e+17
19345.0	7.336632347437736e+17
19346.0	7.334802842364586e+17
19347.0	7.332833467039743e+17
19348.0	7.330654397486422e+17
19349.0	7.328380593984851e+17
19350.0	7.326298688279891e+17
19351.0	7.324196570223956e+17
19352.0	7.322068490824362e+17
19353.0	7.31991830045218e+17
19354.0	7.317544444624893e+17
19355.0	7.31501757080098e+17
19356.0	7.312700311513769e+17
19357.0	7.310458339983357e+17
19358.0	7.308182503642451e+17
19359.0	7.305847435340458e+17
19360.0	7.303449632833536e+17
19361.0	7.30094271271185e+17
19362.0	7.298561357469011e+17
19363.0	7.296140160532479e+17
19364.0	7.293683985896787e+17
19365.0	7.291158444463444e+17
19366.0	7.28857687971157e+17
19367.0	7.286007043631786e+17
19368.0	7.283078513470122e+17
19369.0	7.280407408716454e+17
19370.0	7.277622797707945e+17
19371.0	7.274977292189693e+17
19372.0	7.272191738860884e+17
19373.0	7.26934845792802e+17
19374.0	7.266451984831828e+17
19375.0	7.263499488417108e+17
19376.0	7.260273749874003e+17
19377.0	7.256967951854249e+17
19378.0	7.253833877028861e+17
19379.0	7.25063252836352e+17
19380.0	7.247361172570111e+17
19381.0	7.244016282238975e+17
19382.0	7.240250908737535e+17
19383.0	7.236490445367978e+17
19384.0	7.23291700601378e+17
19385.0	7.229242261635071e+17
19386.0	7.225359716057088e+17
19387.0	7.220861211770879e+17
19388.0	7.216895217718611e+17
19389.0	7.212821220338345e+17
19390.0	7.208029774675965e+17
19391.0	7.198959093153784e+17
19392.0	7.198956331903658e+17
19393.0	7.193339117262164e+17
19394.0	7.188379370957481e+17
19395.0	7.182957817801386e+17
19396.0	7.177186942036649e+17
19397.0	7.171452103731881e+17
19398.0	7.165167292907519e+17
19399.0	7.158482697803091e+17
19400.0	7.152149083455487e+17
19401.0	7.145274943558995e+17
19402.0	7.138974290848425e+17
19403.0	7.132557465703764e+17
19404.0	7.126035405471743e+17
19405.0	7.119269966555817e+17
19406.0	7.112246576545791e+17
19407.0	7.104627177335466e+17
19408.0	7.096723962156372e+17
19409.0	7.088902096901459e+17
19410.0	7.080616624040616e+17
19411.0	7.07142784070451e+17
19412.0	7.062500422625962e+17
19413.0	7.052626403262461e+17
19414.0	7.042462133867859e+17
19415.0	7.031540805883218e+17
19416.0	7.020428443429545e+17
19417.0	7.007765178351615e+17
19418.0	6.994932849268054e+17
19419.0	6.980958856500563e+17
19420.0	6.965768217777494e+17
19421.0	6.949127654998012e+17
19422.0	6.930956331341137e+17
19423.0	6.911362228464297e+17
19424.0	6.894320344891391e+17
19425.0	6.877223945852244e+17
19426.0	6.859229248531113e+17
19427.0	6.84041739034078e+17
19428.0	6.820085121417215e+17
19429.0	6.798458429461842e+17
19430.0	6.775126733357056e+17
19431.0	6.74928972914142e+17
19432.0	6.722693413295443e+17
19433.0	6.692647355110742e+17
19434.0	6.659509691525804e+17
19435.0	6.621683859324923e+17
19436.0	6.580987255324673e+17
19437.0	6.543984010723327e+17
19438.0	6.500610755002365e+17
19439.0	6.460625614012417e+17
19440.0	6.412243899340116e+17
19441.0	6.357972169697957e+17
19442.0	6.294903352284502e+17
19443.0	6.229983373208234e+17
19444.0	6.161053991829499e+17
19445.0	6.082749869850628e+17
19446.0	5.993582535464275e+17
19447.0	5.895834808527525e+17
19448.0	5.783384392815962e+17
19449.0	5.6446330849634976e+17
19450.0	5.385449944121287e+17
19451.0	5.278682798445912e+17
19452.0	5.532561257616729e+17
19453.0	5.718072322512218e+17
19454.0	5.837093508306255e+17
19455.0	5.939184269961897e+17
19456.0	6.030081585577987e+17
19457.0	6.111384155368102e+17
19458.0	6.181081771059884e+17
19459.0	6.245340307696301e+17
19460.0	6.3085553413434e+17
19461.0	6.364235686739965e+17
19462.0	6.412872369657174e+17
19463.0	6.456001553935016e+17
19464.0	6.494908890218495e+17
19465.0	6.530864432633174e+17
19466.0	6.566375954841592e+17
19467.0	6.604118883827708e+17
19468.0	6.636639168233472e+17
19469.0	6.665232698398034e+17
19470.0	6.691408995243347e+17
19471.0	6.714895501710678e+17
19472.0	6.736316060401661e+17
19473.0	6.756256407967059e+17
19474.0	6.774351706368684e+17
19475.0	6.791153719792979e+17
19476.0	6.806809312493567e+17
19477.0	6.821817753447081e+17
19478.0	6.83570481227366e+17
19479.0	6.851688379973631e+17
19480.0	6.867667002589185e+17
19481.0	6.88243271357781e+17
19482.0	6.895542386120019e+17
19483.0	6.907403118662996e+17
19484.0	6.918193464126121e+17
19485.0	6.927841101523626e+17
19486.0	6.936667519363753e+17
19487.0	6.945365971785043e+17
19488.0	6.952713044623359e+17
19489.0	6.960333500099242e+17
19490.0	6.966645277502121e+17
19491.0	6.973002045805908e+17
19492.0	6.979062570418175e+17
19493.0	6.984336725945e+17
19494.0	6.9893017305088e+17
19495.0	6.994434477872468e+17
19496.0	6.998870131212287e+17
19497.0	7.003026771760467e+17
19498.0	7.00669792162065e+17
19499.0	7.003444225944225e+17
19500.0	7.014187531588948e+17
19501.0	7.017910253912061e+17
19502.0	7.021467324295849e+17
19503.0	7.025753898789548e+17
19504.0	7.028718516742825e+17
19505.0	7.032614544911017e+17
19506.0	7.034919046523562e+17
19507.0	7.038331081370281e+17
19508.0	7.040328288698368e+17
19509.0	7.042845078017364e+17
19510.0	7.045144191347369e+17
19511.0	7.041499480981499e+17
19512.0	7.047924174640466e+17
19513.0	7.048462238132902e+17
19514.0	7.050342827032573e+17
19515.0	7.052779689694548e+17
19516.0	7.054594700651177e+17
19517.0	7.055535603275092e+17
19518.0	7.056399687221247e+17
19519.0	7.05716888342801e+17
19520.0	7.058154891597139e+17
19521.0	7.059026009391104e+17
19522.0	7.059562723715753e+17
19523.0	7.060030476692138e+17
19524.0	7.060429261329748e+17
19525.0	7.060757464219645e+17
19526.0	7.061194752567977e+17
19527.0	7.061664710350164e+17
19528.0	7.061823601770493e+17
19529.0	7.061927949063508e+17
19530.0	7.06198493008145e+17
19531.0	7.061988827987968e+17
19532.0	7.06194551341056e+17
19533.0	7.06185738129681e+17
19534.0	7.061725628421459e+17
19535.0	7.061649510192467e+17
19536.0	7.061633254468266e+17
19537.0	7.061388535005183e+17
19538.0	7.061098581371561e+17
19539.0	7.060718922760191e+17
19540.0	7.060506541380948e+17
19541.0	7.060121259606015e+17
19542.0	7.059727564057258e+17
19543.0	7.059498834679123e+17
19544.0	7.059025870979071e+17
19545.0	7.058485971779583e+17
19546.0	7.057892758781951e+17
19547.0	7.057446442893311e+17
19548.0	7.057026990123689e+17
19549.0	7.056657218884948e+17
19550.0	7.056051922097492e+17
19551.0	7.055560581753513e+17
19552.0	7.054947619176445e+17
19553.0	7.05426429714978e+17
19554.0	7.053561493979135e+17
19555.0	7.052899849513641e+17
19556.0	7.052431686893565e+17
19557.0	7.051678075322368e+17
19558.0	7.050908923854847e+17
19559.0	7.050120644962986e+17
19560.0	7.049323089668778e+17
19561.0	7.048507708582569e+17
19562.0	7.047677992763391e+17
19563.0	7.046833842946047e+17
19564.0	7.045978066518015e+17
19565.0	7.04519152406801e+17
19566.0	7.044479943617194e+17
19567.0	7.043588519799466e+17
19568.0	7.042684665462783e+17
19569.0	7.041767979352063e+17
19570.0	7.040842636197887e+17
19571.0	7.039905649655807e+17
19572.0	7.038955059587753e+17
19573.0	7.03800098824738e+17
19574.0	7.037024447321428e+17
19575.0	7.036062347384148e+17
19576.0	7.035079387075923e+17
19577.0	7.034081637651795e+17
19578.0	7.033083115776681e+17
19579.0	7.032076664569855e+17
19580.0	7.031196920490666e+17
19581.0	7.030236926093993e+17
19582.0	7.029209283865257e+17
19583.0	7.028172633669631e+17
19584.0	7.027128945431892e+17
19585.0	7.026064000461481e+17
19586.0	7.02499298353698e+17
19587.0	7.023915505287167e+17
19588.0	7.022832245189289e+17
19589.0	7.021791065844394e+17
19590.0	7.020729463734271e+17
19591.0	7.019760817886548e+17
19592.0	7.018685147381759e+17
19593.0	7.017591010055507e+17
19594.0	7.016451293227689e+17
19595.0	7.015386601313619e+17
19596.0	7.013076807188479e+17
19597.0	7.013160433920682e+17
19598.0	7.012021212719786e+17
19599.0	7.010926987313151e+17
19600.0	7.009801449330004e+17
19601.0	7.008663853421908e+17
19602.0	7.007533622711635e+17
19603.0	7.00626903376418e+17
19604.0	7.005250579158355e+17
19605.0	7.004085614018559e+17
19606.0	7.003115243612842e+17
19607.0	7.001966032278868e+17
19608.0	7.000811818538324e+17
19609.0	6.999652510815572e+17
19610.0	6.998495804959401e+17
19611.0	6.997332593038676e+17
19612.0	6.996167703396351e+17
19613.0	6.994999551983615e+17
19614.0	6.993823383158783e+17
19615.0	6.992655059779583e+17
19616.0	6.991438894071807e+17
19617.0	6.990301029728255e+17
19618.0	6.989063615676416e+17
19619.0	6.987859199612244e+17
19620.0	6.98667924402995e+17
19621.0	6.985564927208105e+17
19622.0	6.984375466633898e+17
19623.0	6.983184022153897e+17
19624.0	6.981990587476649e+17
19625.0	6.980794286691668e+17
19626.0	6.979597530125652e+17
19627.0	6.978398082913619e+17
19628.0	6.977072973654698e+17
19629.0	6.975982811829587e+17
19630.0	6.974672941875199e+17
19631.0	6.967767169936038e+17
19632.0	6.972371841843199e+17
19633.0	6.971166303802708e+17
19634.0	6.969959549414058e+17
19635.0	6.968742780425556e+17
19636.0	6.967535224225791e+17
19637.0	6.966269406347264e+17
19638.0	6.96510403785523e+17
19639.0	6.963886418821117e+17
19640.0	6.962663291966803e+17
19641.0	6.961387857947306e+17
19642.0	6.960229203836925e+17
19643.0	6.959005126273706e+17
19644.0	6.957776826444457e+17
19645.0	6.956529775979177e+17
19646.0	6.955335029183827e+17
19647.0	6.954108877537279e+17
19648.0	6.952881750715049e+17
19649.0	6.951653288006998e+17
19650.0	6.950424586223615e+17
19651.0	6.949194689063593e+17
19652.0	6.947963810436436e+17
19653.0	6.946731912593407e+17
19654.0	6.94549964984593e+17
19655.0	6.944265844293631e+17
19656.0	6.943031382332756e+17
19657.0	6.941797375453866e+17
19658.0	6.940561850935977e+17
19659.0	6.939325382699689e+17
19660.0	6.93808859779345e+17
19661.0	6.936850942569129e+17
19662.0	6.935612607867561e+17
19663.0	6.934367375633065e+17
19664.0	6.933111444428116e+17
19665.0	6.931894012040532e+17
