# Flux units: erg / (cm m2 s)
# Wavelength units: Angstrom
wave	flux
19000.0	4.821055411585023e+17
19001.0	4.820113815502847e+17
19002.0	4.819272554861908e+17
19003.0	4.818370621516458e+17
19004.0	4.817474632897877e+17
19005.0	4.816593828358826e+17
19006.0	4.815704823955454e+17
19007.0	4.814541419795796e+17
19008.0	4.813890511350442e+17
19009.0	4.8130075341619194e+17
19010.0	4.811876510728191e+17
19011.0	4.8112254226268154e+17
19012.0	4.8096168755855334e+17
19013.0	4.80946522423296e+17
19014.0	4.8085517984945485e+17
19015.0	4.8076683662240416e+17
19016.0	4.806771663175679e+17
19017.0	4.8059021322267296e+17
19018.0	4.8049758062073165e+17
19019.0	4.804127423638187e+17
19020.0	4.8032266772807674e+17
19021.0	4.8023483347981645e+17
19022.0	4.801461658233513e+17
19023.0	4.800557114632874e+17
19024.0	4.799674167503529e+17
19025.0	4.7987361184044365e+17
19026.0	4.797828839418538e+17
19027.0	4.796418254438398e+17
19028.0	4.7961357967250765e+17
19029.0	4.7952318319383885e+17
19030.0	4.794361975231829e+17
19031.0	4.793479609013589e+17
19032.0	4.792587580517033e+17
19033.0	4.7916584303329274e+17
19034.0	4.7908093375283194e+17
19035.0	4.789910549910868e+17
19036.0	4.746124475411091e+17
19037.0	4.7881477559418874e+17
19038.0	4.787260913003177e+17
19039.0	4.7863850780153165e+17
19040.0	4.785501821206528e+17
19041.0	4.7846095571298976e+17
19042.0	4.7836609258018125e+17
19043.0	4.7828473063232845e+17
19044.0	4.7819512813540685e+17
19045.0	4.7810533018391885e+17
19046.0	4.780159854269781e+17
19047.0	4.779304540613289e+17
19048.0	4.778303130959872e+17
19049.0	4.777463969568085e+17
19050.0	4.7766303090059936e+17
19051.0	4.769284888723443e+17
19052.0	4.774270391549953e+17
19053.0	4.773938268383914e+17
19054.0	4.77312177021474e+17
19055.0	4.772104518675114e+17
19056.0	4.7713382284219725e+17
19057.0	4.77046387192627e+17
19058.0	4.7694966905896954e+17
19059.0	4.768695937138687e+17
19060.0	4.7678057003089914e+17
19061.0	4.766943200411647e+17
19062.0	4.76605863428096e+17
19063.0	4.765178145013759e+17
19064.0	4.764227729009321e+17
19065.0	4.763329261557076e+17
19066.0	4.7624977498767354e+17
19067.0	4.7616468668033696e+17
19068.0	4.7607720139816954e+17
19069.0	4.7598907250005325e+17
19070.0	4.7589958080266234e+17
19071.0	4.7581024219736736e+17
19072.0	4.7572376159081805e+17
19073.0	4.756368221274111e+17
19074.0	4.755491135684607e+17
19075.0	4.754611432849408e+17
19076.0	4.753720457822207e+17
19077.0	4.7528429255393274e+17
19078.0	4.751949935149055e+17
19079.0	4.7510929193041914e+17
19080.0	4.750208355270655e+17
19081.0	4.749314416967679e+17
19082.0	4.748433578175146e+17
19083.0	4.747529876231509e+17
19084.0	4.746591095226368e+17
19085.0	4.745816482775038e+17
19086.0	4.744718748134057e+17
19087.0	4.742873756292437e+17
19088.0	4.7431375388672e+17
19089.0	4.741606797563219e+17
19090.0	4.74142080045329e+17
19091.0	4.7405456812933114e+17
19092.0	4.7393613237889696e+17
19093.0	4.738806587938132e+17
19094.0	4.7379296903932576e+17
19095.0	4.7370530941392205e+17
19096.0	4.736153982861311e+17
19097.0	4.735300683868842e+17
19098.0	4.734417617201834e+17
19099.0	4.733536196799146e+17
19100.0	4.7326069508450976e+17
19101.0	4.7317765891031034e+17
19102.0	4.730867200382293e+17
19103.0	4.730050182818474e+17
19104.0	4.729177455809876e+17
19105.0	4.7282808611143674e+17
19106.0	4.7272077295615994e+17
19107.0	4.7265391861650765e+17
19108.0	4.725672243800745e+17
19109.0	4.7214233271664595e+17
19110.0	4.723913452595881e+17
19111.0	4.7230397420229965e+17
19112.0	4.7221793211023354e+17
19113.0	4.7213131092459514e+17
19114.0	4.7204371582156806e+17
19115.0	4.719453192672598e+17
19116.0	4.7186861942811296e+17
19117.0	4.7178140069396474e+17
19118.0	4.716712807104511e+17
19119.0	4.713174636953596e+17
19120.0	4.714849542078463e+17
19121.0	4.714102728075946e+17
19122.0	4.713466342408191e+17
19123.0	4.7125945493312845e+17
19124.0	4.711521846296574e+17
19125.0	4.7108360265618765e+17
19126.0	4.709953078733482e+17
19127.0	4.7081986342256614e+17
19128.0	4.70653256090692e+17
19129.0	4.7073304335701325e+17
19130.0	4.706494575891796e+17
19131.0	4.7055737101571405e+17
19132.0	4.7047610092311885e+17
19133.0	4.7035800721817606e+17
19134.0	4.7022086710886406e+17
19135.0	4.7021379404431354e+17
19136.0	4.701287004241919e+17
19137.0	4.700332909832874e+17
19138.0	4.6994530587989325e+17
19139.0	4.698680682610687e+17
19140.0	4.6978135214434976e+17
19141.0	4.696945666118997e+17
19142.0	4.6960529127069005e+17
19143.0	4.6951778480728736e+17
19144.0	4.694325260713983e+17
19145.0	4.6934651368898554e+17
19146.0	4.6922553423298554e+17
19147.0	4.691691963416575e+17
19148.0	4.690845764681728e+17
19149.0	4.6899819946093216e+17
19150.0	4.6891360650089805e+17
19151.0	4.6882726961916595e+17
19152.0	4.687364770583893e+17
19153.0	4.686518559965183e+17
19154.0	4.685611186607445e+17
19155.0	4.6847999788537165e+17
19156.0	4.6839455005627725e+17
19157.0	4.683052700314282e+17
19158.0	4.6799365631289984e+17
19159.0	4.6813392495356576e+17
19160.0	4.6804334294685005e+17
19161.0	4.679477875441664e+17
19162.0	4.673552152963759e+17
19163.0	4.6778648349026976e+17
19164.0	4.6770301809896096e+17
19165.0	4.676045077392042e+17
19166.0	4.6751079237768525e+17
19167.0	4.673943070485162e+17
19168.0	4.673551051259904e+17
19169.0	4.6726005303978656e+17
19170.0	4.6718465077848736e+17
19171.0	4.670657636510377e+17
19172.0	4.6701005840056314e+17
19173.0	4.669243367533226e+17
19174.0	4.668369067660628e+17
19175.0	4.667534449399123e+17
19176.0	4.6666746841879885e+17
19177.0	4.665738976908629e+17
19178.0	4.664882683882155e+17
19179.0	4.663603348460886e+17
19180.0	4.6630650416988154e+17
19181.0	4.662299246373546e+17
19182.0	4.6614843168740685e+17
19183.0	4.660627519832063e+17
19184.0	4.6597437415314765e+17
19185.0	4.6589206764803405e+17
19186.0	4.6580660304172365e+17
19187.0	4.6571608220194125e+17
19188.0	4.656322616928938e+17
19189.0	4.655412171243519e+17
19190.0	4.6545301230933325e+17
19191.0	4.6536877320874656e+17
19192.0	4.6529015091036154e+17
19193.0	4.651986660098047e+17
19194.0	4.651147828658176e+17
19195.0	4.650315936694272e+17
19196.0	4.649461621282132e+17
19197.0	4.6486041377723725e+17
19198.0	4.647738213225812e+17
19199.0	4.617684887710371e+17
19200.0	4.6272481287209075e+17
19201.0	4.6451668825757e+17
19202.0	4.644320834835797e+17
19203.0	4.643384394252287e+17
19204.0	4.6425809235913376e+17
19205.0	4.641747425908051e+17
19206.0	4.64088781099281e+17
19207.0	4.639990092922879e+17
19208.0	4.639058002531668e+17
19209.0	4.6383062602219514e+17
19210.0	4.6374629206043296e+17
19211.0	4.636613446817109e+17
19212.0	4.6357557605826554e+17
19213.0	4.634589163858602e+17
19214.0	4.6336051395952634e+17
19215.0	4.6330790871913805e+17
19216.0	4.630963173370537e+17
19217.0	4.629353167410517e+17
19218.0	4.628195684909054e+17
19219.0	4.6275740079663776e+17
19220.0	4.6267600732159994e+17
19221.0	4.625751393435647e+17
19222.0	4.625082068500479e+17
19223.0	4.624221569985193e+17
19224.0	4.6233522200903674e+17
19225.0	4.6224469271074125e+17
19226.0	4.621658260941481e+17
19227.0	4.6208056945541114e+17
19228.0	4.619965346174293e+17
19229.0	4.619111680180224e+17
19230.0	4.618198161468074e+17
19231.0	4.617355438413141e+17
19232.0	4.616540734007979e+17
19233.0	4.615657746333695e+17
19234.0	4.614833936094549e+17
19235.0	4.6139771041000096e+17
19236.0	4.613141524643839e+17
19237.0	4.6122795210724685e+17
19238.0	4.6113423695544314e+17
19239.0	4.6105818261968205e+17
19240.0	4.6096918130633376e+17
19241.0	4.608860995540308e+17
19242.0	4.6080253741410976e+17
19243.0	4.6071001666027514e+17
19244.0	4.60633128496879e+17
19245.0	4.605477775562068e+17
19246.0	4.604620128474453e+17
19247.0	4.603773696955732e+17
19248.0	4.6029186111897594e+17
19249.0	4.6020580266912416e+17
19250.0	4.6012111799364256e+17
19251.0	4.600318079096148e+17
19252.0	4.599378316623871e+17
19253.0	4.598659802289492e+17
19254.0	4.5978118922786125e+17
19255.0	4.596876061267285e+17
19256.0	4.596067203022846e+17
19257.0	4.5952668871775565e+17
19258.0	4.594420022946474e+17
19259.0	4.593534020965716e+17
19260.0	4.591913841022291e+17
19261.0	4.591863356282197e+17
19262.0	4.5909910822584314e+17
19263.0	4.59014222713105e+17
19264.0	4.589038987466068e+17
19265.0	4.588366351826944e+17
19266.0	4.587498220377429e+17
19267.0	4.5867713719610016e+17
19268.0	4.585916724499797e+17
19269.0	4.5850700881592314e+17
19270.0	4.5842199600605856e+17
19271.0	4.583193289512277e+17
19272.0	4.5825052670689274e+17
19273.0	4.580264198711976e+17
19274.0	4.580021742774953e+17
19275.0	4.5799745281938765e+17
19276.0	4.579114881122302e+17
19277.0	4.578264957146453e+17
19278.0	4.577416911519744e+17
19279.0	4.576506901342891e+17
19280.0	4.5756771198129485e+17
19281.0	4.574868565655551e+17
19282.0	4.5740271323490976e+17
19283.0	4.572697412851029e+17
19284.0	4.571781302059006e+17
19285.0	4.571374805494443e+17
19286.0	4.5706114966923936e+17
19287.0	4.569777959163221e+17
19288.0	4.558505633644537e+17
19289.0	4.538982008356808e+17
19290.0	4.5672292966290765e+17
19291.0	4.566253635807914e+17
19292.0	4.5655305301087565e+17
19293.0	4.5646763384285856e+17
19294.0	4.5638247367311354e+17
19295.0	4.5629798927564794e+17
19296.0	4.562116379934719e+17
19297.0	4.56124644982784e+17
19298.0	4.560412156624895e+17
19299.0	4.5595660110178976e+17
19300.0	4.5587234494436685e+17
19301.0	4.5578710291578874e+17
19302.0	4.557017489691987e+17
19303.0	4.556116250503849e+17
19304.0	4.5552971581576525e+17
19305.0	4.5544564469705376e+17
19306.0	4.553584786014207e+17
19307.0	4.552695016150358e+17
19308.0	4.551867445018623e+17
19309.0	4.549959668640425e+17
19310.0	4.5487216527059603e+17
19311.0	4.5492418491624096e+17
19312.0	4.548487683943081e+17
19313.0	4.547630663903914e+17
19314.0	4.501467392114668e+17
19315.0	4.504482733184418e+17
19316.0	4.5449842328425805e+17
19317.0	4.54421600272384e+17
19318.0	4.5433588302916256e+17
19319.0	4.5425122358941005e+17
19320.0	4.541648158239402e+17
19321.0	4.540789451390976e+17
19322.0	4.5398623242594976e+17
19323.0	4.538569722953728e+17
19324.0	4.5381986060424525e+17
19325.0	4.536320128275797e+17
19326.0	4.536498249880917e+17
19327.0	4.5356319981786445e+17
19328.0	4.5347651103402656e+17
19329.0	4.5339213967305376e+17
19330.0	4.533035264027306e+17
19331.0	4.5321729598641485e+17
19332.0	4.531319475623251e+17
19333.0	4.5301714904241485e+17
19334.0	4.5290834683931296e+17
19335.0	4.5281852588905805e+17
19336.0	4.527334124158976e+17
19337.0	4.526481571752618e+17
19338.0	4.525508914053118e+17
19339.0	4.5230938708596045e+17
19340.0	4.521478227755006e+17
19341.0	4.5206457080436045e+17
19342.0	4.519540273359529e+17
19343.0	4.518917573006677e+17
19344.0	4.518023666860031e+17
19345.0	4.516049983285927e+17
19346.0	4.515916040983893e+17
19347.0	4.515341057829546e+17
19348.0	4.514513961353215e+17
19349.0	4.513599466766336e+17
19350.0	4.5127076256153594e+17
19351.0	4.511832041586687e+17
19352.0	4.5109052164450976e+17
19353.0	4.510067754445483e+17
19354.0	4.509172396370601e+17
19355.0	4.5082254770176e+17
19356.0	4.5073684751537485e+17
19357.0	4.506469555415721e+17
19358.0	4.505540809981951e+17
19359.0	4.504575959979349e+17
19360.0	4.503708780636842e+17
19361.0	4.5028017050746874e+17
19362.0	4.5019117625453216e+17
19363.0	4.5009904613021005e+17
19364.0	4.500060583406251e+17
19365.0	4.499136250380287e+17
19366.0	4.4982056384812365e+17
19367.0	4.495149439997268e+17
19368.0	4.4936996389737805e+17
19369.0	4.4926897449424205e+17
19370.0	4.491621614398121e+17
19371.0	4.4908061683002016e+17
19372.0	4.489866709215913e+17
19373.0	4.4888753679892474e+17
19374.0	4.487912743064917e+17
19375.0	4.486924318976681e+17
19376.0	4.4859388987091616e+17
19377.0	4.484933847700821e+17
19378.0	4.483928786206719e+17
19379.0	4.4829145916156576e+17
19380.0	4.4792200445296666e+17
19381.0	4.477894129964372e+17
19382.0	4.476804741988352e+17
19383.0	4.475722639518378e+17
19384.0	4.4746970762663245e+17
19385.0	4.473613047911765e+17
19386.0	4.4725138361767245e+17
19387.0	4.471220704990549e+17
19388.0	4.4686190138709325e+17
19389.0	4.4674645149177165e+17
19390.0	4.4662826502280525e+17
19391.0	4.426370283907695e+17
19392.0	4.4637325483485843e+17
19393.0	4.462665691474602e+17
19394.0	4.4613937380283725e+17
19395.0	4.460046318567424e+17
19396.0	4.4587496208247456e+17
19397.0	4.45751194952226e+17
19398.0	4.4561172357884576e+17
19399.0	4.4543701606727674e+17
19400.0	4.453317975474176e+17
19401.0	4.4518889837909325e+17
19402.0	4.4503952739969696e+17
19403.0	4.448856560020138e+17
19404.0	4.44728826990865e+17
19405.0	4.445654263442091e+17
19406.0	4.4439826410591565e+17
19407.0	4.4422538454193485e+17
19408.0	4.4400644292171104e+17
19409.0	4.438600438164139e+17
19410.0	4.4366955418746874e+17
19411.0	4.4347135186261325e+17
19412.0	4.4326409389561165e+17
19413.0	4.430486118072319e+17
19414.0	4.428228645792425e+17
19415.0	4.4258978004555085e+17
19416.0	4.4231879032831994e+17
19417.0	4.4202803159804576e+17
19418.0	4.4180143397492045e+17
19419.0	4.41439492383266e+17
19420.0	4.411511314666836e+17
19421.0	4.4083966853338445e+17
19422.0	4.405099614961664e+17
19423.0	4.401667316034217e+17
19424.0	4.398091713118206e+17
19425.0	4.393751457824766e+17
19426.0	4.388867356491776e+17
19427.0	4.3845216653803526e+17
19428.0	4.3795635345817594e+17
19429.0	4.3733966011760634e+17
19430.0	4.366738111419735e+17
19431.0	4.352744631915875e+17
19432.0	4.351942645339475e+17
19433.0	4.341534079407443e+17
19434.0	4.329059177725951e+17
19435.0	4.31074957975006e+17
19436.0	4.282580655756627e+17
19437.0	4.2639161972927136e+17
19438.0	4.185423972663302e+17
19439.0	4.2318218808087936e+17
19440.0	4.2143666520719354e+17
19441.0	4.1950682469280416e+17
19442.0	4.1731571266355206e+17
19443.0	4.1489408741867514e+17
19444.0	4.11884493524173e+17
19445.0	4.0687285249420006e+17
19446.0	3.986418621743102e+17
19447.0	3.9239532730996006e+17
19448.0	3.842895770899806e+17
19449.0	3.666045063659515e+17
19450.0	3.2151022124837466e+17
19451.0	3.0752291079673094e+17
19452.0	3.475837280758462e+17
19453.0	3.769943067721723e+17
19454.0	3.8855003015741414e+17
19455.0	3.951329198910123e+17
19456.0	4.0203291578422394e+17
19457.0	4.090687351947267e+17
19458.0	4.014318119026888e+17
19459.0	4.1487646546985197e+17
19460.0	4.171526217662461e+17
19461.0	4.1904716903000736e+17
19462.0	4.207695245956438e+17
19463.0	4.223385008952661e+17
19464.0	4.237319886340096e+17
19465.0	4.252117850827434e+17
19466.0	4.276279487845713e+17
19467.0	4.296495957628244e+17
19468.0	4.309874849961305e+17
19469.0	4.318951276281858e+17
19470.0	4.3267371418255366e+17
19471.0	4.3325002539335674e+17
19472.0	4.338077256384511e+17
19473.0	4.3417952887767034e+17
19474.0	4.3462367694028794e+17
19475.0	4.3485696433848294e+17
19476.0	4.351587473074857e+17
19477.0	4.355196559119702e+17
19478.0	4.357252518161066e+17
19479.0	4.3591008500667725e+17
19480.0	4.3608376931778554e+17
19481.0	4.3624046634816845e+17
19482.0	4.363825560158207e+17
19483.0	4.36509706621201e+17
19484.0	4.3670800625390944e+17
19485.0	4.368057724043263e+17
19486.0	4.368923158555307e+17
19487.0	4.3697111207772154e+17
19488.0	4.3703772209916576e+17
19489.0	4.370921906591061e+17
19490.0	4.3706366827342483e+17
19491.0	4.371796302932649e+17
19492.0	4.37213867348241e+17
19493.0	4.3723912509740365e+17
19494.0	4.372576325337087e+17
19495.0	4.3726986675923616e+17
19496.0	4.3725545687831885e+17
19497.0	4.3727916021841914e+17
19498.0	4.3704252814240486e+17
19499.0	4.3105900990299603e+17
19500.0	4.3725819002661536e+17
19501.0	4.3724253506655565e+17
19502.0	4.372210931553621e+17
19503.0	4.372015497259689e+17
19504.0	4.371748237606912e+17
19505.0	4.3714889450345805e+17
19506.0	4.371174766499157e+17
19507.0	4.3708329831519565e+17
19508.0	4.370485250883583e+17
19509.0	4.370101189651114e+17
19510.0	4.369591045543252e+17
19511.0	4.28247875514088e+17
19512.0	4.360515414043278e+17
19513.0	4.3512821710847686e+17
19514.0	4.355849091459738e+17
19515.0	4.3666489335261875e+17
19516.0	4.3675740753537696e+17
19517.0	4.367904749387774e+17
19518.0	4.367399995659604e+17
19519.0	4.366822068103849e+17
19520.0	4.366263573457578e+17
19521.0	4.365721465257983e+17
19522.0	4.3651191541159245e+17
19523.0	4.364545859168937e+17
19524.0	4.3639371838696096e+17
19525.0	4.3633731191876243e+17
19526.0	4.365505401978879e+17
19527.0	4.3648717824546125e+17
19528.0	4.364230822898346e+17
19529.0	4.3635847931275936e+17
19530.0	4.362944007634943e+17
19531.0	4.3622883994719565e+17
19532.0	4.361627491805865e+17
19533.0	4.360961562858836e+17
19534.0	4.360289344552959e+17
19535.0	4.3596050753126394e+17
19536.0	4.358915329709397e+17
19537.0	4.358252280851114e+17
19538.0	4.3575203552296954e+17
19539.0	4.356564392258219e+17
19540.0	4.3561638243423565e+17
19541.0	4.355475008476502e+17
19542.0	4.354773111974571e+17
19543.0	4.3540578188656634e+17
19544.0	4.355621394579453e+17
19545.0	4.354878453317631e+17
19546.0	4.353880273977343e+17
19547.0	4.353658680508415e+17
19548.0	4.35293688832546e+17
19549.0	4.352163848039082e+17
19550.0	4.3514892494656845e+17
19551.0	4.350763014815744e+17
19552.0	4.3500330870811296e+17
19553.0	4.3492914509469005e+17
19554.0	4.3485477092720634e+17
19555.0	4.347825855572651e+17
19556.0	4.347095383976617e+17
19557.0	4.346359300401834e+17
19558.0	4.345618093484714e+17
19559.0	4.344876873984682e+17
19560.0	4.3441219761602554e+17
19561.0	4.343383247377749e+17
19562.0	4.34264491495697e+17
19563.0	4.3419083301628576e+17
19564.0	4.341162413042346e+17
19565.0	4.3404152250477216e+17
19566.0	4.339651035441834e+17
19567.0	4.3389171182250656e+17
19568.0	4.338154929302186e+17
19569.0	4.33740520235554e+17
19570.0	4.3366647699865594e+17
19571.0	4.335910113334612e+17
19572.0	4.3351410128977914e+17
19573.0	4.3343935676525216e+17
19574.0	4.3336022926295034e+17
19575.0	4.332894287822847e+17
19576.0	4.3321352593080314e+17
19577.0	4.331346808449706e+17
19578.0	4.330599654708564e+17
19579.0	4.3298499613163514e+17
19580.0	4.329082384110933e+17
19581.0	4.328328792812202e+17
19582.0	4.3275789428326394e+17
19583.0	4.326819183809877e+17
19584.0	4.326043280911019e+17
19585.0	4.325241499156479e+17
19586.0	4.324456428208128e+17
19587.0	4.323575031573162e+17
19588.0	4.322765242193238e+17
19589.0	4.322218768422229e+17
19590.0	4.321418179947179e+17
19591.0	4.320719775203327e+17
19592.0	4.3199609011787085e+17
19593.0	4.3191882712350714e+17
19594.0	4.318275033541289e+17
19595.0	4.3176566491272525e+17
19596.0	4.3134256575501677e+17
19597.0	4.316108185490773e+17
19598.0	4.315168499914068e+17
19599.0	4.3146116291624954e+17
19600.0	4.3138515821308576e+17
19601.0	4.313052246354602e+17
19602.0	4.312296940284586e+17
19603.0	4.310827224705705e+17
19604.0	4.310740882860714e+17
19605.0	4.3098697909316256e+17
19606.0	4.309252934642346e+17
19607.0	4.3084922738442234e+17
19608.0	4.307714370961407e+17
19609.0	4.3069252567039994e+17
19610.0	4.3061868494848e+17
19611.0	4.305411653326165e+17
19612.0	4.3046604989180576e+17
19613.0	4.3038873803380045e+17
19614.0	4.3031072300072954e+17
19615.0	4.302356787931818e+17
19616.0	4.30123134362146e+17
19617.0	4.3008122347847674e+17
19618.0	4.299772788386474e+17
19619.0	4.298917308355923e+17
19620.0	4.298172801220607e+17
19621.0	4.297739299629738e+17
19622.0	4.2969915733661e+17
19623.0	4.296222626021376e+17
19624.0	4.2954509041445536e+17
19625.0	4.294685689730389e+17
19626.0	4.2939208870570656e+17
19627.0	4.293153219674112e+17
19628.0	4.2916419315520864e+17
19629.0	4.291541061337087e+17
19630.0	4.290231784876716e+17
19631.0	4.2579870753314016e+17
19632.0	4.2893079971102714e+17
19633.0	4.288486442707627e+17
19634.0	4.2877864098747725e+17
19635.0	4.2869998555409056e+17
19636.0	4.286230103588864e+17
19637.0	4.2852989597122554e+17
19638.0	4.2847127316288845e+17
19639.0	4.283932936415914e+17
19640.0	4.283150238744575e+17
19641.0	4.281902099158358e+17
19642.0	4.2816469610441376e+17
19643.0	4.280868064111274e+17
19644.0	4.28008828637457e+17
19645.0	4.2792095671036576e+17
19646.0	4.278571340136446e+17
19647.0	4.277820192019797e+17
19648.0	4.277052140858025e+17
19649.0	4.276284233001642e+17
19650.0	4.275521257646761e+17
19651.0	4.2747526807988896e+17
19652.0	4.273985885132117e+17
19653.0	4.2732070860663456e+17
19654.0	4.2724540987473914e+17
19655.0	4.2716866585559034e+17
