# Flux units: erg / (cm m2 s)
# Wavelength units: Angstrom
wave	flux
19000.0	6.396161276859731e+17
19001.0	6.394857585814185e+17
19002.0	6.393761539380563e+17
19003.0	6.392548209721344e+17
19004.0	6.391335114943146e+17
19005.0	6.390152448442367e+17
19006.0	6.388953147331924e+17
19007.0	6.386702022432086e+17
19008.0	6.386482085014186e+17
19009.0	6.385329827217405e+17
19010.0	6.383681682451112e+17
19011.0	6.382921109034326e+17
19012.0	6.380602622214141e+17
19013.0	6.380544867347114e+17
19014.0	6.379293789650941e+17
19015.0	6.378116334572884e+17
19016.0	6.37691076088081e+17
19017.0	6.375554392872276e+17
19018.0	6.374453220999165e+17
19019.0	6.373347346612221e+17
19020.0	6.372088941466966e+17
19021.0	6.370921940691625e+17
19022.0	6.369759239077888e+17
19023.0	6.368525664212308e+17
19024.0	6.367343826086569e+17
19025.0	6.3660470318749e+17
19026.0	6.364833722488148e+17
19027.0	6.362929009349971e+17
19028.0	6.362576685017769e+17
19029.0	6.361354680838826e+17
19030.0	6.360193317907114e+17
19031.0	6.359004317308244e+17
19032.0	6.357801983016959e+17
19033.0	6.356520930028202e+17
19034.0	6.355395791902036e+17
19035.0	6.354180122520233e+17
19036.0	6.288881064345548e+17
19037.0	6.35180821914146e+17
19038.0	6.350611291308031e+17
19039.0	6.349434804415146e+17
19040.0	6.348246792972969e+17
19041.0	6.347040017612797e+17
19042.0	6.345765458105684e+17
19043.0	6.344665724179795e+17
19044.0	6.34345634275874e+17
19045.0	6.342238488843603e+17
19046.0	6.34101065388305e+17
19047.0	6.339891825388202e+17
19048.0	6.338496044903082e+17
19049.0	6.337439468268201e+17
19050.0	6.336268617121792e+17
19051.0	6.325720501802307e+17
19052.0	6.333364658591063e+17
19053.0	6.332483474467498e+17
19054.0	6.331541676359679e+17
19055.0	6.330115760499372e+17
19056.0	6.329134138174122e+17
19057.0	6.327953231882921e+17
19058.0	6.326510726152191e+17
19059.0	6.325589283001684e+17
19060.0	6.324372357425833e+17
19061.0	6.323215882955433e+17
19062.0	6.322018892207444e+17
19063.0	6.320799279480831e+17
19064.0	6.319438692002474e+17
19065.0	6.318203786144425e+17
19066.0	6.317130650397353e+17
19067.0	6.315990113583101e+17
19068.0	6.314810603995135e+17
19069.0	6.313624519835647e+17
19070.0	6.312403794220372e+17
19071.0	6.311199889861289e+17
19072.0	6.310057362849791e+17
19073.0	6.308870002922838e+17
19074.0	6.307692213698559e+17
19075.0	6.306505396234921e+17
19076.0	6.30529677468194e+17
19077.0	6.304116882713257e+17
19078.0	6.302874206207997e+17
19079.0	6.301755532203347e+17
19080.0	6.300557406896127e+17
19081.0	6.299338255542953e+17
19082.0	6.298134791585791e+17
19083.0	6.296907565498365e+17
19084.0	6.295599701819391e+17
19085.0	6.294629356579498e+17
19086.0	6.293027363837268e+17
19087.0	6.29038009810944e+17
19088.0	6.291000414000468e+17
19089.0	6.288736437054121e+17
19090.0	6.288690460491775e+17
19091.0	6.287516524434771e+17
19092.0	6.285847273231699e+17
19093.0	6.285173879821652e+17
19094.0	6.283984503133524e+17
19095.0	6.282800928565929e+17
19096.0	6.281444192157695e+17
19097.0	6.280430472921087e+17
19098.0	6.279263084172628e+17
19099.0	6.278073985706665e+17
19100.0	6.276790427320319e+17
19101.0	6.275685256877396e+17
19102.0	6.274456039893674e+17
19103.0	6.273357426546003e+17
19104.0	6.272186337722367e+17
19105.0	6.270999419595433e+17
19106.0	6.269468813907284e+17
19107.0	6.268626277498879e+17
19108.0	6.267463745055402e+17
19109.0	6.259205257647433e+17
19110.0	6.265078622628521e+17
19111.0	6.263900634873856e+17
19112.0	6.262745787793408e+17
19113.0	6.261570585755647e+17
19114.0	6.260392426733565e+17
19115.0	6.259051422460586e+17
19116.0	6.258019521615188e+17
19117.0	6.256845115097087e+17
19118.0	6.255279885429418e+17
19119.0	6.251928257647951e+17
19120.0	6.252806384123901e+17
19121.0	6.251843402683731e+17
19122.0	6.250979645893289e+17
19123.0	6.249785994510335e+17
19124.0	6.248285868829353e+17
19125.0	6.247372406740308e+17
19126.0	6.245970553602047e+17
19127.0	6.243495738081276e+17
19128.0	6.237597621813236e+17
19129.0	6.242574947844095e+17
19130.0	6.241476052079956e+17
19131.0	6.240090039429801e+17
19132.0	6.2391363043328e+17
19133.0	6.236723652591619e+17
19134.0	6.233716822463836e+17
19135.0	6.235593667947178e+17
19136.0	6.234449787573588e+17
19137.0	6.233119235506175e+17
19138.0	6.23113406373342e+17
19139.0	6.230923257315327e+17
19140.0	6.229760608829439e+17
19141.0	6.228590001651712e+17
19142.0	6.227366345616042e+17
19143.0	6.226180042653696e+17
19144.0	6.22500828553762e+17
19145.0	6.223873229280596e+17
19146.0	6.22196632252143e+17
19147.0	6.221479726634324e+17
19148.0	6.220343377133567e+17
19149.0	6.219186756561578e+17
19150.0	6.218008554198356e+17
19151.0	6.216878835892223e+17
19152.0	6.215616971145215e+17
19153.0	6.214523144896511e+17
19154.0	6.213257042504361e+17
19155.0	6.212186061231444e+17
19156.0	6.211034947780605e+17
19157.0	6.209803055529983e+17
19158.0	6.20378454945518e+17
19159.0	6.207504659425961e+17
19160.0	6.206228627718143e+17
19161.0	6.204563061211137e+17
19162.0	6.193228250349577e+17
19163.0	6.202816498499583e+17
19164.0	6.20169771754018e+17
19165.0	6.200360046340777e+17
19166.0	6.19905482297617e+17
19167.0	6.197158288031741e+17
19168.0	6.196865734628692e+17
19169.0	6.195629615917738e+17
19170.0	6.194695884155561e+17
19171.0	6.192983318375082e+17
19172.0	6.192321145427284e+17
19173.0	6.191182347851092e+17
19174.0	6.189989106111828e+17
19175.0	6.188871616299007e+17
19176.0	6.187709940192595e+17
19177.0	6.186409061427882e+17
19178.0	6.185289443704832e+17
19179.0	6.183391614118573e+17
19180.0	6.181350513399128e+17
19181.0	6.181777854955519e+17
19182.0	6.180592285996372e+17
19183.0	6.17937344991505e+17
19184.0	6.17815591826227e+17
19185.0	6.17722541052177e+17
19186.0	6.176082218014036e+17
19187.0	6.174820853787305e+17
19188.0	6.173673318776831e+17
19189.0	6.172313742824788e+17
19190.0	6.171093521924095e+17
19191.0	6.170100349184682e+17
19192.0	6.168996866250068e+17
19193.0	6.166643071079763e+17
19194.0	6.166193573112489e+17
19195.0	6.165460586332159e+17
19196.0	6.164443535420073e+17
19197.0	6.163279626545833e+17
19198.0	6.162080326134441e+17
19199.0	6.101794543370223e+17
19200.0	6.121642304471068e+17
19201.0	6.158610123980799e+17
19202.0	6.157495224150697e+17
19203.0	6.156203879738026e+17
19204.0	6.155138597825192e+17
19205.0	6.15402169241873e+17
19206.0	6.152859130615124e+17
19207.0	6.151636795785215e+17
19208.0	6.150349152845823e+17
19209.0	6.149328228493994e+17
19210.0	6.148230602904916e+17
19211.0	6.14708030804241e+17
19212.0	6.145927890862077e+17
19213.0	6.144099916010835e+17
19214.0	6.142612394912426e+17
19215.0	6.142224123297791e+17
19216.0	6.14119952753186e+17
19217.0	6.140080090862932e+17
19218.0	6.138170044667218e+17
19219.0	6.137624887907667e+17
19220.0	6.136549214606676e+17
19221.0	6.13507822395938e+17
19222.0	6.134306379748692e+17
19223.0	6.133131025317888e+17
19224.0	6.13188380987665e+17
19225.0	6.130685049132371e+17
19226.0	6.129662027628544e+17
19227.0	6.128506250810708e+17
19228.0	6.127376919079593e+17
19229.0	6.126180713365504e+17
19230.0	6.124770393325567e+17
19231.0	6.123672009965567e+17
19232.0	6.122638735485609e+17
19233.0	6.121477422186496e+17
19234.0	6.120378438341971e+17
19235.0	6.119213769599657e+17
19236.0	6.118096224561833e+17
19237.0	6.116923878845097e+17
19238.0	6.115601325315412e+17
19239.0	6.114616352440319e+17
19240.0	6.113167246273193e+17
19241.0	6.112217021808639e+17
19242.0	6.111131096230569e+17
19243.0	6.109841721742675e+17
19244.0	6.108859553458857e+17
19245.0	6.107704140147369e+17
19246.0	6.106540589886121e+17
19247.0	6.105384550225235e+17
19248.0	6.104235876461225e+17
19249.0	6.103068779216895e+17
19250.0	6.101923017697962e+17
19251.0	6.100705740499625e+17
19252.0	6.099302636759721e+17
19253.0	6.098459585850025e+17
19254.0	6.097275816946346e+17
19255.0	6.095973760281257e+17
19256.0	6.094826987236009e+17
19257.0	6.093857909374973e+17
19258.0	6.09271056310818e+17
19259.0	6.091484747005951e+17
19260.0	6.089511245884073e+17
19261.0	6.089238310638931e+17
19262.0	6.088042523656191e+17
19263.0	6.086899329051305e+17
19264.0	6.085305041245523e+17
19265.0	6.084458200782163e+17
19266.0	6.083343995109376e+17
19267.0	6.082331981556393e+17
19268.0	6.081154997638484e+17
19269.0	6.080016708971178e+17
19270.0	6.078841550274559e+17
19271.0	6.077383606708906e+17
19272.0	6.07652427071488e+17
19273.0	6.067209746339145e+17
19274.0	6.070243060700495e+17
19275.0	6.073096095487316e+17
19276.0	6.071922462119251e+17
19277.0	6.070757163532287e+17
19278.0	6.069604732370944e+17
19279.0	6.06823338999808e+17
19280.0	6.067223844093951e+17
19281.0	6.066145667492522e+17
19282.0	6.064999427822931e+17
19283.0	6.062783359614975e+17
19284.0	6.06045613536051e+17
19285.0	6.061302749331455e+17
19286.0	6.060344489279487e+17
19287.0	6.059220118011903e+17
19288.0	6.043668859322362e+17
19289.0	6.012067143570682e+17
19290.0	6.055746858210644e+17
19291.0	6.054337320408406e+17
19292.0	6.053428112042665e+17
19293.0	6.052262476513279e+17
19294.0	6.051097633707348e+17
19295.0	6.049949152182271e+17
19296.0	6.048782087793321e+17
19297.0	6.04756988011042e+17
19298.0	6.046434967857834e+17
19299.0	6.045300829454335e+17
19300.0	6.044138807317843e+17
19301.0	6.042964956545023e+17
19302.0	6.041792735958355e+17
19303.0	6.040528215517865e+17
19304.0	6.039414340496042e+17
19305.0	6.038293270145705e+17
19306.0	6.037081758018217e+17
19307.0	6.035832722249044e+17
19308.0	6.034719149916159e+17
19309.0	6.03158308209732e+17
19310.0	6.029342719781541e+17
19311.0	6.031104005199187e+17
19312.0	6.03008604831744e+17
19313.0	6.028787384844289e+17
19314.0	5.999705853700722e+17
19315.0	6.000812267754899e+17
19316.0	6.025287417812308e+17
19317.0	6.024232801315498e+17
19318.0	6.023052372475901e+17
19319.0	6.021852614186324e+17
19320.0	6.020625762091007e+17
19321.0	6.019479434341033e+17
19322.0	6.01810060443648e+17
19323.0	6.015995976089603e+17
19324.0	6.015888897605631e+17
19325.0	6.013057076210345e+17
19326.0	6.013537080049663e+17
19327.0	6.012335195247955e+17
19328.0	6.011174857823572e+17
19329.0	6.009969440019796e+17
19330.0	6.008654810928468e+17
19331.0	6.007460981287593e+17
19332.0	6.006279178813439e+17
19333.0	6.005054210659667e+17
19334.0	6.003847859623251e+17
19335.0	6.002685664122196e+17
19336.0	6.001451188180308e+17
19337.0	6.000263790504618e+17
19338.0	5.998862667175252e+17
19339.0	5.997829243797501e+17
19340.0	5.996563942517418e+17
19341.0	5.995396871137961e+17
19342.0	5.993705593547433e+17
19343.0	5.992955998022313e+17
19344.0	5.991714015674367e+17
19345.0	5.988490935620942e+17
19346.0	5.988772015505408e+17
19347.0	5.987925337920852e+17
19348.0	5.986761428347561e+17
19349.0	5.985437425685844e+17
19350.0	5.98417467384354e+17
19351.0	5.98294204129826e+17
19352.0	5.981652244583764e+17
19353.0	5.980457933996032e+17
19354.0	5.979178751666858e+17
19355.0	5.977808093664598e+17
19356.0	5.976613252497408e+17
19357.0	5.975324605721257e+17
19358.0	5.973942980313088e+17
19359.0	5.97229668803106e+17
19360.0	5.971375412652714e+17
19361.0	5.970048630565546e+17
19362.0	5.96878999892787e+17
19363.0	5.967458348651859e+17
19364.0	5.966105993893203e+17
19365.0	5.964731662379689e+17
19366.0	5.963303285161984e+17
19367.0	5.961924183326719e+17
19368.0	5.96056470663987e+17
19369.0	5.958988602540031e+17
19370.0	5.956760045791912e+17
19371.0	5.956318298898431e+17
19372.0	5.954950682465622e+17
19373.0	5.953479458335402e+17
19374.0	5.95206217015842e+17
19375.0	5.950593967325183e+17
19376.0	5.949112563619156e+17
19377.0	5.947624821620735e+17
19378.0	5.946119167847082e+17
19379.0	5.944586881641129e+17
19380.0	5.942927470275242e+17
19381.0	5.94124284694801e+17
19382.0	5.939534315388927e+17
19383.0	5.937905767109971e+17
19384.0	5.936366849010346e+17
19385.0	5.934711280325972e+17
19386.0	5.933026548645887e+17
19387.0	5.931298890361514e+17
19388.0	5.929470390523219e+17
19389.0	5.927610448084991e+17
19390.0	5.925713933413034e+17
19391.0	5.866304290422692e+17
19392.0	5.921952838101673e+17
19393.0	5.920119936341332e+17
19394.0	5.917924458670761e+17
19395.0	5.91577666883857e+17
19396.0	5.913659138812586e+17
19397.0	5.911715106171562e+17
19398.0	5.909292824308394e+17
19399.0	5.906368563948201e+17
19400.0	5.904525031025321e+17
19401.0	5.901934911291392e+17
19402.0	5.899355763856724e+17
19403.0	5.896778375932586e+17
19404.0	5.893842612693674e+17
19405.0	5.891087129029289e+17
19406.0	5.887900960249172e+17
19407.0	5.88488686768401e+17
19408.0	5.880503638949889e+17
19409.0	5.877716189096618e+17
19410.0	5.874364798992383e+17
19411.0	5.870887290361174e+17
19412.0	5.867073822173866e+17
19413.0	5.863024454445738e+17
19414.0	5.858844820023977e+17
19415.0	5.854447536177151e+17
19416.0	5.849146836997459e+17
19417.0	5.843614362675881e+17
19418.0	5.839323225478484e+17
19419.0	5.833526773547008e+17
19420.0	5.827679404862121e+17
19421.0	5.820994222555136e+17
19422.0	5.813813585291945e+17
19423.0	5.805875737744724e+17
19424.0	5.797157124702205e+17
19425.0	5.787386794825044e+17
19426.0	5.776801440377514e+17
19427.0	5.764488772277588e+17
19428.0	5.754041913748138e+17
19429.0	5.743221718122496e+17
19430.0	5.729511008807595e+17
19431.0	5.705402378005192e+17
19432.0	5.7042382699014816e+17
19433.0	5.688442289651712e+17
19434.0	5.670788454329002e+17
19435.0	5.649643116778836e+17
19436.0	5.62173612147779e+17
19437.0	5.5993009969998515e+17
19438.0	5.494921115642539e+17
19439.0	5.535398256181253e+17
19440.0	5.5047559609057254e+17
19441.0	5.470217712959484e+17
19442.0	5.429474399092738e+17
19443.0	5.378828239110143e+17
19444.0	5.31480396483789e+17
19445.0	5.251496390863533e+17
19446.0	5.179635597836286e+17
19447.0	5.085788959495506e+17
19448.0	4.9766860506617216e+17
19449.0	4.821644694519809e+17
19450.0	4.490767083678365e+17
19451.0	4.374247412946254e+17
19452.0	4.6771735569803994e+17
19453.0	4.9092109512212506e+17
19454.0	5.0290290715525056e+17
19455.0	5.1303780090292896e+17
19456.0	5.2093846692386157e+17
19457.0	5.272373325813073e+17
19458.0	5.294155961292198e+17
19459.0	5.3912041048855974e+17
19460.0	5.43397187577446e+17
19461.0	5.469265982739796e+17
19462.0	5.499816245897898e+17
19463.0	5.526815639251624e+17
19464.0	5.557329258872833e+17
19465.0	5.586451887904085e+17
19466.0	5.606945965386403e+17
19467.0	5.62875689004783e+17
19468.0	5.6455838700666886e+17
19469.0	5.658712219844607e+17
19470.0	5.67251243630592e+17
19471.0	5.6839748609638406e+17
19472.0	5.694087485893289e+17
19473.0	5.703248105876137e+17
19474.0	5.711436580563626e+17
19475.0	5.7201798603079654e+17
19476.0	5.7300806456224403e+17
19477.0	5.7378613528712506e+17
19478.0	5.744696701048147e+17
19479.0	5.7508515247991456e+17
19480.0	5.756223582371838e+17
19481.0	5.760869821229738e+17
19482.0	5.764899324035071e+17
19483.0	5.768740869592406e+17
19484.0	5.771860153903786e+17
19485.0	5.774837037400061e+17
19486.0	5.777272880846163e+17
19487.0	5.779867058569215e+17
19488.0	5.781826460538196e+17
19489.0	5.783622186085033e+17
19490.0	5.784222565051048e+17
19491.0	5.786846045579945e+17
19492.0	5.788084076194474e+17
19493.0	5.789321200140287e+17
19494.0	5.79041175483187e+17
19495.0	5.79167942030131e+17
19496.0	5.792164782363988e+17
19497.0	5.793349394322772e+17
19498.0	5.791481022731615e+17
19499.0	5.7050474580977363e+17
19500.0	5.794828197560319e+17
19501.0	5.795128873932116e+17
19502.0	5.795418564722687e+17
19503.0	5.795714514113876e+17
19504.0	5.795694194109097e+17
19505.0	5.79596697346594e+17
19506.0	5.795858069760681e+17
19507.0	5.795700713455615e+17
19508.0	5.79551975580194e+17
19509.0	5.795408661970943e+17
19510.0	5.794996446472873e+17
19511.0	5.718791877732976e+17
19512.0	5.783169220127348e+17
19513.0	5.767908435864186e+17
19514.0	5.77586408473666e+17
19515.0	5.791759466496003e+17
19516.0	5.792833725617491e+17
19517.0	5.792236339986432e+17
19518.0	5.791769833417386e+17
19519.0	5.79116741042722e+17
19520.0	5.790576813976234e+17
19521.0	5.789991138841939e+17
19522.0	5.789309628055551e+17
19523.0	5.788700689913172e+17
19524.0	5.788025797039444e+17
19525.0	5.78748539871778e+17
19526.0	5.786868095735124e+17
19527.0	5.786138517525844e+17
19528.0	5.785408545051988e+17
19529.0	5.784653506718378e+17
19530.0	5.783899082151252e+17
19531.0	5.783130164166655e+17
19532.0	5.782338633291092e+17
19533.0	5.781541842059263e+17
19534.0	5.780736934849193e+17
19535.0	5.779895674208255e+17
19536.0	5.779053489422335e+17
19537.0	5.778250028548095e+17
19538.0	5.777378380873727e+17
19539.0	5.776010574299139e+17
19540.0	5.775664324018176e+17
19541.0	5.774823496788649e+17
19542.0	5.773941582157142e+17
19543.0	5.773097537896447e+17
19544.0	5.772272535775914e+17
19545.0	5.771073999426898e+17
19546.0	5.76958196875264e+17
19547.0	5.769553557236393e+17
19548.0	5.768664932417535e+17
19549.0	5.767648194680148e+17
19550.0	5.766830321478314e+17
19551.0	5.765907210392918e+17
19552.0	5.764975601647615e+17
19553.0	5.7640251940317856e+17
19554.0	5.763063338762239e+17
19555.0	5.7621489902769485e+17
19556.0	5.761210293157887e+17
19557.0	5.7602561707868154e+17
19558.0	5.759306999791615e+17
19559.0	5.758326688186367e+17
19560.0	5.75737282376499e+17
19561.0	5.7564097360691194e+17
19562.0	5.7554655451108685e+17
19563.0	5.754499475963903e+17
19564.0	5.7535330607868576e+17
19565.0	5.752556155655509e+17
19566.0	5.751559990280192e+17
19567.0	5.750606921378473e+17
19568.0	5.749603773186047e+17
19569.0	5.7486216321652045e+17
19570.0	5.7476693713660576e+17
19571.0	5.746707846747475e+17
19572.0	5.745683794842964e+17
19573.0	5.744719702611283e+17
19574.0	5.7436366403447456e+17
19575.0	5.742744676859902e+17
19576.0	5.74174138606114e+17
19577.0	5.740642590261246e+17
19578.0	5.7397228052589216e+17
19579.0	5.738737285027155e+17
19580.0	5.737738162667519e+17
19581.0	5.7367506242764794e+17
19582.0	5.7357653382266874e+17
19583.0	5.7347618321203194e+17
19584.0	5.733730525467988e+17
19585.0	5.732630706956969e+17
19586.0	5.731404318332245e+17
19587.0	5.730096685339987e+17
19588.0	5.729238610433365e+17
19589.0	5.728227305717758e+17
19590.0	5.727589884755966e+17
19591.0	5.7266873292554234e+17
19592.0	5.725675978402473e+17
19593.0	5.724626614572372e+17
19594.0	5.7232878773207034e+17
19595.0	5.7226204649881594e+17
19596.0	5.707383331706206e+17
19597.0	5.720558554229418e+17
19598.0	5.7193376126074874e+17
19599.0	5.7185788406442656e+17
19600.0	5.717568861328723e+17
19601.0	5.7164900367073274e+17
19602.0	5.715491026894846e+17
19603.0	5.713080623300604e+17
19604.0	5.713411847487487e+17
19605.0	5.712185182737749e+17
19606.0	5.7114338458774176e+17
19607.0	5.7104272968034976e+17
19608.0	5.709386143323477e+17
19609.0	5.708308772028415e+17
19610.0	5.707368768383658e+17
19611.0	5.7063361559046816e+17
19612.0	5.7053261654043296e+17
19613.0	5.7042873691231565e+17
19614.0	5.703239536214014e+17
19615.0	5.702251730086569e+17
19616.0	5.7006927156783776e+17
19617.0	5.700193408253951e+17
19618.0	5.6987248328267085e+17
19619.0	5.69751813506116e+17
19620.0	5.696535218793129e+17
19621.0	5.6960939507493536e+17
19622.0	5.6950807348292256e+17
19623.0	5.6940521866308256e+17
19624.0	5.693024139651753e+17
19625.0	5.691987059539966e+17
19626.0	5.690968605633194e+17
19627.0	5.689949489026389e+17
19628.0	5.687416306270214e+17
19629.0	5.687804390539262e+17
19630.0	5.6861260649594906e+17
19631.0	5.6236216309950803e+17
19632.0	5.684781357815124e+17
19633.0	5.683708935798783e+17
19634.0	5.68276561306146e+17
19635.0	5.6817013664426656e+17
19636.0	5.680693728247806e+17
19637.0	5.679307382150486e+17
19638.0	5.6786475370414074e+17
19639.0	5.677576551574185e+17
19640.0	5.67654498837026e+17
19641.0	5.674997218192044e+17
19642.0	5.6745389562265594e+17
19643.0	5.673476920705023e+17
19644.0	5.672437993002324e+17
19645.0	5.671224561281705e+17
19646.0	5.670439140808021e+17
19647.0	5.6694137425319245e+17
19648.0	5.6683818221131085e+17
19649.0	5.667351489238356e+17
19650.0	5.666330289460564e+17
19651.0	5.665296779400532e+17
19652.0	5.664268064828073e+17
19653.0	5.6632201683053216e+17
19654.0	5.662210119084713e+17
19655.0	5.661176034405034e+17
19656.0	5.660148116750334e+17
19657.0	5.659130215093588e+17
19658.0	5.658092124154538e+17
19659.0	5.657081122127871e+17
19660.0	5.656055882536276e+17
19661.0	5.655025339247274e+17
19662.0	5.654003975192575e+17
19663.0	5.652923723109716e+17
