# Flux units: erg / (cm m2 s)
# Wavelength units: Angstrom
wave	flux
19000.0	6.516542871175168e+17
19001.0	6.515321875726336e+17
19002.0	6.514118318096383e+17
19003.0	6.512905612689405e+17
19004.0	6.511692815706793e+17
19005.0	6.510480266887167e+17
19006.0	6.509267296539987e+17
19007.0	6.508054201761791e+17
19008.0	6.506835620833961e+17
19009.0	6.50562122162722e+17
19010.0	6.504371253324458e+17
19011.0	6.503198005133311e+17
19012.0	6.501980194559315e+17
19013.0	6.500783551938559e+17
19014.0	6.499646354489343e+17
19015.0	6.498432237699072e+17
19016.0	6.497212717247146e+17
19017.0	6.496003103741268e+17
19018.0	6.494789119770623e+17
19019.0	6.49357517914112e+17
19020.0	6.492360296890368e+17
19021.0	6.49114595570483e+17
19022.0	6.489931833322154e+17
19023.0	6.488717281023316e+17
19024.0	6.487501680148479e+17
19025.0	6.486287959719936e+17
19026.0	6.485070602829823e+17
19027.0	6.483852075728895e+17
19028.0	6.482644280453802e+17
19029.0	6.481429615607807e+17
19030.0	6.48021500109346e+17
19031.0	6.479000338344617e+17
19032.0	6.477785654624255e+17
19033.0	6.476562955588948e+17
19034.0	6.475356219375615e+17
19035.0	6.474140662540969e+17
19036.0	6.472462694176083e+17
19037.0	6.471711673985705e+17
19038.0	6.470497769706836e+17
19039.0	6.469283288711167e+17
19040.0	6.468068796530687e+17
19041.0	6.46685427638818e+17
19042.0	6.465632579791529e+17
19043.0	6.464425394088617e+17
19044.0	6.463210816623956e+17
19045.0	6.46199659986944e+17
19046.0	6.460777751904255e+17
19047.0	6.459566931836927e+17
19048.0	6.458335073140733e+17
19049.0	6.457139579060223e+17
19050.0	6.455925361606655e+17
19051.0	6.454641170579455e+17
19052.0	6.453486921187327e+17
19053.0	6.452283382431743e+17
19054.0	6.451069563437055e+17
19055.0	6.449840054250153e+17
19056.0	6.448642014926163e+17
19057.0	6.447428324556799e+17
19058.0	6.446214717374463e+17
19059.0	6.445001058462378e+17
19060.0	6.443785516307795e+17
19061.0	6.442574273314815e+17
19062.0	6.441360506748927e+17
19063.0	6.440147407077376e+17
19064.0	6.43892577968674e+17
19065.0	6.437715445459625e+17
19066.0	6.436508437315583e+17
19067.0	6.435295478153215e+17
19068.0	6.434082594488319e+17
19069.0	6.432869943607295e+17
19070.0	6.431656414718633e+17
19071.0	6.430444773965823e+17
19072.0	6.429232315323732e+17
19073.0	6.428019438649344e+17
19074.0	6.426807654591145e+17
19075.0	6.42559548465698e+17
19076.0	6.424381519560703e+17
19077.0	6.423170180098729e+17
19078.0	6.421957045474644e+17
19079.0	6.420747712987135e+17
19080.0	6.419536012115967e+17
19081.0	6.418324393033727e+17
19082.0	6.417108940357631e+17
19083.0	6.415900286648319e+17
19084.0	6.414669933707263e+17
19085.0	6.413479000932351e+17
19086.0	6.412239660995923e+17
19087.0	6.411044438846121e+17
19088.0	6.40984467776034e+17
19089.0	6.408614083646804e+17
19090.0	6.40742422880802e+17
19091.0	6.406213392662527e+17
19092.0	6.405000744577706e+17
19093.0	6.403793404384598e+17
19094.0	6.402581528051711e+17
19095.0	6.401371035839146e+17
19096.0	6.40016168657442e+17
19097.0	6.398953178966697e+17
19098.0	6.397743641657344e+17
19099.0	6.39653399110178e+17
19100.0	6.395324409053184e+17
19101.0	6.394114883627689e+17
19102.0	6.392896472569172e+17
19103.0	6.391696535322623e+17
19104.0	6.390487470571519e+17
19105.0	6.389278399528959e+17
19106.0	6.388067267685033e+17
19107.0	6.386859468914687e+17
19108.0	6.385651991008596e+17
19109.0	6.38440758575104e+17
19110.0	6.383233925119999e+17
19111.0	6.382026970103807e+17
19112.0	6.380818858158762e+17
19113.0	6.379610801438719e+17
19114.0	6.378402845381971e+17
19115.0	6.377192230136489e+17
19116.0	6.375987214286845e+17
19117.0	6.374779203704148e+17
19118.0	6.373567587418111e+17
19119.0	6.371950893640361e+17
19120.0	6.371153395668308e+17
19121.0	6.369947372486656e+17
19122.0	6.368743272393386e+17
19123.0	6.36753628242466e+17
19124.0	6.366329456732841e+17
19125.0	6.365122630341972e+17
19126.0	6.363915290148863e+17
19127.0	6.3625541203613e+17
19128.0	6.36150216794658e+17
19129.0	6.36029628457506e+17
19130.0	6.359090647269376e+17
19131.0	6.35788428644625e+17
19132.0	6.356678118561108e+17
19133.0	6.355466940579839e+17
19134.0	6.354266835561129e+17
19135.0	6.353061015803219e+17
19136.0	6.351855523900074e+17
19137.0	6.350635653223763e+17
19138.0	6.349443272015871e+17
19139.0	6.348239211768489e+17
19140.0	6.347034137198591e+17
19141.0	6.345829037462867e+17
19142.0	6.344623866423977e+17
19143.0	6.343414248024746e+17
19144.0	6.342213429275305e+17
19145.0	6.341009452214953e+17
19146.0	6.339752580087808e+17
19147.0	6.338592244061524e+17
19148.0	6.337395455339178e+17
19149.0	6.336191095898111e+17
19150.0	6.334986151351636e+17
19151.0	6.333782632868521e+17
19152.0	6.332221713547264e+17
19153.0	6.330535304844627e+17
19154.0	6.32932019540241e+17
19155.0	6.328127548555263e+17
19156.0	6.326923533047124e+17
19157.0	6.32571896668706e+17
19158.0	6.324492344579412e+17
19159.0	6.323310834308435e+17
19160.0	6.322108792220329e+17
19161.0	6.320905602990079e+17
19162.0	6.31964624364066e+17
19163.0	6.318497332898473e+17
19164.0	6.317295999647743e+17
19165.0	6.316091552126291e+17
19166.0	6.31487822106897e+17
19167.0	6.313681244301993e+17
19168.0	6.312481931307688e+17
19169.0	6.311278369483433e+17
19170.0	6.310077165557076e+17
19171.0	6.30887094943744e+17
19172.0	6.307671272237738e+17
19173.0	6.306468280139776e+17
19174.0	6.305260500243795e+17
19175.0	6.304062679722665e+17
19176.0	6.302859842813951e+17
19177.0	6.301643579938131e+17
19178.0	6.300452554888531e+17
19179.0	6.29924659601954e+17
19180.0	6.298047641638227e+17
19181.0	6.296834798518272e+17
19182.0	6.295641165310633e+17
19183.0	6.294439785223508e+17
19184.0	6.293235743850496e+17
19185.0	6.292033529096873e+17
19186.0	6.290831048004948e+17
19187.0	6.289627844094633e+17
19188.0	6.288425072197632e+17
19189.0	6.287222621164884e+17
19190.0	6.286019399778303e+17
19191.0	6.284815905761961e+17
19192.0	6.283613403698516e+17
19193.0	6.282410128485033e+17
19194.0	6.281206960226303e+17
19195.0	6.280003534017875e+17
19196.0	6.278799062728704e+17
19197.0	6.277595256236713e+17
19198.0	6.276389792994644e+17
19199.0	6.274853219510953e+17
19200.0	6.273752978074282e+17
19201.0	6.272779507378857e+17
19202.0	6.271578166438569e+17
19203.0	6.270374981402623e+17
19204.0	6.269168877131092e+17
19205.0	6.267967204141737e+17
19206.0	6.266762083434495e+17
19207.0	6.265556641862996e+17
19208.0	6.264334864875519e+17
19209.0	6.263149888711337e+17
19210.0	6.261945205609812e+17
19211.0	6.260740296714921e+17
19212.0	6.259289851166715e+17
19213.0	6.255738801706324e+17
19214.0	6.254531077035348e+17
19215.0	6.25333682446882e+17
19216.0	6.252133042443604e+17
19217.0	6.250927900764842e+17
19218.0	6.249651161617748e+17
19219.0	6.248503638491135e+17
19220.0	6.247311508941482e+17
19221.0	6.246077230830932e+17
19222.0	6.244898709700605e+17
19223.0	6.243692569078441e+17
19224.0	6.242485860128086e+17
19225.0	6.241266557779967e+17
19226.0	6.240071836150441e+17
19227.0	6.238864473587712e+17
19228.0	6.237656658040148e+17
19229.0	6.236448403488768e+17
19230.0	6.235239588997801e+17
19231.0	6.234031244268884e+17
19232.0	6.232821263761407e+17
19233.0	6.231610628243455e+17
19234.0	6.230400540082175e+17
19235.0	6.229192475672576e+17
19236.0	6.227981766754303e+17
19237.0	6.226769415766015e+17
19238.0	6.225555835846655e+17
19239.0	6.224347746970282e+17
19240.0	6.223132924138836e+17
19241.0	6.221921951678463e+17
19242.0	6.22070953218321e+17
19243.0	6.219481847518548e+17
19244.0	6.21828183757073e+17
19245.0	6.217067207677268e+17
19246.0	6.215850642112511e+17
19247.0	6.214636263178239e+17
19248.0	6.213420082790399e+17
19249.0	6.212203040473087e+17
19250.0	6.210985117351933e+17
19251.0	6.209757777319252e+17
19252.0	6.208523996932778e+17
19253.0	6.207328651051007e+17
19254.0	6.206109327032319e+17
19255.0	6.204872575680511e+17
19256.0	6.203664871981055e+17
19257.0	6.202445660509524e+17
19258.0	6.200878816733865e+17
19259.0	6.198470613751124e+17
19260.0	6.197238137793194e+17
19261.0	6.196021520498687e+17
19262.0	6.194795715581268e+17
19263.0	6.193566216181076e+17
19264.0	6.1922956293789e+17
19265.0	6.191095729881087e+17
19266.0	6.189865258800468e+17
19267.0	6.188653437692585e+17
19268.0	6.187422210938196e+17
19269.0	6.186189912539135e+17
19270.0	6.184956324391593e+17
19271.0	6.183692654695764e+17
19272.0	6.182483382326611e+17
19273.0	6.181162105263444e+17
19274.0	6.179947689978538e+17
19275.0	6.178773022714538e+17
19276.0	6.177532928502441e+17
19277.0	6.176291435489962e+17
19278.0	6.175048633155583e+17
19279.0	6.173804320871763e+17
19280.0	6.172552015642623e+17
19281.0	6.171311605459626e+17
19282.0	6.170063303693652e+17
19283.0	6.168808711170729e+17
19284.0	6.167560806465536e+17
19285.0	6.16629390156322e+17
19286.0	6.165053976521386e+17
19287.0	6.16379771396642e+17
19288.0	6.162418109513727e+17
19289.0	6.160974096629759e+17
19290.0	6.160018242011136e+17
19291.0	6.158732381650943e+17
19292.0	6.157489575821312e+17
19293.0	6.156221488824319e+17
19294.0	6.154952785264639e+17
19295.0	6.153681199519059e+17
19296.0	6.152407611692372e+17
19297.0	6.151008039556438e+17
19298.0	6.148675894684329e+17
19299.0	6.147393120632831e+17
19300.0	6.146107798541652e+17
19301.0	6.144819498494633e+17
19302.0	6.143529608107347e+17
19303.0	6.142233378029565e+17
19304.0	6.140937668744532e+17
19305.0	6.139642150300329e+17
19306.0	6.138341024071679e+17
19307.0	6.137034735353855e+17
19308.0	6.135729184134484e+17
19309.0	6.134406861990569e+17
19310.0	6.13308955763234e+17
19311.0	6.131786938930516e+17
19312.0	6.130467763213652e+17
19313.0	6.129143113231018e+17
19314.0	6.127364046061567e+17
19315.0	6.126067546150228e+17
19316.0	6.125147947794431e+17
19317.0	6.123809996275711e+17
19318.0	6.122466640396287e+17
19319.0	6.121119167108435e+17
19320.0	6.119767146495999e+17
19321.0	6.118410778487465e+17
19322.0	6.117042569958739e+17
19323.0	6.115678974465364e+17
19324.0	6.114313172768084e+17
19325.0	6.112927151729321e+17
19326.0	6.11155683975714e+17
19327.0	6.11016973169459e+17
19328.0	6.10877958136354e+17
19329.0	6.10738253280051e+17
19330.0	6.104874444565164e+17
19331.0	6.102931589824511e+17
19332.0	6.101509756420095e+17
19333.0	6.100080574595071e+17
19334.0	6.098645180306772e+17
19335.0	6.097203032489983e+17
19336.0	6.095753611750058e+17
19337.0	6.094296846084778e+17
19338.0	6.092814917391699e+17
19339.0	6.091361340096511e+17
19340.0	6.0898728228509e+17
19341.0	6.088389997974868e+17
19342.0	6.086864078722388e+17
19343.0	6.085389217431551e+17
19344.0	6.08387389858338e+17
19345.0	6.082173971638953e+17
19346.0	6.079520019491497e+17
19347.0	6.077082905870335e+17
19348.0	6.07551812149794e+17
19349.0	6.073936185917439e+17
19350.0	6.072342511878141e+17
19351.0	6.070737104273407e+17
19352.0	6.069117659731284e+17
19353.0	6.067488381643433e+17
19354.0	6.065844763230207e+17
19355.0	6.064180016709632e+17
19356.0	6.061081976548012e+17
19357.0	6.058025854260564e+17
19358.0	6.056297909365418e+17
19359.0	6.054552894352042e+17
19360.0	6.052798144359081e+17
19361.0	6.051023536433834e+17
19362.0	6.049235129947476e+17
19363.0	6.046019118694403e+17
19364.0	6.042095787005267e+17
19365.0	6.040203937797459e+17
19366.0	6.038290045424979e+17
19367.0	6.036353326951082e+17
19368.0	6.034245447319551e+17
19369.0	6.028155761808724e+17
19370.0	6.026080462831615e+17
19371.0	6.023988854303402e+17
19372.0	6.021859482359124e+17
19373.0	6.015465855210842e+17
19374.0	6.012360800774825e+17
19375.0	6.010048536903679e+17
19376.0	6.005411527611731e+17
19377.0	5.999295589253119e+17
19378.0	5.996764931467945e+17
19379.0	5.992548360607059e+17
19380.0	5.988060054771027e+17
19381.0	5.985310873048404e+17
19382.0	5.982499798078803e+17
19383.0	5.979634800437929e+17
19384.0	5.976722017091583e+17
19385.0	5.973737772591786e+17
19386.0	5.970689485264212e+17
19387.0	5.967573743042559e+17
19388.0	5.964388281002668e+17
19389.0	5.961117036358313e+17
19390.0	5.957710422649514e+17
19391.0	5.953916265736874e+17
19392.0	5.950807859352916e+17
19393.0	5.947274674831359e+17
19394.0	5.943654738122068e+17
19395.0	5.93994748928546e+17
19396.0	5.936149123388756e+17
19397.0	5.932257812414463e+17
19398.0	5.928268960803498e+17
19399.0	5.924123248514388e+17
19400.0	5.919991237618345e+17
19401.0	5.915700108809556e+17
19402.0	5.911298856452095e+17
19403.0	5.906787138011135e+17
19404.0	5.902154676742825e+17
19405.0	5.897329996813652e+17
19406.0	5.892403942653951e+17
19407.0	5.887405375269545e+17
19408.0	5.882278982276435e+17
19409.0	5.877210454600362e+17
19410.0	5.872029068689407e+17
19411.0	5.866801585280339e+17
19412.0	5.861528310557354e+17
19413.0	5.855914155660628e+17
19414.0	5.850352083533823e+17
19415.0	5.844624115499007e+17
19416.0	5.838779109605375e+17
19417.0	5.832849684955136e+17
19418.0	5.826812239500628e+17
19419.0	5.820070973057706e+17
19420.0	5.813617557503999e+17
19421.0	5.80718871847458e+17
19422.0	5.799907524870143e+17
19423.0	5.792607381400233e+17
19424.0	5.784793679659008e+17
19425.0	5.776488246105428e+17
19426.0	5.766659804146346e+17
19427.0	5.756186012592813e+17
19428.0	5.743694223944359e+17
19429.0	5.727999239039652e+17
19430.0	5.707948280687271e+17
19431.0	5.678049047609347e+17
19432.0	5.6459612812301606e+17
19433.0	5.627588925281622e+17
19434.0	5.610101938672979e+17
19435.0	5.591157582419284e+17
19436.0	5.570753056123562e+17
19437.0	5.549583291645951e+17
19438.0	5.526140512195924e+17
19439.0	5.502449502650368e+17
19440.0	5.474938144161791e+17
19441.0	5.441496396333055e+17
19442.0	5.396439896511834e+17
19443.0	5.324545505711439e+17
19444.0	5.25883561825621e+17
19445.0	5.199890650322262e+17
19446.0	5.1294262683238406e+17
19447.0	5.0293748422847085e+17
19448.0	4.8811945880453216e+17
19449.0	4.679671791397543e+17
19450.0	4.2780104729122086e+17
19451.0	4.1175488687417766e+17
19452.0	4.50676040173706e+17
19453.0	4.7914507074273363e+17
19454.0	4.958875924387159e+17
19455.0	5.078946231440729e+17
19456.0	5.1588799705470304e+17
19457.0	5.2202157204220563e+17
19458.0	5.275111687629485e+17
19459.0	5.350302405012145e+17
19460.0	5.404693961725272e+17
19461.0	5.4404096696429216e+17
19462.0	5.468153024872447e+17
19463.0	5.491928558032211e+17
19464.0	5.5131880911011834e+17
19465.0	5.5330174189349536e+17
19466.0	5.5516357785026534e+17
19467.0	5.569436185176745e+17
19468.0	5.58523244015343e+17
19469.0	5.600300998765225e+17
19470.0	5.623118076138832e+17
19471.0	5.654235668545531e+17
19472.0	5.676498096051545e+17
19473.0	5.691089809134931e+17
19474.0	5.703015337383253e+17
19475.0	5.7123645437597e+17
19476.0	5.7200885614946976e+17
19477.0	5.726398956175361e+17
19478.0	5.733051396347221e+17
19479.0	5.7377381738523296e+17
19480.0	5.7434387418972154e+17
19481.0	5.7478037191174816e+17
19482.0	5.7519858281786016e+17
19483.0	5.756544327789226e+17
19484.0	5.7606687595779386e+17
19485.0	5.764463087058943e+17
19486.0	5.76815193198865e+17
19487.0	5.771736033263615e+17
19488.0	5.775174869712895e+17
19489.0	5.778536403042303e+17
19490.0	5.781656962422099e+17
19491.0	5.784804893829801e+17
19492.0	5.787789207535615e+17
19493.0	5.790720047360681e+17
19494.0	5.793586571029161e+17
19495.0	5.796383351810729e+17
19496.0	5.79907450114321e+17
19497.0	5.801745546477567e+17
19498.0	5.804191043114324e+17
19499.0	5.80592951501346e+17
19500.0	5.808754979941034e+17
19501.0	5.810853458739199e+17
19502.0	5.812842501155498e+17
19503.0	5.814726372098048e+17
19504.0	5.816511517513044e+17
19505.0	5.818196894416895e+17
19506.0	5.819786200088575e+17
19507.0	5.821281624653823e+17
19508.0	5.822689005185705e+17
19509.0	5.824007584612351e+17
19510.0	5.825246489040212e+17
19511.0	5.825644255860051e+17
19512.0	5.827474566938623e+17
19513.0	5.828407622019754e+17
19514.0	5.829516385583101e+17
19515.0	5.830491132745044e+17
19516.0	5.831352717585065e+17
19517.0	5.832104385795412e+17
19518.0	5.8328023550307e+17
19519.0	5.833433777438719e+17
19520.0	5.834005338041002e+17
19521.0	5.834523880543572e+17
19522.0	5.834986563305471e+17
19523.0	5.838098737572517e+17
19524.0	5.838935252358484e+17
19525.0	5.839188305903615e+17
19526.0	5.844222841541971e+17
19527.0	5.845057717054121e+17
19528.0	5.845097042149376e+17
19529.0	5.846499555890516e+17
19530.0	5.849763031285759e+17
19531.0	5.849625936964266e+17
19532.0	5.849459758639786e+17
19533.0	5.849265679805097e+17
19534.0	5.852645636614829e+17
19535.0	5.852681534963712e+17
19536.0	5.852356880454996e+17
19537.0	5.852011201997482e+17
19538.0	5.851635469254655e+17
19539.0	5.852093978684073e+17
19540.0	5.854048537630036e+17
19541.0	5.85358413730065e+17
19542.0	5.853101939840339e+17
19543.0	5.852603386691583e+17
19544.0	5.852089985706666e+17
19545.0	5.851523546349567e+17
19546.0	5.850941932000595e+17
19547.0	5.852295893177684e+17
19548.0	5.852434045861887e+17
19549.0	5.851816846338729e+17
19550.0	5.851203604840448e+17
19551.0	5.850569714084521e+17
19552.0	5.849923584349524e+17
19553.0	5.84926397342242e+17
19554.0	5.848593666321065e+17
19555.0	5.847917380239359e+17
19556.0	5.847227002694313e+17
19557.0	5.84652611002914e+17
19558.0	5.847091299483648e+17
19559.0	5.847062223170218e+17
19560.0	5.846319909655892e+17
19561.0	5.845568859406335e+17
19562.0	5.844809498842452e+17
19563.0	5.844042046068052e+17
19564.0	5.84326673736226e+17
19565.0	5.842483885899775e+17
19566.0	5.84169186988305e+17
19567.0	5.840896555046228e+17
19568.0	5.840092643284308e+17
19569.0	5.839281637556223e+17
19570.0	5.838465925819049e+17
19571.0	5.837643164854954e+17
19572.0	5.836814202612393e+17
19573.0	5.835978707741354e+17
19574.0	5.835138887144787e+17
19575.0	5.834292798160895e+17
19576.0	5.833441285941929e+17
19577.0	5.833847519663444e+17
19578.0	5.833174316395178e+17
19579.0	5.832304993763327e+17
19580.0	5.83142719094784e+17
19581.0	5.830543790833663e+17
19582.0	5.829658805272575e+17
19583.0	5.828768083301716e+17
19584.0	5.827872979681279e+17
19585.0	5.826967620987561e+17
19586.0	5.826059501043711e+17
19587.0	5.825162979049472e+17
19588.0	5.824214653206527e+17
19589.0	5.823340913273514e+17
19590.0	5.822418311796051e+17
19591.0	5.821503570444287e+17
19592.0	5.820579626090495e+17
19593.0	5.81965297361442e+17
19594.0	5.818702019340969e+17
19595.0	5.817788695663956e+17
19596.0	5.816836042697386e+17
19597.0	5.815915172069375e+17
19598.0	5.814946360546644e+17
19599.0	5.814030421022036e+17
19600.0	5.813083951158612e+17
19601.0	5.812131498120532e+17
19602.0	5.811179277866324e+17
19603.0	5.810189657003348e+17
19604.0	5.809271953074857e+17
19605.0	5.808289921804969e+17
19606.0	5.807354470378153e+17
19607.0	5.806392090820607e+17
19608.0	5.805427019218943e+17
19609.0	5.804458462150655e+17
19610.0	5.803492063051775e+17
19611.0	5.80252092858368e+17
19612.0	5.801549209010176e+17
19613.0	5.800575049749844e+17
19614.0	5.799599157542912e+17
19615.0	5.798621510019754e+17
19616.0	5.797638793680212e+17
19617.0	5.796712520089599e+17
19618.0	5.795728818088618e+17
19619.0	5.794731829231615e+17
19620.0	5.79375024115985e+17
19621.0	5.792821637633363e+17
19622.0	5.792558475815594e+17
19623.0	5.791856333946879e+17
19624.0	5.790863520519508e+17
19625.0	5.789869448800938e+17
19626.0	5.788874181006676e+17
19627.0	5.787877612978176e+17
19628.0	5.786872075430569e+17
19629.0	5.785873231992148e+17
19630.0	5.784861379919871e+17
19631.0	5.78351404224785e+17
19632.0	5.782877834138964e+17
19633.0	5.781875974995967e+17
19634.0	5.780872556969983e+17
19635.0	5.779868033744895e+17
19636.0	5.778862459846655e+17
19637.0	5.777824346537983e+17
19638.0	5.776848036298751e+17
19639.0	5.775840671432703e+17
19640.0	5.774828080463871e+17
19641.0	5.773744890970111e+17
19642.0	5.772811557666815e+17
19643.0	5.771800189337599e+17
19644.0	5.770785587199999e+17
19645.0	5.769751506714623e+17
19646.0	5.768762429014015e+17
19647.0	5.767748554588159e+17
19648.0	5.766733956644863e+17
19649.0	5.76571851354931e+17
19650.0	5.764702941828435e+17
19651.0	5.7636864851094176e+17
19652.0	5.762669522277716e+17
19653.0	5.761651854802943e+17
19654.0	5.7606339230870176e+17
19655.0	5.7596149525818016e+17
19656.0	5.758595646532266e+17
19657.0	5.7575767032900256e+17
19658.0	5.7565566485572256e+17
19659.0	5.7555360024275616e+17
19660.0	5.7545152157887136e+17
19661.0	5.753493865715028e+17
19662.0	5.752472073142271e+17
19663.0	5.751446077876905e+17
19664.0	5.750425948345685e+17
