# Flux units: erg / (cm m2 s)
# Wavelength units: Angstrom
wave	flux
19000.0	5.521983912192681e+17
19001.0	5.520907660077737e+17
19002.0	5.5199273044322976e+17
19003.0	5.51889736372497e+17
19004.0	5.517868723950932e+17
19005.0	5.516838175768575e+17
19006.0	5.5158118365702816e+17
19007.0	5.514758630757717e+17
19008.0	5.5137249934704634e+17
19009.0	5.512718730308266e+17
19010.0	5.511438604959742e+17
19011.0	5.5106603420658336e+17
19012.0	5.5095496994542925e+17
19013.0	5.508615010691753e+17
19014.0	5.507561893658623e+17
19015.0	5.506543562085717e+17
19016.0	5.5055097479386445e+17
19017.0	5.504499862295892e+17
19018.0	5.503474199778645e+17
19019.0	5.50245164384256e+17
19020.0	5.50141341798673e+17
19021.0	5.5003975876171085e+17
19022.0	5.4993757454117536e+17
19023.0	5.498332996698111e+17
19024.0	5.497315004863828e+17
19025.0	5.4962974890830483e+17
19026.0	5.495257751879679e+17
19027.0	5.4941983538763085e+17
19028.0	5.493225092896084e+17
19029.0	5.492191912787968e+17
19030.0	5.491179003751083e+17
19031.0	5.490156970005844e+17
19032.0	5.489130733567998e+17
19033.0	5.488063615249066e+17
19034.0	5.487075614086484e+17
19035.0	5.486043347637588e+17
19036.0	5.480886020953424e+17
19037.0	5.4840079336953165e+17
19038.0	5.482978312454143e+17
19039.0	5.4819644261444256e+17
19040.0	5.4809438016853325e+17
19041.0	5.479916986433536e+17
19042.0	5.4788524161542816e+17
19043.0	5.477875933948586e+17
19044.0	5.476847663972351e+17
19045.0	5.475828988466517e+17
19046.0	5.4747784698047136e+17
19047.0	5.4737861995397114e+17
19048.0	5.4726532523185485e+17
19049.0	5.4717092899498656e+17
19050.0	5.470698970196651e+17
19051.0	5.4690311597370003e+17
19052.0	5.468649055147349e+17
19053.0	5.4676533050081274e+17
19054.0	5.466639680842409e+17
19055.0	5.465496331048277e+17
19056.0	5.4645841712906234e+17
19057.0	5.463574607211177e+17
19058.0	5.4625451914909e+17
19059.0	5.461536887799807e+17
19060.0	5.4605072560728723e+17
19061.0	5.4595004749141325e+17
19062.0	5.458478857104042e+17
19063.0	5.4574614273064954e+17
19064.0	5.4563793541966496e+17
19065.0	5.4553404509607245e+17
19066.0	5.454377261203455e+17
19067.0	5.4533813656616954e+17
19068.0	5.452369385663145e+17
19069.0	5.451352301196627e+17
19070.0	5.4503195300331514e+17
19071.0	5.449311945665193e+17
19072.0	5.448299370075476e+17
19073.0	5.4472799507797325e+17
19074.0	5.4462656289614496e+17
19075.0	5.4452488639610874e+17
19076.0	5.444220931626323e+17
19077.0	5.4432106111740576e+17
19078.0	5.442177073151999e+17
19079.0	5.4411826575005005e+17
19080.0	5.44016164786449e+17
19081.0	5.439129009520639e+17
19082.0	5.438109962119851e+17
19083.0	5.437073943866026e+17
19084.0	5.4359963684481696e+17
19085.0	5.4350833880050336e+17
19086.0	5.4338963021059405e+17
19087.0	5.432944600547326e+17
19088.0	5.4320134084362234e+17
19089.0	5.430886619152383e+17
19090.0	5.4300038125322234e+17
19091.0	5.428995345263272e+17
19092.0	5.4279393893853856e+17
19093.0	5.426978054908585e+17
19094.0	5.4259626908057594e+17
19095.0	5.424949067339092e+17
19096.0	5.4239283240413856e+17
19097.0	5.422926102790143e+17
19098.0	5.42191134056994e+17
19099.0	5.4208982162254496e+17
19100.0	5.4198800377446394e+17
19101.0	5.418875729827157e+17
19102.0	5.4178127435967136e+17
19103.0	5.416853071462399e+17
19104.0	5.4158435905699834e+17
19105.0	5.414829617577983e+17
19106.0	5.4138007820697594e+17
19107.0	5.412801010292051e+17
19108.0	5.411799736953513e+17
19109.0	5.410457028395007e+17
19110.0	5.409778872352767e+17
19111.0	5.408768162529279e+17
19112.0	5.407759759572991e+17
19113.0	5.406749349642239e+17
19114.0	5.405739229118464e+17
19115.0	5.4047026865766394e+17
19116.0	5.403712612728832e+17
19117.0	5.4027061244723194e+17
19118.0	5.4016510438058656e+17
19119.0	5.3983527319196966e+17
19120.0	5.399648487342079e+17
19121.0	5.398659571122175e+17
19122.0	5.397673305702399e+17
19123.0	5.3966647433625594e+17
19124.0	5.39563769602594e+17
19125.0	5.394649760574122e+17
19126.0	5.3936390102056954e+17
19127.0	5.3917802904070803e+17
19128.0	5.391455921111039e+17
19129.0	5.390581175244115e+17
19130.0	5.3896109942811296e+17
19131.0	5.3886044123518285e+17
19132.0	5.387603186548735e+17
19133.0	5.386472703481173e+17
19134.0	5.3855063064794445e+17
19135.0	5.3845849206510925e+17
19136.0	5.383583464161279e+17
19137.0	5.3824979817813325e+17
19138.0	5.381558110956202e+17
19139.0	5.3805688081612794e+17
19140.0	5.3795645764403194e+17
19141.0	5.37856035730227e+17
19142.0	5.377544025713322e+17
19143.0	5.376521062929749e+17
19144.0	5.375533063864319e+17
19145.0	5.3745426467826336e+17
19146.0	5.373248585160021e+17
19147.0	5.372491910348799e+17
19148.0	5.371533089658196e+17
19149.0	5.37052779188497e+17
19150.0	5.36952551191347e+17
19151.0	5.368525090018645e+17
19152.0	5.3675191582064634e+17
19153.0	5.36651148366097e+17
19154.0	5.365459390737066e+17
19155.0	5.364520065171456e+17
19156.0	5.3635171644429645e+17
19157.0	5.362513755504639e+17
19158.0	5.361289605939198e+17
19159.0	5.3605040400629754e+17
19160.0	5.359503225301673e+17
19161.0	5.3584974556692474e+17
19162.0	5.356995346781525e+17
19163.0	5.3565113394790394e+17
19164.0	5.3555128574498125e+17
19165.0	5.354497384295081e+17
19166.0	5.353444425247402e+17
19167.0	5.3524650685453645e+17
19168.0	5.351488236814334e+17
19169.0	5.35049175896337e+17
19170.0	5.349515366236159e+17
19171.0	5.34848456499746e+17
19172.0	5.347516034493098e+17
19173.0	5.346518438860117e+17
19174.0	5.3454915082649594e+17
19175.0	5.3445224024418976e+17
19176.0	5.3435227082588154e+17
19177.0	5.342454909064532e+17
19178.0	5.341524628515498e+17
19179.0	5.340482313912319e+17
19180.0	5.3395122378069325e+17
19181.0	5.338474235647315e+17
19182.0	5.3375293323564365e+17
19183.0	5.3365419323774285e+17
19184.0	5.3355239733985274e+17
19185.0	5.334543618452138e+17
19186.0	5.3335528427574605e+17
19187.0	5.3325237737663136e+17
19188.0	5.331557986336767e+17
19189.0	5.330558847898964e+17
19190.0	5.3295610921833805e+17
19191.0	5.328554005539498e+17
19192.0	5.327578927726591e+17
19193.0	5.3265740955211085e+17
19194.0	5.325578472609109e+17
19195.0	5.3245916724155725e+17
19196.0	5.323589387550719e+17
19197.0	5.3225987985025683e+17
19198.0	5.321606892442964e+17
19199.0	5.317533777264638e+17
19200.0	5.3177315352029875e+17
19201.0	5.3186248177964365e+17
19202.0	5.31763273208081e+17
19203.0	5.316631702011903e+17
19204.0	5.315632483882324e+17
19205.0	5.314646886754986e+17
19206.0	5.313651225395198e+17
19207.0	5.31262352794146e+17
19208.0	5.3115532897594016e+17
19209.0	5.310673386995711e+17
19210.0	5.309679602586964e+17
19211.0	5.3086934706858656e+17
19212.0	5.3076996044881914e+17
19213.0	5.3066426538612045e+17
19214.0	5.3056386661089286e+17
19215.0	5.3047141289601696e+17
19216.0	5.303728373847381e+17
19217.0	5.302737061980843e+17
19218.0	5.301348755046398e+17
19219.0	5.3006842864162125e+17
19220.0	5.299751127875584e+17
19221.0	5.2986087071197856e+17
19222.0	5.2977816938304845e+17
19223.0	5.296778528860842e+17
19224.0	5.2946556650782726e+17
19225.0	5.2925653218317645e+17
19226.0	5.2916358151318176e+17
19227.0	5.2906463040197965e+17
19228.0	5.289669057052671e+17
19229.0	5.2886785644735136e+17
19230.0	5.287677523918847e+17
19231.0	5.286686889432405e+17
19232.0	5.285700979829419e+17
19233.0	5.28468366537523e+17
19234.0	5.2837149146699085e+17
19235.0	5.282720913555455e+17
19236.0	5.281747778404351e+17
19237.0	5.280748653248511e+17
19238.0	5.2797209516004685e+17
19239.0	5.2787799364293965e+17
19240.0	5.2777396127225165e+17
19241.0	5.276777908447913e+17
19242.0	5.2758026223179085e+17
19243.0	5.2747405350666234e+17
19244.0	5.27383172026641e+17
19245.0	5.272839983377066e+17
19246.0	5.2718451049540256e+17
19247.0	5.27086024462609e+17
19248.0	5.269875429736447e+17
19249.0	5.26888454988322e+17
19250.0	5.267896513768106e+17
19251.0	5.2668787980588365e+17
19252.0	5.2657738156605434e+17
19253.0	5.264926617283242e+17
19254.0	5.263942142132223e+17
19255.0	5.262861495784788e+17
19256.0	5.261960405494442e+17
19257.0	5.2609799421951994e+17
19258.0	5.2599916082845e+17
19259.0	5.258965704594773e+17
19260.0	5.257935271056724e+17
19261.0	5.2570176202560845e+17
19262.0	5.2560057549018445e+17
19263.0	5.255019066556414e+17
19264.0	5.253795800591017e+17
19265.0	5.252964183354026e+17
19266.0	5.2519706631864314e+17
19267.0	5.2510857020921165e+17
19268.0	5.2500921085242003e+17
19269.0	5.2491036760473594e+17
19270.0	5.2481148786660685e+17
19271.0	5.2469584901789005e+17
19272.0	5.246117295248725e+17
19273.0	5.2436917439255866e+17
19274.0	5.2433862182393146e+17
19275.0	5.243162030593364e+17
19276.0	5.242161221424469e+17
19277.0	5.2411722569700685e+17
19278.0	5.240182947184639e+17
19279.0	5.239177147493034e+17
19280.0	5.2381572171912525e+17
19281.0	5.237204516689236e+17
19282.0	5.236220386170196e+17
19283.0	5.2351809649377274e+17
19284.0	5.234170898939903e+17
19285.0	5.233145821528062e+17
19286.0	5.232232313301674e+17
19287.0	5.23125507891746e+17
19288.0	5.2293977788907514e+17
19289.0	5.2262840394492525e+17
19290.0	5.228272736534526e+17
19291.0	5.227155096425813e+17
19292.0	5.226282749700778e+17
19293.0	5.225283128218964e+17
19294.0	5.224285691969534e+17
19295.0	5.223294735220735e+17
19296.0	5.222294054677162e+17
19297.0	5.2212878292637005e+17
19298.0	5.2202871634001914e+17
19299.0	5.2193045938612896e+17
19300.0	5.218303953163604e+17
19301.0	5.217302147148458e+17
19302.0	5.2163028458318496e+17
19303.0	5.2152619055622816e+17
19304.0	5.214282402059604e+17
19305.0	5.213292778400426e+17
19306.0	5.2122933820129274e+17
19307.0	5.2112673538921805e+17
19308.0	5.210278040611498e+17
19309.0	5.209177989316607e+17
19310.0	5.207373303338323e+17
19311.0	5.2060535460113056e+17
19312.0	5.205062162841598e+17
19313.0	5.2040512663715834e+17
19314.0	5.199102775481673e+17
19315.0	5.198534316567219e+17
19316.0	5.2010254884754765e+17
19317.0	5.2000152365301754e+17
19318.0	5.199000863681195e+17
19319.0	5.1979964774700365e+17
19320.0	5.196978279415807e+17
19321.0	5.19596474962193e+17
19322.0	5.1949009811537914e+17
19323.0	5.193875286480213e+17
19324.0	5.192904625269419e+17
19325.0	5.191787793962324e+17
19326.0	5.1908644731617274e+17
19327.0	5.189832329046698e+17
19328.0	5.1888138688484685e+17
19329.0	5.187787573690368e+17
19330.0	5.186737679280809e+17
19331.0	5.185705928032255e+17
19332.0	5.184694736562858e+17
19333.0	5.183652243002709e+17
19334.0	5.182620361031679e+17
19335.0	5.1815834549835085e+17
19336.0	5.180541889063594e+17
19337.0	5.179498644023979e+17
19338.0	5.178354939811156e+17
19339.0	5.1774065999871994e+17
19340.0	5.176300485126826e+17
19341.0	5.1752998486234445e+17
19342.0	5.1740555524177914e+17
19343.0	5.1731912300953594e+17
19344.0	5.1721256224249165e+17
19345.0	5.169938048920231e+17
19346.0	5.169750022466219e+17
19347.0	5.168896193593342e+17
19348.0	5.1678554203968845e+17
19349.0	5.1667616542665376e+17
19350.0	5.165684801667071e+17
19351.0	5.1645919436035405e+17
19352.0	5.163488175456255e+17
19353.0	5.1624312150425594e+17
19354.0	5.1613335048683514e+17
19355.0	5.160184329885013e+17
19356.0	5.159122317432149e+17
19357.0	5.158010139006291e+17
19358.0	5.1568837188212045e+17
19359.0	5.155690148528127e+17
19360.0	5.1546217467521696e+17
19361.0	5.153483313381375e+17
19362.0	5.1523652223849805e+17
19363.0	5.151216550718122e+17
19364.0	5.150058568395434e+17
19365.0	5.1488993704236365e+17
19366.0	5.147729466490879e+17
19367.0	5.146552122561877e+17
19368.0	5.1453665822638074e+17
19369.0	5.1441346928093856e+17
19370.0	5.142800307847168e+17
19371.0	5.141726936520021e+17
19372.0	5.140530185546409e+17
19373.0	5.1392837334685005e+17
19374.0	5.1380472246872736e+17
19375.0	5.1367916318228474e+17
19376.0	5.1355235119704736e+17
19377.0	5.1342355069228365e+17
19378.0	5.1329415774207994e+17
19379.0	5.1312913921256083e+17
19380.0	5.129485350688083e+17
19381.0	5.128138983997439e+17
19382.0	5.1267404918947834e+17
19383.0	5.125351857105577e+17
19384.0	5.1240062223209805e+17
19385.0	5.122589136868694e+17
19386.0	5.121153894274388e+17
19387.0	5.1196945637922125e+17
19388.0	5.118211991273472e+17
19389.0	5.116704853415253e+17
19390.0	5.1151707713481376e+17
19391.0	5.109824108888057e+17
19392.0	5.1120177305791136e+17
19393.0	5.1104021566805325e+17
19394.0	5.1087451479517856e+17
19395.0	5.1070530007422285e+17
19396.0	5.1053314808217594e+17
19397.0	5.103578569332053e+17
19398.0	5.1017630893124256e+17
19399.0	5.099558612762623e+17
19400.0	5.0980148222798496e+17
19401.0	5.0960948964010656e+17
19402.0	5.0934146145102496e+17
19403.0	5.0908589859362125e+17
19404.0	5.088753457212074e+17
19405.0	5.0865735928381434e+17
19406.0	5.0843447431877965e+17
19407.0	5.0820388973008205e+17
19408.0	5.079270618912085e+17
19409.0	5.0771657235278496e+17
19410.0	5.0736761478840314e+17
19411.0	5.070391025685844e+17
19412.0	5.0676252051592525e+17
19413.0	5.064760501119657e+17
19414.0	5.0614332785950694e+17
19415.0	5.056655593745066e+17
19416.0	5.0532799116301645e+17
19417.0	5.049236689256446e+17
19418.0	5.043805789792938e+17
19419.0	5.0398271506131603e+17
19420.0	5.033111757433514e+17
19421.0	5.0274492240363475e+17
19422.0	5.0206318079071546e+17
19423.0	5.0120929068100256e+17
19424.0	5.002411050183341e+17
19425.0	4.9903077834096634e+17
19426.0	4.976370506880347e+17
19427.0	4.96297150705391e+17
19428.0	4.954596124393471e+17
19429.0	4.946042882271913e+17
19430.0	4.936756322719061e+17
19431.0	4.926210415001601e+17
19432.0	4.916334836755114e+17
19433.0	4.905018192123221e+17
19434.0	4.892085581425322e+17
19435.0	4.8791335406141434e+17
19436.0	4.864735668688213e+17
19437.0	4.8495334613756576e+17
19438.0	4.825789612687356e+17
19439.0	4.8116830568448026e+17
19440.0	4.7860948629367424e+17
19441.0	4.747656204473685e+17
19442.0	4.689648507595429e+17
19443.0	4.64805268885777e+17
19444.0	4.606988080818856e+17
19445.0	4.55950815059422e+17
19446.0	4.500037981700095e+17
19447.0	4.396468053300567e+17
19448.0	4.279529299596637e+17
19449.0	4.097685358029476e+17
19450.0	3.6415972814356454e+17
19451.0	3.5028737042240774e+17
19452.0	3.896778384474134e+17
19453.0	4.2095813147142944e+17
19454.0	4.332851132628982e+17
19455.0	4.452191513346046e+17
19456.0	4.525309447634948e+17
19457.0	4.575170186444797e+17
19458.0	4.608372535285092e+17
19459.0	4.654517612882603e+17
19460.0	4.705165402352297e+17
19461.0	4.75306941515913e+17
19462.0	4.7816027794309114e+17
19463.0	4.802261211414528e+17
19464.0	4.81895484961587e+17
19465.0	4.833232895868928e+17
19466.0	4.846493675902291e+17
19467.0	4.8580399412019194e+17
19468.0	4.869098864028329e+17
19469.0	4.8790874808647674e+17
19470.0	4.8884304887589536e+17
19471.0	4.896797828142421e+17
19472.0	4.904468798417578e+17
19473.0	4.911486582740308e+17
19474.0	4.91780666556416e+17
19475.0	4.9255833385915654e+17
19476.0	4.93970171817711e+17
19477.0	4.950083339900245e+17
19478.0	4.958736315580415e+17
19479.0	4.965495572791297e+17
19480.0	4.970789512151039e+17
19481.0	4.97649300082961e+17
19482.0	4.97978338058786e+17
19483.0	4.9836041321840634e+17
19484.0	4.9858973532159994e+17
19485.0	4.989379091103743e+17
19486.0	4.990943753142272e+17
19487.0	4.9926476353153683e+17
19488.0	4.995420735056553e+17
19489.0	4.996449406986921e+17
19490.0	4.996648104449363e+17
19491.0	4.9981909987491834e+17
19492.0	4.9998303033207443e+17
19493.0	5.0010864351532365e+17
19494.0	5.0016229278788256e+17
19495.0	5.002078680252415e+17
19496.0	5.0022714623481165e+17
19497.0	5.002764472025087e+17
19498.0	5.002930955135658e+17
19499.0	4.9968545047510944e+17
19500.0	5.003517783703551e+17
19501.0	5.004590669889535e+17
19502.0	5.0046158531898016e+17
19503.0	5.0046033541638816e+17
19504.0	5.004537514076842e+17
19505.0	5.0044375826868896e+17
19506.0	5.0042984072915616e+17
19507.0	5.0041059097094816e+17
19508.0	5.003902781663914e+17
19509.0	5.0036539014512634e+17
19510.0	5.003278210651476e+17
19511.0	4.995336732934135e+17
19512.0	5.002058924381521e+17
19513.0	5.0005046886836864e+17
19514.0	5.000859944834387e+17
19515.0	5.001283983376384e+17
19516.0	5.001132724890281e+17
19517.0	5.0006450014344525e+17
19518.0	5.00020904337954e+17
19519.0	4.999712079172949e+17
19520.0	4.999188721609387e+17
19521.0	4.9986757554339834e+17
19522.0	4.9981127344346445e+17
19523.0	4.997571899206314e+17
19524.0	4.9969976346760525e+17
19525.0	4.996397237534719e+17
19526.0	4.995806860585641e+17
19527.0	4.995191339483135e+17
19528.0	4.9949444159132986e+17
19529.0	4.994694041130325e+17
19530.0	4.994052039289514e+17
19531.0	4.993392972922879e+17
19532.0	4.9927243505336314e+17
19533.0	4.9920465167537485e+17
19534.0	4.991359216429738e+17
19535.0	4.990654109887146e+17
19536.0	4.9899425895546874e+17
19537.0	4.9892520826852685e+17
19538.0	4.988520679953749e+17
19539.0	4.987504788067671e+17
19540.0	4.987064925115732e+17
19541.0	4.9863400375364256e+17
19542.0	4.985593642964309e+17
19543.0	4.9848452560977914e+17
19544.0	4.9840920359949645e+17
19545.0	4.98316979942195e+17
19546.0	4.9820658844740256e+17
19547.0	4.981799376300714e+17
19548.0	4.9810265478266874e+17
19549.0	4.98019805884143e+17
19550.0	4.9794647050594976e+17
19551.0	4.978679249633279e+17
19552.0	4.9778881444795725e+17
19553.0	4.9770853134499834e+17
19554.0	4.9762751920209914e+17
19555.0	4.975488531431423e+17
19556.0	4.9746914850461005e+17
19557.0	4.973881806116181e+17
19558.0	4.973071160399188e+17
19559.0	4.972254705571157e+17
19560.0	4.971430787678207e+17
19561.0	4.970611556919979e+17
19562.0	4.969800773490005e+17
19563.0	4.968980534700714e+17
19564.0	4.9681551348203514e+17
19565.0	4.9673270394006176e+17
19566.0	4.966481530628779e+17
19567.0	4.9656638909098656e+17
19568.0	4.964817570540202e+17
19569.0	4.9639828460229965e+17
19570.0	4.9631559942144e+17
19571.0	4.9623150684187296e+17
19572.0	4.9614566523753805e+17
19573.0	4.960624788373504e+17
19574.0	4.959739003797503e+17
19575.0	4.958940711703893e+17
19576.0	4.958091070843561e+17
19577.0	4.957215682549077e+17
19578.0	4.9563719759298554e+17
19579.0	4.9555278226172576e+17
19580.0	4.954677972041727e+17
19581.0	4.953826267583828e+17
19582.0	4.952980573563562e+17
19583.0	4.9521243427525965e+17
19584.0	4.951265554115242e+17
19585.0	4.9503538522357754e+17
19586.0	4.949481432110422e+17
19587.0	4.948667269469523e+17
19588.0	4.947596442686804e+17
19589.0	4.9469542493061114e+17
19590.0	4.946053700080981e+17
19591.0	4.945235835267755e+17
19592.0	4.9443739603217043e+17
19593.0	4.9435000910643194e+17
19594.0	4.9425173859095885e+17
19595.0	4.941767680633514e+17
19596.0	4.9405316122542086e+17
19597.0	4.9400343935931725e+17
19598.0	4.938991019229182e+17
19599.0	4.938301729406975e+17
19600.0	4.9374366185553914e+17
19601.0	4.93653376316211e+17
19602.0	4.9356759510985376e+17
19603.0	4.9345749721634125e+17
19604.0	4.933931286309547e+17
19605.0	4.932930128314368e+17
19606.0	4.9322022019618125e+17
19607.0	4.9313343808907936e+17
19608.0	4.9304528654172154e+17
19609.0	4.929560232940883e+17
19610.0	4.928712933900287e+17
19611.0	4.9278324760903674e+17
19612.0	4.926964292911104e+17
19613.0	4.92608299274513e+17
19614.0	4.9251943819072845e+17
19615.0	4.9243381175418874e+17
19616.0	4.923429209767934e+17
19617.0	4.922582287515647e+17
19618.0	4.921455741501439e+17
19619.0	4.920469165703166e+17
19620.0	4.919628373426175e+17
19621.0	4.919075239100415e+17
19622.0	4.918201347473407e+17
19623.0	4.9173237921218554e+17
19624.0	4.9164413860577274e+17
19625.0	4.915567563636734e+17
19626.0	4.9146876426977274e+17
19627.0	4.913811540672511e+17
19628.0	4.91285828861952e+17
19629.0	4.9120106176839674e+17
19630.0	4.9111477025505274e+17
19631.0	4.906872375083005e+17
19632.0	4.9094158786232314e+17
19633.0	4.90851840242483e+17
19634.0	4.9076593886931616e+17
19635.0	4.90676222497041e+17
19636.0	4.9058964409330336e+17
19637.0	4.9048476873741645e+17
19638.0	4.9041367961873056e+17
19639.0	4.903258525007871e+17
19640.0	4.902354275707562e+17
19641.0	4.901054188967255e+17
19642.0	4.9006185692528634e+17
19643.0	4.899734760194047e+17
19644.0	4.898833670602751e+17
19645.0	4.8978486466969594e+17
19646.0	4.8971028896590496e+17
19647.0	4.896223886573568e+17
19648.0	4.8953418635892045e+17
19649.0	4.89446036279569e+17
19650.0	4.893583349208405e+17
19651.0	4.892700612493311e+17
19652.0	4.891820278415359e+17
19653.0	4.890943077482496e+17
19654.0	4.890059975163904e+17
19655.0	4.889178703659008e+17
