# Flux units: erg / (cm m2 s)
# Wavelength units: Angstrom
wave	flux
19000.0	7.259856715819689e+17
19001.0	7.258279225502378e+17
19002.0	7.2571218310813e+17
19003.0	7.255736908251135e+17
19004.0	7.254361288387241e+17
19005.0	7.252988020129791e+17
19006.0	7.251618224756051e+17
19007.0	7.249846807997098e+17
19008.0	7.248708282351615e+17
19009.0	7.247445273957716e+17
19010.0	7.245094123296082e+17
19011.0	7.24470551683618e+17
19012.0	7.24286212022818e+17
19013.0	7.242003774089898e+17
19014.0	7.240499211534333e+17
19015.0	7.239189004637526e+17
19016.0	7.23780253131298e+17
19017.0	7.235793830193832e+17
19018.0	7.235100085321725e+17
19019.0	7.233760810500096e+17
19020.0	7.232234746544127e+17
19021.0	7.230940925394943e+17
19022.0	7.229671413033641e+17
19023.0	7.228210673964372e+17
19024.0	7.226889601023999e+17
19025.0	7.225508992734547e+17
19026.0	7.224108309108051e+17
19027.0	7.22257914975573e+17
19028.0	7.221456021400233e+17
19029.0	7.220048601721513e+17
19030.0	7.218744278035113e+17
19031.0	7.217389509454505e+17
19032.0	7.216012432769023e+17
19033.0	7.214445932926292e+17
19034.0	7.213235571436202e+17
19035.0	7.211831426110803e+17
19036.0	7.186662962495468e+17
19037.0	7.209148910054058e+17
19038.0	7.207760679316138e+17
19039.0	7.20643566932241e+17
19040.0	7.205078321244842e+17
19041.0	7.203698596555433e+17
19042.0	7.202150403451562e+17
19043.0	7.200977860602538e+17
19044.0	7.199591016781139e+17
19045.0	7.198242093662207e+17
19046.0	7.196742249698644e+17
19047.0	7.195520991406761e+17
19048.0	7.193698991341565e+17
19049.0	7.192633362699603e+17
19050.0	7.191320516187476e+17
19051.0	7.186858842084686e+17
19052.0	7.188488129260204e+17
19053.0	7.187228708394326e+17
19054.0	7.185955643457535e+17
19055.0	7.184054302539777e+17
19056.0	7.183184897419945e+17
19057.0	7.18185999508002e+17
19058.0	7.180374747294377e+17
19059.0	7.179145740724906e+17
19060.0	7.177741986867881e+17
19061.0	7.176436555885225e+17
19062.0	7.175060189435219e+17
19063.0	7.173709676675071e+17
19064.0	7.172062707711999e+17
19065.0	7.170581030677161e+17
19066.0	7.169485250581844e+17
19067.0	7.168238047723519e+17
19068.0	7.166902992371711e+17
19069.0	7.165546759979008e+17
19070.0	7.164120839225343e+17
19071.0	7.162803250353492e+17
19072.0	7.161468406114986e+17
19073.0	7.160092659023871e+17
19074.0	7.158755281425748e+17
19075.0	7.157398622612138e+17
19076.0	7.155989892912468e+17
19077.0	7.154659131129855e+17
19078.0	7.153120411560616e+17
19079.0	7.151957089189887e+17
19080.0	7.150574470430719e+17
19081.0	7.149132724568061e+17
19082.0	7.14772216615185e+17
19083.0	7.146272880328701e+17
19084.0	7.144625161983316e+17
19085.0	7.143789908284756e+17
19086.0	7.141569707988308e+17
19087.0	7.140464991229268e+17
19088.0	7.139578234273791e+17
19089.0	7.137644086908246e+17
19090.0	7.136960752298666e+17
19091.0	7.135616805022378e+17
19092.0	7.13403883655441e+17
19093.0	7.132965950368425e+17
19094.0	7.131597684517545e+17
19095.0	7.130248311209983e+17
19096.0	7.128804113077587e+17
19097.0	7.127549071065088e+17
19098.0	7.126195830609236e+17
19099.0	7.124824000998058e+17
19100.0	7.123454946618025e+17
19101.0	7.122136799903743e+17
19102.0	7.120609990759763e+17
19103.0	7.11943001280785e+17
19104.0	7.118095211910483e+17
19105.0	7.116729780011005e+17
19106.0	7.115259950486868e+17
19107.0	7.11399425773841e+17
19108.0	7.112687347564544e+17
19109.0	7.108660095702351e+17
19110.0	7.109971265890985e+17
19111.0	7.108627861078015e+17
19112.0	7.107287457988607e+17
19113.0	7.105930684530688e+17
19114.0	7.104577736278016e+17
19115.0	7.103098128433152e+17
19116.0	7.101837537356457e+17
19117.0	7.100496973485395e+17
19118.0	7.098889362472959e+17
19119.0	7.093019035566072e+17
19120.0	7.096290382970879e+17
19121.0	7.095041070377641e+17
19122.0	7.0937969964701e+17
19123.0	7.092382394744832e+17
19124.0	7.090975284046506e+17
19125.0	7.089706160357373e+17
19126.0	7.088270715737428e+17
19127.0	7.083547161875791e+17
19128.0	7.083231589433339e+17
19129.0	7.084160995469993e+17
19130.0	7.082991409605289e+17
19131.0	7.081587700487508e+17
19132.0	7.080319203147773e+17
19133.0	7.077200499048452e+17
19134.0	7.076419000948055e+17
19135.0	7.076281416592041e+17
19136.0	7.074955816599551e+17
19137.0	7.073266054550868e+17
19138.0	7.071800012483242e+17
19139.0	7.070915468722175e+17
19140.0	7.069577435414527e+17
19141.0	7.068234998087679e+17
19142.0	7.066826843007657e+17
19143.0	7.065414299287552e+17
19144.0	7.064100040693075e+17
19145.0	7.062845950787583e+17
19146.0	7.060190009840982e+17
19147.0	7.059993369684649e+17
19148.0	7.05881695129873e+17
19149.0	7.057473120064854e+17
19150.0	7.056107340038143e+17
19151.0	7.054801467255466e+17
19152.0	7.053370771985747e+17
19153.0	7.052084461436927e+17
19154.0	7.050521818955775e+17
19155.0	7.049447088674131e+17
19156.0	7.048104891820713e+17
19157.0	7.046733165669033e+17
19158.0	7.04354943727479e+17
19159.0	7.04404584993041e+17
19160.0	7.042606078186836e+17
19161.0	7.04114620034799e+17
19162.0	7.035948979541336e+17
19163.0	7.038710830858237e+17
19164.0	7.037401991304531e+17
19165.0	7.035990533909161e+17
19166.0	7.034444126180692e+17
19167.0	7.032995468105043e+17
19168.0	7.031626600371539e+17
19169.0	7.030451221473962e+17
19170.0	7.029373386708308e+17
19171.0	7.027842531459071e+17
19172.0	7.026675334250493e+17
19173.0	7.025360126345215e+17
19174.0	7.023908098146303e+17
19175.0	7.02268909359377e+17
19176.0	7.021345431530153e+17
19177.0	7.019701885119145e+17
19178.0	7.018643841875968e+17
19179.0	7.017068921268906e+17
19180.0	7.015209297597782e+17
19181.0	7.014453936302761e+17
19182.0	7.01296657109265e+17
19183.0	7.011922386528937e+17
19184.0	7.010264613737811e+17
19185.0	7.009296325804032e+17
19186.0	7.008006015986346e+17
19187.0	7.0064775116445e+17
19188.0	7.005302546584916e+17
19189.0	7.003896026584404e+17
19190.0	7.002545016100179e+17
19191.0	7.001218588431699e+17
19192.0	6.999937536841044e+17
19193.0	6.997888377465513e+17
19194.0	6.996965506853546e+17
19195.0	6.995922423294634e+17
19196.0	6.994628416897023e+17
19197.0	6.993310324708691e+17
19198.0	6.991964376050345e+17
19199.0	6.966477532605092e+17
19200.0	6.973848850617693e+17
19201.0	6.987945032548351e+17
19202.0	6.986643588950697e+17
19203.0	6.985270174591657e+17
19204.0	6.983922741848746e+17
19205.0	6.982628752927401e+17
19206.0	6.981287812967081e+17
19207.0	6.979809616505513e+17
19208.0	6.978200136930643e+17
19209.0	6.977278547678548e+17
19210.0	6.975968349869396e+17
19211.0	6.97464589979921e+17
19212.0	6.973342075934036e+17
19213.0	6.971616393166845e+17
19214.0	6.970157010255872e+17
19215.0	6.969269946417151e+17
19216.0	6.967873236893695e+17
19217.0	6.966672313985706e+17
19218.0	6.963643239366652e+17
19219.0	6.963676015056211e+17
19220.0	6.962636018505044e+17
19221.0	6.960645752051028e+17
19222.0	6.96004493058594e+17
19223.0	6.958662084635304e+17
19224.0	6.957049046892543e+17
19225.0	6.955676456015188e+17
19226.0	6.954666173311657e+17
19227.0	6.953334114790057e+17
19228.0	6.952067957172905e+17
19229.0	6.950738313871359e+17
19230.0	6.949275684569087e+17
19231.0	6.947951542796287e+17
19232.0	6.946516610580479e+17
19233.0	6.945235606525267e+17
19234.0	6.944011642907306e+17
19235.0	6.942657213366272e+17
19236.0	6.941415031089833e+17
19237.0	6.940045381817684e+17
19238.0	6.938532107692712e+17
19239.0	6.937426853363711e+17
19240.0	6.935282275669331e+17
19241.0	6.934497591995049e+17
19242.0	6.93335095386658e+17
19243.0	6.931696182099965e+17
19244.0	6.930770262928041e+17
19245.0	6.929436981067775e+17
19246.0	6.928084982125908e+17
19247.0	6.926740891544233e+17
19248.0	6.925463771414527e+17
19249.0	6.924130185467219e+17
19250.0	6.922763899327828e+17
19251.0	6.921276363549352e+17
19252.0	6.919349619130367e+17
19253.0	6.91877007397137e+17
19254.0	6.917362030040404e+17
19255.0	6.915693465305087e+17
19256.0	6.914721658350249e+17
19257.0	6.913486542077951e+17
19258.0	6.912152914187603e+17
19259.0	6.910652359988563e+17
19260.0	6.909200294739965e+17
19261.0	6.908142710074025e+17
19262.0	6.906699743668906e+17
19263.0	6.90540166390306e+17
19264.0	6.903075889479677e+17
19265.0	6.902443982629545e+17
19266.0	6.90123404476416e+17
19267.0	6.900179021419859e+17
19268.0	6.898822063412564e+17
19269.0	6.897494431978836e+17
19270.0	6.8961541568157e+17
19271.0	6.894140484747267e+17
19272.0	6.89342239613474e+17
19273.0	6.87182072110555e+17
19274.0	6.881055459333448e+17
19275.0	6.889496835872084e+17
19276.0	6.888118214284627e+17
19277.0	6.886776020926463e+17
19278.0	6.885452080480255e+17
19279.0	6.883915224580095e+17
19280.0	6.882585789595647e+17
19281.0	6.881428293113171e+17
19282.0	6.880119011060393e+17
19283.0	6.878380150489087e+17
19284.0	6.876499362359976e+17
19285.0	6.875584461624659e+17
19286.0	6.874682189938687e+17
19287.0	6.873417055032659e+17
19288.0	6.866711568100008e+17
19289.0	6.854107410552114e+17
19290.0	6.869384080042665e+17
19291.0	6.86745423183872e+17
19292.0	6.866687471124479e+17
19293.0	6.86532536181282e+17
19294.0	6.863966180125354e+17
19295.0	6.862643216252928e+17
19296.0	6.861277285231274e+17
19297.0	6.8598658774685e+17
19298.0	6.858517930923348e+17
19299.0	6.857227832918015e+17
19300.0	6.855874474322602e+17
19301.0	6.854494370048681e+17
19302.0	6.853126116081664e+17
19303.0	6.851559731582292e+17
19304.0	6.850273678983167e+17
19305.0	6.849030250998442e+17
19306.0	6.847667906106707e+17
19307.0	6.846188217871017e+17
19308.0	6.844887559307263e+17
19309.0	6.842842124473684e+17
19310.0	6.841025783223635e+17
19311.0	6.840732195225597e+17
19312.0	6.839410998553258e+17
19313.0	6.837624710889473e+17
19314.0	6.829006873690097e+17
19315.0	6.828181168324623e+17
19316.0	6.833949970006015e+17
19317.0	6.83258136231936e+17
19318.0	6.831181316227071e+17
19319.0	6.829823903137791e+17
19320.0	6.828316852660905e+17
19321.0	6.827043269727571e+17
19322.0	6.825284588273661e+17
19323.0	6.823820974708052e+17
19324.0	6.822832481413801e+17
19325.0	6.820892041893204e+17
19326.0	6.820034181595135e+17
19327.0	6.818594569235114e+17
19328.0	6.817229814016682e+17
19329.0	6.815812965542569e+17
19330.0	6.814303567653546e+17
19331.0	6.812879586765481e+17
19332.0	6.811531520682665e+17
19333.0	6.810068249651881e+17
19334.0	6.808520593418921e+17
19335.0	6.807201906338474e+17
19336.0	6.805741250456233e+17
19337.0	6.804283293608617e+17
19338.0	6.802405326847997e+17
19339.0	6.801386747811155e+17
19340.0	6.799821726460585e+17
19341.0	6.798455968803497e+17
19342.0	6.796062046726824e+17
19343.0	6.79551393997346e+17
19344.0	6.793993989215571e+17
19345.0	6.788155648070985e+17
19346.0	6.789940759232513e+17
19347.0	6.789384821014527e+17
19348.0	6.788028364226559e+17
19349.0	6.786401253195775e+17
19350.0	6.784875377983487e+17
19351.0	6.783318800465917e+17
19352.0	6.78171166061363e+17
19353.0	6.780328958667434e+17
19354.0	6.77875575562786e+17
19355.0	6.77697014534417e+17
19356.0	6.775591606943743e+17
19357.0	6.773983480730963e+17
19358.0	6.772212124789417e+17
19359.0	6.769662446534656e+17
19360.0	6.76907090846242e+17
19361.0	6.767392847123796e+17
19362.0	6.765886164347561e+17
19363.0	6.764160819920895e+17
19364.0	6.762462751752191e+17
19365.0	6.7607705695901e+17
19366.0	6.759077508721321e+17
19367.0	6.7573468626944e+17
19368.0	6.755609661669375e+17
19369.0	6.753434845839359e+17
19370.0	6.749508980790611e+17
19371.0	6.750145159539369e+17
19372.0	6.748444406317055e+17
19373.0	6.74653056078097e+17
19374.0	6.744710318828202e+17
19375.0	6.742818635295401e+17
19376.0	6.740826701605546e+17
19377.0	6.738867716270762e+17
19378.0	6.736900663192234e+17
19379.0	6.734880246682964e+17
19380.0	6.732853475104084e+17
19381.0	6.730762784429395e+17
19382.0	6.728452725364052e+17
19383.0	6.726195378913279e+17
19384.0	6.724164619250345e+17
19385.0	6.721909659358548e+17
19386.0	6.719635718143997e+17
19387.0	6.717297723615914e+17
19388.0	6.714912969588735e+17
19389.0	6.712458211928745e+17
19390.0	6.709849185670484e+17
19391.0	6.686383184456329e+17
19392.0	6.704656224878591e+17
19393.0	6.701997672977748e+17
19394.0	6.699015530523305e+17
19395.0	6.696061918423724e+17
19396.0	6.693109524769449e+17
19397.0	6.690060523012095e+17
19398.0	6.686859284796755e+17
19399.0	6.682268165384872e+17
19400.0	6.680090280722431e+17
19401.0	6.676593769097898e+17
19402.0	6.672954628068691e+17
19403.0	6.669191543259136e+17
19404.0	6.665381896082772e+17
19405.0	6.661194027543209e+17
19406.0	6.656927740198911e+17
19407.0	6.652633690057385e+17
19408.0	6.646600056526167e+17
19409.0	6.642823603071657e+17
19410.0	6.638130611705171e+17
19411.0	6.632624980230143e+17
19412.0	6.62713048043793e+17
19413.0	6.621091471207082e+17
19414.0	6.614800015207082e+17
19415.0	6.607862815348054e+17
19416.0	6.600326968770559e+17
19417.0	6.592720626428585e+17
19418.0	6.584920570855424e+17
19419.0	6.575819401636522e+17
19420.0	6.566620580631892e+17
19421.0	6.55760311783697e+17
19422.0	6.547847362467156e+17
19423.0	6.537750266249213e+17
19424.0	6.526709102804992e+17
19425.0	6.515086398412115e+17
19426.0	6.502042663824042e+17
19427.0	6.487906435377834e+17
19428.0	6.473304804163581e+17
19429.0	6.456558157649235e+17
19430.0	6.437702220120064e+17
19431.0	6.413210682916874e+17
19432.0	6.394135711842301e+17
19433.0	6.371812704605526e+17
19434.0	6.34918534119424e+17
19435.0	6.324146242497192e+17
19436.0	6.295489451043494e+17
19437.0	6.266843387920383e+17
19438.0	6.21019337466402e+17
19439.0	6.19332539322641e+17
19440.0	6.147164714216108e+17
19441.0	6.1012331490618e+17
19442.0	6.052972437263703e+17
19443.0	5.997940695542442e+17
19444.0	5.933376622034941e+17
19445.0	5.858575742140421e+17
19446.0	5.779569722261504e+17
19447.0	5.685297654267899e+17
19448.0	5.57572007954569e+17
19449.0	5.426425033129984e+17
19450.0	5.082166585895565e+17
19451.0	4.945578995744765e+17
19452.0	5.2825166642326246e+17
19453.0	5.5094678518060435e+17
19454.0	5.6281965869574765e+17
19455.0	5.728081970287958e+17
19456.0	5.811242916642819e+17
19457.0	5.885115667666258e+17
19458.0	5.944708196990993e+17
19459.0	6.010252789721773e+17
19460.0	6.05914020463684e+17
19461.0	6.10268984831727e+17
19462.0	6.147844142530557e+17
19463.0	6.187837386915837e+17
19464.0	6.221818769003862e+17
19465.0	6.251516753783466e+17
19466.0	6.276791917696338e+17
19467.0	6.301144568911188e+17
19468.0	6.322221581948246e+17
19469.0	6.339095985564329e+17
19470.0	6.362524526750377e+17
19471.0	6.382175040219817e+17
19472.0	6.39909559166566e+17
19473.0	6.413894553698301e+17
19474.0	6.427227147206655e+17
19475.0	6.437713553129468e+17
19476.0	6.449734415810559e+17
19477.0	6.459468969672704e+17
19478.0	6.468380856243539e+17
19479.0	6.476263370435241e+17
19480.0	6.483692627165183e+17
19481.0	6.490405895929855e+17
19482.0	6.496860004941824e+17
19483.0	6.503737969344511e+17
19484.0	6.509666541851988e+17
19485.0	6.515012990402559e+17
19486.0	6.519867101063849e+17
19487.0	6.524211856845481e+17
19488.0	6.528356598852266e+17
19489.0	6.531939870354089e+17
19490.0	6.532435084836858e+17
19491.0	6.538000963993597e+17
19492.0	6.540763471020031e+17
19493.0	6.543049938523476e+17
19494.0	6.545404288740009e+17
19495.0	6.547078178144253e+17
19496.0	6.548164885260968e+17
19497.0	6.550618887247188e+17
19498.0	6.551221095628804e+17
19499.0	6.519401168415364e+17
19500.0	6.554495192399871e+17
19501.0	6.555509651232084e+17
19502.0	6.556501194484394e+17
19503.0	6.557384753982121e+17
19504.0	6.557925414447785e+17
19505.0	6.558599560036351e+17
19506.0	6.559141353663146e+17
19507.0	6.55945295340066e+17
19508.0	6.55981656740113e+17
19509.0	6.560189121560575e+17
19510.0	6.559984227013972e+17
19511.0	6.536527130307226e+17
19512.0	6.556321356010817e+17
19513.0	6.550431419334637e+17
19514.0	6.553955783933943e+17
19515.0	6.558854654809434e+17
19516.0	6.559945498208938e+17
19517.0	6.559555467782825e+17
19518.0	6.559384174504617e+17
19519.0	6.559048483383977e+17
19520.0	6.558657057652736e+17
19521.0	6.55833176351266e+17
19522.0	6.557811190966953e+17
19523.0	6.557425749109418e+17
19524.0	6.556895022852778e+17
19525.0	6.556187951278761e+17
19526.0	6.555731038481066e+17
19527.0	6.555105402115412e+17
19528.0	6.554512980443133e+17
19529.0	6.553887475499008e+17
19530.0	6.553223978549247e+17
19531.0	6.552539933704191e+17
19532.0	6.55180993466641e+17
19533.0	6.55107757842978e+17
19534.0	6.550315969019903e+17
19535.0	6.549484906829139e+17
19536.0	6.548659183288319e+17
19537.0	6.547927617677994e+17
19538.0	6.547034827216212e+17
19539.0	6.545082809319429e+17
19540.0	6.545347283954346e+17
19541.0	6.544544985601364e+17
19542.0	6.543649306662228e+17
19543.0	6.542755504674131e+17
19544.0	6.54187542155537e+17
19545.0	6.540309873120591e+17
19546.0	6.538120315011072e+17
19547.0	6.53909395907106e+17
19548.0	6.53821464420898e+17
19549.0	6.537025275909459e+17
19550.0	6.536298545632596e+17
19551.0	6.535338593878015e+17
19552.0	6.534355376319145e+17
19553.0	6.533337060824404e+17
19554.0	6.532294553283242e+17
19555.0	6.531353480790015e+17
19556.0	6.530375012581375e+17
19557.0	6.52935743738129e+17
19558.0	6.5283416405661e+17
19559.0	6.527237092977322e+17
19560.0	6.526233524655443e+17
19561.0	6.525195965693951e+17
19562.0	6.524199388577791e+17
19563.0	6.523148384774825e+17
19564.0	6.522121135412566e+17
19565.0	6.521054294616745e+17
19566.0	6.519948207019348e+17
19567.0	6.518931057541119e+17
19568.0	6.517816307307859e+17
19569.0	6.516807424103763e+17
19570.0	6.515788451501395e+17
19571.0	6.51472357363985e+17
19572.0	6.513559810168148e+17
19573.0	6.512532202192895e+17
19574.0	6.511236977349972e+17
19575.0	6.510361041698815e+17
19576.0	6.509276028381865e+17
19577.0	6.507924762744147e+17
19578.0	6.506997729984511e+17
19579.0	6.505921621174953e+17
19580.0	6.504827881608532e+17
19581.0	6.503741542891519e+17
19582.0	6.502668384774825e+17
19583.0	6.501553786235562e+17
19584.0	6.500430058094591e+17
19585.0	6.499067367871827e+17
19586.0	6.497771701228884e+17
19587.0	6.496756688748543e+17
19588.0	6.494891134331564e+17
19589.0	6.494522361337172e+17
19590.0	6.493518347020969e+17
19591.0	6.492562466537472e+17
19592.0	6.49146834948369e+17
19593.0	6.490295314502996e+17
19594.0	6.488633083166717e+17
19595.0	6.488034176401408e+17
19596.0	6.481076021799597e+17
19597.0	6.485761771001172e+17
19598.0	6.484135719032147e+17
19599.0	6.483522172048723e+17
19600.0	6.482396854965588e+17
19601.0	6.481116201833814e+17
19602.0	6.480030655141204e+17
19603.0	6.477782449476947e+17
19604.0	6.477703634310484e+17
19605.0	6.476014664286208e+17
19606.0	6.475474948237993e+17
19607.0	6.474367772218708e+17
19608.0	6.473195375471272e+17
19609.0	6.471947812601855e+17
19610.0	6.470932310086998e+17
19611.0	6.469759771432276e+17
19612.0	6.468634502583635e+17
19613.0	6.467444963715753e+17
19614.0	6.466233623554729e+17
19615.0	6.465167695719082e+17
19616.0	6.463833149975209e+17
19617.0	6.462850308505599e+17
19618.0	6.460687680623955e+17
19619.0	6.459138132759889e+17
19620.0	6.458069703021906e+17
19621.0	6.458205302773076e+17
19622.0	6.457067573346303e+17
19623.0	6.455914320800425e+17
19624.0	6.454730898625875e+17
19625.0	6.453584500271786e+17
19626.0	6.452404891418623e+17
19627.0	6.451268070757716e+17
19628.0	6.449526746731862e+17
19629.0	6.44875027550481e+17
19630.0	6.447445307293696e+17
19631.0	6.421529695529628e+17
19632.0	6.445428952268799e+17
19633.0	6.444179069949268e+17
19634.0	6.443125940333226e+17
19635.0	6.441872344656553e+17
19636.0	6.440775303473833e+17
19637.0	6.438733458964481e+17
19638.0	6.438444216265386e+17
19639.0	6.437261691671891e+17
19640.0	6.436001207549951e+17
19641.0	6.43382347737771e+17
19642.0	6.433781014943059e+17
19643.0	6.432557738491903e+17
19644.0	6.431346567501139e+17
19645.0	6.429772557757096e+17
19646.0	6.429146442541738e+17
19647.0	6.427982398051668e+17
19648.0	6.426804935983103e+17
19649.0	6.425631608799232e+17
19650.0	6.424479457258153e+17
19651.0	6.423296192370003e+17
19652.0	6.422122398220287e+17
19653.0	6.420965416239103e+17
19654.0	6.419784161820672e+17
19655.0	6.41860240478481e+17
19656.0	6.417450518183936e+17
19657.0	6.4162829973149e+17
19658.0	6.415124429187753e+17
19659.0	6.413958745423871e+17
19660.0	6.412804002501972e+17
19661.0	6.411625294725119e+17
19662.0	6.410467698278399e+17
19663.0	6.40919925895987e+17
19664.0	6.408000216498175e+17
19665.0	6.406963079064233e+17
