# Flux units: erg / (cm m2 s)
# Wavelength units: Angstrom
wave	flux
19000.0	6.918450612710057e+17
19001.0	6.917107904850602e+17
19002.0	6.915899760749225e+17
19003.0	6.914618451208873e+17
19004.0	6.916532614113958e+17
19005.0	6.915513833750528e+17
19006.0	6.9142332847773e+17
19007.0	6.91285862191377e+17
19008.0	6.911629638412969e+17
19009.0	6.910331773954729e+17
19010.0	6.908794840459945e+17
19011.0	6.907789178481321e+17
19012.0	6.906178622368425e+17
19013.0	6.905251831480319e+17
19014.0	6.903930200697513e+17
19015.0	6.902661913072979e+17
19016.0	6.901370087713449e+17
19017.0	6.900116856242175e+17
19018.0	6.898812846429524e+17
19019.0	6.897547213100372e+17
19020.0	6.896249231900671e+17
19021.0	6.894985602050729e+17
19022.0	6.893705369747455e+17
19023.0	6.892390728772265e+17
19024.0	6.891113003963732e+17
19025.0	6.889815326851071e+17
19026.0	6.888505735118847e+17
19027.0	6.886951053426687e+17
19028.0	6.885982283147946e+17
19029.0	6.884693809736362e+17
19030.0	6.883418615491242e+17
19031.0	6.882131930251263e+17
19032.0	6.88084469485841e+17
19033.0	6.879495190828372e+17
19034.0	6.878256949100543e+17
19035.0	6.876923324705449e+17
19036.0	6.854338902578513e+17
19037.0	6.874383856085673e+17
19038.0	6.873101092519936e+17
19039.0	6.871833308910931e+17
19040.0	6.870546644642473e+17
19041.0	6.869258754239146e+17
19042.0	6.867903668988585e+17
19043.0	6.866684563073705e+17
19044.0	6.865393285769898e+17
19045.0	6.864096167897769e+17
19046.0	6.862785269639849e+17
19047.0	6.861520607292073e+17
19048.0	6.860214771559081e+17
19049.0	6.859015912947711e+17
19050.0	6.857761605637459e+17
19051.0	6.85322293389994e+17
19052.0	6.854640489813334e+17
19053.0	6.853901614230185e+17
19054.0	6.852637563551743e+17
19055.0	6.851174935647572e+17
19056.0	6.850045306819924e+17
19057.0	6.848762533467476e+17
19058.0	6.847438053354153e+17
19059.0	6.846186442981375e+17
19060.0	6.844886514226516e+17
19061.0	6.843613145202688e+17
19062.0	6.842320236314623e+17
19063.0	6.841031901315072e+17
19064.0	6.839665225105407e+17
19065.0	6.838333403561983e+17
19066.0	6.837123340566527e+17
19067.0	6.83587353304542e+17
19068.0	6.834584714302803e+17
19069.0	6.83329550758707e+17
19070.0	6.83198913708032e+17
19071.0	6.830705927520255e+17
19072.0	6.829418219569151e+17
19073.0	6.828133085522601e+17
19074.0	6.826847007757652e+17
19075.0	6.825557188673535e+17
19076.0	6.824253220104874e+17
19077.0	6.822968390844415e+17
19078.0	6.821669626008916e+17
19079.0	6.820396579946493e+17
19080.0	6.819096295374847e+17
19081.0	6.817791669698559e+17
19082.0	6.816497587803476e+17
19083.0	6.815161878140244e+17
19084.0	6.813786899305811e+17
19085.0	6.812655645884415e+17
19086.0	6.811077656444927e+17
19087.0	6.809450486693887e+17
19088.0	6.808681765841578e+17
19089.0	6.807045755196756e+17
19090.0	6.806171981709311e+17
19091.0	6.804892430281385e+17
19092.0	6.803439052914687e+17
19093.0	6.802337462310227e+17
19094.0	6.801046654069418e+17
19095.0	6.79975654138402e+17
19096.0	6.798460277751807e+17
19097.0	6.797181575670441e+17
19098.0	6.79588894150929e+17
19099.0	6.794598494677673e+17
19100.0	6.793279048428201e+17
19101.0	6.792012946735103e+17
19102.0	6.790670290605396e+17
19103.0	6.789447792896681e+17
19104.0	6.788158010163199e+17
19105.0	6.786853763372371e+17
19106.0	6.785465032813225e+17
19107.0	6.784271366750207e+17
19108.0	6.782985939801427e+17
19109.0	6.77989102020198e+17
19110.0	6.780347944883539e+17
19111.0	6.779119220730538e+17
19112.0	6.777838410312362e+17
19113.0	6.776555588026367e+17
19114.0	6.775265291490644e+17
19115.0	6.773901364647252e+17
19116.0	6.772672606939817e+17
19117.0	6.771381310062591e+17
19118.0	6.769951204092585e+17
19119.0	6.766173971196581e+17
19120.0	6.767341141142185e+17
19121.0	6.766109508938408e+17
19122.0	6.764955220399444e+17
19123.0	6.763665856397311e+17
19124.0	6.762265581016404e+17
19125.0	6.76107345985536e+17
19126.0	6.759791867898537e+17
19127.0	6.757337331138559e+17
19128.0	6.756649921762644e+17
19129.0	6.755876868893353e+17
19130.0	6.754630714611028e+17
19131.0	6.753335638665897e+17
19132.0	6.75206415987507e+17
19133.0	6.750606298098346e+17
19134.0	6.749230753731923e+17
19135.0	6.748190130831357e+17
19136.0	6.746912151568383e+17
19137.0	6.745513813256874e+17
19138.0	6.74430716092962e+17
19139.0	6.743044479691434e+17
19140.0	6.741757964320767e+17
19141.0	6.740469335020884e+17
19142.0	6.739163778908159e+17
19143.0	6.737855754447529e+17
19144.0	6.733406473114963e+17
19145.0	6.732057677223252e+17
19146.0	6.73036365725696e+17
19147.0	6.729421195750057e+17
19148.0	6.728179923637587e+17
19149.0	6.726893364925779e+17
19150.0	6.725611275244884e+17
19151.0	6.724327917486079e+17
19152.0	6.723014302717268e+17
19153.0	6.721728064170665e+17
19154.0	6.720372935578966e+17
19155.0	6.719162620925268e+17
19156.0	6.717873633711444e+17
19157.0	6.716532535765673e+17
19158.0	6.714091694107304e+17
19159.0	6.713975266519721e+17
19160.0	6.712689327166804e+17
19161.0	6.711365566376617e+17
19162.0	6.70734785236173e+17
19163.0	6.708745400046931e+17
19164.0	6.707556055515135e+17
19165.0	6.70620767555857e+17
19166.0	6.704837880883881e+17
19167.0	6.703423984500735e+17
19168.0	6.702374866736468e+17
19169.0	6.701050665544362e+17
19170.0	6.699815519911935e+17
19171.0	6.698365288273236e+17
19172.0	6.697217991639039e+17
19173.0	6.695938832378538e+17
19174.0	6.694621544797524e+17
19175.0	6.693369023561727e+17
19176.0	6.692077144375295e+17
19177.0	6.690681078677503e+17
19178.0	6.689414619769514e+17
19179.0	6.687972306976768e+17
19180.0	6.686870059963731e+17
19181.0	6.685539463856127e+17
19182.0	6.684308888616959e+17
19183.0	6.683026893307903e+17
19184.0	6.681715934931625e+17
19185.0	6.680442096145748e+17
19186.0	6.679151511601152e+17
19187.0	6.677808669523967e+17
19188.0	6.676556834056874e+17
19189.0	6.675244699178323e+17
19190.0	6.673937705817427e+17
19191.0	6.672627279418708e+17
19192.0	6.6713815627421e+17
19193.0	6.670067682334036e+17
19194.0	6.668772030371155e+17
19195.0	6.667485018674516e+17
19196.0	6.666173681412777e+17
19197.0	6.664849823454548e+17
19198.0	6.663433401401341e+17
19199.0	6.645781556275877e+17
19200.0	6.649404689044827e+17
19201.0	6.659563413569535e+17
19202.0	6.658375247637161e+17
19203.0	6.657061229516116e+17
19204.0	6.655791675211775e+17
19205.0	6.654514383814655e+17
19206.0	6.653216945078272e+17
19207.0	6.651860857389055e+17
19208.0	6.650491691859967e+17
19209.0	6.649322242310143e+17
19210.0	6.648031090835455e+17
19211.0	6.646729583624192e+17
19212.0	6.645426609804627e+17
19213.0	6.643944967023273e+17
19214.0	6.642551495502506e+17
19215.0	6.641450514470227e+17
19216.0	6.640214508306431e+17
19217.0	6.638912618015401e+17
19218.0	6.637053508845565e+17
19219.0	6.636196320335188e+17
19220.0	6.634974191725226e+17
19221.0	6.633472704293546e+17
19222.0	6.632380486560425e+17
19223.0	6.631070016820564e+17
19224.0	6.629736682531497e+17
19225.0	6.628364622233599e+17
19226.0	6.627136505555625e+17
19227.0	6.625824477631828e+17
19228.0	6.624532961951743e+17
19229.0	6.623221188482388e+17
19230.0	6.621885727681193e+17
19231.0	6.620572115009533e+17
19232.0	6.619275095703551e+17
19233.0	6.614356901669546e+17
19234.0	6.612822697268564e+17
19235.0	6.611504049334954e+17
19236.0	6.610198483435519e+17
19237.0	6.608866417923412e+17
19238.0	6.607469330213546e+17
19239.0	6.606232391516159e+17
19240.0	6.604877506893139e+17
19241.0	6.603558162705066e+17
19242.0	6.602244820566015e+17
19243.0	6.6008165398173e+17
19244.0	6.599601998004223e+17
19245.0	6.598272377072297e+17
19246.0	6.59693111484962e+17
19247.0	6.595609033878186e+17
19248.0	6.594276727193599e+17
19249.0	6.592932498199891e+17
19250.0	6.591592635476649e+17
19251.0	6.590185676472319e+17
19252.0	6.588742893917523e+17
19253.0	6.587575443652607e+17
19254.0	6.586245801749162e+17
19255.0	6.584784936850771e+17
19256.0	6.583523066511359e+17
19257.0	6.582217116833108e+17
19258.0	6.580871243672234e+17
19259.0	6.579474580985172e+17
19260.0	6.577789883558569e+17
19261.0	6.576817427185663e+17
19262.0	6.575434145027412e+17
19263.0	6.574070578195114e+17
19264.0	6.572400376283133e+17
19265.0	6.571266716729343e+17
19266.0	6.569912169747796e+17
19267.0	6.568672418769578e+17
19268.0	6.56576917606673e+17
19269.0	6.563691174559743e+17
19270.0	6.562316117431636e+17
19271.0	6.560722213404671e+17
19272.0	6.559539632887126e+17
19273.0	6.557203138521769e+17
19274.0	6.556143116965203e+17
19275.0	6.55541598753041e+17
19276.0	6.554016079151103e+17
19277.0	6.552629108801535e+17
19278.0	6.551238898352127e+17
19279.0	6.549819401175037e+17
19280.0	6.548394720537257e+17
19281.0	6.547038000906239e+17
19282.0	6.545640663635284e+17
19283.0	6.543996493671081e+17
19284.0	6.542615935014228e+17
19285.0	6.541285571690495e+17
19286.0	6.539973325662889e+17
19287.0	6.538573901725695e+17
19288.0	6.531251808064845e+17
19289.0	6.522180634410985e+17
19290.0	6.534294895154516e+17
19291.0	6.532695161744042e+17
19292.0	6.531433215907156e+17
19293.0	6.529987660917417e+17
19294.0	6.528540543549437e+17
19295.0	6.527099383491241e+17
19296.0	6.525639955841024e+17
19297.0	6.52416864363042e+17
19298.0	6.522714235863037e+17
19299.0	6.521252897008297e+17
19300.0	6.519786667595092e+17
19301.0	6.518307186278399e+17
19302.0	6.516819262526804e+17
19303.0	6.515293220940457e+17
19304.0	6.513826121908223e+17
19305.0	6.51234087342353e+17
19306.0	6.510837849478483e+17
19307.0	6.509290066717353e+17
19308.0	6.507788579285674e+17
19309.0	6.505716781853353e+17
19310.0	6.50400000848691e+17
19311.0	6.503154164170751e+17
19312.0	6.501701980782591e+17
19313.0	6.50015960797457e+17
19314.0	6.482260702265352e+17
19315.0	6.481706743059816e+17
19316.0	6.49542069317359e+17
19317.0	6.493913090446676e+17
19318.0	6.492329929430356e+17
19319.0	6.490754455175167e+17
19320.0	6.489154019917823e+17
19321.0	6.48754862699315e+17
19322.0	6.485849657748138e+17
19323.0	6.484070522770772e+17
19324.0	6.482667090477055e+17
19325.0	6.48052535791889e+17
19326.0	6.479392457534121e+17
19327.0	6.477743328504489e+17
19328.0	6.476079206236159e+17
19329.0	6.474414721160532e+17
19330.0	6.472702416825002e+17
19331.0	6.471000550714025e+17
19332.0	6.46931883893282e+17
19333.0	6.467591805599743e+17
19334.0	6.465866679276884e+17
19335.0	6.464104520045908e+17
19336.0	6.462357191873875e+17
19337.0	6.460501916996947e+17
19338.0	6.458493413010089e+17
19339.0	6.456832717488127e+17
19340.0	6.454974131907242e+17
19341.0	6.453174795064659e+17
19342.0	6.451084279152637e+17
19343.0	6.449499800425811e+17
19344.0	6.447621763760127e+17
19345.0	6.444490229983912e+17
19346.0	6.443281379142312e+17
19347.0	6.441867052143956e+17
19348.0	6.43999121748787e+17
19349.0	6.438023607265961e+17
19350.0	6.436051346959017e+17
19351.0	6.434069936777897e+17
19352.0	6.432021691760639e+17
19353.0	6.43005499379985e+17
19354.0	6.428009486964052e+17
19355.0	6.425878089869994e+17
19356.0	6.423849999881555e+17
19357.0	6.421738493575167e+17
19358.0	6.419587559413076e+17
19359.0	6.417384783653545e+17
19360.0	6.415223768481791e+17
19361.0	6.41302667600418e+17
19362.0	6.410818355374761e+17
19363.0	6.408557417201663e+17
19364.0	6.406268846254761e+17
19365.0	6.403953447840425e+17
19366.0	6.401608955636394e+17
19367.0	6.399235706585087e+17
19368.0	6.396832506707967e+17
19369.0	6.394363730984959e+17
19370.0	6.391847366688768e+17
19371.0	6.389444816229716e+17
19372.0	6.386966103501481e+17
19373.0	6.384407273974442e+17
19374.0	6.381838122265257e+17
19375.0	6.379218825554602e+17
19376.0	6.376566340015444e+17
19377.0	6.373872050547369e+17
19378.0	6.371143646707711e+17
19379.0	6.368375285131946e+17
19380.0	6.365566450619731e+17
19381.0	6.362715666776063e+17
19382.0	6.359504819410259e+17
19383.0	6.356359530414079e+17
19384.0	6.353446786214569e+17
19385.0	6.350415232062804e+17
19386.0	6.347315971358719e+17
19387.0	6.344154003712682e+17
19388.0	6.34095342330402e+17
19389.0	6.337713057824767e+17
19390.0	6.334425361722025e+17
19391.0	6.313391363369617e+17
19392.0	6.327436592196265e+17
19393.0	6.324362993642153e+17
19394.0	6.320577621699241e+17
19395.0	6.316575118327805e+17
19396.0	6.313040133051732e+17
19397.0	6.309504684305065e+17
19398.0	6.305857785211561e+17
19399.0	6.301717923277482e+17
19400.0	6.29827769991168e+17
19401.0	6.293107208006314e+17
19402.0	6.289094027334996e+17
19403.0	6.284995765906089e+17
19404.0	6.280836585706836e+17
19405.0	6.274943815778303e+17
19406.0	6.270282013955412e+17
19407.0	6.26578738450705e+17
19408.0	6.258599563100157e+17
19409.0	6.253796154583721e+17
19410.0	6.247172216804694e+17
19411.0	6.240410580025344e+17
19412.0	6.232382354314586e+17
19413.0	6.224693572927487e+17
19414.0	6.214363185326762e+17
19415.0	6.203297880866815e+17
19416.0	6.190631899977037e+17
19417.0	6.17581828863863e+17
19418.0	6.158546916518579e+17
19419.0	6.142664855169708e+17
19420.0	6.132828390206121e+17
19421.0	6.122787187283286e+17
19422.0	6.112375183420073e+17
19423.0	6.101379946905599e+17
19424.0	6.089966465581056e+17
19425.0	6.078220597548372e+17
19426.0	6.066166368479913e+17
19427.0	6.05340842397969e+17
19428.0	6.040660892538196e+17
19429.0	6.027193425592319e+17
19430.0	6.011812250823341e+17
19431.0	5.994124075335684e+17
19432.0	5.980621108499795e+17
19433.0	5.962276676130134e+17
19434.0	5.940994570016086e+17
19435.0	5.915385674421585e+17
19436.0	5.880342459536722e+17
19437.0	5.834485429960714e+17
19438.0	5.767416385284785e+17
19439.0	5.755712600102231e+17
19440.0	5.721162239705087e+17
19441.0	5.6829991491119763e+17
19442.0	5.640125939012952e+17
19443.0	5.5898667420221466e+17
19444.0	5.5255683434195584e+17
19445.0	5.434022048737952e+17
19446.0	5.338116878150313e+17
19447.0	5.232596643130019e+17
19448.0	5.085814198719834e+17
19449.0	4.869863753383931e+17
19450.0	4.5102856024009274e+17
19451.0	4.3911784920951104e+17
19452.0	4.704311513361069e+17
19453.0	4.9892411746986726e+17
19454.0	5.162803967732383e+17
19455.0	5.283614223411881e+17
19456.0	5.375935763884712e+17
19457.0	5.473855188150947e+17
19458.0	5.519761288986663e+17
19459.0	5.60009347578813e+17
19460.0	5.64496602322261e+17
19461.0	5.68314706333969e+17
19462.0	5.717388410486784e+17
19463.0	5.7493742007528083e+17
19464.0	5.783175164155214e+17
19465.0	5.831864533123075e+17
19466.0	5.868769347196247e+17
19467.0	5.895987082734246e+17
19468.0	5.91652492568166e+17
19469.0	5.933457928617983e+17
19470.0	5.948497015253674e+17
19471.0	5.96225835541026e+17
19472.0	5.974919694603606e+17
19473.0	5.986803116234067e+17
19474.0	5.997527968339284e+17
19475.0	6.007684178378751e+17
19476.0	6.018074048899753e+17
19477.0	6.02768924405487e+17
19478.0	6.036947083111082e+17
19479.0	6.045836630119763e+17
19480.0	6.054170436042751e+17
19481.0	6.061997678395391e+17
19482.0	6.069492113910441e+17
19483.0	6.079244896916817e+17
19484.0	6.094205633254737e+17
19485.0	6.108227775933097e+17
19486.0	6.119821225754625e+17
19487.0	6.128926170546176e+17
19488.0	6.136285462091094e+17
19489.0	6.142593610721962e+17
19490.0	6.148426044888403e+17
19491.0	6.152690391668052e+17
19492.0	6.158582327629142e+17
19493.0	6.161106372395007e+17
19494.0	6.165111998425772e+17
19495.0	6.168131839284564e+17
19496.0	6.16998317990434e+17
19497.0	6.173271057760255e+17
19498.0	6.173697638050474e+17
19499.0	6.149579697990301e+17
19500.0	6.179294535483392e+17
19501.0	6.181412656207186e+17
19502.0	6.18365350715938e+17
19503.0	6.185083404113236e+17
19504.0	6.186365227455827e+17
19505.0	6.187604497487187e+17
19506.0	6.188786576785407e+17
19507.0	6.189906546829994e+17
19508.0	6.191661970707795e+17
19509.0	6.192825783113044e+17
19510.0	6.193681794422099e+17
19511.0	6.16266775169159e+17
19512.0	6.191159521050616e+17
19513.0	6.188667153066652e+17
19514.0	6.191524299669495e+17
19515.0	6.197625924266666e+17
19516.0	6.198887617746259e+17
19517.0	6.199527494473044e+17
19518.0	6.2001788237469e+17
19519.0	6.200731102434643e+17
19520.0	6.201287289514666e+17
19521.0	6.202159852246356e+17
19522.0	6.202570196385791e+17
19523.0	6.202977122167465e+17
19524.0	6.203321832439808e+17
19525.0	6.20362682475042e+17
19526.0	6.203906925963944e+17
19527.0	6.204138995406166e+17
19528.0	6.204331348983807e+17
19529.0	6.204496059301887e+17
19530.0	6.204626198069247e+17
19531.0	6.204718789427199e+17
19532.0	6.204778524005715e+17
19533.0	6.204808702022996e+17
19534.0	6.204818227287379e+17
19535.0	6.204795441730899e+17
19536.0	6.204729740055892e+17
19537.0	6.204680127731027e+17
19538.0	6.204499962101759e+17
19539.0	6.204098458856106e+17
19540.0	6.204265965376852e+17
19541.0	6.204097884935508e+17
19542.0	6.20388552942114e+17
19543.0	6.203644650542419e+17
19544.0	6.203393553640106e+17
19545.0	6.202810337067007e+17
19546.0	6.202244063384916e+17
19547.0	6.202484969526612e+17
19548.0	6.202136246004393e+17
19549.0	6.201705549004799e+17
19550.0	6.201380654721706e+17
19551.0	6.200974156059988e+17
19552.0	6.200546375499776e+17
19553.0	6.200085665458857e+17
19554.0	6.199613841910442e+17
19555.0	6.199152114051753e+17
19556.0	6.198670313652223e+17
19557.0	6.198159120269312e+17
19558.0	6.197635715170304e+17
19559.0	6.197094759705257e+17
19560.0	6.196523238948863e+17
19561.0	6.195952649327955e+17
19562.0	6.195387991151956e+17
19563.0	6.194789584207872e+17
19564.0	6.194178065869482e+17
19565.0	6.193553366930772e+17
19566.0	6.192895460988244e+17
19567.0	6.192265120011603e+17
19568.0	6.191586326435158e+17
19569.0	6.190924780535807e+17
19570.0	6.190245593393833e+17
19571.0	6.189546804871168e+17
19572.0	6.188823489456809e+17
19573.0	6.188111716767059e+17
19574.0	6.187338840058538e+17
19575.0	6.186662608502783e+17
19576.0	6.185987100464468e+17
19577.0	6.185314448048127e+17
19578.0	6.184530634691924e+17
19579.0	6.183767849478825e+17
19580.0	6.182986867277823e+17
19581.0	6.182201804718079e+17
19582.0	6.181416427585535e+17
19583.0	6.180612655633748e+17
19584.0	6.179789489919316e+17
19585.0	6.17890916213282e+17
19586.0	6.17805480337954e+17
19587.0	6.177224120074239e+17
19588.0	6.176178300431018e+17
19589.0	6.175619751957844e+17
19590.0	6.174719913667241e+17
19591.0	6.173922611429375e+17
19592.0	6.173058039545855e+17
19593.0	6.172174080890196e+17
19594.0	6.171146414893737e+17
19595.0	6.170401082179583e+17
19596.0	6.168302741793452e+17
19597.0	6.168604583482708e+17
19598.0	6.167524926291965e+17
19599.0	6.166841356102313e+17
19600.0	6.165938803397972e+17
19601.0	6.164980219685546e+17
19602.0	6.164073140628138e+17
19603.0	6.162665957927593e+17
19604.0	6.162192634915498e+17
19605.0	6.161131291454121e+17
19606.0	6.160391250553514e+17
19607.0	6.159454963761151e+17
19608.0	6.158505317411497e+17
19609.0	6.157529496507732e+17
19610.0	6.156610572735827e+17
19611.0	6.155651083053737e+17
19612.0	6.154703048015872e+17
19613.0	6.153734961408682e+17
19614.0	6.152749984339283e+17
19615.0	6.151804463087613e+17
19616.0	6.150673708089343e+17
19617.0	6.149856222860627e+17
19618.0	6.148517744257706e+17
19619.0	6.147452330923348e+17
19620.0	6.146488474970793e+17
19621.0	6.145933517520895e+17
19622.0	6.144953728805546e+17
19623.0	6.14396313206784e+17
19624.0	6.142969811129683e+17
19625.0	6.141972781727743e+17
19626.0	6.140973962756096e+17
19627.0	6.1399673864192e+17
19628.0	6.138568726544383e+17
19629.0	6.137862422527999e+17
19630.0	6.135803417722879e+17
19631.0	6.118248080736255e+17
19632.0	6.134883999023103e+17
19633.0	6.133872886546432e+17
19634.0	6.132905799581695e+17
19635.0	6.131864058899114e+17
19636.0	6.130866073195859e+17
19637.0	6.129595069759487e+17
19638.0	6.128824705439059e+17
19639.0	6.127796286565034e+17
19640.0	6.126714397305513e+17
19641.0	6.125249314335402e+17
19642.0	6.124722945960617e+17
19643.0	6.12368428180002e+17
19644.0	6.122617497627306e+17
19645.0	6.121445178474495e+17
19646.0	6.120581017632767e+17
19647.0	6.119552918923945e+17
19648.0	6.118514946823508e+17
19649.0	6.117473269754537e+17
19650.0	6.116433845026815e+17
19651.0	6.115391387817299e+17
19652.0	6.115801018925052e+17
19653.0	6.115356075272873e+17
19654.0	6.114315196519763e+17
19655.0	6.11326092115968e+17
19656.0	6.112207235798356e+17
19657.0	6.11115851649297e+17
19658.0	6.110104159343956e+17
19659.0	6.109047746985983e+17
19660.0	6.107992485964458e+17
19661.0	6.10693513617954e+17
19662.0	6.105876704264191e+17
19663.0	6.104780706065066e+17
19664.0	6.10369152360994e+17
19665.0	6.102696545222655e+17
