# Flux units: erg / (cm m2 s)
# Wavelength units: Angstrom
wave	flux
19000.0	7.308814055374847e+17
19001.0	7.307375239932586e+17
19002.0	7.306042606092287e+17
19003.0	7.304655173670227e+17
19004.0	7.303266968098131e+17
19005.0	7.301881035838803e+17
19006.0	7.300496194098516e+17
19007.0	7.299007100136106e+17
19008.0	7.297681364527786e+17
19009.0	7.296325811612332e+17
19010.0	7.294701545018708e+17
19011.0	7.293554998465875e+17
19012.0	7.292056805659987e+17
19013.0	7.290795328187052e+17
19014.0	7.289377099786921e+17
19015.0	7.288007860857514e+17
19016.0	7.286619953081002e+17
19017.0	7.285025837940733e+17
19018.0	7.283864159737172e+17
19019.0	7.282485842935807e+17
19020.0	7.281060109527722e+17
19021.0	7.279697169044819e+17
19022.0	7.278339338622292e+17
19023.0	7.276933336618323e+17
19024.0	7.275562411578708e+17
19025.0	7.274178812750505e+17
19026.0	7.272788180074493e+17
19027.0	7.271370418640212e+17
19028.0	7.270044441160361e+17
19029.0	7.268651908464639e+17
19030.0	7.267284227020116e+17
19031.0	7.265905673939625e+17
19032.0	7.264523274682368e+17
19033.0	7.263094796801363e+17
19034.0	7.26174817915153e+17
19035.0	7.260359508011689e+17
19036.0	7.253023729035941e+17
19037.0	7.257611889366355e+17
19038.0	7.256224493294931e+17
19039.0	7.254855451497812e+17
19040.0	7.253478320286377e+17
19041.0	7.252093734398633e+17
19042.0	7.250669277457066e+17
19043.0	7.249334195541331e+17
19044.0	7.247939189604351e+17
19045.0	7.246564102417066e+17
19046.0	7.245152986158419e+17
19047.0	7.243808590091604e+17
19048.0	7.242318416794964e+17
19049.0	7.241014564268714e+17
19050.0	7.239649357463551e+17
19051.0	7.237564420674899e+17
19052.0	7.236870663219881e+17
19053.0	7.235515237531647e+17
19054.0	7.234166317208916e+17
19055.0	7.232652824980138e+17
19056.0	7.231396565221375e+17
19057.0	7.230029487756628e+17
19058.0	7.228624179210921e+17
19059.0	7.227281385368233e+17
19060.0	7.225894417115816e+17
19061.0	7.224532111370921e+17
19062.0	7.22315495079936e+17
19063.0	7.221781326026067e+17
19064.0	7.22033655886643e+17
19065.0	7.218932087783424e+17
19066.0	7.217621787213824e+17
19067.0	7.216275829467816e+17
19068.0	7.214909330817024e+17
19069.0	7.213536301634899e+17
19070.0	7.212144901401257e+17
19071.0	7.210782460040531e+17
19072.0	7.209415912456191e+17
19073.0	7.208038400961194e+17
19074.0	7.206671206055935e+17
19075.0	7.205298852156755e+17
19076.0	7.203914315202557e+17
19077.0	7.202550696640511e+17
19078.0	7.201124792664063e+17
19079.0	7.199810297790464e+17
19080.0	7.198432766722047e+17
19081.0	7.197042099093504e+17
19082.0	7.195652861722623e+17
19083.0	7.194262545017513e+17
19084.0	7.192820516738387e+17
19085.0	7.191580837063336e+17
19086.0	7.189997302753961e+17
19087.0	7.188701078268586e+17
19088.0	7.187437327482879e+17
19089.0	7.18593021059618e+17
19090.0	7.184722789313193e+17
19091.0	7.183355728625663e+17
19092.0	7.18193838522368e+17
19093.0	7.180636515205119e+17
19094.0	7.179248101315926e+17
19095.0	7.177874475144532e+17
19096.0	7.176503436858706e+17
19097.0	7.175162754149033e+17
19098.0	7.173796863672319e+17
19099.0	7.172424191006036e+17
19100.0	7.171054718593705e+17
19101.0	7.169697342554111e+17
19102.0	7.168289244796242e+17
19103.0	7.166965221862057e+17
19104.0	7.165604017821011e+17
19105.0	7.164236883034111e+17
19106.0	7.1628471940765e+17
19107.0	7.161498528208212e+17
19108.0	7.160144271332692e+17
19109.0	7.158113386539688e+17
19110.0	7.157412733648896e+17
19111.0	7.156050433496403e+17
19112.0	7.154689311943338e+17
19113.0	7.153325314495828e+17
19114.0	7.15196052013056e+17
19115.0	7.150566227225258e+17
19116.0	7.149224953118719e+17
19117.0	7.147864590734676e+17
19118.0	7.146438524578472e+17
19119.0	7.144017577902077e+17
19120.0	7.143744874042708e+17
19121.0	7.142404719815338e+17
19122.0	7.141067771434323e+17
19123.0	7.13968779788288e+17
19124.0	7.138316756800854e+17
19125.0	7.136973785399293e+17
19126.0	7.135586006248105e+17
19127.0	7.133401423981224e+17
19128.0	7.132275088381267e+17
19129.0	7.131495206486015e+17
19130.0	7.130179663036415e+17
19131.0	7.128807373449897e+17
19132.0	7.127467577136467e+17
19133.0	7.125641825965399e+17
19134.0	7.124444777196202e+17
19135.0	7.123391089737727e+17
19136.0	7.122037835300863e+17
19137.0	7.120595354036905e+17
19138.0	7.11918992106018e+17
19139.0	7.117964124531369e+17
19140.0	7.116609132254548e+17
19141.0	7.115253028487168e+17
19142.0	7.113883311407104e+17
19143.0	7.112508013106516e+17
19144.0	7.111156894968489e+17
19145.0	7.109823580252841e+17
19146.0	7.108144036926803e+17
19147.0	7.107071979814911e+17
19148.0	7.105759082971135e+17
19149.0	7.104401976765098e+17
19150.0	7.103040684643667e+17
19151.0	7.101696406017364e+17
19152.0	7.10031448211456e+17
19153.0	7.098979958041257e+17
19154.0	7.097571309431466e+17
19155.0	7.096282918507859e+17
19156.0	7.094929998217215e+17
19157.0	7.093570705380692e+17
19158.0	7.091757366553257e+17
19159.0	7.090861112295423e+17
19160.0	7.089479455429972e+17
19161.0	7.088101003012778e+17
19162.0	7.085787631845375e+17
19163.0	7.085459930873855e+17
19164.0	7.084113914407594e+17
19165.0	7.08274597012002e+17
19166.0	7.081345943601151e+17
19167.0	7.07996395119138e+17
19168.0	7.078599419669161e+17
19169.0	7.077293449019391e+17
19170.0	7.076008799414953e+17
19171.0	7.074613436962131e+17
19172.0	7.073305875273044e+17
19173.0	7.071958674614953e+17
19174.0	7.070580511604735e+17
19175.0	7.069261482688511e+17
19176.0	7.067909261448531e+17
19177.0	7.066484961094314e+17
19178.0	7.065204974157824e+17
19179.0	7.063801761366016e+17
19180.0	7.062285969260544e+17
19181.0	7.061116274343935e+17
19182.0	7.05970487566882e+17
19183.0	7.05844873335057e+17
19184.0	7.057017238366889e+17
19185.0	7.055768651388244e+17
19186.0	7.054431740755965e+17
19187.0	7.053037930195625e+17
19188.0	7.051730013388799e+17
19189.0	7.050364378764628e+17
19190.0	7.049012491670867e+17
19191.0	7.047669475530067e+17
19192.0	7.046329651254611e+17
19193.0	7.044751650630314e+17
19194.0	7.043543814111232e+17
19195.0	7.042291006264659e+17
19196.0	7.040958720551594e+17
19197.0	7.039616613176662e+17
19198.0	7.038268952543232e+17
19199.0	7.030718410522621e+17
19200.0	7.031642323419137e+17
19201.0	7.034236171190271e+17
19202.0	7.032898892857343e+17
19203.0	7.031543879609001e+17
19204.0	7.030196885869908e+17
19205.0	7.028861499867133e+17
19206.0	7.027513941994153e+17
19207.0	7.026134993950036e+17
19208.0	7.02472162255394e+17
19209.0	7.023480221117097e+17
19210.0	7.022139154628607e+17
19211.0	7.020795580645375e+17
19212.0	7.019461542412287e+17
19213.0	7.018024424964093e+17
19214.0	7.016648850538496e+17
19215.0	7.015411751059455e+17
19216.0	7.014042990280704e+17
19217.0	7.012742556811261e+17
19218.0	7.010980672307199e+17
19219.0	7.009972378402815e+17
19220.0	7.008702455698772e+17
19221.0	7.0071984614714e+17
19222.0	7.006035625639935e+17
19223.0	7.004679393247232e+17
19224.0	7.003248807728468e+17
19225.0	7.001908607363753e+17
19226.0	7.000649155739647e+17
19227.0	6.999306212999167e+17
19228.0	6.997982301913087e+17
19229.0	6.996640062417578e+17
19230.0	6.995261219231059e+17
19231.0	6.993918742757375e+17
19232.0	6.992543443058687e+17
19233.0	6.991230412696233e+17
19234.0	6.989915606046036e+17
19235.0	6.988566556398931e+17
19236.0	6.987245084300627e+17
19237.0	6.985892616295764e+17
19238.0	6.984505171290794e+17
19239.0	6.983220290999635e+17
19240.0	6.981660532801533e+17
19241.0	6.980463962882047e+17
19242.0	6.979166325615273e+17
19243.0	6.977746317432148e+17
19244.0	6.976504755912703e+17
19245.0	6.975161634914304e+17
19246.0	6.973814619504637e+17
19247.0	6.9724672622592e+17
19248.0	6.97113972310016e+17
19249.0	6.969794102296575e+17
19250.0	6.968442468259155e+17
19251.0	6.967061216144041e+17
19252.0	6.96556326171443e+17
19253.0	6.964412743155711e+17
19254.0	6.963048567450281e+17
19255.0	6.96162245026338e+17
19256.0	6.960367196438528e+17
19257.0	6.959047232891562e+17
19258.0	6.957701503735123e+17
19259.0	6.95631779795217e+17
19260.0	6.954948953986387e+17
19261.0	6.953665197768703e+17
19262.0	6.952294648818345e+17
19263.0	6.950957071990783e+17
19264.0	6.949367333606739e+17
19265.0	6.948194813127336e+17
19266.0	6.946879846394537e+17
19267.0	6.945599417658025e+17
19268.0	6.944246591739219e+17
19269.0	6.942903683951274e+17
19270.0	6.941554098831359e+17
19271.0	6.94003994390255e+17
19272.0	6.938843596980223e+17
19273.0	6.932004059392673e+17
19274.0	6.93353365075831e+17
19275.0	6.934814993853097e+17
19276.0	6.933454848174762e+17
19277.0	6.932106143159636e+17
19278.0	6.930757624091987e+17
19279.0	6.929350577706323e+17
19280.0	6.928009772662783e+17
19281.0	6.926698617853268e+17
19282.0	6.925354919439017e+17
19283.0	6.923902115293866e+17
19284.0	6.922408029410644e+17
19285.0	6.92116460352307e+17
19286.0	6.919918043092307e+17
19287.0	6.918580211111252e+17
19288.0	6.915883231696212e+17
19289.0	6.911694093680631e+17
19290.0	6.914493124007252e+17
19291.0	6.912988787944106e+17
19292.0	6.911773096891731e+17
19293.0	6.910406312329215e+17
19294.0	6.90902343422225e+17
19295.0	6.907667157090301e+17
19296.0	6.906299458868564e+17
19297.0	6.904922457680553e+17
19298.0	6.903554347018921e+17
19299.0	6.902204885630975e+17
19300.0	6.90083546145314e+17
19301.0	6.899459292834474e+17
19302.0	6.898087317820756e+17
19303.0	6.896663780130813e+17
19304.0	6.895306899019092e+17
19305.0	6.893962551885823e+17
19306.0	6.892587735231146e+17
19307.0	6.891179723456511e+17
19308.0	6.889817797995176e+17
19309.0	6.888271744685396e+17
19310.0	6.886775364517887e+17
19311.0	6.885658030593363e+17
19312.0	6.884281478195881e+17
19313.0	6.882759358283775e+17
19314.0	6.879842226143228e+17
19315.0	6.878566465667075e+17
19316.0	6.878733256359935e+17
19317.0	6.877340291650899e+17
19318.0	6.875939213060778e+17
19319.0	6.874547768087892e+17
19320.0	6.873108293440852e+17
19321.0	6.871741216675156e+17
19322.0	6.870238849837738e+17
19323.0	6.868816434823167e+17
19324.0	6.867502843123028e+17
19325.0	6.865963444775593e+17
19326.0	6.864672437305343e+17
19327.0	6.8632423446173e+17
19328.0	6.861825639448575e+17
19329.0	6.860396706485587e+17
19330.0	6.858942087604906e+17
19331.0	6.85750471500322e+17
19332.0	6.856086864789504e+17
19333.0	6.854633354603178e+17
19334.0	6.853147925064361e+17
19335.0	6.851744482983935e+17
19336.0	6.850284034020691e+17
19337.0	6.848820226818047e+17
19338.0	6.84724875113267e+17
19339.0	6.845886969675775e+17
19340.0	6.844385127825407e+17
19341.0	6.842929535167145e+17
19342.0	6.841205993592147e+17
19343.0	6.839941872309587e+17
19344.0	6.838438272346793e+17
19345.0	6.835860322385916e+17
19346.0	6.835153251510954e+17
19347.0	6.83387117581107e+17
19348.0	6.83238136881698e+17
19349.0	6.830829683255978e+17
19350.0	6.829291318804479e+17
19351.0	6.827735596225876e+17
19352.0	6.826162212831231e+17
19353.0	6.824636791302825e+17
19354.0	6.823057412150612e+17
19355.0	6.821423295234047e+17
19356.0	6.819850267656191e+17
19357.0	6.818235685011455e+17
19358.0	6.816574171600212e+17
19359.0	6.814706484379647e+17
19360.0	6.813340710644394e+17
19361.0	6.811674867313322e+17
19362.0	6.810014881327785e+17
19363.0	6.808321831643817e+17
19364.0	6.80661989003537e+17
19365.0	6.804909251537578e+17
19366.0	6.803180422343336e+17
19367.0	6.801423379464191e+17
19368.0	6.799660566620842e+17
19369.0	6.797771431826772e+17
19370.0	6.79539490422784e+17
19371.0	6.794223030370303e+17
19372.0	6.792408534614015e+17
19373.0	6.790526240729769e+17
19374.0	6.788644580884479e+17
19375.0	6.786701157815635e+17
19376.0	6.784748782703956e+17
19377.0	6.782774267958612e+17
19378.0	6.780773815637332e+17
19379.0	6.778739240555859e+17
19380.0	6.776672287544659e+17
19381.0	6.774564624618836e+17
19382.0	6.772377501302783e+17
19383.0	6.770187284687529e+17
19384.0	6.768022602995027e+17
19385.0	6.765721196778836e+17
19386.0	6.763399434207231e+17
19387.0	6.760997537360553e+17
19388.0	6.758556506259455e+17
19389.0	6.756082333865299e+17
19390.0	6.75353727144209e+17
19391.0	6.745702793915041e+17
19392.0	6.748221435718314e+17
19393.0	6.745488974588585e+17
19394.0	6.742653071436457e+17
19395.0	6.739747473631914e+17
19396.0	6.736719259544233e+17
19397.0	6.733596029790889e+17
19398.0	6.730364104649385e+17
19399.0	6.726739320023721e+17
19400.0	6.723600332969299e+17
19401.0	6.720098212162217e+17
19402.0	6.716424049393661e+17
19403.0	6.712454539815593e+17
19404.0	6.708465500859049e+17
19405.0	6.704281336588969e+17
19406.0	6.700001218527232e+17
19407.0	6.695412410875903e+17
19408.0	6.690346786357249e+17
19409.0	6.685768511302314e+17
19410.0	6.680600365410985e+17
19411.0	6.675194419260073e+17
19412.0	6.669509015022249e+17
19413.0	6.663354058451625e+17
19414.0	6.656933153647273e+17
19415.0	6.65021625401344e+17
19416.0	6.642891201970175e+17
19417.0	6.635294308696061e+17
19418.0	6.627086092118698e+17
19419.0	6.61835676262946e+17
19420.0	6.609082997800959e+17
19421.0	6.599044247846911e+17
19422.0	6.58908944409122e+17
19423.0	6.578336999058089e+17
19424.0	6.56698141450786e+17
19425.0	6.554633251411284e+17
19426.0	6.541172716950867e+17
19427.0	6.526639882807978e+17
19428.0	6.510823261689172e+17
19429.0	6.49352187163443e+17
19430.0	6.473951209324543e+17
19431.0	6.451727971997016e+17
19432.0	6.431002858269353e+17
19433.0	6.40938895614498e+17
19434.0	6.385635914241364e+17
19435.0	6.359509133251923e+17
19436.0	6.330254894650707e+17
19437.0	6.298294935005866e+17
19438.0	6.256055149395965e+17
19439.0	6.218746345553919e+17
19440.0	6.17645446668834e+17
19441.0	6.13195754783812e+17
19442.0	6.081950437605377e+17
19443.0	6.023818778771455e+17
19444.0	5.955787935449083e+17
19445.0	5.885216092585985e+17
19446.0	5.80490353442816e+17
19447.0	5.710230841196539e+17
19448.0	5.6025511505865414e+17
19449.0	5.457302484156415e+17
19450.0	5.1274766355878944e+17
19451.0	4.995110869663742e+17
19452.0	5.3191338189564646e+17
19453.0	5.537561792828763e+17
19454.0	5.654693618035365e+17
19455.0	5.75209552810257e+17
19456.0	5.837652769811118e+17
19457.0	5.909346139504636e+17
19458.0	5.975156595884037e+17
19459.0	6.037772137660419e+17
19460.0	6.088939729321981e+17
19461.0	6.133625667278163e+17
19462.0	6.173556864625324e+17
19463.0	6.21481074063223e+17
19464.0	6.25192983191006e+17
19465.0	6.283809107126953e+17
19466.0	6.311550949610836e+17
19467.0	6.336685597349203e+17
19468.0	6.358950273701207e+17
19469.0	6.378395331985405e+17
19470.0	6.397752447598591e+17
19471.0	6.417337288753151e+17
19472.0	6.434979761007273e+17
19473.0	6.450808659552938e+17
19474.0	6.464772969769642e+17
19475.0	6.476941292994559e+17
19476.0	6.488622429634559e+17
19477.0	6.498862659272704e+17
19478.0	6.50817425322803e+17
19479.0	6.516655446294528e+17
19480.0	6.52431425798144e+17
19481.0	6.531692681844052e+17
19482.0	6.538876095037439e+17
19483.0	6.545247803452074e+17
19484.0	6.551150437684563e+17
19485.0	6.556543171777876e+17
19486.0	6.561320238667091e+17
19487.0	6.565635626631167e+17
19488.0	6.569723747631103e+17
19489.0	6.573320122138623e+17
19490.0	6.576086146088957e+17
19491.0	6.579620560240639e+17
19492.0	6.582411991187455e+17
19493.0	6.584873814851583e+17
19494.0	6.587052913065983e+17
19495.0	6.589087578324991e+17
19496.0	6.590806473310205e+17
19497.0	6.592642381687466e+17
19498.0	6.593922809025876e+17
19499.0	6.586850673513802e+17
19500.0	6.596827928679764e+17
19501.0	6.597839722730835e+17
19502.0	6.59874361970961e+17
19503.0	6.59958950666786e+17
19504.0	6.600233081372671e+17
19505.0	6.600856870846463e+17
19506.0	6.601396759560191e+17
19507.0	6.601807497265151e+17
19508.0	6.602115006857215e+17
19509.0	6.602332194908842e+17
19510.0	6.602403173717331e+17
19511.0	6.596954036720978e+17
19512.0	6.601616329976484e+17
19513.0	6.600111874375675e+17
19514.0	6.600896943226876e+17
19515.0	6.601995825709056e+17
19516.0	6.60213175681024e+17
19517.0	6.601874408996863e+17
19518.0	6.601612570482004e+17
19519.0	6.601294375201449e+17
19520.0	6.600896338548052e+17
19521.0	6.600488059404287e+17
19522.0	6.60000348377361e+17
19523.0	6.599537639904595e+17
19524.0	6.599012692000767e+17
19525.0	6.598416304614057e+17
19526.0	6.597865403755177e+17
19527.0	6.597254204882943e+17
19528.0	6.596619803120979e+17
19529.0	6.595958422197588e+17
19530.0	6.59529522094626e+17
19531.0	6.594607069877588e+17
19532.0	6.593880045300393e+17
19533.0	6.593134690216617e+17
19534.0	6.592368420235946e+17
19535.0	6.591572885897215e+17
19536.0	6.590765385209172e+17
19537.0	6.589971142716073e+17
19538.0	6.58912311386658e+17
19539.0	6.58800263561216e+17
19540.0	6.587416786414249e+17
19541.0	6.586558157160447e+17
19542.0	6.58566847537698e+17
19543.0	6.584771686345385e+17
19544.0	6.583862553477119e+17
19545.0	6.582777273122813e+17
19546.0	6.581545603170303e+17
19547.0	6.581067182680745e+17
19548.0	6.580160016941053e+17
19549.0	6.579150162056531e+17
19550.0	6.578241080918015e+17
19551.0	6.577265190808233e+17
19552.0	6.576279144191316e+17
19553.0	6.575276690855252e+17
19554.0	6.574263639911082e+17
19555.0	6.573270593699839e+17
19556.0	6.572272830993748e+17
19557.0	6.571263519970644e+17
19558.0	6.570235902907732e+17
19559.0	6.569181584905555e+17
19560.0	6.568150420859561e+17
19561.0	6.567106338357247e+17
19562.0	6.566067405062143e+17
19563.0	6.565008722886655e+17
19564.0	6.563958420930557e+17
19565.0	6.562889277461844e+17
19566.0	6.561810359167657e+17
19567.0	6.560746563436543e+17
19568.0	6.559658900018516e+17
19569.0	6.558582807287123e+17
19570.0	6.557511554782547e+17
19571.0	6.556422289839444e+17
19572.0	6.555309558464511e+17
19573.0	6.554227504229034e+17
19574.0	6.553078661294761e+17
19575.0	6.552029242938708e+17
19576.0	6.550927985082367e+17
19577.0	6.549749271014057e+17
19578.0	6.548688555999231e+17
19579.0	6.547582089516372e+17
19580.0	6.546469502844927e+17
19581.0	6.545356381399721e+17
19582.0	6.544244730058067e+17
19583.0	6.543121663918079e+17
19584.0	6.541993622634495e+17
19585.0	6.540806422790143e+17
19586.0	6.539624248421034e+17
19587.0	6.538513221331625e+17
19588.0	6.537208327219882e+17
19589.0	6.536241355598506e+17
19590.0	6.5351623114752e+17
19591.0	6.534065657566547e+17
19592.0	6.532928319608148e+17
19593.0	6.531773074767871e+17
19594.0	6.530498411801257e+17
19595.0	6.529487520224595e+17
19596.0	6.526832425828352e+17
19597.0	6.527191316343466e+17
19598.0	6.525927825604607e+17
19599.0	6.524902402861737e+17
19600.0	6.523755099936083e+17
19601.0	6.52256704794897e+17
19602.0	6.521427113017343e+17
19603.0	6.52000198009378e+17
19604.0	6.51910708339234e+17
19605.0	6.517816036775252e+17
19606.0	6.516805591192915e+17
19607.0	6.515663261313705e+17
19608.0	6.514493750247423e+17
19609.0	6.513310133736788e+17
19610.0	6.512180442693631e+17
19611.0	6.511012319242921e+17
19612.0	6.509854562014548e+17
19613.0	6.50868098596864e+17
19614.0	6.50750229287185e+17
19615.0	6.506359691760979e+17
19616.0	6.505148894063274e+17
19617.0	6.504023574183935e+17
19618.0	6.502611363910996e+17
19619.0	6.501346215023955e+17
19620.0	6.500200224216403e+17
19621.0	6.499349361415508e+17
19622.0	6.498183098138623e+17
19623.0	6.497012826505215e+17
19624.0	6.495836439576576e+17
19625.0	6.494669071100585e+17
19626.0	6.493493834110291e+17
19627.0	6.492326318833663e+17
19628.0	6.491012933353472e+17
19629.0	6.489934149277011e+17
19630.0	6.488720264571564e+17
19631.0	6.481194306065745e+17
19632.0	6.486454168103593e+17
19633.0	6.485261334609919e+17
19634.0	6.484108559515647e+17
19635.0	6.482911268175872e+17
19636.0	6.481754984546303e+17
19637.0	6.480359408883028e+17
19638.0	6.479403593411241e+17
19639.0	6.4782193393664e+17
19640.0	6.477019325923327e+17
19641.0	6.47560544841455e+17
19642.0	6.474694556035753e+17
19643.0	6.473505370887508e+17
19644.0	6.472314418539178e+17
19645.0	6.471036843327487e+17
19646.0	6.46999202332672e+17
19647.0	6.468814191460351e+17
19648.0	6.467633559896064e+17
19649.0	6.466453869953023e+17
19650.0	6.46527977660962e+17
19651.0	6.464097336601258e+17
19652.0	6.462917962629119e+17
19653.0	6.461740875251711e+17
19654.0	6.460559817965567e+17
19655.0	6.459378204235092e+17
19656.0	6.45820388020497e+17
19657.0	6.457023885475839e+17
19658.0	6.455846556226899e+17
19659.0	6.454669849133055e+17
19660.0	6.453491537717929e+17
19661.0	6.452312332916054e+17
19662.0	6.451133078481578e+17
19663.0	6.449929140568063e+17
19664.0	6.448744527910228e+17
19665.0	6.447595195640489e+17
