# Flux units: erg / (cm m2 s)
# Wavelength units: Angstrom
wave	flux
19000.0	7.942258369582419e+17
19001.0	7.940762655610195e+17
19002.0	7.939311181758463e+17
19003.0	7.937836265941673e+17
19004.0	7.93636065387042e+17
19005.0	7.934885654167551e+17
19006.0	7.933409396173484e+17
19007.0	7.931884094182739e+17
19008.0	7.9304408970909e+17
19009.0	7.92896681733871e+17
19010.0	7.927396381840723e+17
19011.0	7.926012897656833e+17
19012.0	7.924465785285288e+17
19013.0	7.923061870646611e+17
19014.0	7.921569296809983e+17
19015.0	7.920101385480876e+17
19016.0	7.918607722523305e+17
19017.0	7.917119499578026e+17
19018.0	7.915652961184424e+17
19019.0	7.914175179259903e+17
19020.0	7.912679751898451e+17
19021.0	7.911204729825961e+17
19022.0	7.90972714643183e+17
19023.0	7.908243540017151e+17
19024.0	7.906757618346666e+17
19025.0	7.905272506176851e+17
19026.0	7.903778131585706e+17
19027.0	7.902246767427583e+17
19028.0	7.900821703710036e+17
19029.0	7.899336365047807e+17
19030.0	7.897850900556458e+17
19031.0	7.896365073956861e+17
19032.0	7.894878910414845e+17
19033.0	7.893372224143357e+17
19034.0	7.891905531958612e+17
19035.0	7.89040828986163e+17
19036.0	7.884877935061672e+17
19037.0	7.887442964469075e+17
19038.0	7.885956937940991e+17
19039.0	7.884469451795114e+17
19040.0	7.88298158396757e+17
19041.0	7.88149345469508e+17
19042.0	7.879986769821693e+17
19043.0	7.878516894160211e+17
19044.0	7.877027675766781e+17
19045.0	7.875539237513897e+17
19046.0	7.874039227176276e+17
19047.0	7.872559706013696e+17
19048.0	7.87102644323396e+17
19049.0	7.869567205725522e+17
19050.0	7.868082608057e+17
19051.0	7.865958752321533e+17
19052.0	7.86504392568559e+17
19053.0	7.863610244071424e+17
19054.0	7.862132484516521e+17
19055.0	7.860584445203796e+17
19056.0	7.859151854108671e+17
19057.0	7.857661318703786e+17
19058.0	7.85616220594722e+17
19059.0	7.854679691449683e+17
19060.0	7.853183419635028e+17
19061.0	7.851697906210132e+17
19062.0	7.850205918177961e+17
19063.0	7.848715180048383e+17
19064.0	7.847198641356799e+17
19065.0	7.845691067290963e+17
19066.0	7.84422662325316e+17
19067.0	7.842749936041984e+17
19068.0	7.841258321302868e+17
19069.0	7.839766928861866e+17
19070.0	7.838272902397951e+17
19071.0	7.836783456114003e+17
19072.0	7.835291602299561e+17
19073.0	7.833798466426196e+17
19074.0	7.832307719908009e+17
19075.0	7.830815668961279e+17
19076.0	7.829318628190889e+17
19077.0	7.827829332901884e+17
19078.0	7.826331242157396e+17
19079.0	7.824846998208511e+17
19080.0	7.823353607880703e+17
19081.0	7.821852214820863e+17
19082.0	7.820358982478505e+17
19083.0	7.818853525138089e+17
19084.0	7.817327008197288e+17
19085.0	7.815891886538751e+17
19086.0	7.814306947137536e+17
19087.0	7.812782808367103e+17
19088.0	7.81138850287889e+17
19089.0	7.809815081036457e+17
19090.0	7.808425172576938e+17
19091.0	7.806928984648361e+17
19092.0	7.805402031499944e+17
19093.0	7.803950378691241e+17
19094.0	7.802443530239999e+17
19095.0	7.800947161956352e+17
19096.0	7.799467138875391e+17
19097.0	7.797979209531391e+17
19098.0	7.796487330551126e+17
19099.0	7.794994189085354e+17
19100.0	7.793495122466132e+17
19101.0	7.792008821910186e+17
19102.0	7.790497183563775e+17
19103.0	7.789022998953983e+17
19104.0	7.787529994502143e+17
19105.0	7.786036360904703e+17
19106.0	7.784520778514432e+17
19107.0	7.783046406559059e+17
19108.0	7.7815558991162e+17
19109.0	7.779637593636863e+17
19110.0	7.778560493573459e+17
19111.0	7.777077917559464e+17
19112.0	7.775585339528531e+17
19113.0	7.774092307114664e+17
19114.0	7.772599127900157e+17
19115.0	7.771093067978067e+17
19116.0	7.769612586319871e+17
19117.0	7.76811433758993e+17
19118.0	7.766586855959212e+17
19119.0	7.764616492176723e+17
19120.0	7.763604904345599e+17
19121.0	7.762122469539839e+17
19122.0	7.760652694541654e+17
19123.0	7.759157648861864e+17
19124.0	7.75764147507473e+17
19125.0	7.75616878223906e+17
19126.0	7.754674052530173e+17
19127.0	7.752817703911421e+17
19128.0	7.751415834694996e+17
19129.0	7.75017680933137e+17
19130.0	7.748703189554515e+17
19131.0	7.747210133372928e+17
19132.0	7.745715567241897e+17
19133.0	7.744104645525503e+17
19134.0	7.742595079165267e+17
19135.0	7.741233848560298e+17
19136.0	7.739741136311638e+17
19137.0	7.7382108067485e+17
19138.0	7.736731471533396e+17
19139.0	7.735257530193236e+17
19140.0	7.733764813750271e+17
19141.0	7.732270750935721e+17
19142.0	7.730776155444564e+17
19143.0	7.729270119290195e+17
19144.0	7.72778626261538e+17
19145.0	7.726291207148884e+17
19146.0	7.724659875949225e+17
19147.0	7.723284787363837e+17
19148.0	7.721806021175977e+17
19149.0	7.72031188705826e+17
19150.0	7.718815873892351e+17
19151.0	7.71732357128738e+17
19152.0	7.715826478787241e+17
19153.0	7.714333077274621e+17
19154.0	7.71280916919091e+17
19155.0	7.711341357126994e+17
19156.0	7.709844059105961e+17
19157.0	7.70833667797811e+17
19158.0	7.706567829531305e+17
19159.0	7.705347927397715e+17
19160.0	7.703852498638164e+17
19161.0	7.70233302393378e+17
19162.0	7.700209703671126e+17
19163.0	7.69935661858816e+17
19164.0	7.697874477383676e+17
19165.0	7.696367271018496e+17
19166.0	7.69484614935074e+17
19167.0	7.69332145553408e+17
19168.0	7.691864231291562e+17
19169.0	7.690367969263615e+17
19170.0	7.688890065704275e+17
19171.0	7.687359372634794e+17
19172.0	7.685893116657663e+17
19173.0	7.684395532025853e+17
19174.0	7.682886509527039e+17
19175.0	7.681399781152083e+17
19176.0	7.679534474898089e+17
19177.0	7.677948840640508e+17
19178.0	7.676468108722177e+17
19179.0	7.674934683762687e+17
19180.0	7.673448293728256e+17
19181.0	7.671959620594345e+17
19182.0	7.670472232315561e+17
19183.0	7.668979072674474e+17
19184.0	7.667462712939859e+17
19185.0	7.665978417261225e+17
19186.0	7.664478460051455e+17
19187.0	7.662960907736403e+17
19188.0	7.661473906731689e+17
19189.0	7.659960724881407e+17
19190.0	7.658452444774399e+17
19191.0	7.656957552885757e+17
19192.0	7.655457803993087e+17
19193.0	7.653928767673684e+17
19194.0	7.65243984847394e+17
19195.0	7.65094297267951e+17
19196.0	7.649436061313706e+17
19197.0	7.647924502659071e+17
19198.0	7.646393050420563e+17
19199.0	7.640980531795282e+17
19200.0	7.640741768243884e+17
19201.0	7.641876974796799e+17
19202.0	7.640392996487165e+17
19203.0	7.638882166243325e+17
19204.0	7.637378457927679e+17
19205.0	7.635875915628543e+17
19206.0	7.634363898396671e+17
19207.0	7.632844281085951e+17
19208.0	7.631302949863424e+17
19209.0	7.629834716971007e+17
19210.0	7.628322469052415e+17
19211.0	7.62680895025971e+17
19212.0	7.625296194830336e+17
19213.0	7.623734768697343e+17
19214.0	7.622205398231724e+17
19215.0	7.620736698373459e+17
19216.0	7.619232938328063e+17
19217.0	7.617719935434751e+17
19218.0	7.616024252426921e+17
19219.0	7.614646745126228e+17
19220.0	7.61316621173828e+17
19221.0	7.611575191994365e+17
19222.0	7.61012554126677e+17
19223.0	7.608592681140224e+17
19224.0	7.606864353864361e+17
19225.0	7.605320534021459e+17
19226.0	7.603829837834922e+17
19227.0	7.60230566690816e+17
19228.0	7.600780149609811e+17
19229.0	7.599253439731027e+17
19230.0	7.597713547154772e+17
19231.0	7.596189832009044e+17
19232.0	7.594661512915625e+17
19233.0	7.593120870957055e+17
19234.0	7.591600323908947e+17
19235.0	7.590073397324457e+17
19236.0	7.588539403337727e+17
19237.0	7.587000942417236e+17
19238.0	7.585442585116671e+17
19239.0	7.583931556342441e+17
19240.0	7.582352508540244e+17
19241.0	7.580840589175466e+17
19242.0	7.579312044987731e+17
19243.0	7.577729704656896e+17
19244.0	7.576226112383657e+17
19245.0	7.574680834321064e+17
19246.0	7.57313074119748e+17
19247.0	7.571585625314644e+17
19248.0	7.570036907922772e+17
19249.0	7.568485581673811e+17
19250.0	7.566931856282963e+17
19251.0	7.565354567292244e+17
19252.0	7.563750661248339e+17
19253.0	7.562263387613866e+17
19254.0	7.560700006935208e+17
19255.0	7.559099057875625e+17
19256.0	7.557567682532692e+17
19257.0	7.556017000808445e+17
19258.0	7.554450263288488e+17
19259.0	7.552864131306836e+17
19260.0	7.551252460208125e+17
19261.0	7.549738621250217e+17
19262.0	7.548157061059923e+17
19263.0	7.546575243618986e+17
19264.0	7.544901650612221e+17
19265.0	7.542971620655101e+17
19266.0	7.541257194700799e+17
19267.0	7.539700180975615e+17
19268.0	7.538112129400832e+17
19269.0	7.536521234087935e+17
19270.0	7.534927306293247e+17
19271.0	7.533262326988799e+17
19272.0	7.531723989101226e+17
19273.0	7.529059509949777e+17
19274.0	7.527955630653439e+17
19275.0	7.526918031147007e+17
19276.0	7.52530807272243e+17
19277.0	7.523694652598956e+17
19278.0	7.522077904994305e+17
19279.0	7.52044812149282e+17
19280.0	7.518817451595091e+17
19281.0	7.517206805304659e+17
19282.0	7.515575216854356e+17
19283.0	7.51388562677214e+17
19284.0	7.512195154487978e+17
19285.0	7.510619782294186e+17
19286.0	7.509011160454483e+17
19287.0	7.507369093234688e+17
19288.0	7.504721097697961e+17
19289.0	7.50135863183496e+17
19290.0	7.502396677335722e+17
19291.0	7.500670424842239e+17
19292.0	7.499060030210047e+17
19293.0	7.497382623182845e+17
19294.0	7.495704146608127e+17
19295.0	7.494018950758399e+17
19296.0	7.492329053093887e+17
19297.0	7.490468757635072e+17
19298.0	7.488201860754089e+17
19299.0	7.486495669616637e+17
19300.0	7.484783476430164e+17
19301.0	7.483064348661076e+17
19302.0	7.481339471899305e+17
19303.0	7.479592252080127e+17
19304.0	7.477863917813757e+17
19305.0	7.476132714643455e+17
19306.0	7.47438238544691e+17
19307.0	7.472609956462591e+17
19308.0	7.470851828656808e+17
19309.0	7.468993872221523e+17
19310.0	7.46719745880883e+17
19311.0	7.465575771712169e+17
19312.0	7.463802502468947e+17
19313.0	7.461988826699092e+17
19314.0	7.458513778726228e+17
19315.0	7.456797427586391e+17
19316.0	7.45580465680111e+17
19317.0	7.453769284102824e+17
19318.0	7.451922948685824e+17
19319.0	7.450066938407594e+17
19320.0	7.448197555290111e+17
19321.0	7.446323352917332e+17
19322.0	7.44440376398097e+17
19323.0	7.44247617790498e+17
19324.0	7.440623833448447e+17
19325.0	7.438600369777321e+17
19326.0	7.436769277859155e+17
19327.0	7.434824369307645e+17
19328.0	7.432069582596778e+17
19329.0	7.429730889018024e+17
19330.0	7.427737952889513e+17
19331.0	7.425407189341526e+17
19332.0	7.423364451445416e+17
19333.0	7.421336716574719e+17
19334.0	7.419289750820182e+17
19335.0	7.417233970036735e+17
19336.0	7.415157591026345e+17
19337.0	7.411955643973632e+17
19338.0	7.409480055302826e+17
19339.0	7.407398542464339e+17
19340.0	7.40524271075328e+17
19341.0	7.403084324711081e+17
19342.0	7.400822599406931e+17
19343.0	7.39869551685359e+17
19344.0	7.39486304567296e+17
19345.0	7.392090420587176e+17
19346.0	7.390088491870889e+17
19347.0	7.387923597666985e+17
19348.0	7.385620182379177e+17
19349.0	7.382818591429972e+17
19350.0	7.379886003978239e+17
19351.0	7.377492581722793e+17
19352.0	7.37506012308002e+17
19353.0	7.372627643465727e+17
19354.0	7.370149273971369e+17
19355.0	7.367232891912191e+17
19356.0	7.364502980220244e+17
19357.0	7.361927796402857e+17
19358.0	7.359309826490368e+17
19359.0	7.356622944163158e+17
19360.0	7.353988830374569e+17
19361.0	7.351267447100756e+17
19362.0	7.348519603361108e+17
19363.0	7.345721146955091e+17
19364.0	7.342880237202088e+17
19365.0	7.339996010075476e+17
19366.0	7.337066140532736e+17
19367.0	7.333701107755689e+17
19368.0	7.33018800066833e+17
19369.0	7.327083112606377e+17
19370.0	7.323852111609853e+17
19371.0	7.320770764778152e+17
19372.0	7.31753820070434e+17
19373.0	7.314236694855679e+17
19374.0	7.310874456883199e+17
19375.0	7.306638109179903e+17
19376.0	7.302748774421844e+17
19377.0	7.299175937649321e+17
19378.0	7.295531281809407e+17
19379.0	7.291809494117034e+17
19380.0	7.287764974305281e+17
19381.0	7.282532942173523e+17
19382.0	7.278420776626857e+17
19383.0	7.274340912813395e+17
19384.0	7.270195148095487e+17
19385.0	7.264028471241386e+17
19386.0	7.259551261436585e+17
19387.0	7.255054388734633e+17
19388.0	7.248927088006484e+17
19389.0	7.243269875083945e+17
19390.0	7.238395965210623e+17
19391.0	7.227789919562406e+17
19392.0	7.225292875628543e+17
19393.0	7.218301240694103e+17
19394.0	7.211076127031296e+17
19395.0	7.2034825577431e+17
19396.0	7.195572490469375e+17
19397.0	7.186130476029274e+17
19398.0	7.178141161575763e+17
19399.0	7.169504225613139e+17
19400.0	7.162936127302314e+17
19401.0	7.155857963876352e+17
19402.0	7.148674947044691e+17
19403.0	7.14137554526754e+17
19404.0	7.133854984830975e+17
19405.0	7.12610006765841e+17
19406.0	7.118090799502676e+17
19407.0	7.109814164040361e+17
19408.0	7.100805421203455e+17
19409.0	7.091767375560701e+17
19410.0	7.082606074702505e+17
19411.0	7.07308130804258e+17
19412.0	7.062801344364543e+17
19413.0	7.052123564933119e+17
19414.0	7.041554413780991e+17
19415.0	7.029824380644008e+17
19416.0	7.017864394790227e+17
19417.0	7.005206663397375e+17
19418.0	6.991971787385513e+17
19419.0	6.977246467544403e+17
19420.0	6.962048177012736e+17
19421.0	6.945419636506625e+17
19422.0	6.927185533905582e+17
19423.0	6.907131933840718e+17
19424.0	6.884945168782674e+17
19425.0	6.859051150693722e+17
19426.0	6.832884752405846e+17
19427.0	6.811620748907862e+17
19428.0	6.790301118453076e+17
19429.0	6.767632532723027e+17
19430.0	6.744063531985578e+17
19431.0	6.718684408053759e+17
19432.0	6.692720323417427e+17
19433.0	6.663979760528042e+17
19434.0	6.63252997505024e+17
19435.0	6.598037408666966e+17
19436.0	6.558798588149764e+17
19437.0	6.514066080836273e+17
19438.0	6.460898918356305e+17
19439.0	6.415159978710358e+17
19440.0	6.366887579484159e+17
19441.0	6.313294061808296e+17
19442.0	6.253705937900884e+17
19443.0	6.185944077391187e+17
19444.0	6.10759944262997e+17
19445.0	6.023548423023277e+17
19446.0	5.931331027817811e+17
19447.0	5.82520387980492e+17
19448.0	5.704527778938884e+17
19449.0	5.5620709398173005e+17
19450.0	5.351897589000819e+17
19451.0	5.274034779805019e+17
19452.0	5.4637584155934765e+17
19453.0	5.635871429274288e+17
19454.0	5.762512146399226e+17
19455.0	5.87346457272866e+17
19456.0	5.969864863427245e+17
19457.0	6.054469832452774e+17
19458.0	6.132974781901486e+17
19459.0	6.204630265146028e+17
19460.0	6.265298149004626e+17
19461.0	6.319378453408425e+17
19462.0	6.367573790687233e+17
19463.0	6.41185928725572e+17
19464.0	6.460404024737788e+17
19465.0	6.50571306010761e+17
19466.0	6.544717473557162e+17
19467.0	6.57895604896836e+17
19468.0	6.609042047412908e+17
19469.0	6.636271740212563e+17
19470.0	6.661147455389695e+17
19471.0	6.68446712992017e+17
19472.0	6.705798565942611e+17
19473.0	6.726379812945919e+17
19474.0	6.745634179295914e+17
19475.0	6.763676091198121e+17
19476.0	6.785154535478614e+17
19477.0	6.808745847816188e+17
19478.0	6.830155100760741e+17
19479.0	6.848351974020435e+17
19480.0	6.864461671432195e+17
19481.0	6.878918532748626e+17
19482.0	6.892542833109674e+17
19483.0	6.90469384224768e+17
19484.0	6.915263716218195e+17
19485.0	6.926211293555369e+17
19486.0	6.935091099992064e+17
19487.0	6.944710106371411e+17
19488.0	6.952816906775209e+17
19489.0	6.96047203516416e+17
19490.0	6.968353837722281e+17
19491.0	6.975534230317737e+17
19492.0	6.98211905900817e+17
19493.0	6.988369243755859e+17
19494.0	6.994873158729727e+17
19495.0	7.000556240022186e+17
19496.0	7.005869543784445e+17
19497.0	7.011031347888127e+17
19498.0	7.015681996357631e+17
19499.0	7.015587113511589e+17
19500.0	7.02493302526225e+17
19501.0	7.029353624545961e+17
19502.0	7.033428576130387e+17
19503.0	7.037994292041046e+17
19504.0	7.043314701653331e+17
19505.0	7.049969981368997e+17
19506.0	7.054276027219969e+17
19507.0	7.061041843623255e+17
19508.0	7.063830007207252e+17
19509.0	7.069620136225449e+17
19510.0	7.072144110387199e+17
19511.0	7.072059221868544e+17
19512.0	7.078703100067836e+17
19513.0	7.079965254221819e+17
19514.0	7.084097612546044e+17
19515.0	7.087240830954153e+17
19516.0	7.089030018979156e+17
19517.0	7.091285483585535e+17
19518.0	7.093879768263336e+17
19519.0	7.095208040027476e+17
19520.0	7.096439317113514e+17
19521.0	7.097783935478442e+17
19522.0	7.10024073646353e+17
19523.0	7.101209808033108e+17
19524.0	7.102099692541267e+17
19525.0	7.102907771344211e+17
19526.0	7.103657216573439e+17
19527.0	7.10477598564898e+17
19528.0	7.106059007863466e+17
19529.0	7.106598403746474e+17
19530.0	7.107079614846292e+17
19531.0	7.107504248979455e+17
19532.0	7.10787470528785e+17
19533.0	7.108191923295572e+17
19534.0	7.108456968355839e+17
19535.0	7.108910720745472e+17
19536.0	7.109636814886228e+17
19537.0	7.109762599266986e+17
19538.0	7.109822857434451e+17
19539.0	7.109753657010858e+17
19540.0	7.109848529371135e+17
19541.0	7.109805005078527e+17
19542.0	7.109716734552745e+17
19543.0	7.109591638037844e+17
19544.0	7.109431194725033e+17
19545.0	7.109154420992681e+17
19546.0	7.108823708510889e+17
19547.0	7.108748320090793e+17
19548.0	7.108575172231168e+17
19549.0	7.108659017766228e+17
19550.0	7.10833356214545e+17
19551.0	7.107958359283027e+17
19552.0	7.107554966503423e+17
19553.0	7.107313988359508e+17
19554.0	7.107597970702335e+17
19555.0	7.107128777681577e+17
19556.0	7.106628427972607e+17
19557.0	7.106104695018836e+17
19558.0	7.105560598719144e+17
19559.0	7.105593642844159e+17
19560.0	7.105964686355113e+17
19561.0	7.105365063062867e+17
19562.0	7.104739553924436e+17
19563.0	7.104095059967999e+17
19564.0	7.103433906236072e+17
19565.0	7.102754932304553e+17
19566.0	7.102100194459647e+17
19567.0	7.102635271607638e+17
19568.0	7.101900668622164e+17
19569.0	7.101162447350441e+17
19570.0	7.10040578372403e+17
19571.0	7.099632629492393e+17
19572.0	7.098839615231316e+17
19573.0	7.098042972897279e+17
19574.0	7.09721200857361e+17
19575.0	7.096408877651284e+17
19576.0	7.095901591961599e+17
19577.0	7.096085791812266e+17
19578.0	7.095221615591423e+17
19579.0	7.094351600899412e+17
19580.0	7.09346913751313e+17
19581.0	7.092576606399145e+17
19582.0	7.091676378737322e+17
19583.0	7.090762579705855e+17
19584.0	7.089838764676435e+17
19585.0	7.088881311328938e+17
19586.0	7.087929180553215e+17
19587.0	7.086988170275497e+17
19588.0	7.085954478462292e+17
19589.0	7.085078137361748e+17
19590.0	7.084495635218432e+17
19591.0	7.08395173744913e+17
19592.0	7.082961149100032e+17
19593.0	7.081963940741119e+17
19594.0	7.080905969500159e+17
19595.0	7.079945188671487e+17
19596.0	7.078235163940182e+17
19597.0	7.077896911497897e+17
19598.0	7.076820426599081e+17
19599.0	7.075835227930623e+17
19600.0	7.074791820711251e+17
19601.0	7.073727623725055e+17
19602.0	7.072677980973738e+17
19603.0	7.071483852838228e+17
19604.0	7.070545760397994e+17
19605.0	7.069423634481152e+17
19606.0	7.068413307737427e+17
19607.0	7.067333914787839e+17
19608.0	7.06624721396258e+17
19609.0	7.065152443296425e+17
19610.0	7.06406337548561e+17
19611.0	7.06296317878818e+17
19612.0	7.061889049690111e+17
19613.0	7.061378140121769e+17
19614.0	7.060256488161279e+17
19615.0	7.059150099273044e+17
19616.0	7.058000752323242e+17
19617.0	7.056907403526143e+17
19618.0	7.055670873773395e+17
19619.0	7.054506918062761e+17
19620.0	7.053379933743786e+17
19621.0	7.05237856882961e+17
19622.0	7.051238031316308e+17
19623.0	7.050094377435135e+17
19624.0	7.048947426831017e+17
19625.0	7.047797045286227e+17
19626.0	7.046644292561577e+17
19627.0	7.045487907569663e+17
19628.0	7.044239514927104e+17
19629.0	7.043145850159101e+17
19630.0	7.041856055541759e+17
19631.0	7.036672448047785e+17
19632.0	7.039661529978195e+17
19633.0	7.038496535478271e+17
19634.0	7.037324498042879e+17
19635.0	7.036139164663805e+17
19636.0	7.034971019542527e+17
19637.0	7.03369737019938e+17
19638.0	7.032606460390057e+17
19639.0	7.031420503457792e+17
19640.0	7.030224106203817e+17
19641.0	7.028928187902633e+17
19642.0	7.027857249970857e+17
19643.0	7.026662118697642e+17
19644.0	7.025456523334996e+17
19645.0	7.024217465815039e+17
19646.0	7.023076135578281e+17
19647.0	7.021876526186493e+17
19648.0	7.020675243267414e+17
19649.0	7.019471696822271e+17
19650.0	7.018267772190719e+17
19651.0	7.017061752504319e+17
19652.0	7.015854238247594e+17
19653.0	7.014644823971155e+17
19654.0	7.013434820395007e+17
19655.0	7.012222046481065e+17
19656.0	7.0110083036829e+17
19657.0	7.009795380871165e+17
19658.0	7.008579642982399e+17
19659.0	7.007362344812543e+17
19660.0	7.006144467828736e+17
19661.0	7.00503155749683e+17
19662.0	7.004157370171392e+17
19663.0	7.002925035421695e+17
19664.0	7.001696609064276e+17
19665.0	7.000488411835049e+17
19666.0	6.999260035809279e+17
