# Flux units: erg / (cm m2 s)
# Wavelength units: Angstrom
wave	flux
19000.0	4.5360983383736314e+17
19001.0	4.53527536210193e+17
19002.0	4.5345886021440845e+17
19003.0	4.5338121973268474e+17
19004.0	4.5328961613332474e+17
19005.0	4.532197108569429e+17
19006.0	4.531380552379049e+17
19007.0	4.530706646564863e+17
19008.0	4.529902120337408e+17
19009.0	4.529147497938943e+17
19010.0	4.5278833682677734e+17
19011.0	4.5274989197612365e+17
19012.0	4.5265358292691616e+17
19013.0	4.526091376350549e+17
19014.0	4.525149595019946e+17
19015.0	4.5243681808056314e+17
19016.0	4.523647467956906e+17
19017.0	4.522978358329343e+17
19018.0	4.5221483069658445e+17
19019.0	4.521394398997161e+17
19020.0	4.5206094426931194e+17
19021.0	4.5198507280520525e+17
19022.0	4.5191119629189114e+17
19023.0	4.518215223519913e+17
19024.0	4.5174517791020365e+17
19025.0	4.5167320938577914e+17
19026.0	4.5159554366832634e+17
19027.0	4.5151265667153914e+17
19028.0	4.5143610475151354e+17
19029.0	4.513548862488576e+17
19030.0	4.5127559985233914e+17
19031.0	4.512075455922176e+17
19032.0	4.511360027197439e+17
19033.0	4.510405441355775e+17
19034.0	4.509743619331412e+17
19035.0	4.509008546583893e+17
19036.0	4.5051066589730086e+17
19037.0	4.5074349905237325e+17
19038.0	4.506652193587198e+17
19039.0	4.505882136849066e+17
19040.0	4.505100227706878e+17
19041.0	4.5043417192857594e+17
19042.0	4.500545557495803e+17
19043.0	4.5028175539514016e+17
19044.0	4.5021079595035296e+17
19045.0	4.501274572270251e+17
19046.0	4.5004273557176314e+17
19047.0	4.499703808917504e+17
19048.0	4.4983928729108474e+17
19049.0	4.491892045643767e+17
19050.0	4.4974070933312845e+17
19051.0	4.4955357913197184e+17
19052.0	4.4958221245699405e+17
19053.0	4.4951209725569696e+17
19054.0	4.494282935238654e+17
19055.0	4.492494468633941e+17
19056.0	4.492557850159785e+17
19057.0	4.4920683553095674e+17
19058.0	4.488079289090042e+17
19059.0	4.4891649077848723e+17
19060.0	4.489729233212755e+17
19061.0	4.4889393835540474e+17
19062.0	4.488092702474239e+17
19063.0	4.4874524818145274e+17
19064.0	4.4865747293306874e+17
19065.0	4.485770220579498e+17
19066.0	4.483963455624534e+17
19067.0	4.484178000565587e+17
19068.0	4.4836214332020045e+17
19069.0	4.482833669510485e+17
19070.0	4.4819407308499616e+17
19071.0	4.481220287834794e+17
19072.0	4.4793371124476563e+17
19073.0	4.4798024662821536e+17
19074.0	4.4788804464148474e+17
19075.0	4.478228380341587e+17
19076.0	4.4773849875961165e+17
19077.0	4.476663465246719e+17
19078.0	4.475871233223338e+17
19079.0	4.4751030960783354e+17
19080.0	4.4743810725096096e+17
19081.0	4.4736040091866445e+17
19082.0	4.472863601284436e+17
19083.0	4.4720092774836896e+17
19084.0	4.4711836909567994e+17
19085.0	4.4705400959795194e+17
19086.0	4.467867768586238e+17
19087.0	4.4662835862568915e+17
19088.0	4.4666116731043814e+17
19089.0	4.467299741685076e+17
19090.0	4.4667366367996576e+17
19091.0	4.465773222647126e+17
19092.0	4.462667261542405e+17
19093.0	4.464418820369066e+17
19094.0	4.4636834428354554e+17
19095.0	4.46284672602385e+17
19096.0	4.4621376607573325e+17
19097.0	4.461376114262015e+17
19098.0	4.459384553166163e+17
19099.0	4.4583088351259315e+17
19100.0	4.459098842071039e+17
19101.0	4.4583142380885325e+17
19102.0	4.457455139072682e+17
19103.0	4.456750866497534e+17
19104.0	4.4560831920209914e+17
19105.0	4.452463862087688e+17
19106.0	4.4544853816989005e+17
19107.0	4.4530559174574054e+17
19108.0	4.451884050590379e+17
19109.0	4.4520255244642976e+17
19110.0	4.4514268099379194e+17
19111.0	4.4497785735959885e+17
19112.0	4.448878463374675e+17
19113.0	4.449161533456383e+17
19114.0	4.4477792551348883e+17
19115.0	4.447412561117183e+17
19116.0	4.446629761384447e+17
19117.0	4.4456972124159994e+17
19118.0	4.4436949180962125e+17
19119.0	4.439097376505854e+17
19120.0	4.4426966772394656e+17
19121.0	4.4426761859672723e+17
19122.0	4.442235540777642e+17
19123.0	4.4415680047131296e+17
19124.0	4.440784391285418e+17
19125.0	4.4400653589544954e+17
19126.0	4.43930010329634e+17
19127.0	4.436925299556348e+17
19128.0	4.4377359305932794e+17
19129.0	4.437012874526719e+17
19130.0	4.436313175141034e+17
19131.0	4.435545307829589e+17
19132.0	4.4347395428843514e+17
19133.0	4.4340107336308045e+17
19134.0	4.433260911613268e+17
19135.0	4.432545518540117e+17
19136.0	4.4317321255540045e+17
19137.0	4.430787029325141e+17
19138.0	4.4302410022475085e+17
19139.0	4.4295271547753805e+17
19140.0	4.4287784736085325e+17
19141.0	4.4280034081723725e+17
19142.0	4.4271983359863456e+17
19143.0	4.4263931037177165e+17
19144.0	4.4256404764098554e+17
19145.0	4.424933957085866e+17
19146.0	4.4237331607060486e+17
19147.0	4.423298525254997e+17
19148.0	4.421678106935298e+17
19149.0	4.420653269996884e+17
19150.0	4.4211973040810656e+17
19151.0	4.420400486285311e+17
19152.0	4.419702613519018e+17
19153.0	4.416733390918994e+17
19154.0	4.417901797485226e+17
19155.0	4.417445341167614e+17
19156.0	4.416654871450965e+17
19157.0	4.4152087802893664e+17
19158.0	4.4135004165024435e+17
19159.0	4.4142589745561594e+17
19160.0	4.4135797349853856e+17
19161.0	4.412876562715987e+17
19162.0	4.4118554412318726e+17
19163.0	4.4113680812823885e+17
19164.0	4.4106077392513696e+17
19165.0	4.40743581083238e+17
19166.0	4.408908772103508e+17
19167.0	4.4083362440151034e+17
19168.0	4.4075954823932576e+17
19169.0	4.406835187897685e+17
19170.0	4.406113650868223e+17
19171.0	4.4052559163992736e+17
19172.0	4.404591767934293e+17
19173.0	4.403883742855168e+17
19174.0	4.403050410846891e+17
19175.0	4.4023173926092794e+17
19176.0	4.4016165880244896e+17
19177.0	4.40072623235618e+17
19178.0	4.4000450466283514e+17
19179.0	4.399228714833238e+17
19180.0	4.398587539270315e+17
19181.0	4.397706091604649e+17
19182.0	4.397010952126464e+17
19183.0	4.396332799579476e+17
19184.0	4.395592132329472e+17
19185.0	4.394819410810196e+17
19186.0	4.3940826156018336e+17
19187.0	4.3933140869884576e+17
19188.0	4.392612265983999e+17
19189.0	4.3918783711368525e+17
19190.0	4.3911156663145805e+17
19191.0	4.3903383723048954e+17
19192.0	4.3896287429044896e+17
19193.0	4.3885632568688634e+17
19194.0	4.387667447207254e+17
19195.0	4.387401559091882e+17
19196.0	4.3866184727483725e+17
19197.0	4.3858272844076365e+17
19198.0	4.38504470487586e+17
19199.0	4.380911275606014e+17
19200.0	4.3814859574695264e+17
19201.0	4.382858398050987e+17
19202.0	4.3821466253612365e+17
19203.0	4.3813798059267405e+17
19204.0	4.380678514103636e+17
19205.0	4.379901847841449e+17
19206.0	4.379166432559104e+17
19207.0	4.378232597337428e+17
19208.0	4.3774128667579725e+17
19209.0	4.3769205127905274e+17
19210.0	4.376112793299626e+17
19211.0	4.3754213182450336e+17
19212.0	4.374673777229823e+17
19213.0	4.373852116571477e+17
19214.0	4.373088241538389e+17
19215.0	4.372440288679253e+17
19216.0	4.3717181868168525e+17
19217.0	4.371008149869909e+17
19218.0	4.3695008169765536e+17
19219.0	4.369333694234622e+17
19220.0	4.368733181050879e+17
19221.0	4.367702186874197e+17
19222.0	4.3671651118394016e+17
19223.0	4.3664625239763616e+17
19224.0	4.365678256936276e+17
19225.0	4.364897446002687e+17
19226.0	4.3642926602212685e+17
19227.0	4.3635218911505056e+17
19228.0	4.3627992936611834e+17
19229.0	4.3618891744324256e+17
19230.0	4.3612706054690125e+17
19231.0	4.360606444421119e+17
19232.0	4.359859059993259e+17
19233.0	4.359029372835157e+17
19234.0	4.3582912221675514e+17
19235.0	4.357572476447403e+17
19236.0	4.3568654621955405e+17
19237.0	4.3560236115558394e+17
19238.0	4.355269310720682e+17
19239.0	4.354631028528468e+17
19240.0	4.3538210357247994e+17
19241.0	4.3531564853056845e+17
19242.0	4.352288539803647e+17
19243.0	4.3515727154162336e+17
19244.0	4.350900284598955e+17
19245.0	4.3501912892375034e+17
19246.0	4.349461878101334e+17
19247.0	4.348736316637183e+17
19248.0	4.347973346874709e+17
19249.0	4.3471108420840096e+17
19250.0	4.345997003412821e+17
19251.0	4.345267764942163e+17
19252.0	4.344818724853077e+17
19253.0	4.344238022066176e+17
19254.0	4.343548519033513e+17
19255.0	4.3426355162207565e+17
19256.0	4.3419795340656634e+17
19257.0	4.3412973249276576e+17
19258.0	4.340538880120148e+17
19259.0	4.339829684830207e+17
19260.0	4.3389020348088314e+17
19261.0	4.3383755468963834e+17
19262.0	4.33756801335296e+17
19263.0	4.336778972495872e+17
19264.0	4.335643964473343e+17
19265.0	4.3351036661159245e+17
19266.0	4.334291304928596e+17
19267.0	4.3338925964875085e+17
19268.0	4.3330820262679885e+17
19269.0	4.3323818088857594e+17
19270.0	4.3316410871098016e+17
19271.0	4.330548284271275e+17
19272.0	4.3301685145108474e+17
19273.0	4.329351324980565e+17
19274.0	4.328441114176169e+17
19275.0	4.3280040795832314e+17
19276.0	4.327255655667029e+17
19277.0	4.3265366540943354e+17
19278.0	4.3257406961309005e+17
19279.0	4.3250444283849376e+17
19280.0	4.324269757912403e+17
19281.0	4.3235801709936634e+17
19282.0	4.322861385427625e+17
19283.0	4.322064557146111e+17
19284.0	4.3213871001545376e+17
19285.0	4.320449778767187e+17
19286.0	4.319837178997417e+17
19287.0	4.319112500434261e+17
19288.0	4.3178370887843834e+17
19289.0	4.315384554105508e+17
19290.0	4.3169585673448096e+17
19291.0	4.316031548566187e+17
19292.0	4.315480603667113e+17
19293.0	4.3147341238108154e+17
19294.0	4.3140239267812685e+17
19295.0	4.313247607947264e+17
19296.0	4.311142161711108e+17
19297.0	4.311576387518464e+17
19298.0	4.311012578689023e+17
19299.0	4.3088185361694726e+17
19300.0	4.3096222843535366e+17
19301.0	4.308858288384682e+17
19302.0	4.30813764264482e+17
19303.0	4.307282877743104e+17
19304.0	4.306603967425194e+17
19305.0	4.305863614048938e+17
19306.0	4.305162253019818e+17
19307.0	4.304349358456832e+17
19308.0	4.3036231811290445e+17
19309.0	4.302732345911978e+17
19310.0	4.3019309115856205e+17
19311.0	4.3011159373469e+17
19312.0	4.300055541798228e+17
19313.0	4.298114317243733e+17
19314.0	4.285204779412139e+17
19315.0	4.284637798989826e+17
19316.0	4.294178441090393e+17
19317.0	4.296418899875157e+17
19318.0	4.29607488725538e+17
19319.0	4.295407093241172e+17
19320.0	4.2943424670378643e+17
19321.0	4.292927322849279e+17
19322.0	4.29340056686865e+17
19323.0	4.292741803890006e+17
19324.0	4.292030471602174e+17
19325.0	4.2911972304704845e+17
19326.0	4.2905676619448314e+17
19327.0	4.289877299079849e+17
19328.0	4.286577320656898e+17
19329.0	4.288431110750207e+17
19330.0	4.2876920471224314e+17
19331.0	4.286965218978475e+17
19332.0	4.286237549177514e+17
19333.0	4.2855527409691296e+17
19334.0	4.284642978955264e+17
19335.0	4.278873909537457e+17
19336.0	4.283272114034004e+17
19337.0	4.2825924200802976e+17
19338.0	4.2817112394519885e+17
19339.0	4.2810872116019194e+17
19340.0	4.280075048452095e+17
19341.0	4.2777829053562925e+17
19342.0	4.278124365742081e+17
19343.0	4.2782406059840845e+17
19344.0	4.2756192932113094e+17
19345.0	4.273781887467516e+17
19346.0	4.275559125221378e+17
19347.0	4.2728947844819616e+17
19348.0	4.274616165291349e+17
19349.0	4.273853206014634e+17
19350.0	4.272162433837738e+17
19351.0	4.272366419618473e+17
19352.0	4.2690770367064704e+17
19353.0	4.2709483093579085e+17
19354.0	4.270260546961407e+17
19355.0	4.2694526960489805e+17
19356.0	4.2687644135587834e+17
19357.0	4.268067776015018e+17
19358.0	4.2673326326633805e+17
19359.0	4.266053457324712e+17
19360.0	4.263817255059454e+17
19361.0	4.2651081772455245e+17
19362.0	4.2644149203107834e+17
19363.0	4.263692137573033e+17
19364.0	4.26298269831441e+17
19365.0	4.2622254649617056e+17
19366.0	4.2614045977258656e+17
19367.0	4.260752973452629e+17
19368.0	4.2600577514864634e+17
19369.0	4.259331449727659e+17
19370.0	4.258630146719743e+17
19371.0	4.257799187289429e+17
19372.0	4.2571277498231456e+17
19373.0	4.2563464893999776e+17
19374.0	4.2556103890479776e+17
19375.0	4.2549614610131616e+17
19376.0	4.254247704417621e+17
19377.0	4.2535196634207565e+17
19378.0	4.2527987275748685e+17
19379.0	4.2520704810571085e+17
19380.0	4.251201179396778e+17
19381.0	4.250494855806976e+17
19382.0	4.249786407802197e+17
19383.0	4.2490104147258016e+17
19384.0	4.248242252414976e+17
19385.0	4.2476364844673696e+17
19386.0	4.2469212619625805e+17
19387.0	4.246167600758783e+17
19388.0	4.245424877600767e+17
19389.0	4.2447272879499936e+17
19390.0	4.243977439368533e+17
19391.0	4.240283826913274e+17
19392.0	4.2424756751127885e+17
19393.0	4.241764509199018e+17
19394.0	4.2410449085399034e+17
19395.0	4.239578016426668e+17
19396.0	4.239409055880533e+17
19397.0	4.2388111312814074e+17
19398.0	4.23743946035473e+17
19399.0	4.235714918438227e+17
19400.0	4.2360196765668685e+17
19401.0	4.235843311676074e+17
19402.0	4.2351404945244154e+17
19403.0	4.2343831891694925e+17
19404.0	4.2335794913170765e+17
19405.0	4.2328075737060685e+17
19406.0	4.232124651536383e+17
19407.0	4.230476203382099e+17
19408.0	4.2298887673391795e+17
19409.0	4.229860358619134e+17
19410.0	4.2291024877322234e+17
19411.0	4.2283272650096634e+17
19412.0	4.2275466861608954e+17
19413.0	4.225882099023872e+17
19414.0	4.226010438434815e+17
19415.0	4.225232439782059e+17
19416.0	4.2242926724164256e+17
19417.0	4.2236273803045536e+17
19418.0	4.222902109645482e+17
19419.0	4.222095211539114e+17
19420.0	4.2212810132466336e+17
19421.0	4.220471908237312e+17
19422.0	4.219580598364842e+17
19423.0	4.2188538079696205e+17
19424.0	4.218021474904746e+17
19425.0	4.217128599158783e+17
19426.0	4.216327194891604e+17
19427.0	4.215473997960533e+17
19428.0	4.2144969949620896e+17
19429.0	4.213701655658495e+17
19430.0	4.2127057223679994e+17
19431.0	4.210599286276099e+17
19432.0	4.210847163351038e+17
19433.0	4.2098515397399885e+17
19434.0	4.208914631491583e+17
19435.0	4.207756219951786e+17
19436.0	4.2061378134999014e+17
19437.0	4.2057261928939526e+17
19438.0	4.197784265687036e+17
19439.0	4.203541293258068e+17
19440.0	4.202333121194666e+17
19441.0	4.201122713567231e+17
19442.0	4.1998864333755725e+17
19443.0	4.1986180534763514e+17
19444.0	4.1972913014483616e+17
19445.0	4.1960022869715616e+17
19446.0	4.1946567137034234e+17
19447.0	4.193350468326741e+17
19448.0	4.192024215420928e+17
19449.0	4.1908560255604045e+17
19450.0	4.189645653584554e+17
19451.0	4.188864232379733e+17
19452.0	4.188391716771157e+17
19453.0	4.188066662405461e+17
19454.0	4.1875942838108166e+17
19455.0	4.187105574693547e+17
19456.0	4.185992669254996e+17
19457.0	4.182104323653632e+17
19458.0	4.147036365171382e+17
19459.0	4.170306817447256e+17
19460.0	4.1839796144482976e+17
19461.0	4.1858519244909216e+17
19462.0	4.1862336418065056e+17
19463.0	4.186255387175594e+17
19464.0	4.1860687091903123e+17
19465.0	4.185846991989418e+17
19466.0	4.1855509985580365e+17
19467.0	4.1852270074484045e+17
19468.0	4.184864728634708e+17
19469.0	4.182406784701777e+17
19470.0	4.1840002874736634e+17
19471.0	4.183531916536489e+17
19472.0	4.1830474981922125e+17
19473.0	4.1825103008235514e+17
19474.0	4.180101653244583e+17
19475.0	4.180505582895102e+17
19476.0	4.1808878762284365e+17
19477.0	4.1803116872116896e+17
19478.0	4.179798390385321e+17
19479.0	4.177401706359463e+17
19480.0	4.178608206293674e+17
19481.0	4.1778807545965216e+17
19482.0	4.1773034827502925e+17
19483.0	4.1767713353236474e+17
19484.0	4.1760881621947725e+17
19485.0	4.1754751122363725e+17
19486.0	4.1729038109463955e+17
19487.0	4.1741898062233594e+17
19488.0	4.173596474387114e+17
19489.0	4.1729684179080525e+17
19490.0	4.170791674096295e+17
19491.0	4.171586930212863e+17
19492.0	4.1709757627979085e+17
19493.0	4.170273251131392e+17
19494.0	4.169617403893077e+17
19495.0	4.169018118941354e+17
19496.0	4.1678288345279123e+17
19497.0	4.167678723883008e+17
19498.0	4.166995022271829e+17
19499.0	4.161356261490681e+17
19500.0	4.16565271007505e+17
19501.0	4.1654431717348685e+17
19502.0	4.164962865905664e+17
19503.0	4.164259915934378e+17
19504.0	4.163518032336212e+17
19505.0	4.162736838322859e+17
19506.0	4.1620835062688416e+17
19507.0	4.161307696343721e+17
19508.0	4.160459064912555e+17
19509.0	4.159360976551934e+17
19510.0	4.156259613103444e+17
19511.0	4.141282786716328e+17
19512.0	4.154015339599186e+17
19513.0	4.154634237116411e+17
19514.0	4.15518072906274e+17
19515.0	4.155242921503405e+17
19516.0	4.1547750881361914e+17
19517.0	4.1543109198916256e+17
19518.0	4.153189796413438e+17
19519.0	4.152486041834836e+17
19520.0	4.1505103834426003e+17
19521.0	4.151717799133183e+17
19522.0	4.150685878015316e+17
19523.0	4.1499075088657075e+17
19524.0	4.1482060810595014e+17
19525.0	4.1488934981249696e+17
19526.0	4.148172456722432e+17
19527.0	4.1475147024738976e+17
19528.0	4.146640979318101e+17
19529.0	4.145893617259861e+17
19530.0	4.1454214469823123e+17
19531.0	4.144714836082687e+17
19532.0	4.1440025055505056e+17
19533.0	4.143258407359829e+17
19534.0	4.142647337811967e+17
19535.0	4.141952241674923e+17
19536.0	4.1411857556875936e+17
19537.0	4.1405441341303443e+17
19538.0	4.138138268073986e+17
19539.0	4.138606471239e+17
19540.0	4.138476170291881e+17
19541.0	4.137356332367872e+17
19542.0	4.13688093806865e+17
19543.0	4.134558785426774e+17
19544.0	4.135537664677204e+17
19545.0	4.1347090526590266e+17
19546.0	4.133309153367381e+17
19547.0	4.133640461440341e+17
19548.0	4.1329300861528736e+17
19549.0	4.1321112189009914e+17
19550.0	4.1314272516505594e+17
19551.0	4.1308453101458765e+17
19552.0	4.1300835420514976e+17
19553.0	4.129434294550527e+17
19554.0	4.12864606179601e+17
19555.0	4.1277468959921485e+17
19556.0	4.127156892336127e+17
19557.0	4.126629254485333e+17
19558.0	4.125951781415595e+17
19559.0	4.1252504196874234e+17
19560.0	4.12389325546018e+17
19561.0	4.123850793724586e+17
19562.0	4.122593316219561e+17
19563.0	4.122508513684138e+17
19564.0	4.121673144642218e+17
19565.0	4.1210623169658874e+17
19566.0	4.120295694663679e+17
19567.0	4.119727605547008e+17
19568.0	4.119014910809429e+17
19569.0	4.118335462222506e+17
19570.0	4.117653564162048e+17
19571.0	4.1169329219174394e+17
19572.0	4.11624146014481e+17
19573.0	4.115362410222932e+17
19574.0	4.114740628422655e+17
19575.0	4.1142067396608e+17
19576.0	4.11341736116224e+17
19577.0	4.11251773468399e+17
19578.0	4.1120849230561274e+17
19579.0	4.111437799271082e+17
19580.0	4.110693045370879e+17
19581.0	4.109946994731691e+17
19582.0	4.109356252878164e+17
19583.0	4.108709888262144e+17
19584.0	4.107956320731135e+17
19585.0	4.107224175607808e+17
19586.0	4.1065296645761696e+17
19587.0	4.10592884031488e+17
19588.0	4.104798388704597e+17
19589.0	4.1045611225197216e+17
19590.0	4.1037443391378765e+17
19591.0	4.103160322850815e+17
19592.0	4.1024610694594554e+17
19593.0	4.1016147952271354e+17
19594.0	4.100759096393727e+17
19595.0	4.100399650133332e+17
19596.0	4.099646218218153e+17
19597.0	4.099035593965567e+17
19598.0	4.0976979479319885e+17
19599.0	4.0976393919528954e+17
19600.0	4.096907115408042e+17
19601.0	4.096208577844564e+17
19602.0	4.095546350370815e+17
19603.0	4.094469805353641e+17
19604.0	4.094203176943615e+17
19605.0	4.093242407998806e+17
19606.0	4.0927797734714016e+17
19607.0	4.092164181065728e+17
19608.0	4.091333338376874e+17
19609.0	4.090725576037717e+17
19610.0	4.0892466910112435e+17
19611.0	4.0880679601657165e+17
19612.0	4.0887273998254074e+17
19613.0	4.0879367085096954e+17
19614.0	4.087302334709759e+17
19615.0	4.086679096786943e+17
19616.0	4.085143268491266e+17
19617.0	4.0840104331182086e+17
19618.0	4.084050023153663e+17
19619.0	4.082992722302291e+17
19620.0	4.082151907655677e+17
19621.0	4.080560704760489e+17
19622.0	4.081867719092906e+17
19623.0	4.081121731368276e+17
19624.0	4.080268784697344e+17
19625.0	4.0798283666991776e+17
19626.0	4.079075183646036e+17
19627.0	4.0784594206719994e+17
19628.0	4.077723734857045e+17
19629.0	4.072643959455741e+17
19630.0	4.076409077803689e+17
19631.0	4.0737527936232083e+17
19632.0	4.0750450391121914e+17
19633.0	4.074336010196309e+17
19634.0	4.073667315804843e+17
19635.0	4.072768647725054e+17
19636.0	4.07014064084309e+17
19637.0	4.069309051568125e+17
19638.0	4.070751969039699e+17
19639.0	4.070199911951018e+17
19640.0	4.069501295394815e+17
19641.0	4.0674184298932966e+17
19642.0	4.0680965048456525e+17
19643.0	4.0674121167667194e+17
19644.0	4.066796893459797e+17
19645.0	4.065936223677097e+17
19646.0	4.063234339023528e+17
19647.0	4.064645362308436e+17
19648.0	4.0641343164252154e+17
19649.0	4.0634064697644365e+17
19650.0	4.062745221660672e+17
19651.0	4.0620696101628595e+17
19652.0	4.0614174077747194e+17
19653.0	4.060689565308245e+17
19654.0	4.060060563712683e+17
19655.0	4.0593068731487565e+17
