# Flux units: erg / (cm m2 s)
# Wavelength units: Angstrom
wave	flux
19000.0	6.307409312787113e+17
19001.0	6.306120773664768e+17
19002.0	6.305059602169855e+17
19003.0	6.303878440026111e+17
19004.0	6.302704575971327e+17
19005.0	6.301522433059497e+17
19006.0	6.300356790539604e+17
19007.0	6.29916381094434e+17
19008.0	6.297930048034131e+17
19009.0	6.296731777324372e+17
19010.0	6.295093910000979e+17
19011.0	6.294432725510826e+17
19012.0	6.292994701393919e+17
19013.0	6.292113534047571e+17
19014.0	6.290878164019882e+17
19015.0	6.289720535416831e+17
19016.0	6.288531682317652e+17
19017.0	6.287415039055187e+17
19018.0	6.286221314970964e+17
19019.0	6.28505991778577e+17
19020.0	6.283868501267795e+17
19021.0	6.282714885914623e+17
19022.0	6.281535100900692e+17
19023.0	6.280321490922154e+17
19024.0	6.279166540382208e+17
19025.0	6.277999789867008e+17
19026.0	6.276787930311337e+17
19027.0	6.275455373366612e+17
19028.0	6.274488513593343e+17
19029.0	6.27329646862882e+17
19030.0	6.272155160062634e+17
19031.0	6.270980380950527e+17
19032.0	6.269799246069759e+17
19033.0	6.268523651268607e+17
19034.0	6.267426895298559e+17
19035.0	6.266135196467199e+17
19036.0	6.250240531234807e+17
19037.0	6.263842130624512e+17
19038.0	6.262722432510633e+17
19039.0	6.261586500343124e+17
19040.0	6.260416690782207e+17
19041.0	6.259235706197331e+17
19042.0	6.257879343082153e+17
19043.0	6.256901121638399e+17
19044.0	6.255714395750399e+17
19045.0	6.254546531647487e+17
19046.0	6.253324467350185e+17
19047.0	6.252190521884672e+17
19048.0	6.250773467190612e+17
19049.0	6.249605107460778e+17
19050.0	6.248621523599359e+17
19051.0	6.245191519655249e+17
19052.0	6.245954493612032e+17
19053.0	6.245170889271978e+17
19054.0	6.244006335173972e+17
19055.0	6.242521263549098e+17
19056.0	6.241623335064916e+17
19057.0	6.240486742294527e+17
19058.0	6.239219927569748e+17
19059.0	6.23811341914385e+17
19060.0	6.236957375987712e+17
19061.0	6.23581409050624e+17
19062.0	6.234638121609897e+17
19063.0	6.23346983248418e+17
19064.0	6.232160314152276e+17
19065.0	6.230933327140179e+17
19066.0	6.22986355941922e+17
19067.0	6.228778925686783e+17
19068.0	6.227623990525951e+17
19069.0	6.226456371789823e+17
19070.0	6.225252819053225e+17
19071.0	6.22410395095313e+17
19072.0	6.222913972382378e+17
19073.0	6.221775677423615e+17
19074.0	6.220613038025386e+17
19075.0	6.219444633556308e+17
19076.0	6.218253354751316e+17
19077.0	6.21709132632337e+17
19078.0	6.215900764045312e+17
19079.0	6.214771477053439e+17
19080.0	6.213588901429247e+17
19081.0	6.212386123939839e+17
19082.0	6.211221366418089e+17
19083.0	6.209986621341695e+17
19084.0	6.208681361626452e+17
19085.0	6.207751606763519e+17
19086.0	6.20611437208098e+17
19087.0	6.205000292936362e+17
19088.0	6.204081177624576e+17
19089.0	6.202704661577728e+17
19090.0	6.201882441678847e+17
19091.0	6.200728118886399e+17
19092.0	6.199395341740714e+17
19093.0	6.198436470019412e+17
19094.0	6.197275674716842e+17
19095.0	6.196111423307775e+17
19096.0	6.194928303822164e+17
19097.0	6.193779835579049e+17
19098.0	6.192579153843539e+17
19099.0	6.191407666561023e+17
19100.0	6.190255827495593e+17
19101.0	6.189113982058495e+17
19102.0	6.187833170941267e+17
19103.0	6.186793500846761e+17
19104.0	6.185633707283795e+17
19105.0	6.184381462872063e+17
19106.0	6.183238720552959e+17
19107.0	6.182092169805823e+17
19108.0	6.180929311604735e+17
19109.0	6.178793139295571e+17
19110.0	6.178571903041533e+17
19111.0	6.177456613141161e+17
19112.0	6.17629966471441e+17
19113.0	6.175165480173568e+17
19114.0	6.173988054455636e+17
19115.0	6.172760397053951e+17
19116.0	6.171657784437418e+17
19117.0	6.170495507846484e+17
19118.0	6.169198565436074e+17
19119.0	6.161682142680394e+17
19120.0	6.166887499038719e+17
19121.0	6.16578423071266e+17
19122.0	6.164718044927316e+17
19123.0	6.16355843940898e+17
19124.0	6.162320477301418e+17
19125.0	6.161230702750378e+17
19126.0	6.160055727205034e+17
19127.0	6.156922357022719e+17
19128.0	6.157620573022889e+17
19129.0	6.156501770392916e+17
19130.0	6.155422650073087e+17
19131.0	6.154278994094761e+17
19132.0	6.153118254716244e+17
19133.0	6.15187131540002e+17
19134.0	6.150737882338644e+17
19135.0	6.149638620271956e+17
19136.0	6.148488370847743e+17
19137.0	6.147150429814783e+17
19138.0	6.146154800611327e+17
19139.0	6.145015345927507e+17
19140.0	6.14385983824418e+17
19141.0	6.142702545884502e+17
19142.0	6.141516140161705e+17
19143.0	6.140321907168596e+17
19144.0	6.139186778210303e+17
19145.0	6.138073922404351e+17
19146.0	6.136224280477696e+17
19147.0	6.135656321384447e+17
19148.0	6.134567468881238e+17
19149.0	6.13340055478818e+17
19150.0	6.132282797938004e+17
19151.0	6.13112829968384e+17
19152.0	6.12996075364898e+17
19153.0	6.12873590083857e+17
19154.0	6.12751894380544e+17
19155.0	6.12650710012177e+17
19156.0	6.125344951457108e+17
19157.0	6.12411796164881e+17
19158.0	6.122351726952445e+17
19159.0	6.121835529065812e+17
19160.0	6.120699454991018e+17
19161.0	6.119538546442239e+17
19162.0	6.116831185425751e+17
19163.0	6.117148368480937e+17
19164.0	6.116104430682111e+17
19165.0	6.11484970394146e+17
19166.0	6.113631434790227e+17
19167.0	6.112500953819818e+17
19168.0	6.111482188136445e+17
19169.0	6.110312563823956e+17
19170.0	6.109189524946944e+17
19171.0	6.107949987179177e+17
19172.0	6.106870594229588e+17
19173.0	6.10573120315938e+17
19174.0	6.10452141908514e+17
19175.0	6.103430205887827e+17
19176.0	6.102274873666218e+17
19177.0	6.10095271510016e+17
19178.0	6.099919714648063e+17
19179.0	6.098691229570388e+17
19180.0	6.097649571375786e+17
19181.0	6.096369919983615e+17
19182.0	6.09535030006033e+17
19183.0	6.094215399691606e+17
19184.0	6.093055999694166e+17
19185.0	6.091898468259156e+17
19186.0	6.09075767419426e+17
19187.0	6.089530805321727e+17
19188.0	6.08845177168418e+17
19189.0	6.087300753304233e+17
19190.0	6.086139507813034e+17
19191.0	6.084947924921001e+17
19192.0	6.083846320335529e+17
19193.0	6.082674427603625e+17
19194.0	6.081505803632639e+17
19195.0	6.080374708196692e+17
19196.0	6.07918525391394e+17
19197.0	6.077999303972179e+17
19198.0	6.076651753788756e+17
19199.0	6.065842543045288e+17
19200.0	6.067373758305624e+17
19201.0	6.073234157993983e+17
19202.0	6.072262304901802e+17
19203.0	6.0711261189789e+17
19204.0	6.069987909304319e+17
19205.0	6.068867394000212e+17
19206.0	6.067721737338879e+17
19207.0	6.066465432840874e+17
19208.0	6.065178560255315e+17
19209.0	6.064277514704212e+17
19210.0	6.063127040185684e+17
19211.0	6.061993275075241e+17
19212.0	6.060841089979731e+17
19213.0	6.059523447980031e+17
19214.0	6.058329348505599e+17
19215.0	6.05734838398703e+17
19216.0	6.056240107661993e+17
19217.0	6.055076609829546e+17
19218.0	6.053031918785875e+17
19219.0	6.052609915879423e+17
19220.0	6.051608351735805e+17
19221.0	6.050133842766506e+17
19222.0	6.04932692438767e+17
19223.0	6.04816704414242e+17
19224.0	6.046989384242516e+17
19225.0	6.045727873914195e+17
19226.0	6.044715433241257e+17
19227.0	6.04356443443473e+17
19228.0	6.04244423020817e+17
19229.0	6.041292361782612e+17
19230.0	6.04013762585122e+17
19231.0	6.038975757505875e+17
19232.0	6.037831371718655e+17
19233.0	6.036609701685929e+17
19234.0	6.035380926502228e+17
19235.0	6.034158934207145e+17
19236.0	6.033040920106324e+17
19237.0	6.031872136052735e+17
19238.0	6.030621668627795e+17
19239.0	6.029588452868095e+17
19240.0	6.028423833758376e+17
19241.0	6.027256479962452e+17
19242.0	6.026114222784511e+17
19243.0	6.024797157501609e+17
19244.0	6.023829041534294e+17
19245.0	6.022669242378922e+17
19246.0	6.021503508283392e+17
19247.0	6.020363669121706e+17
19248.0	6.019216833161897e+17
19249.0	6.018054486665897e+17
19250.0	6.01687107637521e+17
19251.0	6.015620530656595e+17
19252.0	6.014270386995199e+17
19253.0	6.013416629425492e+17
19254.0	6.012289116624211e+17
19255.0	6.010917365306708e+17
19256.0	6.009951800175274e+17
19257.0	6.008824452349951e+17
19258.0	6.007667251565908e+17
19259.0	6.006425768340137e+17
19260.0	6.005038637907967e+17
19261.0	6.004178932815188e+17
19262.0	6.002970344816639e+17
19263.0	6.001802610737151e+17
19264.0	6.000101549932543e+17
19265.0	5.999329194715817e+17
19266.0	5.99812984606993e+17
19267.0	5.997242513795753e+17
19268.0	5.996074053402623e+17
19269.0	5.994916478626473e+17
19270.0	5.993751440086356e+17
19271.0	5.992214621934934e+17
19272.0	5.99139076416034e+17
19273.0	5.989659548407124e+17
19274.0	5.988503471696552e+17
19275.0	5.987940668801023e+17
19276.0	5.98675430711842e+17
19277.0	5.985594549906089e+17
19278.0	5.984331251406163e+17
19279.0	5.982989733330943e+17
19280.0	5.981747635639635e+17
19281.0	5.980662367169193e+17
19282.0	5.979507311771647e+17
19283.0	5.978214291734527e+17
19284.0	5.97709709971729e+17
19285.0	5.975802889196883e+17
19286.0	5.974775347631444e+17
19287.0	5.973627171591508e+17
19288.0	5.968554915878225e+17
19289.0	5.961300523177283e+17
19290.0	5.970095975869097e+17
19291.0	5.968654994767872e+17
19292.0	5.96777036292642e+17
19293.0	5.966584919796393e+17
19294.0	5.965400053383167e+17
19295.0	5.964231052623871e+17
19296.0	5.96299880595456e+17
19297.0	5.961826479112192e+17
19298.0	5.960644915713363e+17
19299.0	5.959441184019796e+17
19300.0	5.958291988763988e+17
19301.0	5.95696435733026e+17
19302.0	5.955571223450963e+17
19303.0	5.954304216487252e+17
19304.0	5.953135210135551e+17
19305.0	5.951546225328127e+17
19306.0	5.950353677746176e+17
19307.0	5.949098392464041e+17
19308.0	5.947916503307604e+17
19309.0	5.946395299151871e+17
19310.0	5.945050189354323e+17
19311.0	5.944252296418644e+17
19312.0	5.943112848725332e+17
19313.0	5.941900096481961e+17
19314.0	5.922209728036852e+17
19315.0	5.922645167396211e+17
19316.0	5.93798757491234e+17
19317.0	5.936823682116265e+17
19318.0	5.935603812139007e+17
19319.0	5.934401828771158e+17
19320.0	5.933155143909376e+17
19321.0	5.931902563953322e+17
19322.0	5.930597950160895e+17
19323.0	5.929318229562708e+17
19324.0	5.928195388517033e+17
19325.0	5.926672742219776e+17
19326.0	5.925712224234154e+17
19327.0	5.924464889255252e+17
19328.0	5.923156151762943e+17
19329.0	5.921975167877119e+17
19330.0	5.920670015815679e+17
19331.0	5.919393266881876e+17
19332.0	5.918175250087935e+17
19333.0	5.916880873892522e+17
19334.0	5.915620089178793e+17
19335.0	5.914188849348607e+17
19336.0	5.913039416415571e+17
19337.0	5.911749523931135e+17
19338.0	5.910217453731837e+17
19339.0	5.908849124966399e+17
19340.0	5.907006156177405e+17
19341.0	5.90574287655185e+17
19342.0	5.904062861366612e+17
19343.0	5.903181705205075e+17
19344.0	5.901786797834237e+17
19345.0	5.898171459480229e+17
19346.0	5.898220687327231e+17
19347.0	5.897664528209236e+17
19348.0	5.896457771723434e+17
19349.0	5.89504709726481e+17
19350.0	5.893639191745875e+17
19351.0	5.892095713738751e+17
19352.0	5.890586880682666e+17
19353.0	5.889342462842196e+17
19354.0	5.887929895354367e+17
19355.0	5.885944035016704e+17
19356.0	5.884054013826388e+17
19357.0	5.882610241415849e+17
19358.0	5.881142960630442e+17
19359.0	5.879614079500287e+17
19360.0	5.878093723293012e+17
19361.0	5.876663066471081e+17
19362.0	5.875199172586154e+17
19363.0	5.873677156133545e+17
19364.0	5.872139487936512e+17
19365.0	5.869689844531199e+17
19366.0	5.867605074116607e+17
19367.0	5.866022435291136e+17
19368.0	5.864424471177898e+17
19369.0	5.862752731354452e+17
19370.0	5.861101663158272e+17
19371.0	5.859455726693034e+17
19372.0	5.856227719730516e+17
19373.0	5.854234260013055e+17
19374.0	5.85252575711505e+17
19375.0	5.850783498458452e+17
19376.0	5.849016677957631e+17
19377.0	5.845593126950226e+17
19378.0	5.842958388210346e+17
19379.0	5.84082997116928e+17
19380.0	5.838797584116393e+17
19381.0	5.835094932936022e+17
19382.0	5.83179768570402e+17
19383.0	5.829775097244329e+17
19384.0	5.826805541896191e+17
19385.0	5.822098559729663e+17
19386.0	5.820003584573439e+17
19387.0	5.815528608235521e+17
19388.0	5.811225052403028e+17
19389.0	5.808337786503169e+17
19390.0	5.803457154558633e+17
19391.0	5.788000692032833e+17
19392.0	5.798287396656467e+17
19393.0	5.796110477382995e+17
19394.0	5.793634943937194e+17
19395.0	5.791077869027327e+17
19396.0	5.78791746236143e+17
19397.0	5.784683050696703e+17
19398.0	5.78194688250129e+17
19399.0	5.778452554011987e+17
19400.0	5.775921183894186e+17
19401.0	5.771806133365418e+17
19402.0	5.768853521607338e+17
19403.0	5.765440320045055e+17
19404.0	5.760172397253972e+17
19405.0	5.7568979181021856e+17
19406.0	5.751203628231337e+17
19407.0	5.746716404525738e+17
19408.0	5.739059845180077e+17
19409.0	5.733894266202795e+17
19410.0	5.725619580392787e+17
19411.0	5.715634407079933e+17
19412.0	5.7050023609412294e+17
19413.0	5.691893632117416e+17
19414.0	5.6796930351213184e+17
19415.0	5.671671182655487e+17
19416.0	5.665034443860649e+17
19417.0	5.658470457365843e+17
19418.0	5.65146147618816e+17
19419.0	5.6439800157525325e+17
19420.0	5.636259677121193e+17
19421.0	5.6282882220141216e+17
19422.0	5.620024311371091e+17
19423.0	5.611510864805887e+17
19424.0	5.6028019762571936e+17
19425.0	5.593834822740649e+17
19426.0	5.5845930576554643e+17
19427.0	5.575136328198826e+17
19428.0	5.56550613630976e+17
19429.0	5.555623575246164e+17
19430.0	5.544883218896214e+17
19431.0	5.532417358736045e+17
19432.0	5.523606895329279e+17
19433.0	5.5117909635454285e+17
19434.0	5.4994624843175245e+17
19435.0	5.485917428340049e+17
19436.0	5.4697274764165114e+17
19437.0	5.4517970232497414e+17
19438.0	5.406266848094885e+17
19439.0	5.3903945594743514e+17
19440.0	5.339685492621312e+17
19441.0	5.301881365943636e+17
19442.0	5.269730211747158e+17
19443.0	5.234577503158272e+17
19444.0	5.19410562647108e+17
19445.0	5.142855507684012e+17
19446.0	5.0735490905320045e+17
19447.0	4.974402698128046e+17
19448.0	4.8448080046981184e+17
19449.0	4.6655622918526304e+17
19450.0	4.288701237209824e+17
19451.0	4.083841939537958e+17
19452.0	4.513397091598332e+17
19453.0	4.7665197225082963e+17
19454.0	4.909436936126451e+17
19455.0	5.022541910026934e+17
19456.0	5.103160955065689e+17
19457.0	5.16018366578688e+17
19458.0	5.1600362248165434e+17
19459.0	5.237726201424563e+17
19460.0	5.269695231251795e+17
19461.0	5.2999344434271526e+17
19462.0	5.3468353709561254e+17
19463.0	5.387748161967444e+17
19464.0	5.4154891858629894e+17
19465.0	5.43482302728329e+17
19466.0	5.449773903511549e+17
19467.0	5.461803441411411e+17
19468.0	5.47274674265566e+17
19469.0	5.4820856862692685e+17
19470.0	5.491867929367892e+17
19471.0	5.500461731108181e+17
19472.0	5.508937987478867e+17
19473.0	5.516963319119871e+17
19474.0	5.5246276218497696e+17
19475.0	5.531267474216276e+17
19476.0	5.5392855741781325e+17
19477.0	5.546331696616788e+17
19478.0	5.5530613846835174e+17
19479.0	5.559499165270015e+17
19480.0	5.565774670331903e+17
19481.0	5.5717270622917965e+17
19482.0	5.5774436833361914e+17
19483.0	5.582917303184041e+17
19484.0	5.588102401054037e+17
19485.0	5.592765000493737e+17
19486.0	5.597068682854399e+17
19487.0	5.601379401859071e+17
19488.0	5.609545292316671e+17
19489.0	5.621117590962183e+17
19490.0	5.629543447876945e+17
19491.0	5.6383400113602566e+17
19492.0	5.644356657261228e+17
19493.0	5.6496795519986336e+17
19494.0	5.654375546486787e+17
19495.0	5.656792297461076e+17
19496.0	5.6601030021174586e+17
19497.0	5.662349002975913e+17
19498.0	5.6629929013411866e+17
19499.0	5.6458748205465434e+17
19500.0	5.6675997305186963e+17
19501.0	5.668760385312083e+17
19502.0	5.6708276983343776e+17
19503.0	5.671442865018196e+17
19504.0	5.671987739361278e+17
19505.0	5.6724954270050976e+17
19506.0	5.673992495038463e+17
19507.0	5.6744981554353485e+17
19508.0	5.674861275206997e+17
19509.0	5.6751426605765965e+17
19510.0	5.675118459442516e+17
19511.0	5.643296822351162e+17
19512.0	5.6734996440459846e+17
19513.0	5.6730085008342925e+17
19514.0	5.6749452332892096e+17
19515.0	5.682240612029782e+17
19516.0	5.683356763859626e+17
19517.0	5.683425398751232e+17
19518.0	5.686700243506517e+17
19519.0	5.6865324874246816e+17
19520.0	5.686283094807892e+17
19521.0	5.688147973242879e+17
19522.0	5.688716170013353e+17
19523.0	5.688503581715113e+17
19524.0	5.6885044660142074e+17
19525.0	5.689383461410132e+17
19526.0	5.690100281944745e+17
19527.0	5.68968823771409e+17
19528.0	5.689246936115881e+17
19529.0	5.6887884658333e+17
19530.0	5.688611343870632e+17
19531.0	5.689604871028735e+17
19532.0	5.689086214580906e+17
19533.0	5.6885488424495776e+17
19534.0	5.687990926617258e+17
19535.0	5.6874017198789965e+17
19536.0	5.686787998132905e+17
19537.0	5.686328748408831e+17
19538.0	5.6867605904534176e+17
19539.0	5.685650367272278e+17
19540.0	5.6856082592563194e+17
19541.0	5.684963262682452e+17
19542.0	5.6842917070766074e+17
19543.0	5.6835562743179936e+17
19544.0	5.6829085759133e+17
19545.0	5.6816791701858963e+17
19546.0	5.6804514107228154e+17
19547.0	5.680758514865492e+17
19548.0	5.6805832572709536e+17
19549.0	5.68008925983539e+17
19550.0	5.6794379927770445e+17
19551.0	5.678671353697621e+17
19552.0	5.677892133803347e+17
19553.0	5.677081114094249e+17
19554.0	5.6762674722461005e+17
19555.0	5.675488102055935e+17
19556.0	5.674836800744105e+17
19557.0	5.6740474544018765e+17
19558.0	5.6732241237114874e+17
19559.0	5.6723979450886816e+17
19560.0	5.6715148141090125e+17
19561.0	5.670693580570623e+17
19562.0	5.669859899037014e+17
19563.0	5.669029276549119e+17
19564.0	5.6681726200162976e+17
19565.0	5.6673105814923936e+17
19566.0	5.666872264141483e+17
19567.0	5.666184199056041e+17
19568.0	5.665279530325333e+17
19569.0	5.6644024608139936e+17
19570.0	5.663542885744639e+17
19571.0	5.662650844665172e+17
19572.0	5.661718912958463e+17
19573.0	5.660836073482921e+17
19574.0	5.659853036279123e+17
19575.0	5.659058626712917e+17
19576.0	5.6581419070477645e+17
19577.0	5.6572025283543034e+17
19578.0	5.656279398394537e+17
19579.0	5.6553748198413645e+17
19580.0	5.6544572752964256e+17
19581.0	5.65354527072802e+17
19582.0	5.6526391633510394e+17
19583.0	5.6517105856894285e+17
19584.0	5.6507715712013645e+17
19585.0	5.649716223497555e+17
19586.0	5.648756566043307e+17
19587.0	5.6479803108229114e+17
19588.0	5.6465772000925024e+17
19589.0	5.6461871389081594e+17
19590.0	5.645270542275924e+17
19591.0	5.644438423120553e+17
19592.0	5.6434965145627296e+17
19593.0	5.6425188998949536e+17
19594.0	5.641305422736041e+17
19595.0	5.640608739054932e+17
19596.0	5.6393916044629325e+17
19597.0	5.6387062698693965e+17
19598.0	5.637293036885332e+17
19599.0	5.6367953680356685e+17
19600.0	5.6358437664413005e+17
19601.0	5.6348021865403725e+17
19602.0	5.633849807601662e+17
19603.0	5.632341503027881e+17
19604.0	5.631903898009599e+17
19605.0	5.63066685095936e+17
19606.0	5.6300291468820474e+17
19607.0	5.6293447923575456e+17
19608.0	5.628355944644607e+17
19609.0	5.627340792354132e+17
19610.0	5.626398228086783e+17
19611.0	5.6257626414339405e+17
19612.0	5.6248400029067936e+17
19613.0	5.6238490007197005e+17
19614.0	5.622835445759999e+17
19615.0	5.6218968409156256e+17
19616.0	5.6207734741838496e+17
19617.0	5.6198823949981005e+17
19618.0	5.618293507358719e+17
19619.0	5.617123063059795e+17
19620.0	5.616205240991743e+17
19621.0	5.6159371753335456e+17
19622.0	5.6150099132852896e+17
19623.0	5.6140198750890656e+17
19624.0	5.6130207562246816e+17
19625.0	5.612045091908266e+17
19626.0	5.6110529747353594e+17
19627.0	5.610050891896147e+17
19628.0	5.6088195015639034e+17
19629.0	5.60778784748339e+17
19630.0	5.606098459426815e+17
19631.0	5.5953964823565645e+17
19632.0	5.604982561352362e+17
19633.0	5.604030531239935e+17
19634.0	5.603111998237354e+17
19635.0	5.6020761365708794e+17
19636.0	5.601065956627796e+17
19637.0	5.599786420578986e+17
19638.0	5.599341714604032e+17
19639.0	5.598349280761172e+17
19640.0	5.5972666784699725e+17
19641.0	5.59522182384845e+17
19642.0	5.595357355092649e+17
19643.0	5.594358149545983e+17
19644.0	5.593303486212777e+17
19645.0	5.592068998387027e+17
19646.0	5.591317456704853e+17
19647.0	5.5903853271668045e+17
19648.0	5.589388687136084e+17
19649.0	5.588381527091881e+17
19650.0	5.5873907374161914e+17
19651.0	5.58638403035682e+17
19652.0	5.5853822257397754e+17
19653.0	5.5843841204988576e+17
19654.0	5.5833819425887565e+17
19655.0	5.582377604612094e+17
19656.0	5.581382450064041e+17
19657.0	5.5803895331771725e+17
19658.0	5.5793884730490874e+17
19659.0	5.578385468162047e+17
19660.0	5.57738593615872e+17
19661.0	5.5763842734489594e+17
19662.0	5.575381780267007e+17
