# Flux units: erg / (cm m2 s)
# Wavelength units: Angstrom
wave	flux
19000.0	6.445704691406163e+17
19001.0	6.444425030227284e+17
19002.0	6.443304851166548e+17
19003.0	6.442090554021203e+17
19004.0	6.440879437556393e+17
19005.0	6.439702682927103e+17
19006.0	6.438501743940948e+17
19007.0	6.437044724520275e+17
19008.0	6.436050666782719e+17
19009.0	6.43482525962513e+17
19010.0	6.433323282857983e+17
19011.0	6.432417849365844e+17
19012.0	6.430241826974376e+17
19013.0	6.430084911770282e+17
19014.0	6.42883976761617e+17
19015.0	6.427654125955753e+17
19016.0	6.426441145821866e+17
19017.0	6.425276533003603e+17
19018.0	6.424012750061567e+17
19019.0	6.422873093352106e+17
19020.0	6.421657568673791e+17
19021.0	6.42047311749666e+17
19022.0	6.419282660775252e+17
19023.0	6.418041417323862e+17
19024.0	6.416850281125203e+17
19025.0	6.415975644310185e+17
19026.0	6.416331772876116e+17
19027.0	6.414343272923135e+17
19028.0	6.414117518005587e+17
19029.0	6.412903222957395e+17
19030.0	6.411719619728723e+17
19031.0	6.410520702397097e+17
19032.0	6.409314363244544e+17
19033.0	6.408040013452628e+17
19034.0	6.406892571415894e+17
19035.0	6.405599441627818e+17
19036.0	6.340413378002939e+17
19037.0	6.403243455632724e+17
19038.0	6.402076781314047e+17
19039.0	6.400900902595242e+17
19040.0	6.399701201627817e+17
19041.0	6.398499426577066e+17
19042.0	6.397163326843561e+17
19043.0	6.396100592271359e+17
19044.0	6.394883915557546e+17
19045.0	6.393662165833044e+17
19046.0	6.39245431673105e+17
19047.0	6.391280883990527e+17
19048.0	6.389910868415827e+17
19049.0	6.388710840292692e+17
19050.0	6.387645303226367e+17
19051.0	6.37680801511286e+17
19052.0	6.383476871790591e+17
19053.0	6.384020618564948e+17
19054.0	6.382885970553514e+17
19055.0	6.38146604765457e+17
19056.0	6.380457146974207e+17
19057.0	6.379274608399699e+17
19058.0	6.377952942664361e+17
19059.0	6.376862032855039e+17
19060.0	6.375659594405204e+17
19061.0	6.374487737324883e+17
19062.0	6.37328387351074e+17
19063.0	6.372085755893075e+17
19064.0	6.370786719126868e+17
19065.0	6.369548325705043e+17
19066.0	6.368419682538836e+17
19067.0	6.367288375290537e+17
19068.0	6.366090551973204e+17
19069.0	6.364892095315967e+17
19070.0	6.363673554234026e+17
19071.0	6.3624568111104e+17
19072.0	6.361261370856788e+17
19073.0	6.360093403294377e+17
19074.0	6.358899378618367e+17
19075.0	6.357701044294995e+17
19076.0	6.356486118004054e+17
19077.0	6.355293058717012e+17
19078.0	6.35408490832418e+17
19079.0	6.351926499213308e+17
19080.0	6.349755765140137e+17
19081.0	6.348539254101331e+17
19082.0	6.347339434295296e+17
19083.0	6.346092821435732e+17
19084.0	6.344797231688361e+17
19085.0	6.343779111228756e+17
19086.0	6.342188266247508e+17
19087.0	6.340003925153107e+17
19088.0	6.339992979417769e+17
19089.0	6.337864672826708e+17
19090.0	6.33774709879603e+17
19091.0	6.33656527954466e+17
19092.0	6.334875978170365e+17
19093.0	6.334211913591465e+17
19094.0	6.333020672535209e+17
19095.0	6.331825720918013e+17
19096.0	6.330615682389331e+17
19097.0	6.329436323796307e+17
19098.0	6.328217243746304e+17
19099.0	6.327018107611818e+17
19100.0	6.325752953132372e+17
19101.0	6.324625401184255e+17
19102.0	6.323383785138857e+17
19103.0	6.322274846812841e+17
19104.0	6.321080179010217e+17
19105.0	6.319821090892457e+17
19106.0	6.318336398153044e+17
19107.0	6.317461027334826e+17
19108.0	6.316264651751423e+17
19109.0	6.309933326794743e+17
19110.0	6.313737204705961e+17
19111.0	6.312681654277459e+17
19112.0	6.311508677317972e+17
19113.0	6.310341963852457e+17
19114.0	6.309135788277759e+17
19115.0	6.307774018005674e+17
19116.0	6.306747143334569e+17
19117.0	6.305549271083689e+17
19118.0	6.303995425456128e+17
19119.0	6.299426804989946e+17
19120.0	6.30144229389107e+17
19121.0	6.300403051615572e+17
19122.0	6.299615671702868e+17
19123.0	6.298424124462419e+17
19124.0	6.296913029977428e+17
19125.0	6.295995524579327e+17
19126.0	6.294836553099945e+17
19127.0	6.292245963603967e+17
19128.0	6.290910189628072e+17
19129.0	6.291215778927956e+17
19130.0	6.290073075056639e+17
19131.0	6.288848520041812e+17
19132.0	6.287706146122409e+17
19133.0	6.286189266993151e+17
19134.0	6.284631934500864e+17
19135.0	6.284113755504639e+17
19136.0	6.282950173786111e+17
19137.0	6.281628636676095e+17
19138.0	6.280507954298879e+17
19139.0	6.279378926654804e+17
19140.0	6.278193610752e+17
19141.0	6.277004928920233e+17
19142.0	6.275777574906537e+17
19143.0	6.274582182887423e+17
19144.0	6.273408622220628e+17
19145.0	6.272238072365055e+17
19146.0	6.270551203687082e+17
19147.0	6.269789931918676e+17
19148.0	6.268629725216767e+17
19149.0	6.267447543158099e+17
19150.0	6.266300419189418e+17
19151.0	6.265117889003519e+17
19152.0	6.263863768339798e+17
19153.0	6.262687544289962e+17
19154.0	6.261445666799615e+17
19155.0	6.260345131062612e+17
19156.0	6.259167300594346e+17
19157.0	6.257859178266623e+17
19158.0	6.253217829268134e+17
19159.0	6.255557446292819e+17
19160.0	6.254334745160362e+17
19161.0	6.253081698238464e+17
19162.0	6.243911715870045e+17
19163.0	6.250599185470804e+17
19164.0	6.249667568336895e+17
19165.0	6.248282739878569e+17
19166.0	6.247000748064765e+17
19167.0	6.245337886184788e+17
19168.0	6.244892259560106e+17
19169.0	6.243583736676352e+17
19170.0	6.242550979493887e+17
19171.0	6.240871171227647e+17
19172.0	6.240133760155647e+17
19173.0	6.238972417496404e+17
19174.0	6.237777040157354e+17
19175.0	6.23663811535394e+17
19176.0	6.235451400650751e+17
19177.0	6.234139989289641e+17
19178.0	6.232860790183252e+17
19179.0	6.231193044036266e+17
19180.0	6.230599096336383e+17
19181.0	6.229422393436841e+17
19182.0	6.228300554829823e+17
19183.0	6.227137651889491e+17
19184.0	6.225929556721663e+17
19185.0	6.224776642516308e+17
19186.0	6.223594336725673e+17
19187.0	6.222335219946836e+17
19188.0	6.221196105001641e+17
19189.0	6.219966699274239e+17
19190.0	6.218746231608659e+17
19191.0	6.217543229723988e+17
19192.0	6.216470343538004e+17
19193.0	6.215235804681556e+17
19194.0	6.214053041711786e+17
19195.0	6.212895071272959e+17
19196.0	6.211689510163796e+17
19197.0	6.210454967113043e+17
19198.0	6.209055162193236e+17
19199.0	6.162175759133341e+17
19200.0	6.174661760341352e+17
19201.0	6.205536450117631e+17
19202.0	6.204542836277247e+17
19203.0	6.203274582207145e+17
19204.0	6.20219436507682e+17
19205.0	6.201051048138068e+17
19206.0	6.199868409599316e+17
19207.0	6.198614535001427e+17
19208.0	6.197343825166335e+17
19209.0	6.196312682091862e+17
19210.0	6.195138454530729e+17
19211.0	6.193959694325076e+17
19212.0	6.192771059329706e+17
19213.0	6.191101453008895e+17
19214.0	6.189703498476202e+17
19215.0	6.189015111128403e+17
19216.0	6.188025138642943e+17
19217.0	6.186838683986601e+17
19218.0	6.184976490605224e+17
19219.0	6.184344450935466e+17
19220.0	6.1832407023616e+17
19221.0	6.181827764376916e+17
19222.0	6.180900679887529e+17
19223.0	6.179706139312127e+17
19224.0	6.178497466728447e+17
19225.0	6.177232384950272e+17
19226.0	6.176142501347327e+17
19227.0	6.174952419317076e+17
19228.0	6.173785340947114e+17
19229.0	6.172596407457108e+17
19230.0	6.171350160900095e+17
19231.0	6.170167999113897e+17
19232.0	6.169013367341055e+17
19233.0	6.167773103259647e+17
19234.0	6.166631212384255e+17
19235.0	6.16544263401199e+17
19236.0	6.1642694997661e+17
19237.0	6.163065961010516e+17
19238.0	6.161738592419839e+17
19239.0	6.160697256487594e+17
19240.0	6.159473950676308e+17
19241.0	6.158286853592404e+17
19242.0	6.157108057735167e+17
19243.0	6.155799657884329e+17
19244.0	6.154738234731178e+17
19245.0	6.153544933572607e+17
19246.0	6.152338678306134e+17
19247.0	6.151156462693033e+17
19248.0	6.149949240639487e+17
19249.0	6.148740099691859e+17
19250.0	6.147545195610111e+17
19251.0	6.146264780155561e+17
19252.0	6.14496309748258e+17
19253.0	6.143963749329578e+17
19254.0	6.142776430646612e+17
19255.0	6.141445335416831e+17
19256.0	6.140318356690259e+17
19257.0	6.139186253223252e+17
19258.0	6.137990973052244e+17
19259.0	6.136734985923242e+17
19260.0	6.134376834968232e+17
19261.0	6.134377304730282e+17
19262.0	6.133140181483519e+17
19263.0	6.131933548729684e+17
19264.0	6.130347555859114e+17
19265.0	6.129418236504746e+17
19266.0	6.128207348629503e+17
19267.0	6.127167009543507e+17
19268.0	6.125960655710889e+17
19269.0	6.124753384723795e+17
19270.0	6.123543316135935e+17
19271.0	6.122066410121898e+17
19272.0	6.121097180566868e+17
19273.0	6.117402651656191e+17
19274.0	6.115634877650259e+17
19275.0	6.115175650994857e+17
19276.0	6.11394447946547e+17
19277.0	6.112731369308159e+17
19278.0	6.111515155365887e+17
19279.0	6.110229471166463e+17
19280.0	6.109014985976489e+17
19281.0	6.107846549351082e+17
19282.0	6.106626879302313e+17
19283.0	6.104677524788563e+17
19284.0	6.103648696969897e+17
19285.0	6.102806622633983e+17
19286.0	6.101701341042004e+17
19287.0	6.100489167612586e+17
19288.0	6.080988528508906e+17
19289.0	6.05762059711277e+17
19290.0	6.096789034412713e+17
19291.0	6.0953651590813e+17
19292.0	6.094335546927786e+17
19293.0	6.093091785495892e+17
19294.0	6.091849108291583e+17
19295.0	6.090615931185833e+17
19296.0	6.08934250483985e+17
19297.0	6.088076305279657e+17
19298.0	6.08685507285265e+17
19299.0	6.085592877454676e+17
19300.0	6.084368162357247e+17
19301.0	6.083113409751721e+17
19302.0	6.081847407323817e+17
19303.0	6.080523640941226e+17
19304.0	6.079307764640425e+17
19305.0	6.078054979163476e+17
19306.0	6.076760181440511e+17
19307.0	6.075431387485524e+17
19308.0	6.074180927750144e+17
19309.0	6.071222778112681e+17
19310.0	6.069433910951932e+17
19311.0	6.070178453039785e+17
19312.0	6.069129449919828e+17
19313.0	6.06639805134711e+17
19314.0	6.006908504768553e+17
19315.0	6.008893812856206e+17
19316.0	6.060885100811604e+17
19317.0	6.059780542737065e+17
19318.0	6.058472252637183e+17
19319.0	6.057173013845331e+17
19320.0	6.05583892877585e+17
19321.0	6.054503765770239e+17
19322.0	6.05302462489122e+17
19323.0	6.051120082321408e+17
19324.0	6.050464374893225e+17
19325.0	6.047555796336641e+17
19326.0	6.04780476043537e+17
19327.0	6.046418352821587e+17
19328.0	6.044986727814483e+17
19329.0	6.043679377937748e+17
19330.0	6.042281684850004e+17
19331.0	6.040903964338857e+17
19332.0	6.039516113884498e+17
19333.0	6.034668184928253e+17
19334.0	6.033279177545044e+17
19335.0	6.031768501791402e+17
19336.0	6.030418878922751e+17
19337.0	6.029017135535444e+17
19338.0	6.027420014477311e+17
19339.0	6.026126324050601e+17
19340.0	6.024616481565354e+17
19341.0	6.023165922071892e+17
19342.0	6.021367774314493e+17
19343.0	6.020275564270932e+17
19344.0	6.018751870795773e+17
19345.0	6.0119439708433e+17
19346.0	6.010891246676648e+17
19347.0	6.009942781023572e+17
19348.0	6.008493070876671e+17
19349.0	6.006879008325632e+17
19350.0	6.005284484939775e+17
19351.0	6.003729333485567e+17
19352.0	6.002033037410303e+17
19353.0	5.998142919715494e+17
19354.0	5.993953760728404e+17
19355.0	5.992191091190442e+17
19356.0	5.990559248285695e+17
19357.0	5.988838274323795e+17
19358.0	5.98706828153105e+17
19359.0	5.984904872110761e+17
19360.0	5.980618723338921e+17
19361.0	5.978825911435263e+17
19362.0	5.977017076591274e+17
19363.0	5.97514433733154e+17
19364.0	5.973247157163348e+17
19365.0	5.971326943275689e+17
19366.0	5.969379988602879e+17
19367.0	5.967396669314388e+17
19368.0	5.965405933098324e+17
19369.0	5.963296976229715e+17
19370.0	5.961179672696148e+17
19371.0	5.959183804050089e+17
19372.0	5.95709942510387e+17
19373.0	5.954919899070464e+17
19374.0	5.952759549394944e+17
19375.0	5.950528534085631e+17
19376.0	5.948279758695082e+17
19377.0	5.945979208116906e+17
19378.0	5.943643127589546e+17
19379.0	5.941262692297386e+17
19380.0	5.938838085391699e+17
19381.0	5.936367810904063e+17
19382.0	5.933792360049321e+17
19383.0	5.93119495201314e+17
19384.0	5.928660334804991e+17
19385.0	5.925990666600447e+17
19386.0	5.923267650344276e+17
19387.0	5.920476285807273e+17
19388.0	5.917639921980756e+17
19389.0	5.914736882701652e+17
19390.0	5.911758146721108e+17
19391.0	5.85507718998691e+17
19392.0	5.904555538994509e+17
19393.0	5.902528879263743e+17
19394.0	5.89927649710353e+17
19395.0	5.89587831464482e+17
19396.0	5.892505413353471e+17
19397.0	5.889186178181802e+17
19398.0	5.885597274428756e+17
19399.0	5.881475983474687e+17
19400.0	5.878257042500268e+17
19401.0	5.87452427412002e+17
19402.0	5.870663382335487e+17
19403.0	5.866723743891456e+17
19404.0	5.862709607617876e+17
19405.0	5.858546976205482e+17
19406.0	5.853994902967636e+17
19407.0	5.84965647639074e+17
19408.0	5.844677562815828e+17
19409.0	5.840698392357546e+17
19410.0	5.836077195591679e+17
19411.0	5.831339978085716e+17
19412.0	5.826451987234815e+17
19413.0	5.821406326205098e+17
19414.0	5.816169258112339e+17
19415.0	5.810366154713769e+17
19416.0	5.80469730119953e+17
19417.0	5.798936055556778e+17
19418.0	5.794345194793642e+17
19419.0	5.787615700363946e+17
19420.0	5.781855956282025e+17
19421.0	5.775405281006934e+17
19422.0	5.767850583130112e+17
19423.0	5.7605378043194016e+17
19424.0	5.752288069724842e+17
19425.0	5.7422626457736544e+17
19426.0	5.731500764954624e+17
19427.0	5.718511250134358e+17
19428.0	5.701128719870634e+17
19429.0	5.679594531192823e+17
19430.0	5.649820512769379e+17
19431.0	5.62015144491965e+17
19432.0	5.6141055947789645e+17
19433.0	5.597648274849792e+17
19434.0	5.5797300208162125e+17
19435.0	5.5594433943087763e+17
19436.0	5.537047492165626e+17
19437.0	5.52079471026722e+17
19438.0	5.421927324363462e+17
19439.0	5.471658191443289e+17
19440.0	5.446485790075563e+17
19441.0	5.4098056341094464e+17
19442.0	5.3480822634359616e+17
19443.0	5.2787331489682797e+17
19444.0	5.227785287106557e+17
19445.0	5.1697742242993504e+17
19446.0	5.097964965287249e+17
19447.0	4.9855752320668954e+17
19448.0	4.8408391641115366e+17
19449.0	4.639655301480449e+17
19450.0	4.2071182942754054e+17
19451.0	4.0590534651849e+17
19452.0	4.450335044490596e+17
19453.0	4.757172627963914e+17
19454.0	4.9096328248033197e+17
19455.0	5.044776249677139e+17
19456.0	5.128628965386925e+17
19457.0	5.1896997401067475e+17
19458.0	5.1352166091545286e+17
19459.0	5.289877999102685e+17
19460.0	5.3676124437217376e+17
19461.0	5.4114714173221536e+17
19462.0	5.440660217091416e+17
19463.0	5.4645287708262374e+17
19464.0	5.4852251647563085e+17
19465.0	5.50411172909329e+17
19466.0	5.52125653669205e+17
19467.0	5.538859876788905e+17
19468.0	5.555452951658496e+17
19469.0	5.570106104304979e+17
19470.0	5.584091428683775e+17
19471.0	5.5983620328434374e+17
19472.0	5.624199170577747e+17
19473.0	5.646921462273368e+17
19474.0	5.6635658257913146e+17
19475.0	5.675367676597588e+17
19476.0	5.685863029669891e+17
19477.0	5.69381566563396e+17
19478.0	5.700188705740118e+17
19479.0	5.7066023271355725e+17
19480.0	5.71115505118959e+17
19481.0	5.7164566640285005e+17
19482.0	5.720182085386239e+17
19483.0	5.724318930217642e+17
19484.0	5.728138647917908e+17
19485.0	5.731318074354347e+17
19486.0	5.734416452157439e+17
19487.0	5.7377152121350816e+17
19488.0	5.7412171707624096e+17
19489.0	5.7440066199005856e+17
19490.0	5.7458384632982163e+17
19491.0	5.749443085205503e+17
19492.0	5.751961229284694e+17
19493.0	5.754337718435839e+17
19494.0	5.7566034409117005e+17
19495.0	5.75876177662225e+17
19496.0	5.760585318793214e+17
19497.0	5.7630929924915194e+17
19498.0	5.757790628872193e+17
19499.0	5.684447742874939e+17
19500.0	5.768379880527188e+17
19501.0	5.770013868119379e+17
19502.0	5.771500991457964e+17
19503.0	5.772989765954218e+17
19504.0	5.774330399730346e+17
19505.0	5.775618822111231e+17
19506.0	5.776806559525546e+17
19507.0	5.7778979223197e+17
19508.0	5.778945486094335e+17
19509.0	5.779898624901119e+17
19510.0	5.780598941548543e+17
19511.0	5.673213057739393e+17
19512.0	5.768245004293446e+17
19513.0	5.759487268880347e+17
19514.0	5.765748417538705e+17
19515.0	5.783178253260118e+17
19516.0	5.784776906637311e+17
19517.0	5.785214101312851e+17
19518.0	5.785663418925055e+17
19519.0	5.785985296804521e+17
19520.0	5.786291460025002e+17
19521.0	5.786609693753343e+17
19522.0	5.786796146644307e+17
19523.0	5.786990318452735e+17
19524.0	5.787095351514452e+17
19525.0	5.78720304795921e+17
19526.0	5.78726155850001e+17
19527.0	5.787269254348799e+17
19528.0	5.787234942145875e+17
19529.0	5.787176967077887e+17
19530.0	5.787098716045311e+17
19531.0	5.786977777483775e+17
19532.0	5.786825330611539e+17
19533.0	5.786642634418857e+17
19534.0	5.786428252356608e+17
19535.0	5.786182241047892e+17
19536.0	5.7858929473181e+17
19537.0	5.78563171557922e+17
19538.0	5.785189177360383e+17
19539.0	5.784557597665964e+17
19540.0	5.784585788282195e+17
19541.0	5.784211231342591e+17
19542.0	5.783806352381267e+17
19543.0	5.783622997682857e+17
19544.0	5.785576979212969e+17
19545.0	5.784714806471338e+17
19546.0	5.783899521854122e+17
19547.0	5.784056619510441e+17
19548.0	5.783513005555712e+17
19549.0	5.782883538392404e+17
19550.0	5.783179713576955e+17
19551.0	5.786324784469332e+17
19552.0	5.785690756000426e+17
19553.0	5.785026332109481e+17
19554.0	5.78435858702882e+17
19555.0	5.783701942173695e+17
19556.0	5.783035862930772e+17
19557.0	5.782344845754367e+17
19558.0	5.781644794047146e+17
19559.0	5.780932607519401e+17
19560.0	5.782715406221315e+17
19561.0	5.783259410945363e+17
19562.0	5.782506261446655e+17
19563.0	5.781752294757716e+17
19564.0	5.780975592843946e+17
19565.0	5.780191134263976e+17
19566.0	5.779375006591657e+17
19567.0	5.778599349758633e+17
19568.0	5.777774722329257e+17
19569.0	5.776974943354879e+17
19570.0	5.776163216905556e+17
19571.0	5.775334226700969e+17
19572.0	5.77448408392226e+17
19573.0	5.773651873890303e+17
19574.0	5.773687266126505e+17
19575.0	5.775123980921514e+17
19576.0	5.774259021064874e+17
19577.0	5.773371472784042e+17
19578.0	5.772479621846356e+17
19579.0	5.771610610991103e+17
19580.0	5.770726822903808e+17
19581.0	5.76984818262562e+17
19582.0	5.768969122917033e+17
19583.0	5.768072668730708e+17
19584.0	5.767143703095978e+17
19585.0	5.766181094948864e+17
19586.0	5.765227742232576e+17
19587.0	5.7641541569959245e+17
19588.0	5.7631585249962656e+17
19589.0	5.762586474359466e+17
19590.0	5.7615971610787834e+17
19591.0	5.7607668958057805e+17
19592.0	5.7598448542679034e+17
19593.0	5.758895693059411e+17
19594.0	5.757768643029673e+17
19595.0	5.757011855671296e+17
19596.0	5.752858010626733e+17
19597.0	5.755055463814484e+17
19598.0	5.753931636408319e+17
19599.0	5.753277919177386e+17
19600.0	5.752337460450643e+17
19601.0	5.753600084366678e+17
19602.0	5.7529194278202016e+17
19603.0	5.750911014010878e+17
19604.0	5.7509020535794336e+17
19605.0	5.749841692284245e+17
19606.0	5.7491077715722234e+17
19607.0	5.7481434395661645e+17
19608.0	5.747158809225898e+17
19609.0	5.7461541007523834e+17
19610.0	5.745209675612158e+17
19611.0	5.744223518545237e+17
19612.0	5.74328001335569e+17
19613.0	5.742294560232788e+17
19614.0	5.741291606376447e+17
19615.0	5.740324847266473e+17
19616.0	5.738832629246635e+17
19617.0	5.738346343038975e+17
19618.0	5.736936936658259e+17
19619.0	5.7358500771485e+17
19620.0	5.734873948662441e+17
19621.0	5.7343917602897914e+17
19622.0	5.733444836043434e+17
19623.0	5.7324544888668154e+17
19624.0	5.731454842918228e+17
19625.0	5.730466232882516e+17
19626.0	5.729472287692116e+17
19627.0	5.728464610350421e+17
19628.0	5.726294769664001e+17
19629.0	5.7262712759691936e+17
19630.0	5.722148336653654e+17
19631.0	5.674300059156485e+17
19632.0	5.723470752470356e+17
19633.0	5.722463959427754e+17
19634.0	5.7215685992557216e+17
19635.0	5.7205348172649805e+17
19636.0	5.7195260270346234e+17
19637.0	5.7182458094114125e+17
19638.0	5.7175568928822605e+17
19639.0	5.7165379223770445e+17
19640.0	5.7154725894335136e+17
19641.0	5.71387993321199e+17
19642.0	5.713542877544447e+17
19643.0	5.712520257295701e+17
19644.0	5.7114858978891085e+17
19645.0	5.7103085483677e+17
19646.0	5.709474845862569e+17
19647.0	5.7085093031007565e+17
19648.0	5.7075023772385274e+17
19649.0	5.706490105036799e+17
19650.0	5.7054817580045645e+17
19651.0	5.70446591365393e+17
19652.0	5.703456975224832e+17
19653.0	5.7024216056900256e+17
19654.0	5.70143475376674e+17
19655.0	5.700418278872405e+17
19656.0	5.699403308335103e+17
19657.0	5.698395220650666e+17
19658.0	5.697376835250857e+17
19659.0	5.6963654878931616e+17
19660.0	5.6953522447100576e+17
19661.0	5.694337160926547e+17
19662.0	5.693321506717694e+17
19663.0	5.6922456306920083e+17
