# Flux units: erg / (cm m2 s)
# Wavelength units: Angstrom
wave	flux
19000.0	7.403548820111357e+17
19001.0	7.402147075325951e+17
19002.0	7.400868596940799e+17
19003.0	7.399523089383424e+17
19004.0	7.398177690877951e+17
19005.0	7.396841356263423e+17
19006.0	7.395496515600383e+17
19007.0	7.394128416123561e+17
19008.0	7.392779102934355e+17
19009.0	7.391418460930047e+17
19010.0	7.39010793386803e+17
19011.0	7.388864410812415e+17
19012.0	7.387368411627517e+17
19013.0	7.386225175778642e+17
19014.0	7.384849474824876e+17
19015.0	7.383515930820608e+17
19016.0	7.382180981724499e+17
19017.0	7.380844785522004e+17
19018.0	7.379487949149523e+17
19019.0	7.37814434300996e+17
19020.0	7.376799807133012e+17
19021.0	7.375462112165887e+17
19022.0	7.374116654940156e+17
19023.0	7.372730360572585e+17
19024.0	7.371391860299092e+17
19025.0	7.370017410646016e+17
19026.0	7.368619629477887e+17
19027.0	7.367170925264896e+17
19028.0	7.365954610659327e+17
19029.0	7.364620197036032e+17
19030.0	7.363275113103357e+17
19031.0	7.36191011321719e+17
19032.0	7.360531772648105e+17
19033.0	7.359065318140585e+17
19034.0	7.357585563495081e+17
19035.0	7.354995133382655e+17
19036.0	7.342640703296851e+17
19037.0	7.352640978201257e+17
19038.0	7.352224248933033e+17
19039.0	7.351037940378281e+17
19040.0	7.349734725386239e+17
19041.0	7.348402691331411e+17
19042.0	7.346942445791913e+17
19043.0	7.345710071196329e+17
19044.0	7.344348727345151e+17
19045.0	7.342985005323603e+17
19046.0	7.341619426623488e+17
19047.0	7.340242772164607e+17
19048.0	7.338823952367612e+17
19049.0	7.337334473927338e+17
19050.0	7.3359516790074e+17
19051.0	7.33311436656913e+17
19052.0	7.332475437055997e+17
19053.0	7.331977933881343e+17
19054.0	7.330740291239936e+17
19055.0	7.329242081656832e+17
19056.0	7.328054699360255e+17
19057.0	7.326718448631805e+17
19058.0	7.325296994811903e+17
19059.0	7.323990006344362e+17
19060.0	7.322652181353811e+17
19061.0	7.321300123691689e+17
19062.0	7.319940635120978e+17
19063.0	7.318578814517245e+17
19064.0	7.317176464353961e+17
19065.0	7.315763049616723e+17
19066.0	7.314445575389181e+17
19067.0	7.313151506776063e+17
19068.0	7.311793779813033e+17
19069.0	7.310434924582227e+17
19070.0	7.309064606318591e+17
19071.0	7.307705841964372e+17
19072.0	7.306333521619625e+17
19073.0	7.304997230346237e+17
19074.0	7.303638556868605e+17
19075.0	7.302278058868735e+17
19076.0	7.300912355737599e+17
19077.0	7.29954751803119e+17
19078.0	7.298187105315498e+17
19079.0	7.296834795995136e+17
19080.0	7.295464814673919e+17
19081.0	7.294082338521087e+17
19082.0	7.292735348976298e+17
19083.0	7.291308385239037e+17
19084.0	7.289858684179796e+17
19085.0	7.28863225431108e+17
19086.0	7.28694274531874e+17
19087.0	7.285736239792127e+17
19088.0	7.284381626400768e+17
19089.0	7.28298830098159e+17
19090.0	7.281771308296874e+17
19091.0	7.280438336116051e+17
19092.0	7.279016225188522e+17
19093.0	7.277761924169727e+17
19094.0	7.276416076873727e+17
19095.0	7.275062658859007e+17
19096.0	7.273702056001533e+17
19097.0	7.272346167541757e+17
19098.0	7.270962767243945e+17
19099.0	7.2695978931869e+17
19100.0	7.268233772706472e+17
19101.0	7.266884802052093e+17
19102.0	7.265504688690516e+17
19103.0	7.26417763746884e+17
19104.0	7.262811273035775e+17
19105.0	7.261377803933012e+17
19106.0	7.260046386440876e+17
19107.0	7.258643024052223e+17
19108.0	7.2571769861789e+17
19109.0	7.255469381561002e+17
19110.0	7.25435315842799e+17
19111.0	7.253172833746943e+17
19112.0	7.251872595312639e+17
19113.0	7.250553609737556e+17
19114.0	7.24918183465233e+17
19115.0	7.247792393158656e+17
19116.0	7.246459701996202e+17
19117.0	7.245091090814292e+17
19118.0	7.243610363090262e+17
19119.0	7.240524610841254e+17
19120.0	7.240867479814143e+17
19121.0	7.239569471351466e+17
19122.0	7.238308107124735e+17
19123.0	7.236958926755155e+17
19124.0	7.235477643984896e+17
19125.0	7.234215804403711e+17
19126.0	7.232773337120765e+17
19127.0	7.23086965018897e+17
19128.0	7.229889392410623e+17
19129.0	7.228687146898771e+17
19130.0	7.227388517679104e+17
19131.0	7.226041716877993e+17
19132.0	7.224680298927442e+17
19133.0	7.223279524424361e+17
19134.0	7.221899809521663e+17
19135.0	7.220594472211795e+17
19136.0	7.219228889317375e+17
19137.0	7.217824732807165e+17
19138.0	7.216496249929727e+17
19139.0	7.215150061497002e+17
19140.0	7.213783862039892e+17
19141.0	7.212415053725693e+17
19142.0	7.211036007115434e+17
19143.0	7.209671440640681e+17
19144.0	7.208297504090793e+17
19145.0	7.206960000663551e+17
19146.0	7.205220909405523e+17
19147.0	7.204207835392681e+17
19148.0	7.202844893511679e+17
19149.0	7.201479310617258e+17
19150.0	7.200138872575316e+17
19151.0	7.19877332742963e+17
19152.0	7.197382573118803e+17
19153.0	7.195973871381161e+17
19154.0	7.194616874227028e+17
19155.0	7.193260443303935e+17
19156.0	7.191873876306602e+17
19157.0	7.19041361538799e+17
19158.0	7.188914529195348e+17
19159.0	7.187679516382547e+17
19160.0	7.186317672011092e+17
19161.0	7.184809326193321e+17
19162.0	7.182869327773696e+17
19163.0	7.181909507440639e+17
19164.0	7.180859217368403e+17
19165.0	7.179522989009578e+17
19166.0	7.178176525150889e+17
19167.0	7.176815813241514e+17
19168.0	7.175503335828138e+17
19169.0	7.174167529695913e+17
19170.0	7.172812628295679e+17
19171.0	7.171438978356564e+17
19172.0	7.170075481429332e+17
19173.0	7.168726738665471e+17
19174.0	7.167353043987113e+17
19175.0	7.166002910112425e+17
19176.0	7.16463672603443e+17
19177.0	7.163168846861651e+17
19178.0	7.161869471055871e+17
19179.0	7.160491881267199e+17
19180.0	7.159142905020416e+17
19181.0	7.157748248608768e+17
19182.0	7.156405788912298e+17
19183.0	7.155059130717523e+17
19184.0	7.153687745702569e+17
19185.0	7.152314469056511e+17
19186.0	7.150939455968595e+17
19187.0	7.149510143421097e+17
19188.0	7.148176897212415e+17
19189.0	7.146787996783956e+17
19190.0	7.145389771019603e+17
19191.0	7.143974477234173e+17
19192.0	7.14258840097041e+17
19193.0	7.141150453749075e+17
19194.0	7.139674050352467e+17
19195.0	7.138166122566995e+17
19196.0	7.1365114738333e+17
19197.0	7.134566473007104e+17
19198.0	7.131787313195688e+17
19199.0	7.126186615723348e+17
19200.0	7.125313249782441e+17
19201.0	7.12783249276928e+17
19202.0	7.12776391869508e+17
19203.0	7.126889376950953e+17
19204.0	7.125806239885994e+17
19205.0	7.124583361194666e+17
19206.0	7.123302055848617e+17
19207.0	7.121907521071786e+17
19208.0	7.120537868304383e+17
19209.0	7.119236807786496e+17
19210.0	7.117883578515455e+17
19211.0	7.116521225235113e+17
19212.0	7.115140307965267e+17
19213.0	7.113675169071101e+17
19214.0	7.112302555125076e+17
19215.0	7.110990150412969e+17
19216.0	7.109635056074751e+17
19217.0	7.10822586360354e+17
19218.0	7.106636475443881e+17
19219.0	7.105355435737087e+17
19220.0	7.104100403511296e+17
19221.0	7.102669091678889e+17
19222.0	7.101343342089556e+17
19223.0	7.099980661653501e+17
19224.0	7.098576305214803e+17
19225.0	7.097191762668202e+17
19226.0	7.095826295816191e+17
19227.0	7.094442969617748e+17
19228.0	7.093075191704233e+17
19229.0	7.091685441230164e+17
19230.0	7.090290192023551e+17
19231.0	7.088891469933225e+17
19232.0	7.087505596394153e+17
19233.0	7.086075026953555e+17
19234.0	7.084718944157693e+17
19235.0	7.083315493688659e+17
19236.0	7.081933209075711e+17
19237.0	7.080530049411753e+17
19238.0	7.07908377509888e+17
19239.0	7.077739422373203e+17
19240.0	7.076341852318377e+17
19241.0	7.07492868923938e+17
19242.0	7.073531018521258e+17
19243.0	7.072025692602365e+17
19244.0	7.070658485114195e+17
19245.0	7.069248603379028e+17
19246.0	7.067841561187667e+17
19247.0	7.066437752804692e+17
19248.0	7.065030625329151e+17
19249.0	7.063612462639785e+17
19250.0	7.062186400677887e+17
19251.0	7.060728526318249e+17
19252.0	7.059185532753235e+17
19253.0	7.057953953677311e+17
19254.0	7.056550099156991e+17
19255.0	7.055004384886783e+17
19256.0	7.053697800470527e+17
19257.0	7.052290867331071e+17
19258.0	7.050865072406527e+17
19259.0	7.049368950188713e+17
19260.0	7.04774571958818e+17
19261.0	7.046558608523263e+17
19262.0	7.04510929613619e+17
19263.0	7.04364701356305e+17
19264.0	7.042073200252246e+17
19265.0	7.040745532467881e+17
19266.0	7.039312052180308e+17
19267.0	7.037867104665599e+17
19268.0	7.036393068254548e+17
19269.0	7.034945964168532e+17
19270.0	7.033471934747988e+17
19271.0	7.031931938013183e+17
19272.0	7.030567039489364e+17
19273.0	7.028956329585321e+17
19274.0	7.027406541946877e+17
19275.0	7.02622839410961e+17
19276.0	7.024761617339731e+17
19277.0	7.023299190063104e+17
19278.0	7.021831614977363e+17
19279.0	7.020340228827817e+17
19280.0	7.01885648539921e+17
19281.0	7.017385443721215e+17
19282.0	7.015904486708564e+17
19283.0	7.014390654042111e+17
19284.0	7.012852699933353e+17
19285.0	7.011258026251604e+17
19286.0	7.00967230251554e+17
19287.0	7.007921298735103e+17
19288.0	7.001574851914408e+17
19289.0	6.997322075821393e+17
19290.0	7.003342586773504e+17
19291.0	7.002043926096553e+17
19292.0	7.00078691066402e+17
19293.0	6.999309557257556e+17
19294.0	6.997805605672276e+17
19295.0	6.996305882644479e+17
19296.0	6.994761237921791e+17
19297.0	6.993247666700287e+17
19298.0	6.991710749283668e+17
19299.0	6.990136347372201e+17
19300.0	6.988565837774847e+17
19301.0	6.987024586244096e+17
19302.0	6.985468751118336e+17
19303.0	6.983888083615743e+17
19304.0	6.982306073236819e+17
19305.0	6.980726642354857e+17
19306.0	6.979156432650239e+17
19307.0	6.97754649240098e+17
19308.0	6.975931124023293e+17
19309.0	6.974178897603241e+17
19310.0	6.972506130175316e+17
19311.0	6.971082890280959e+17
19312.0	6.969543541566121e+17
19313.0	6.967778973406548e+17
19314.0	6.953710248088916e+17
19315.0	6.952972465821024e+17
19316.0	6.962865771992404e+17
19317.0	6.961474514365097e+17
19318.0	6.959885482721279e+17
19319.0	6.958270555444566e+17
19320.0	6.956607301397161e+17
19321.0	6.954918929760255e+17
19322.0	6.953225877280084e+17
19323.0	6.951530197068457e+17
19324.0	6.94985030631424e+17
19325.0	6.948124375384064e+17
19326.0	6.946401165858132e+17
19327.0	6.944671320943273e+17
19328.0	6.942907333694804e+17
19329.0	6.941225394722132e+17
19330.0	6.939468658726227e+17
19331.0	6.937690729611263e+17
19332.0	6.935950750558889e+17
19333.0	6.934156555933011e+17
19334.0	6.932376206005587e+17
19335.0	6.930472275105108e+17
19336.0	6.928746891531604e+17
19337.0	6.92692695786018e+17
19338.0	6.924966099069609e+17
19339.0	6.923232208748543e+17
19340.0	6.921330499431081e+17
19341.0	6.919402796613631e+17
19342.0	6.917346867631444e+17
19343.0	6.915494225379327e+17
19344.0	6.913504352490835e+17
19345.0	6.910952069573289e+17
19346.0	6.90919906091554e+17
19347.0	6.907672609685504e+17
19348.0	6.905784399735465e+17
19349.0	6.903807635445076e+17
19350.0	6.90180148236561e+17
19351.0	6.899809029980159e+17
19352.0	6.897694677139455e+17
19353.0	6.895712795099135e+17
19354.0	6.893620038729727e+17
19355.0	6.891304434794493e+17
19356.0	6.889141236487508e+17
19357.0	6.886981324417705e+17
19358.0	6.88478838919441e+17
19359.0	6.882559136191827e+17
19360.0	6.880294080610303e+17
19361.0	6.878083648148822e+17
19362.0	6.875808220752553e+17
19363.0	6.87349633856307e+17
19364.0	6.871151296905216e+17
19365.0	6.868767734759423e+17
19366.0	6.866197165375487e+17
19367.0	6.863592678053204e+17
19368.0	6.861101115375615e+17
19369.0	6.858499194268329e+17
19370.0	6.855881176820393e+17
19371.0	6.853286112701097e+17
19372.0	6.85069485281553e+17
19373.0	6.847983667991891e+17
19374.0	6.845295161769983e+17
19375.0	6.842557934512809e+17
19376.0	6.839785651961855e+17
19377.0	6.836820332860755e+17
19378.0	6.833814920407721e+17
19379.0	6.830936648493738e+17
19380.0	6.828019793177258e+17
19381.0	6.825058687953578e+17
19382.0	6.822009445023743e+17
19383.0	6.818918742097919e+17
19384.0	6.815620590993407e+17
19385.0	6.812311280943103e+17
19386.0	6.808999069133481e+17
19387.0	6.805611653453139e+17
19388.0	6.802139369526612e+17
19389.0	6.798293605897555e+17
19390.0	6.79413193777698e+17
19391.0	6.781213935140856e+17
19392.0	6.785194435193513e+17
19393.0	6.783233439389011e+17
19394.0	6.779477140963327e+17
19395.0	6.77547939602978e+17
19396.0	6.771380486580906e+17
19397.0	6.766838043465044e+17
19398.0	6.762320859845971e+17
19399.0	6.757623044330835e+17
19400.0	6.753120068217514e+17
19401.0	6.74847490310144e+17
19402.0	6.74360120713762e+17
19403.0	6.738575578802857e+17
19404.0	6.733442279888211e+17
19405.0	6.72815982523187e+17
19406.0	6.722763021964628e+17
19407.0	6.7172013979293e+17
19408.0	6.711382021330259e+17
19409.0	6.705672830495402e+17
19410.0	6.699519471255551e+17
19411.0	6.693104368571731e+17
19412.0	6.686095123152895e+17
19413.0	6.679035091004074e+17
19414.0	6.671924668486995e+17
19415.0	6.664545310692692e+17
19416.0	6.656797227439443e+17
19417.0	6.648876351444308e+17
19418.0	6.640519189539497e+17
19419.0	6.631759687625385e+17
19420.0	6.622592698591913e+17
19421.0	6.613054942871551e+17
19422.0	6.603219411140607e+17
19423.0	6.593072924196863e+17
19424.0	6.582495591355732e+17
19425.0	6.571266763565737e+17
19426.0	6.55926112760627e+17
19427.0	6.546739847408298e+17
19428.0	6.533491524457812e+17
19429.0	6.519419834466304e+17
19430.0	6.503956563187028e+17
19431.0	6.48749854560529e+17
19432.0	6.472233360818173e+17
19433.0	6.454844144134828e+17
19434.0	6.436166905626623e+17
19435.0	6.415449832379731e+17
19436.0	6.393398449668096e+17
19437.0	6.370213981323263e+17
19438.0	6.331675950710783e+17
19439.0	6.315381088059391e+17
19440.0	6.289093845581823e+17
19441.0	6.256825787744255e+17
19442.0	6.220956747257174e+17
19443.0	6.181040314559146e+17
19444.0	6.135885059850236e+17
19445.0	6.084447434702849e+17
19446.0	6.024734094742867e+17
19447.0	5.954136556874406e+17
19448.0	5.868352081057112e+17
19449.0	5.759745879878315e+17
19450.0	5.60756632322047e+17
19451.0	5.508861812626773e+17
19452.0	5.6918610283943245e+17
19453.0	5.815066500093272e+17
19454.0	5.908378620526588e+17
19455.0	5.983441224990719e+17
19456.0	6.045767689043968e+17
19457.0	6.098407716989608e+17
19458.0	6.119659657669321e+17
19459.0	6.181983561099953e+17
19460.0	6.219777587194537e+17
19461.0	6.251779257095507e+17
19462.0	6.280326517096448e+17
19463.0	6.306163064132947e+17
19464.0	6.330022008717311e+17
19465.0	6.351556751043242e+17
19466.0	6.371448894171817e+17
19467.0	6.390074978249385e+17
19468.0	6.406922931186346e+17
19469.0	6.422499955485352e+17
19470.0	6.43707487527458e+17
19471.0	6.450757775654911e+17
19472.0	6.46357725548817e+17
19473.0	6.47542384763426e+17
19474.0	6.486499493150719e+17
19475.0	6.496578068720298e+17
19476.0	6.506575809566036e+17
19477.0	6.51577769590784e+17
19478.0	6.524145998583123e+17
19479.0	6.5319576549021e+17
19480.0	6.539452532217172e+17
19481.0	6.54659970872115e+17
19482.0	6.553511798680234e+17
19483.0	6.559941388490068e+17
19484.0	6.566026039437993e+17
19485.0	6.57168297763362e+17
19486.0	6.576913778737151e+17
19487.0	6.581925160419327e+17
19488.0	6.586622865484457e+17
19489.0	6.590922765981012e+17
19490.0	6.595295730554196e+17
19491.0	6.599782732660735e+17
19492.0	6.603615719041705e+17
19493.0	6.60716315021585e+17
19494.0	6.61029952561698e+17
19495.0	6.613303908368384e+17
19496.0	6.615993026958676e+17
19497.0	6.618540787717459e+17
19498.0	6.616841654195539e+17
19499.0	6.609016650902184e+17
19500.0	6.625759434462548e+17
19501.0	6.62876327195443e+17
19502.0	6.631059127009279e+17
19503.0	6.633156499909289e+17
19504.0	6.635088682243412e+17
19505.0	6.637110784163839e+17
19506.0	6.638911487650474e+17
19507.0	6.640420391310676e+17
19508.0	6.641821711772329e+17
19509.0	6.643030592673108e+17
19510.0	6.643586214920191e+17
19511.0	6.623658622233248e+17
19512.0	6.641788029414057e+17
19513.0	6.642526371621544e+17
19514.0	6.644532139524092e+17
19515.0	6.649298088012457e+17
19516.0	6.650507021342035e+17
19517.0	6.651327118224042e+17
19518.0	6.652179730748755e+17
19519.0	6.652865175093247e+17
19520.0	6.653354331602943e+17
19521.0	6.653842756905642e+17
19522.0	6.654225867429203e+17
19523.0	6.654599153494697e+17
19524.0	6.654895959222953e+17
19525.0	6.655473619741353e+17
19526.0	6.655761310547968e+17
19527.0	6.655974423134207e+17
19528.0	6.656139752112127e+17
19529.0	6.656280735951529e+17
19530.0	6.656416457337513e+17
19531.0	6.65648743125265e+17
19532.0	6.65651409723938e+17
19533.0	6.656578256808618e+17
19534.0	6.656579128524799e+17
19535.0	6.656502550320468e+17
19536.0	6.656595599556607e+17
19537.0	6.65652666896657e+17
19538.0	6.656218128973823e+17
19539.0	6.655962196738047e+17
19540.0	6.655869729112063e+17
19541.0	6.655629107483988e+17
19542.0	6.655331899102548e+17
19543.0	6.654970519967059e+17
19544.0	6.654638856776361e+17
19545.0	6.654034092665514e+17
19546.0	6.653576351492777e+17
19547.0	6.653567773442047e+17
19548.0	6.653264373568852e+17
19549.0	6.652754785905321e+17
19550.0	6.652342497705983e+17
19551.0	6.651831618895871e+17
19552.0	6.651291755347967e+17
19553.0	6.650728228235945e+17
19554.0	6.650158583731539e+17
19555.0	6.649583581003775e+17
19556.0	6.64904103170321e+17
19557.0	6.648435639844863e+17
19558.0	6.647814645175636e+17
19559.0	6.647183813465428e+17
19560.0	6.646558680416255e+17
19561.0	6.646019218123433e+17
19562.0	6.645354023179604e+17
19563.0	6.644688744349695e+17
19564.0	6.643995990731433e+17
19565.0	6.64329113444898e+17
19566.0	6.642562845988179e+17
19567.0	6.641846890878292e+17
19568.0	6.641093907054591e+17
19569.0	6.640360753201151e+17
19570.0	6.639604880900095e+17
19571.0	6.638834703226196e+17
19572.0	6.638036042732883e+17
19573.0	6.637262235587924e+17
19574.0	6.636408985529002e+17
19575.0	6.635663854141439e+17
19576.0	6.634843671975252e+17
19577.0	6.634077675323391e+17
19578.0	6.633253981126655e+17
19579.0	6.632397376323583e+17
19580.0	6.631541604788906e+17
19581.0	6.630688799326205e+17
19582.0	6.629819680118099e+17
19583.0	6.628937666221395e+17
19584.0	6.628038921945087e+17
19585.0	6.62707582865681e+17
19586.0	6.626147522226858e+17
19587.0	6.625290999212714e+17
19588.0	6.62425190863121e+17
19589.0	6.623457258591572e+17
19590.0	6.622519013758291e+17
19591.0	6.621637828236627e+17
19592.0	6.620695547783849e+17
19593.0	6.619727038950057e+17
19594.0	6.618635674757801e+17
19595.0	6.617812168605695e+17
19596.0	6.616589947021994e+17
19597.0	6.615874128926035e+17
19598.0	6.614748920894804e+17
19599.0	6.61392004952883e+17
19600.0	6.612973892840105e+17
19601.0	6.611972752321194e+17
19602.0	6.610940386607103e+17
19603.0	6.609846238795091e+17
19604.0	6.608998591627264e+17
19605.0	6.607937857039018e+17
19606.0	6.607088966260052e+17
19607.0	6.606088352825343e+17
19608.0	6.605067344587434e+17
19609.0	6.604037595419988e+17
19610.0	6.603021660192767e+17
19611.0	6.602002850469204e+17
19612.0	6.601006956325546e+17
19613.0	6.600169360108202e+17
19614.0	6.599136925188095e+17
19615.0	6.598103810790739e+17
19616.0	6.596972529407316e+17
19617.0	6.596095968105812e+17
19618.0	6.594820725626195e+17
19619.0	6.593692180327081e+17
19620.0	6.592736837413546e+17
19621.0	6.591879198714537e+17
19622.0	6.59088423920162e+17
19623.0	6.589822709093716e+17
19624.0	6.588741476242772e+17
19625.0	6.58765718364706e+17
19626.0	6.586538201361065e+17
19627.0	6.585341548953597e+17
19628.0	6.583990551052287e+17
19629.0	6.582320061830484e+17
19630.0	6.578768869763753e+17
19631.0	6.574702334749354e+17
19632.0	6.57865075466786e+17
19633.0	6.578553996967933e+17
19634.0	6.577796874764287e+17
19635.0	6.576861441512788e+17
19636.0	6.575849361549993e+17
19637.0	6.574551661368662e+17
19638.0	6.573757018319529e+17
19639.0	6.572673400307711e+17
19640.0	6.571501001463123e+17
19641.0	6.570202361058643e+17
19642.0	6.569426140091731e+17
19643.0	6.568332163547136e+17
19644.0	6.567188897639081e+17
19645.0	6.566049586959699e+17
19646.0	6.564987481533097e+17
19647.0	6.56393749205265e+17
19648.0	6.562834425752233e+17
19649.0	6.561727279093075e+17
19650.0	6.560619522162687e+17
19651.0	6.559505222118057e+17
19652.0	6.558396764039849e+17
19653.0	6.557278535330474e+17
19654.0	6.556164985367209e+17
19655.0	6.55505367306513e+17
19656.0	6.553936693559295e+17
19657.0	6.552821135922516e+17
19658.0	6.551702316515327e+17
19659.0	6.550622617381545e+17
19660.0	6.549522160637267e+17
19661.0	6.548398857519101e+17
19662.0	6.547270956045652e+17
19663.0	6.546125830662826e+17
19664.0	6.545000757548372e+17
19665.0	6.543896220445353e+17
