# Flux units: erg / (cm m2 s)
# Wavelength units: Angstrom
wave	flux
19000.0	4.9866201017002656e+17
19001.0	4.985682139982506e+17
19002.0	4.984905984726355e+17
19003.0	4.9840359504609274e+17
19004.0	4.983120902225919e+17
19005.0	4.982261285912574e+17
19006.0	4.9814049411563514e+17
19007.0	4.9805510752337914e+17
19008.0	4.9796771388675405e+17
19009.0	4.9787602402454176e+17
19010.0	4.9779082813330765e+17
19011.0	4.9770225925270176e+17
19012.0	4.976051891470335e+17
19013.0	4.9753672594227194e+17
19014.0	4.9744215473302176e+17
19015.0	4.973558905525588e+17
19016.0	4.9727602457313274e+17
19017.0	4.9719180840140794e+17
19018.0	4.971022080016382e+17
19019.0	4.9701787662636365e+17
19020.0	4.969297449320446e+17
19021.0	4.96844263198993e+17
19022.0	4.967590578705749e+17
19023.0	4.9666397803205965e+17
19024.0	4.9657730064274765e+17
19025.0	4.964953124154026e+17
19026.0	4.9640914770984954e+17
19027.0	4.963233976112468e+17
19028.0	4.9623279057851725e+17
19029.0	4.961436867144362e+17
19030.0	4.9605611838504954e+17
19031.0	4.9597210388944205e+17
19032.0	4.9588378631755085e+17
19033.0	4.957786210653524e+17
19034.0	4.956882754076671e+17
19035.0	4.955735687430143e+17
19036.0	4.9544317496197114e+17
19037.0	4.9540361316816205e+17
19038.0	4.9534285853491194e+17
19039.0	4.9527047666182816e+17
19040.0	4.951897637126143e+17
19041.0	4.9510660233844045e+17
19042.0	4.948078046653095e+17
19043.0	4.949388050825215e+17
19044.0	4.9485488579761485e+17
19045.0	4.9476508421106336e+17
19046.0	4.946764900248234e+17
19047.0	4.9459025240828576e+17
19048.0	4.944749883206313e+17
19049.0	4.939732187698511e+17
19050.0	4.943233352903338e+17
19051.0	4.9423211728732154e+17
19052.0	4.9415029529422496e+17
19053.0	4.9407166432761165e+17
19054.0	4.939866401931262e+17
19055.0	4.938245151741269e+17
19056.0	4.938015144498515e+17
19057.0	4.937370230412627e+17
19058.0	4.934271282883239e+17
19059.0	4.9347606959445325e+17
19060.0	4.9348061293445114e+17
19061.0	4.9339248417614496e+17
19062.0	4.9330435835385165e+17
19063.0	4.9322332950364154e+17
19064.0	4.9313607113332045e+17
19065.0	4.930430207787007e+17
19066.0	4.928825864137387e+17
19067.0	4.928718831790762e+17
19068.0	4.927955478249472e+17
19069.0	4.927096815441237e+17
19070.0	4.926175923142656e+17
19071.0	4.9253459577623885e+17
19072.0	4.923692348517032e+17
19073.0	4.9236830916881056e+17
19074.0	4.922757847100074e+17
19075.0	4.921951653636778e+17
19076.0	4.9210792132389536e+17
19077.0	4.9202233256618656e+17
19078.0	4.919359867366058e+17
19079.0	4.918493903672661e+17
19080.0	4.9176545192837114e+17
19081.0	4.916774032812714e+17
19082.0	4.915972555844266e+17
19083.0	4.915033577007785e+17
19084.0	4.9140859830708896e+17
19085.0	4.913367133192192e+17
19086.0	4.911080347620692e+17
19087.0	4.909816976419495e+17
19088.0	4.909624773137746e+17
19089.0	4.909837536897706e+17
19090.0	4.9091006347345914e+17
19091.0	4.908115257109162e+17
19092.0	4.905618840922798e+17
19093.0	4.90654403727633e+17
19094.0	4.905695335940095e+17
19095.0	4.904815614929577e+17
19096.0	4.903991602664789e+17
19097.0	4.9031333613841056e+17
19098.0	4.901387934629886e+17
19099.0	4.9003266533840224e+17
19100.0	4.9005585026252794e+17
19101.0	4.8997009408218445e+17
19102.0	4.89884623114513e+17
19103.0	4.8979810287179085e+17
19104.0	4.897178327012692e+17
19105.0	4.8943116334749056e+17
19106.0	4.8954480479873696e+17
19107.0	4.894108197147987e+17
19108.0	4.892963370958847e+17
19109.0	4.89287713886481e+17
19110.0	4.89202349314321e+17
19111.0	4.8905609204640403e+17
19112.0	4.889616639328254e+17
19113.0	4.889465958258005e+17
19114.0	4.8881762992564896e+17
19115.0	4.887625928278014e+17
19116.0	4.8867417557128525e+17
19117.0	4.885714492369578e+17
19118.0	4.883966697231702e+17
19119.0	4.880823239748265e+17
19120.0	4.8826296020500474e+17
19121.0	4.8823606444031994e+17
19122.0	4.8817083063992314e+17
19123.0	4.880922230915071e+17
19124.0	4.880024873555283e+17
19125.0	4.8792020923187194e+17
19126.0	4.878308456704681e+17
19127.0	4.87739986490163e+17
19128.0	4.876591663764819e+17
19129.0	4.875784779639466e+17
19130.0	4.875022707458047e+17
19131.0	4.87420248264977e+17
19132.0	4.873345828214102e+17
19133.0	4.872505388957695e+17
19134.0	4.871679113166847e+17
19135.0	4.8708511575572486e+17
19136.0	4.869986039715157e+17
19137.0	4.86911621796113e+17
19138.0	4.8683119825387514e+17
19139.0	4.86748141457681e+17
19140.0	4.866642288137555e+17
19141.0	4.865789045768192e+17
19142.0	4.8649166424200525e+17
19143.0	4.8640840262396576e+17
19144.0	4.8632045932380154e+17
19145.0	4.8623902914860365e+17
19146.0	4.861086866079743e+17
19147.0	4.8607020058323616e+17
19148.0	4.859158264283136e+17
19149.0	4.8581545729283405e+17
19150.0	4.858196731275945e+17
19151.0	4.857324757144917e+17
19152.0	4.856497334211924e+17
19153.0	4.854116250899794e+17
19154.0	4.854682554641066e+17
19155.0	4.853969002168319e+17
19156.0	4.8531125015237965e+17
19157.0	4.851789788610562e+17
19158.0	4.8503510465686195e+17
19159.0	4.8505429660357965e+17
19160.0	4.849714779739477e+17
19161.0	4.848883602205355e+17
19162.0	4.848038468124671e+17
19163.0	4.847201659038378e+17
19164.0	4.846357087693481e+17
19165.0	4.843841881025191e+17
19166.0	4.844643392946175e+17
19167.0	4.8438542647077536e+17
19168.0	4.8429977717527885e+17
19169.0	4.8421613324642976e+17
19170.0	4.841337148233044e+17
19171.0	4.840458186391552e+17
19172.0	4.839636484489215e+17
19173.0	4.8388226531983354e+17
19174.0	4.837961296248832e+17
19175.0	4.8371121174609914e+17
19176.0	4.8362918632925856e+17
19177.0	4.835327822091604e+17
19178.0	4.8345900062692685e+17
19179.0	4.833764319079082e+17
19180.0	4.832899748593663e+17
19181.0	4.8320606857680205e+17
19182.0	4.8311775911389856e+17
19183.0	4.830381838696447e+17
19184.0	4.8295565849176736e+17
19185.0	4.8286969462347085e+17
19186.0	4.8278635135631354e+17
19187.0	4.826979708698623e+17
19188.0	4.8261906279956474e+17
19189.0	4.8253388340592634e+17
19190.0	4.824489540627113e+17
19191.0	4.8236130590173856e+17
19192.0	4.822771021032107e+17
19193.0	4.821696459920725e+17
19194.0	4.8207162559692806e+17
19195.0	4.8202010535307936e+17
19196.0	4.8193167817004365e+17
19197.0	4.818429259284479e+17
19198.0	4.81752693936401e+17
19199.0	4.816640695511721e+17
19200.0	4.8158108147165856e+17
19201.0	4.8150371208178336e+17
19202.0	4.8142677379645434e+17
19203.0	4.8134518011330554e+17
19204.0	4.8126849439498234e+17
19205.0	4.811847061121707e+17
19206.0	4.811043250722132e+17
19207.0	4.8101053085777914e+17
19208.0	4.809390741083477e+17
19209.0	4.808586432959829e+17
19210.0	4.807745384830292e+17
19211.0	4.806956261485226e+17
19212.0	4.806127499171156e+17
19213.0	4.80524090159923e+17
19214.0	4.8044633069977594e+17
19215.0	4.8036433953641805e+17
19216.0	4.8028081095092896e+17
19217.0	4.801979385643007e+17
19218.0	4.80109827072546e+17
19219.0	4.8001749422353056e+17
19220.0	4.799475242849619e+17
19221.0	4.7986527167665485e+17
19222.0	4.797803126936916e+17
19223.0	4.796997289989461e+17
19224.0	4.7961436561517216e+17
19225.0	4.795379258228736e+17
19226.0	4.794553760481279e+17
19227.0	4.79371821457954e+17
19228.0	4.7929157009189536e+17
19229.0	4.7920192893747194e+17
19230.0	4.791246036576938e+17
19231.0	4.7904422681204045e+17
19232.0	4.789619819631957e+17
19233.0	4.7887443222855674e+17
19234.0	4.787933306071723e+17
19235.0	4.7870955092268365e+17
19236.0	4.78629212524817e+17
19237.0	4.7854291213352954e+17
19238.0	4.784586741514238e+17
19239.0	4.783810363959978e+17
19240.0	4.7829509748381e+17
19241.0	4.78214995574784e+17
19242.0	4.7812782192940365e+17
19243.0	4.7803992560544416e+17
19244.0	4.779663184363519e+17
19245.0	4.778852501596842e+17
19246.0	4.7780365570757965e+17
19247.0	4.777205401212244e+17
19248.0	4.776370559953579e+17
19249.0	4.7754684043100154e+17
19250.0	4.774371321883307e+17
19251.0	4.773520156393471e+17
19252.0	4.7728460387669325e+17
19253.0	4.7722208665709216e+17
19254.0	4.771419685300906e+17
19255.0	4.770434904664746e+17
19256.0	4.769726297276416e+17
19257.0	4.7689160849708365e+17
19258.0	4.7680726873320096e+17
19259.0	4.767206466387968e+17
19260.0	4.7663487256275616e+17
19261.0	4.76558173073135e+17
19262.0	4.7646877546796365e+17
19263.0	4.763847074949801e+17
19264.0	4.7630315337809914e+17
19265.0	4.762186145245866e+17
19266.0	4.76137559040546e+17
19267.0	4.760629934030847e+17
19268.0	4.7598006690993485e+17
19269.0	4.75899201987106e+17
19270.0	4.758162629809493e+17
19271.0	4.757316991014229e+17
19272.0	4.7565425589179725e+17
19273.0	4.755624947963221e+17
19274.0	4.754616976321193e+17
19275.0	4.7540982926103885e+17
19276.0	4.753262773272575e+17
19277.0	4.7524574613121696e+17
19278.0	4.7515822715480723e+17
19279.0	4.750779733420714e+17
19280.0	4.7499753980340896e+17
19281.0	4.7491438360221005e+17
19282.0	4.748323279863806e+17
19283.0	4.747477274765994e+17
19284.0	4.746625273910612e+17
19285.0	4.745754274955263e+17
19286.0	4.7448245802106874e+17
19287.0	4.743860065752404e+17
19288.0	4.742659636374185e+17
19289.0	4.741775104496981e+17
19290.0	4.7413932844209485e+17
19291.0	4.740565119096149e+17
19292.0	4.740018018276693e+17
19293.0	4.739247485485055e+17
19294.0	4.7384468103277216e+17
19295.0	4.737640552551764e+17
19296.0	4.7358340154873184e+17
19297.0	4.73584991399663e+17
19298.0	4.735167285428224e+17
19299.0	4.733287417249792e+17
19300.0	4.733573099683839e+17
19301.0	4.7327548259259725e+17
19302.0	4.731928670371839e+17
19303.0	4.731054957701802e+17
19304.0	4.73027217264913e+17
19305.0	4.7294236516679674e+17
19306.0	4.728603171706196e+17
19307.0	4.727728992769364e+17
19308.0	4.726888243134463e+17
19309.0	4.7260096503917216e+17
19310.0	4.725092460265471e+17
19311.0	4.7240819300980045e+17
19312.0	4.72284110328081e+17
19313.0	4.7205466043842554e+17
19314.0	4.708875811596971e+17
19315.0	4.708398416614741e+17
19316.0	4.716879938235053e+17
19317.0	4.718769289035776e+17
19318.0	4.7184218384848205e+17
19319.0	4.717760149979136e+17
19320.0	4.7167077159185043e+17
19321.0	4.71543272579618e+17
19322.0	4.715541444952063e+17
19323.0	4.7147592338199885e+17
19324.0	4.713950493715114e+17
19325.0	4.713162857250815e+17
19326.0	4.7123368226324474e+17
19327.0	4.7115466618961914e+17
19328.0	4.7089190429873504e+17
19329.0	4.7099262827233274e+17
19330.0	4.709126767291049e+17
19331.0	4.708288165838847e+17
19332.0	4.707485131385514e+17
19333.0	4.706686479979861e+17
19334.0	4.7057855294996474e+17
19335.0	4.701391484354563e+17
19336.0	4.7041923734568954e+17
19337.0	4.7034114716467194e+17
19338.0	4.702438763615572e+17
19339.0	4.701727643839145e+17
19340.0	4.7008223438656845e+17
19341.0	4.6987004210053146e+17
19342.0	4.6988533250566835e+17
19343.0	4.6984023220333216e+17
19344.0	4.696190702583809e+17
19345.0	4.696033935578454e+17
19346.0	4.695764227850239e+17
19347.0	4.6934216811042125e+17
19348.0	4.69438398796049e+17
19349.0	4.69358293881105e+17
19350.0	4.692117043544064e+17
19351.0	4.691983414416724e+17
19352.0	4.689375688392699e+17
19353.0	4.6904241602341536e+17
19354.0	4.68964019937826e+17
19355.0	4.688751963930624e+17
19356.0	4.6880073484424525e+17
19357.0	4.687209962318506e+17
19358.0	4.686393435488256e+17
19359.0	4.685189879256401e+17
19360.0	4.68332420600081e+17
19361.0	4.683960688137557e+17
19362.0	4.68314944053794e+17
19363.0	4.6823436371449165e+17
19364.0	4.681540069315923e+17
19365.0	4.680716888921428e+17
19366.0	4.679874030949717e+17
19367.0	4.679087720584532e+17
19368.0	4.6782877661484365e+17
19369.0	4.677477609067861e+17
19370.0	4.676670191566847e+17
19371.0	4.675794997608447e+17
19372.0	4.675022178222079e+17
19373.0	4.6741906658426874e+17
19374.0	4.673376791210666e+17
19375.0	4.672607357326677e+17
19376.0	4.671795381316266e+17
19377.0	4.670977814997674e+17
19378.0	4.670164851927723e+17
19379.0	4.669350984286206e+17
19380.0	4.6684752129119565e+17
19381.0	4.6676685489875616e+17
19382.0	4.6668195687301114e+17
19383.0	4.6660253311303674e+17
19384.0	4.665176427069439e+17
19385.0	4.6643996398714874e+17
19386.0	4.66357460209937e+17
19387.0	4.662720489411923e+17
19388.0	4.6618438442243405e+17
19389.0	4.660933824260777e+17
19390.0	4.659892247855102e+17
19391.0	4.6585769315969696e+17
19392.0	4.658041713939795e+17
19393.0	4.6575487769640954e+17
19394.0	4.656878749483008e+17
19395.0	4.655610751964502e+17
19396.0	4.655214091741867e+17
19397.0	4.6544988874123936e+17
19398.0	4.653190760890368e+17
19399.0	4.652190777300307e+17
19400.0	4.651576418020011e+17
19401.0	4.6511919520372045e+17
19402.0	4.6503934914723834e+17
19403.0	4.649559033293481e+17
19404.0	4.6487009842517325e+17
19405.0	4.6478297126666234e+17
19406.0	4.647004809112234e+17
19407.0	4.6455137724880205e+17
19408.0	4.645262205124608e+17
19409.0	4.64440795402513e+17
19410.0	4.6435792790923955e+17
19411.0	4.6427202332043936e+17
19412.0	4.641852837855232e+17
19413.0	4.6403434937931085e+17
19414.0	4.640103761357483e+17
19415.0	4.639190012657663e+17
19416.0	4.6381798711623674e+17
19417.0	4.6373846458040314e+17
19418.0	4.636451264266239e+17
19419.0	4.635502916053674e+17
19420.0	4.6345400450635085e+17
19421.0	4.633571395021483e+17
19422.0	4.632522730941098e+17
19423.0	4.63155480301841e+17
19424.0	4.6305181360455674e+17
19425.0	4.629407209619456e+17
19426.0	4.628301379272704e+17
19427.0	4.627149343774037e+17
19428.0	4.625924871946239e+17
19429.0	4.6246902268340896e+17
19430.0	4.623318778904575e+17
19431.0	4.621875500023807e+17
19432.0	4.620465679106047e+17
19433.0	4.6188733835946656e+17
19434.0	4.6172597873104205e+17
19435.0	4.6153231268577274e+17
19436.0	4.613119331882325e+17
19437.0	4.6105360376791046e+17
19438.0	4.607227036609194e+17
19439.0	4.6052144347873274e+17
19440.0	4.602865096764074e+17
19441.0	4.5997138602448205e+17
19442.0	4.5960000634006176e+17
19443.0	4.591223048241151e+17
19444.0	4.585792162059604e+17
19445.0	4.5787688244783776e+17
19446.0	4.5704162245782176e+17
19447.0	4.559367658187433e+17
19448.0	4.5446408004348595e+17
19449.0	4.523486712867497e+17
19450.0	4.4866367365229184e+17
19451.0	4.4549710674220365e+17
19452.0	4.5070035860848634e+17
19453.0	4.531918444604074e+17
19454.0	4.54737027871539e+17
19455.0	4.557871445792086e+17
19456.0	4.564786321468074e+17
19457.0	4.566709911071402e+17
19458.0	4.541944713707527e+17
19459.0	4.564055179482456e+17
19460.0	4.5800294826639354e+17
19461.0	4.584300556408148e+17
19462.0	4.586771300657834e+17
19463.0	4.588380400648192e+17
19464.0	4.5893029531921043e+17
19465.0	4.590106079221076e+17
19466.0	4.5906326636025165e+17
19467.0	4.5909725804844365e+17
19468.0	4.591093173015892e+17
19469.0	4.589809908929875e+17
19470.0	4.590992269945513e+17
19471.0	4.5908333785251846e+17
19472.0	4.5905524496356685e+17
19473.0	4.5902302082498554e+17
19474.0	4.588490306792103e+17
19475.0	4.5892127749570554e+17
19476.0	4.588913598048938e+17
19477.0	4.588444203701589e+17
19478.0	4.587967986619732e+17
19479.0	4.586147514679293e+17
19480.0	4.586815124843178e+17
19481.0	4.586163381731328e+17
19482.0	4.5855767530919245e+17
19483.0	4.5849560771898016e+17
19484.0	4.5842842846057805e+17
19485.0	4.583628770115583e+17
19486.0	4.581593325415086e+17
19487.0	4.5822023271710726e+17
19488.0	4.581496384563881e+17
19489.0	4.580728947168596e+17
19490.0	4.579964591188649e+17
19491.0	4.579272053577044e+17
19492.0	4.5786213877022714e+17
19493.0	4.577875384598528e+17
19494.0	4.5771069209968634e+17
19495.0	4.5763115488378874e+17
19496.0	4.575368354026838e+17
19497.0	4.574463504941055e+17
19498.0	4.573185320856234e+17
19499.0	4.572054013607936e+17
19500.0	4.57208973299985e+17
19501.0	4.571682292716884e+17
19502.0	4.571069242059434e+17
19503.0	4.570390206611455e+17
19504.0	4.5696406313588045e+17
19505.0	4.568832987365376e+17
19506.0	4.5680839091377485e+17
19507.0	4.567206543927978e+17
19508.0	4.566203488010239e+17
19509.0	4.564838899165866e+17
19510.0	4.561495280407893e+17
19511.0	4.5498641265896096e+17
19512.0	4.5589121239176525e+17
19513.0	4.560854326444031e+17
19514.0	4.5607947323746976e+17
19515.0	4.560771802813781e+17
19516.0	4.560072594161663e+17
19517.0	4.5596486213304314e+17
19518.0	4.5585954427808416e+17
19519.0	4.557870254609748e+17
19520.0	4.556213808616787e+17
19521.0	4.556832437698559e+17
19522.0	4.5558362261858976e+17
19523.0	4.5550000902853984e+17
19524.0	4.553542155108353e+17
19525.0	4.5537692794661536e+17
19526.0	4.553012417309353e+17
19527.0	4.552258534506495e+17
19528.0	4.551374437438804e+17
19529.0	4.550556005695488e+17
19530.0	4.54996143444241e+17
19531.0	4.5491827982554445e+17
19532.0	4.5484073196803405e+17
19533.0	4.5476130338461005e+17
19534.0	4.546867961877844e+17
19535.0	4.5460813516199245e+17
19536.0	4.545264696863402e+17
19537.0	4.5445039647621114e+17
19538.0	4.5424902381677235e+17
19539.0	4.54295180943906e+17
19540.0	4.542177262698496e+17
19541.0	4.5411144582212256e+17
19542.0	4.5405105511464954e+17
19543.0	4.538539139487062e+17
19544.0	4.5389661986269856e+17
19545.0	4.538220617050794e+17
19546.0	4.5374723909659296e+17
19547.0	4.536769402546858e+17
19548.0	4.536021419731626e+17
19549.0	4.53517332517137e+17
19550.0	4.5344665646749e+17
19551.0	4.533754910823764e+17
19552.0	4.532958374745428e+17
19553.0	4.5322096600241485e+17
19554.0	4.531413230201514e+17
19555.0	4.530468980523006e+17
19556.0	4.5297748854265165e+17
19557.0	4.5291107551368525e+17
19558.0	4.528361547584853e+17
19559.0	4.527585244129962e+17
19560.0	4.526323631740244e+17
19561.0	4.5260223807487994e+17
19562.0	4.5248266741568845e+17
19563.0	4.5245160880428365e+17
19564.0	4.5236869685138765e+17
19565.0	4.52294503108881e+17
19566.0	4.5221458393169914e+17
19567.0	4.5214241205343565e+17
19568.0	4.520635158669994e+17
19569.0	4.519873231891114e+17
19570.0	4.5191057036192416e+17
19571.0	4.518328189408597e+17
19572.0	4.5175430765172045e+17
19573.0	4.516640051254612e+17
19574.0	4.515898515084628e+17
19575.0	4.5152630570571085e+17
19576.0	4.514412106175828e+17
19577.0	4.513470888979113e+17
19578.0	4.512945554500266e+17
19579.0	4.5121679871617696e+17
19580.0	4.511378907157845e+17
19581.0	4.510600556183551e+17
19582.0	4.5098684851595936e+17
19583.0	4.5091117809882445e+17
19584.0	4.508309542753621e+17
19585.0	4.5074721751258445e+17
19586.0	4.506683891340628e+17
19587.0	4.5060038024232954e+17
19588.0	4.505205471881898e+17
19589.0	4.504443608017578e+17
19590.0	4.503649821305513e+17
19591.0	4.502920255679146e+17
19592.0	4.5021673774120954e+17
19593.0	4.5012684374015994e+17
19594.0	4.500334277820415e+17
19595.0	4.499855171562155e+17
19596.0	4.4990541063345485e+17
19597.0	4.498276088807423e+17
19598.0	4.497348329734143e+17
19599.0	4.496718805248681e+17
19600.0	4.495972767192404e+17
19601.0	4.49520829796625e+17
19602.0	4.494447271564628e+17
19603.0	4.493668700389375e+17
19604.0	4.4929088749568e+17
19605.0	4.4920336432496634e+17
19606.0	4.491391365283839e+17
19607.0	4.4906606476219725e+17
19608.0	4.489835513380863e+17
19609.0	4.489104203623082e+17
19610.0	4.487752380142934e+17
19611.0	4.486655669611179e+17
19612.0	4.4868257164820474e+17
19613.0	4.486009135824895e+17
19614.0	4.485239674677929e+17
19615.0	4.48449810145826e+17
19616.0	4.4831070004183046e+17
19617.0	4.4819714639134726e+17
19618.0	4.481990975815678e+17
19619.0	4.481125630083072e+17
19620.0	4.4802086384872083e+17
19621.0	4.478454566573397e+17
19622.0	4.479104262165845e+17
19623.0	4.4782989823617696e+17
19624.0	4.477405607493632e+17
19625.0	4.4768377952010234e+17
19626.0	4.476030502830079e+17
19627.0	4.4752847723560954e+17
19628.0	4.4744795177178445e+17
19629.0	4.470502955417597e+17
19630.0	4.47289174855953e+17
19631.0	4.4720080317754016e+17
19632.0	4.47139959345425e+17
19633.0	4.47064663200017e+17
19634.0	4.469946889273344e+17
19635.0	4.4690465050241696e+17
19636.0	4.466941732672852e+17
19637.0	4.465998193229821e+17
19638.0	4.466818147505491e+17
19639.0	4.466106253879978e+17
19640.0	4.465157870015828e+17
19641.0	4.4643292034717005e+17
19642.0	4.463727037732181e+17
19643.0	4.4630333697556474e+17
19644.0	4.4623679657956685e+17
19645.0	4.461652597189289e+17
19646.0	4.459306209159847e+17
19647.0	4.46007870628386e+17
19648.0	4.459404233539583e+17
19649.0	4.458634590639445e+17
19650.0	4.4578861974814714e+17
19651.0	4.4571326453295776e+17
19652.0	4.456383551023787e+17
19653.0	4.455609587990527e+17
19654.0	4.4548708508194125e+17
19655.0	4.454087064027134e+17
19656.0	4.4533610677534714e+17
