# Flux units: erg / (cm m2 s)
# Wavelength units: Angstrom
wave	flux
19000.0	8.561794329782953e+17
19001.0	8.560282202101076e+17
19002.0	8.558831005073407e+17
19003.0	8.557344752052905e+17
19004.0	8.555856359937364e+17
19005.0	8.554366531971754e+17
19006.0	8.552873549889535e+17
19007.0	8.551377929590098e+17
19008.0	8.549861629973846e+17
19009.0	8.548354159367507e+17
19010.0	8.546747075439273e+17
19011.0	8.54536393938261e+17
19012.0	8.543833138659327e+17
19013.0	8.542358600329897e+17
19014.0	8.540829238252883e+17
19015.0	8.539334512738303e+17
19016.0	8.537802667633321e+17
19017.0	8.536288811898194e+17
19018.0	8.534782552047612e+17
19019.0	8.533262211918505e+17
19020.0	8.531734660382719e+17
19021.0	8.53021054398191e+17
19022.0	8.528687828478633e+17
19023.0	8.527159006068735e+17
19024.0	8.525625666393428e+17
19025.0	8.524095461261311e+17
19026.0	8.522552446724778e+17
19027.0	8.521012997346642e+17
19028.0	8.519489019357864e+17
19029.0	8.517950087277225e+17
19030.0	8.516409322285737e+17
19031.0	8.514866769122642e+17
19032.0	8.513322556413267e+17
19033.0	8.511748002108755e+17
19034.0	8.510228914678442e+17
19035.0	8.508664362390867e+17
19036.0	8.506260349517821e+17
19037.0	8.505575200172713e+17
19038.0	8.5040241339706e+17
19039.0	8.502469473249961e+17
19040.0	8.500913097058985e+17
19041.0	8.499355030563497e+17
19042.0	8.497769889835689e+17
19043.0	8.496235219167916e+17
19044.0	8.494672467634858e+17
19045.0	8.493109531552425e+17
19046.0	8.491529934296403e+17
19047.0	8.489972935950335e+17
19048.0	8.488351991245481e+17
19049.0	8.486820213249362e+17
19050.0	8.485257888137216e+17
19051.0	8.483549035014825e+17
19052.0	8.482100019025236e+17
19053.0	8.480553366629033e+17
19054.0	8.478978381709311e+17
19055.0	8.477320247508991e+17
19056.0	8.475824614626643e+17
19057.0	8.474245791918761e+17
19058.0	8.472665666180438e+17
19059.0	8.471083710327464e+17
19060.0	8.469494812901375e+17
19061.0	8.46791822016512e+17
19062.0	8.466332026667007e+17
19063.0	8.46474656297779e+17
19064.0	8.463124720691881e+17
19065.0	8.461512275045034e+17
19066.0	8.459961452112553e+17
19067.0	8.458392142086143e+17
19068.0	8.456801079001085e+17
19069.0	8.455208833122303e+17
19070.0	8.453612200001535e+17
19071.0	8.452020587462655e+17
19072.0	8.450424923226111e+17
19073.0	8.448826562052095e+17
19074.0	8.447230440636415e+17
19075.0	8.445631613894655e+17
19076.0	8.444025577144317e+17
19077.0	8.442427182415871e+17
19078.0	8.44082045779968e+17
19079.0	8.439226021096105e+17
19080.0	8.43761981517551e+17
19081.0	8.436003324821501e+17
19082.0	8.434397887856639e+17
19083.0	8.43276734238993e+17
19084.0	8.431112176358739e+17
19085.0	8.42958704214016e+17
19086.0	8.427845690152276e+17
19087.0	8.426343950363305e+17
19088.0	8.42472559354402e+17
19089.0	8.423073743809194e+17
19090.0	8.421525694709757e+17
19091.0	8.419903597969407e+17
19092.0	8.418277456521897e+17
19093.0	8.416680876528979e+17
19094.0	8.415047199315283e+17
19095.0	8.413425639445843e+17
19096.0	8.411821301388628e+17
19097.0	8.410205694634666e+17
19098.0	8.408585469951997e+17
19099.0	8.406963143923028e+17
19100.0	8.405340226497192e+17
19101.0	8.403715469170003e+17
19102.0	8.40206629679923e+17
19103.0	8.400465262455466e+17
19104.0	8.398838339469311e+17
19105.0	8.397210082694486e+17
19106.0	8.395577325431466e+17
19107.0	8.3939466149888e+17
19108.0	8.392319125771604e+17
19109.0	8.390605292612266e+17
19110.0	8.389047948935165e+17
19111.0	8.387423186015572e+17
19112.0	8.385789426313898e+17
19113.0	8.384154281093801e+17
19114.0	8.382517944691368e+17
19115.0	8.380873127406249e+17
19116.0	8.379242190471165e+17
19117.0	8.377595763971411e+17
19118.0	8.375934904871594e+17
19119.0	8.373672293171197e+17
19120.0	8.372671873373523e+17
19121.0	8.371030948402515e+17
19122.0	8.36939320551014e+17
19123.0	8.367747283724969e+17
19124.0	8.366101940753748e+17
19125.0	8.364454500630527e+17
19126.0	8.362803033975464e+17
19127.0	8.360656287126867e+17
19128.0	8.359490835447807e+17
19129.0	8.3578291514682e+17
19130.0	8.356204046013779e+17
19131.0	8.354553539854335e+17
19132.0	8.352897660791466e+17
19133.0	8.351180196762964e+17
19134.0	8.349589522350081e+17
19135.0	8.347933366463144e+17
19136.0	8.346275313352701e+17
19137.0	8.344569565413375e+17
19138.0	8.342951633616892e+17
19139.0	8.341295635715412e+17
19140.0	8.339634337611775e+17
19141.0	8.337971214985897e+17
19142.0	8.336306381083986e+17
19143.0	8.334626323256659e+17
19144.0	8.332971515139414e+17
19145.0	8.331306974838783e+17
19146.0	8.329457395826688e+17
19147.0	8.327941440143357e+17
19148.0	8.326296274731008e+17
19149.0	8.324624035086335e+17
19150.0	8.322948599382015e+17
19151.0	8.32127605355315e+17
19152.0	8.319599229534208e+17
19153.0	8.317922933997565e+17
19154.0	8.316206603829245e+17
19155.0	8.314564366041084e+17
19156.0	8.312882278170621e+17
19157.0	8.311194330857471e+17
19158.0	8.30946780713233e+17
19159.0	8.307824208991572e+17
19160.0	8.30614422945792e+17
19161.0	8.304456860958719e+17
19162.0	8.302639007662079e+17
19163.0	8.301068471500799e+17
19164.0	8.299389272107689e+17
19165.0	8.297694989997395e+17
19166.0	8.295972285885097e+17
19167.0	8.294294846701565e+17
19168.0	8.292595072849234e+17
19169.0	8.290901099719337e+17
19170.0	8.288163210461183e+17
19171.0	8.285854234924372e+17
19172.0	8.284154679175849e+17
19173.0	8.283420903866364e+17
19174.0	8.281142563525974e+17
19175.0	8.279448300989098e+17
19176.0	8.277736118987434e+17
19177.0	8.27597466649668e+17
19178.0	8.274302138843135e+17
19179.0	8.272581569631574e+17
19180.0	8.270866457209514e+17
19181.0	8.269121602977791e+17
19182.0	8.2674175719069e+17
19183.0	8.265701482212009e+17
19184.0	8.263963217231872e+17
19185.0	8.262244938110291e+17
19186.0	8.260517066615464e+17
19187.0	8.25876217401617e+17
19188.0	8.257050833671508e+17
19189.0	8.255316500152319e+17
19190.0	8.253577954153811e+17
19191.0	8.251837176785578e+17
19192.0	8.250096038707199e+17
19193.0	8.248350635021651e+17
19194.0	8.246606057613992e+17
19195.0	8.244857998934015e+17
19196.0	8.243102594629628e+17
19197.0	8.24134559928593e+17
19198.0	8.239565027759446e+17
19199.0	8.237047396783443e+17
19200.0	8.235478064387412e+17
19201.0	8.234295161607506e+17
19202.0	8.232557243356502e+17
19203.0	8.230798598253224e+17
19204.0	8.229026053226496e+17
19205.0	8.227263963201533e+17
19206.0	8.22548829901073e+17
19207.0	8.223696809710931e+17
19208.0	8.221885129031679e+17
19209.0	8.220159507081898e+17
19210.0	8.218376234423634e+17
19211.0	8.216589550398121e+17
19212.0	8.214800488202239e+17
19213.0	8.212982309147986e+17
19214.0	8.210545530372093e+17
19215.0	8.207265212749139e+17
19216.0	8.205462502288041e+17
19217.0	8.203655492665343e+17
19218.0	8.201607085468328e+17
19219.0	8.199976850380115e+17
19220.0	8.198217788642643e+17
19221.0	8.196305606847145e+17
19222.0	8.194570999300096e+17
19223.0	8.192748572813994e+17
19224.0	8.190907308310528e+17
19225.0	8.189044048876883e+17
19226.0	8.187250128278868e+17
19227.0	8.185410742823594e+17
19228.0	8.183567133704192e+17
19229.0	8.181719713360553e+17
19230.0	8.179867849850879e+17
19231.0	8.178014526723411e+17
19232.0	8.17615029281314e+17
19233.0	8.17426934599953e+17
19234.0	8.172419432841215e+17
19235.0	8.170555830872745e+17
19236.0	8.168680479260671e+17
19237.0	8.166796621600084e+17
19238.0	8.163923155659434e+17
19239.0	8.160303353866921e+17
19240.0	8.158378763922089e+17
19241.0	8.156491127193597e+17
19242.0	8.154592624421544e+17
19243.0	8.152624391345492e+17
19244.0	8.150762862761298e+17
19245.0	8.148840123902633e+17
19246.0	8.146910254727167e+17
19247.0	8.144984346372778e+17
19248.0	8.143050108130643e+17
19249.0	8.141109372911615e+17
19250.0	8.139162107161257e+17
19251.0	8.137172915148115e+17
19252.0	8.135160742543356e+17
19253.0	8.133290375162537e+17
19254.0	8.131320781733885e+17
19255.0	8.127113392903506e+17
19256.0	8.12397642121216e+17
19257.0	8.12199164719923e+17
19258.0	8.119988439220221e+17
19259.0	8.117954780594173e+17
19260.0	8.115946333929472e+17
19261.0	8.113937484611583e+17
19262.0	8.111900650897407e+17
19263.0	8.109854115758079e+17
19264.0	8.107681726332925e+17
19265.0	8.10571663758677e+17
19266.0	8.103672764432381e+17
19267.0	8.101457033865898e+17
19268.0	8.095468416401407e+17
19269.0	8.093369788006399e+17
19270.0	8.091261156196351e+17
19271.0	8.08905608335633e+17
19272.0	8.087009141369514e+17
19273.0	8.084156104485545e+17
19274.0	8.082295418956458e+17
19275.0	8.080598750287187e+17
19276.0	8.078443191205885e+17
19277.0	8.075776402391039e+17
19278.0	8.071654780086952e+17
19279.0	8.069455642187092e+17
19280.0	8.067228120033961e+17
19281.0	8.065030146752511e+17
19282.0	8.062801747989842e+17
19283.0	8.060554094575615e+17
19284.0	8.058291547187884e+17
19285.0	8.05600539845154e+17
19286.0	8.053766620184573e+17
19287.0	8.051494218978644e+17
19288.0	8.048960365832873e+17
19289.0	8.046339406779732e+17
19290.0	8.044534506891945e+17
19291.0	8.042107927265279e+17
19292.0	8.039833809190912e+17
19293.0	8.037463719848617e+17
19294.0	8.035085833295187e+17
19295.0	8.032694056605011e+17
19296.0	8.030290022760448e+17
19297.0	8.02787314176273e+17
19298.0	8.025289937037994e+17
19299.0	8.022776954748927e+17
19300.0	8.020321463784786e+17
19301.0	8.01785201697314e+17
19302.0	8.015367884505085e+17
19303.0	8.012854924585642e+17
19304.0	8.010357770201769e+17
19305.0	8.007847979778047e+17
19306.0	8.005313363268948e+17
19307.0	8.002746338770944e+17
19308.0	8.000195744759807e+17
19309.0	7.997596077391872e+17
19310.0	7.994986995209555e+17
19311.0	7.992411868714323e+17
19312.0	7.989808489387347e+17
19313.0	7.987169408144723e+17
19314.0	7.98419437433651e+17
19315.0	7.981548056521388e+17
19316.0	7.979180926959616e+17
19317.0	7.976489319049896e+17
19318.0	7.973777859499346e+17
19319.0	7.971050169390419e+17
19320.0	7.968300975084884e+17
19321.0	7.965512039748947e+17
19322.0	7.962657273413632e+17
19323.0	7.959822799121066e+17
19324.0	7.956957840627028e+17
19325.0	7.954048209999187e+17
19326.0	7.951143760734889e+17
19327.0	7.948199578828799e+17
19328.0	7.945237937433258e+17
19329.0	7.942248206783828e+17
19330.0	7.939222598057981e+17
19331.0	7.935978836590591e+17
19332.0	7.932640355155965e+17
19333.0	7.929545755721727e+17
19334.0	7.926421369738582e+17
19335.0	7.923272543546029e+17
19336.0	7.920092717252607e+17
19337.0	7.916883061069139e+17
19338.0	7.913586763147944e+17
19339.0	7.910381620035583e+17
19340.0	7.907082464395265e+17
19341.0	7.903766511965522e+17
19342.0	7.900322952030888e+17
19343.0	7.897031638340947e+17
19344.0	7.893614326360745e+17
19345.0	7.889681609916415e+17
19346.0	7.886457653952511e+17
19347.0	7.882704408980136e+17
19348.0	7.878748960806228e+17
19349.0	7.875129126857385e+17
19350.0	7.871483675497812e+17
19351.0	7.867781659754492e+17
19352.0	7.864030503545513e+17
19353.0	7.860270901406377e+17
19354.0	7.856444576279208e+17
19355.0	7.852548358668285e+17
19356.0	7.848648992533161e+17
19357.0	7.843842654295378e+17
19358.0	7.839344668704769e+17
19359.0	7.835234415760726e+17
19360.0	7.831116898282152e+17
19361.0	7.826917608652799e+17
19362.0	7.822664199918931e+17
19363.0	7.818323147008681e+17
19364.0	7.812278349638314e+17
19365.0	7.807607898461523e+17
19366.0	7.803078535282688e+17
19367.0	7.798451918777002e+17
19368.0	7.793785056526335e+17
19369.0	7.787078692984147e+17
19370.0	7.781699129005395e+17
19371.0	7.776852194099199e+17
19372.0	7.771886942071464e+17
19373.0	7.765235063936337e+17
19374.0	7.758508404157098e+17
19375.0	7.75324604720742e+17
19376.0	7.747893918171137e+17
19377.0	7.739629451782824e+17
19378.0	7.73298969518626e+17
19379.0	7.727311881240575e+17
19380.0	7.720084218839037e+17
19381.0	7.710844913713148e+17
19382.0	7.704670020217513e+17
19383.0	7.694917677613053e+17
19384.0	7.686536306185556e+17
19385.0	7.678119308339881e+17
19386.0	7.666924271960063e+17
19387.0	7.658832118764877e+17
19388.0	7.645714775539711e+17
19389.0	7.637452567085059e+17
19390.0	7.626903036887036e+17
19391.0	7.618557068181501e+17
19392.0	7.611331442813608e+17
19393.0	7.603420015187283e+17
19394.0	7.595326259767978e+17
19395.0	7.587047662769494e+17
19396.0	7.578579160268799e+17
19397.0	7.569926420168701e+17
19398.0	7.561019080223402e+17
19399.0	7.551477112722774e+17
19400.0	7.542087977271296e+17
19401.0	7.532621238807209e+17
19402.0	7.522935863858515e+17
19403.0	7.513036173956436e+17
19404.0	7.502504577204224e+17
19405.0	7.491641798208169e+17
19406.0	7.48100938297071e+17
19407.0	7.470084436000765e+17
19408.0	7.458196959177386e+17
19409.0	7.445848149458943e+17
19410.0	7.433769669623807e+17
19411.0	7.420272894279676e+17
19412.0	7.406510098000556e+17
19413.0	7.392571549199017e+17
19414.0	7.376812445969064e+17
19415.0	7.361701895383722e+17
19416.0	7.34422178393839e+17
19417.0	7.326666850304e+17
19418.0	7.308120998368596e+17
19419.0	7.287540805533693e+17
19420.0	7.267202594679464e+17
19421.0	7.245683186728963e+17
19422.0	7.222811328249852e+17
19423.0	7.19791174608486e+17
19424.0	7.17205541241924e+17
19425.0	7.147274221475154e+17
19426.0	7.124116133904381e+17
19427.0	7.099692244533247e+17
19428.0	7.074366344921087e+17
19429.0	7.047563186274301e+17
19430.0	7.019650580392618e+17
19431.0	6.990230582198271e+17
19432.0	6.959349462553939e+17
19433.0	6.924974793162752e+17
19434.0	6.88843747701555e+17
19435.0	6.849667706912765e+17
19436.0	6.8087619504483e+17
19437.0	6.76505318466082e+17
19438.0	6.717090610282492e+17
19439.0	6.666939988443136e+17
19440.0	6.613687734719827e+17
19441.0	6.55577598673988e+17
19442.0	6.494410701974188e+17
19443.0	6.428106392862719e+17
19444.0	6.356795884131665e+17
19445.0	6.279798406687406e+17
19446.0	6.196661120401408e+17
19447.0	6.107055990854991e+17
19448.0	6.010713702487384e+17
19449.0	5.907051853818538e+17
19450.0	5.792214577840115e+17
19451.0	5.736882248526511e+17
19452.0	5.850470504813908e+17
19453.0	5.957188650532867e+17
19454.0	6.054722773450747e+17
19455.0	6.145346757459967e+17
19456.0	6.229292115558403e+17
19457.0	6.306870162270886e+17
19458.0	6.37842379313425e+17
19459.0	6.444630495898286e+17
19460.0	6.506055656450728e+17
19461.0	6.563055176166058e+17
19462.0	6.61604995554782e+17
19463.0	6.66518965994564e+17
19464.0	6.711592260818259e+17
19465.0	6.754608374349823e+17
19466.0	6.793999169880061e+17
19467.0	6.831154728534015e+17
19468.0	6.866440617459712e+17
19469.0	6.898894120856233e+17
19470.0	6.928718511472639e+17
19471.0	6.95628336341538e+17
19472.0	6.981825570275324e+17
19473.0	7.00674692297523e+17
19474.0	7.029879117709311e+17
19475.0	7.051933704170152e+17
19476.0	7.072735533815126e+17
19477.0	7.094085886148605e+17
19478.0	7.116899575223635e+17
19479.0	7.139201176130897e+17
19480.0	7.159706398578011e+17
19481.0	7.17894664690073e+17
19482.0	7.198085004394496e+17
19483.0	7.215322599784444e+17
19484.0	7.231032273141756e+17
19485.0	7.24742356144401e+17
19486.0	7.26120730966972e+17
19487.0	7.27497615413521e+17
19488.0	7.28708952778342e+17
19489.0	7.299363622966612e+17
19490.0	7.30947218920789e+17
19491.0	7.321261926165161e+17
19492.0	7.330673761189888e+17
19493.0	7.33984847962658e+17
19494.0	7.349500686019242e+17
19495.0	7.357647502180352e+17
19496.0	7.365455050877612e+17
19497.0	7.373180620505088e+17
19498.0	7.381241398908246e+17
19499.0	7.38756236882739e+17
19500.0	7.39525768913442e+17
19501.0	7.401912234846889e+17
19502.0	7.408360827650045e+17
19503.0	7.415091588060499e+17
19504.0	7.421186554899113e+17
19505.0	7.427024677939884e+17
19506.0	7.432624944797011e+17
19507.0	7.438050468560896e+17
19508.0	7.443278504919037e+17
19509.0	7.448327113146368e+17
19510.0	7.453169160290303e+17
19511.0	7.457294677704701e+17
19512.0	7.463994591805439e+17
19513.0	7.470680564039679e+17
19514.0	7.477894480308913e+17
19515.0	7.486059228517718e+17
19516.0	7.491732656619517e+17
19517.0	7.499717125253802e+17
19518.0	7.503228658079058e+17
19519.0	7.511528425127935e+17
19520.0	7.515036567557459e+17
19521.0	7.519362316850515e+17
19522.0	7.525494250886484e+17
19523.0	7.528241540978003e+17
19524.0	7.530878631324328e+17
19525.0	7.536550220922876e+17
19526.0	7.539496209175892e+17
19527.0	7.5418105296541e+17
19528.0	7.544079258047827e+17
19529.0	7.549134361853951e+17
19530.0	7.551158138699775e+17
19531.0	7.553101724647421e+17
19532.0	7.554968623338835e+17
19533.0	7.558361528664063e+17
19534.0	7.560756885891753e+17
19535.0	7.562378435974484e+17
19536.0	7.563968762260138e+17
19537.0	7.565482047569917e+17
19538.0	7.567865123875498e+17
19539.0	7.569876050771965e+17
19540.0	7.5712952284829e+17
19541.0	7.572526916610728e+17
19542.0	7.573690424928938e+17
19543.0	7.574797251422888e+17
19544.0	7.575848918624936e+17
19545.0	7.577561244631037e+17
19546.0	7.578766630278483e+17
19547.0	7.579871907676157e+17
19548.0	7.580712299397119e+17
19549.0	7.581478263193599e+17
19550.0	7.582256752579923e+17
19551.0	7.58296249176337e+17
19552.0	7.583624647933951e+17
19553.0	7.584239781762387e+17
19554.0	7.58481607913199e+17
19555.0	7.585810049488211e+17
19556.0	7.586621953496403e+17
19557.0	7.587075619203753e+17
19558.0	7.587494962921471e+17
19559.0	7.587882499833856e+17
19560.0	7.588230627065855e+17
19561.0	7.588561188552703e+17
19562.0	7.588850180292608e+17
19563.0	7.589109862236157e+17
19564.0	7.58934644195328e+17
19565.0	7.589552492729684e+17
19566.0	7.589723582584147e+17
19567.0	7.589875215062355e+17
19568.0	7.58998497440563e+17
19569.0	7.590083358796457e+17
19570.0	7.590149044393302e+17
19571.0	7.590195645906944e+17
19572.0	7.590618907104595e+17
19573.0	7.59060588938308e+17
19574.0	7.590542170914816e+17
19575.0	7.590505038741501e+17
19576.0	7.59041586364416e+17
19577.0	7.590300360900605e+17
19578.0	7.590156978618368e+17
19579.0	7.59000204522291e+17
19580.0	7.589823008560466e+17
19581.0	7.589617124158121e+17
19582.0	7.589370248822783e+17
19583.0	7.58909105218082e+17
19584.0	7.588793252402515e+17
19585.0	7.588449432720726e+17
19586.0	7.588109770992297e+17
19587.0	7.587800249532415e+17
19588.0	7.587321173333332e+17
19589.0	7.587061824137898e+17
19590.0	7.586656683731626e+17
19591.0	7.586268584782506e+17
19592.0	7.585846902041258e+17
19593.0	7.585414252593151e+17
19594.0	7.584897939363155e+17
19595.0	7.584498335438164e+17
19596.0	7.583928816063828e+17
19597.0	7.58353384265045e+17
19598.0	7.582965752135679e+17
19599.0	7.582513315359402e+17
19600.0	7.581981459436886e+17
19601.0	7.581416408394409e+17
19602.0	7.580862217803091e+17
19603.0	7.580192084066303e+17
19604.0	7.579704367600978e+17
19605.0	7.579038544210602e+17
19606.0	7.578517013266432e+17
19607.0	7.57789756629538e+17
19608.0	7.577339646967807e+17
19609.0	7.57680579875089e+17
19610.0	7.576155959853055e+17
19611.0	7.575486557323263e+17
19612.0	7.574808673910781e+17
19613.0	7.574118120904018e+17
19614.0	7.573401736577021e+17
19615.0	7.572690775485098e+17
19616.0	7.571947312731475e+17
19617.0	7.571204024740522e+17
19618.0	7.570294382264319e+17
19619.0	7.56948802871842e+17
19620.0	7.568715882517844e+17
19621.0	7.56810244039202e+17
19622.0	7.567302225909075e+17
19623.0	7.566491415216127e+17
19624.0	7.565670840183466e+17
19625.0	7.566675205423103e+17
19626.0	7.566112244542121e+17
19627.0	7.565252469544275e+17
19628.0	7.564366365502122e+17
19629.0	7.563479568001705e+17
19630.0	7.562536705239722e+17
19631.0	7.560899246161919e+17
19632.0	7.560827045412863e+17
19633.0	7.559926675144701e+17
19634.0	7.559013348671487e+17
19635.0	7.560522986334889e+17
19636.0	7.560667520652628e+17
19637.0	7.559582314397696e+17
19638.0	7.558752948103849e+17
19639.0	7.557783513027926e+17
19640.0	7.556792468897791e+17
19641.0	7.555686998562132e+17
19642.0	7.55484740096273e+17
19643.0	7.553852133168468e+17
19644.0	7.552833543645866e+17
19645.0	7.551771736014845e+17
19646.0	7.550833986109439e+17
19647.0	7.549815800638121e+17
19648.0	7.550464704206161e+17
19649.0	7.550612915530409e+17
19650.0	7.54956813677363e+17
19651.0	7.548517280470356e+17
19652.0	7.547461179888982e+17
19653.0	7.546399355480745e+17
19654.0	7.545333609398271e+17
19655.0	7.544260966481919e+17
19656.0	7.543184401891325e+17
19657.0	7.542107359150079e+17
19658.0	7.541024641515519e+17
19659.0	7.539936873938944e+17
19660.0	7.538845419569151e+17
19661.0	7.537749045280768e+17
19662.0	7.536648278157993e+17
19663.0	7.535530704459091e+17
19664.0	7.5344311774522e+17
19665.0	7.533336060056918e+17
19666.0	7.534458261471232e+17
