# Flux units: erg / (cm m2 s)
# Wavelength units: Angstrom
wave	flux
19000.0	7.5413511485085e+17
19001.0	7.539611542749183e+17
19002.0	7.538521266978815e+17
19003.0	7.537081513410557e+17
19004.0	7.535654237896705e+17
19005.0	7.534229379700051e+17
19006.0	7.532810292865705e+17
19007.0	7.530810185875456e+17
19008.0	7.529730847451817e+17
19009.0	7.528392569476438e+17
19010.0	7.525584810104146e+17
19011.0	7.525604087125332e+17
19012.0	7.523474198582611e+17
19013.0	7.522833753527635e+17
19014.0	7.521201021430441e+17
19015.0	7.519873731133439e+17
19016.0	7.518426496324948e+17
19017.0	7.516416345374719e+17
19018.0	7.515645649005225e+17
19019.0	7.514266950522196e+17
19020.0	7.51264388489762e+17
19021.0	7.511326642754902e+17
19022.0	7.510031350803114e+17
19023.0	7.50846951362833e+17
19024.0	7.507126145165993e+17
19025.0	7.505694640395604e+17
19026.0	7.504214060870314e+17
19027.0	7.502493026091005e+17
19028.0	7.501502201462783e+17
19029.0	7.50001940734498e+17
19030.0	7.49869701599505e+17
19031.0	7.497296790945791e+17
19032.0	7.4958671722141e+17
19033.0	7.494132916988585e+17
19034.0	7.492960318215508e+17
19035.0	7.491475031283028e+17
19036.0	7.453676576003396e+17
19037.0	7.488715425316863e+17
19038.0	7.487262100378963e+17
19039.0	7.485907748432553e+17
19040.0	7.484504169338195e+17
19041.0	7.483062886247084e+17
19042.0	7.481360474177535e+17
19043.0	7.480237596082175e+17
19044.0	7.478785391023444e+17
19045.0	7.477391553899177e+17
19046.0	7.475771961158314e+17
19047.0	7.474553644471638e+17
19048.0	7.472450115731453e+17
19049.0	7.47148492948548e+17
19050.0	7.470144079003645e+17
19051.0	7.46352304857633e+17
19052.0	7.466920636142935e+17
19053.0	7.465902920433661e+17
19054.0	7.46461024293137e+17
19055.0	7.46235797158844e+17
19056.0	7.461711915952812e+17
19057.0	7.460344838488064e+17
19058.0	7.458759106363391e+17
19059.0	7.457530129154047e+17
19060.0	7.45604771951411e+17
19061.0	7.454718880120832e+17
19062.0	7.453281700457132e+17
19063.0	7.45187917832738e+17
19064.0	7.450018942986921e+17
19065.0	7.448418541983062e+17
19066.0	7.447412226392061e+17
19067.0	7.446170499896659e+17
19068.0	7.444794677308072e+17
19069.0	7.443388030779391e+17
19070.0	7.441869207590228e+17
19071.0	7.44051791189333e+17
19072.0	7.439138577274195e+17
19073.0	7.437699656974335e+17
19074.0	7.436321207353344e+17
19075.0	7.43490700967936e+17
19076.0	7.433417243230207e+17
19077.0	7.432044372033533e+17
19078.0	7.430414582939645e+17
19079.0	7.4292358311226e+17
19080.0	7.427779090623145e+17
19081.0	7.426253349628585e+17
19082.0	7.424789850707284e+17
19083.0	7.42317619150848e+17
19084.0	7.421321607293612e+17
19085.0	7.420717668062548e+17
19086.0	7.417961189649064e+17
19087.0	7.416839424442369e+17
19088.0	7.41623955927859e+17
19089.0	7.413891680174081e+17
19090.0	7.41358117584896e+17
19091.0	7.412180563525632e+17
19092.0	7.410410771360425e+17
19093.0	7.409452090479956e+17
19094.0	7.408032736608255e+17
19095.0	7.406628238961321e+17
19096.0	7.405115494716755e+17
19097.0	7.403809223475199e+17
19098.0	7.402398639893161e+17
19099.0	7.400970419262804e+17
19100.0	7.399525983453181e+17
19101.0	7.398167639927466e+17
19102.0	7.396489656882514e+17
19103.0	7.395346423829846e+17
19104.0	7.393963656871935e+17
19105.0	7.392535654345386e+17
19106.0	7.390925526750547e+17
19107.0	7.389668064624637e+17
19108.0	7.388322710858412e+17
19109.0	7.382797317920078e+17
19110.0	7.385463002234879e+17
19111.0	7.38408891748625e+17
19112.0	7.382695996118356e+17
19113.0	7.381280232570879e+17
19114.0	7.379864431274666e+17
19115.0	7.378253933182975e+17
19116.0	7.376987182071807e+17
19117.0	7.375581679190015e+17
19118.0	7.373788334609748e+17
19119.0	7.365419698487284e+17
19120.0	7.37110063858756e+17
19121.0	7.369843390371155e+17
19122.0	7.368627909033981e+17
19123.0	7.367155031648938e+17
19124.0	7.36560474838357e+17
19125.0	7.364340512456701e+17
19126.0	7.362874333375145e+17
19127.0	7.356158016749563e+17
19128.0	7.35658971269256e+17
19129.0	7.358477222193833e+17
19130.0	7.35733207933474e+17
19131.0	7.355851547344893e+17
19132.0	7.354560061024936e+17
19133.0	7.350732701302788e+17
19134.0	7.350053182111745e+17
19135.0	7.350341351768063e+17
19136.0	7.348969629810684e+17
19137.0	7.347030468853757e+17
19138.0	7.345650492506111e+17
19139.0	7.344745002390868e+17
19140.0	7.343354748600319e+17
19141.0	7.341959021243049e+17
19142.0	7.340453264708947e+17
19143.0	7.3389517584029e+17
19144.0	7.337590597702995e+17
19145.0	7.33631514480913e+17
19146.0	7.332891247771652e+17
19147.0	7.333255172150611e+17
19148.0	7.332111226066259e+17
19149.0	7.330706044747775e+17
19150.0	7.329284820216489e+17
19151.0	7.327923680488106e+17
19152.0	7.326422807521961e+17
19153.0	7.325068731001513e+17
19154.0	7.323320224929108e+17
19155.0	7.322331697381375e+17
19156.0	7.320926776109738e+17
19157.0	7.319462606099795e+17
19158.0	7.315252630781948e+17
19159.0	7.316663052184233e+17
19160.0	7.315162513364308e+17
19161.0	7.313559820872362e+17
19162.0	7.30618455811687e+17
19163.0	7.31106660913425e+17
19164.0	7.309747992657919e+17
19165.0	7.308228590654803e+17
19166.0	7.306504972184233e+17
19167.0	7.304948061918547e+17
19168.0	7.303606302670847e+17
19169.0	7.302384532673875e+17
19170.0	7.301354413009577e+17
19171.0	7.29963441422336e+17
19172.0	7.298519503907498e+17
19173.0	7.297156061506217e+17
19174.0	7.29558101646814e+17
19175.0	7.294365967144275e+17
19176.0	7.292958369906688e+17
19177.0	7.291080624745129e+17
19178.0	7.290084169962836e+17
19179.0	7.288322572069548e+17
19180.0	7.28651190501376e+17
19181.0	7.285644411098451e+17
19182.0	7.284209314605738e+17
19183.0	7.283097137577983e+17
19184.0	7.281263083083091e+17
19185.0	7.280335410692096e+17
19186.0	7.279005550684841e+17
19187.0	7.27730780967185e+17
19188.0	7.276161514777257e+17
19189.0	7.274657076652713e+17
19190.0	7.273237178919594e+17
19191.0	7.271843990514345e+17
19192.0	7.270554011347625e+17
19193.0	7.268499272149674e+17
19194.0	7.267451251195904e+17
19195.0	7.266356937708883e+17
19196.0	7.264973256392701e+17
19197.0	7.263589302446761e+17
19198.0	7.262134510900563e+17
19199.0	7.224466105608864e+17
19200.0	7.235270492902755e+17
19201.0	7.257967703359487e+17
19202.0	7.256653303556777e+17
19203.0	7.255198841962493e+17
19204.0	7.253783173485908e+17
19205.0	7.25244715344418e+17
19206.0	7.251035093467135e+17
19207.0	7.249392275466921e+17
19208.0	7.247631604514815e+17
19209.0	7.246828795155795e+17
19210.0	7.245466847324841e+17
19211.0	7.244098970146132e+17
19212.0	7.242724822482943e+17
19213.0	7.240735974402729e+17
19214.0	7.23911895416832e+17
19215.0	7.238405226233855e+17
19216.0	7.237004282560511e+17
19217.0	7.235721909065044e+17
19218.0	7.231685979187877e+17
19219.0	7.232402367709183e+17
19220.0	7.231457659453437e+17
19221.0	7.229042010182998e+17
19222.0	7.228769063053994e+17
19223.0	7.227293587996671e+17
19224.0	7.225597960912893e+17
19225.0	7.22403075502899e+17
19226.0	7.223092072589993e+17
19227.0	7.221689830080511e+17
19228.0	7.220390880695636e+17
19229.0	7.21899396215603e+17
19230.0	7.21740637614899e+17
19231.0	7.216031806259199e+17
19232.0	7.214584831497555e+17
19233.0	7.213153568598698e+17
19234.0	7.211918968225791e+17
19235.0	7.210463093151059e+17
19236.0	7.209185845095081e+17
19237.0	7.207723921833983e+17
19238.0	7.206039543873535e+17
19239.0	7.204987244729684e+17
19240.0	7.202541094480552e+17
19241.0	7.2018119636637e+17
19242.0	7.200684236952916e+17
19243.0	7.19874839369045e+17
19244.0	7.197979962245117e+17
19245.0	7.196569264018772e+17
19246.0	7.1951282367802e+17
19247.0	7.193725724437162e+17
19248.0	7.192381939340627e+17
19249.0	7.190972064595965e+17
19250.0	7.189516347506687e+17
19251.0	7.187803381170173e+17
19252.0	7.185645558562815e+17
19253.0	7.185297670406144e+17
19254.0	7.183804056382121e+17
19255.0	7.181872309556563e+17
19256.0	7.18096813785088e+17
19257.0	7.17973501387298e+17
19258.0	7.178332431624874e+17
19259.0	7.176659811696637e+17
19260.0	7.174996711440381e+17
19261.0	7.174073662570493e+17
19262.0	7.17249660007219e+17
19263.0	7.171133024851284e+17
19264.0	7.168190138985126e+17
19265.0	7.167876936324436e+17
19266.0	7.166639416715945e+17
19267.0	7.165660605972477e+17
19268.0	7.164214608483667e+17
19269.0	7.1628064058682e+17
19270.0	7.161388493438975e+17
19271.0	7.15890305514428e+17
19272.0	7.158430482912595e+17
19273.0	7.131135214966068e+17
19274.0	7.142585794909508e+17
19275.0	7.15430206443793e+17
19276.0	7.152818007834623e+17
19277.0	7.151393206960125e+17
19278.0	7.149986377280169e+17
19279.0	7.148313083467092e+17
19280.0	7.146846475168425e+17
19281.0	7.145698987693398e+17
19282.0	7.144318422745088e+17
19283.0	7.142286910204585e+17
19284.0	7.140093047341053e+17
19285.0	7.139256238953811e+17
19286.0	7.138484456259583e+17
19287.0	7.137080284370259e+17
19288.0	7.12656047431133e+17
19289.0	7.109752542024998e+17
19290.0	7.132767636684799e+17
19291.0	7.130421626841772e+17
19292.0	7.129879403997866e+17
19293.0	7.128413974298623e+17
19294.0	7.126955452618067e+17
19295.0	7.125549598812841e+17
19296.0	7.124075056289108e+17
19297.0	7.122530385002496e+17
19298.0	7.121086116965033e+17
19299.0	7.119729105829887e+17
19300.0	7.11827608707618e+17
19301.0	7.116782436701523e+17
19302.0	7.115295869108223e+17
19303.0	7.113544292805288e+17
19304.0	7.112185638901076e+17
19305.0	7.110877940198057e+17
19306.0	7.109405849944063e+17
19307.0	7.107760088940543e+17
19308.0	7.106371493298175e+17
19309.0	7.103798782722045e+17
19310.0	7.101703603443027e+17
19311.0	7.101829817040893e+17
19312.0	7.100393396546217e+17
19313.0	7.098513024352256e+17
19314.0	7.084485948473335e+17
19315.0	7.083672559681558e+17
19316.0	7.094410563026943e+17
19317.0	7.092943194161152e+17
19318.0	7.091416282955773e+17
19319.0	7.089956317036543e+17
19320.0	7.088326862088874e+17
19321.0	7.086913183110483e+17
19322.0	7.084853933637632e+17
19323.0	7.083206334130858e+17
19324.0	7.082275096581459e+17
19325.0	7.079818358510932e+17
19326.0	7.079199335164585e+17
19327.0	7.07760732975923e+17
19328.0	7.076117141083475e+17
19329.0	7.07449179934993e+17
19330.0	7.072716838404093e+17
19331.0	7.071156490207232e+17
19332.0	7.069696907367764e+17
19333.0	7.06805062766865e+17
19334.0	7.066372594292054e+17
19335.0	7.064910631884116e+17
19336.0	7.063282684089684e+17
19337.0	7.061653375942655e+17
19338.0	7.059363593540947e+17
19339.0	7.05840075051281e+17
19340.0	7.05660456219443e+17
19341.0	7.055089940299775e+17
19342.0	7.052066463678461e+17
19343.0	7.051771514628778e+17
19344.0	7.050043616570025e+17
19345.0	7.042095517444763e+17
19346.0	7.04459137019631e+17
19347.0	7.044748170756093e+17
19348.0	7.043194620127913e+17
19349.0	7.041216187902633e+17
19350.0	7.03948905320721e+17
19351.0	7.037695981955753e+17
19352.0	7.035801214211411e+17
19353.0	7.034274489652563e+17
19354.0	7.032452811150676e+17
19355.0	7.030307751810388e+17
19356.0	7.028788302271828e+17
19357.0	7.026909474280787e+17
19358.0	7.024788354629631e+17
19359.0	7.021734061757782e+17
19360.0	7.020899654609578e+17
19361.0	7.018930602945193e+17
19362.0	7.017155049903444e+17
19363.0	7.015028492337151e+17
19364.0	7.013013261385727e+17
19365.0	7.010982521296212e+17
19366.0	7.008954526378665e+17
19367.0	7.006842392324778e+17
19368.0	7.004515117039615e+17
19369.0	7.001778475586899e+17
19370.0	6.996995124931241e+17
19371.0	6.997855568920575e+17
19372.0	6.995814418568532e+17
19373.0	6.993370432580265e+17
19374.0	6.990904088854527e+17
19375.0	6.988579195934036e+17
19376.0	6.986204224421887e+17
19377.0	6.983776210343252e+17
19378.0	6.981050587327145e+17
19379.0	6.978189045093716e+17
19380.0	6.975658271965183e+17
19381.0	6.973029220002474e+17
19382.0	6.969886808298836e+17
19383.0	6.967091113842003e+17
19384.0	6.964692959712595e+17
19385.0	6.961850379927551e+17
19386.0	6.958959944531965e+17
19387.0	6.955871573639167e+17
19388.0	6.95259830034978e+17
19389.0	6.949481392111615e+17
19390.0	6.946250054871721e+17
19391.0	6.911951034646478e+17
19392.0	6.93942073181252e+17
19393.0	6.935816139265363e+17
19394.0	6.932055545173331e+17
19395.0	6.928320460838227e+17
19396.0	6.924480575526228e+17
19397.0	6.920317795915091e+17
19398.0	6.915820578581161e+17
19399.0	6.90957338437222e+17
19400.0	6.906961036924244e+17
19401.0	6.902077385779881e+17
19402.0	6.897434896629759e+17
19403.0	6.891872407868758e+17
19404.0	6.886671364653055e+17
19405.0	6.880699775363753e+17
19406.0	6.874898023929172e+17
19407.0	6.868198179733504e+17
19408.0	6.859590860450478e+17
19409.0	6.853978716722516e+17
19410.0	6.846268684894207e+17
19411.0	6.838784786868906e+17
19412.0	6.831521575643817e+17
19413.0	6.824193061202602e+17
19414.0	6.816092721425066e+17
19415.0	6.80799527431919e+17
19416.0	6.798943456679252e+17
19417.0	6.789801427948884e+17
19418.0	6.780667037745151e+17
19419.0	6.770576067308201e+17
19420.0	6.759591280203091e+17
19421.0	6.748254235874643e+17
19422.0	6.735784134574079e+17
19423.0	6.722410819267241e+17
19424.0	6.708112093697366e+17
19425.0	6.692546878461268e+17
19426.0	6.675197024621905e+17
19427.0	6.655707626252968e+17
19428.0	6.634990455838035e+17
19429.0	6.612711735558143e+17
19430.0	6.592169945071616e+17
19431.0	6.566536537964553e+17
19432.0	6.54968181961523e+17
19433.0	6.525370733253972e+17
19434.0	6.499011734623572e+17
19435.0	6.469823482910035e+17
19436.0	6.435926448275452e+17
19437.0	6.401761560494081e+17
19438.0	6.332232731983875e+17
19439.0	6.313375359303685e+17
19440.0	6.270274191578452e+17
19441.0	6.222849166191272e+17
19442.0	6.16951671807454e+17
19443.0	6.108432116132524e+17
19444.0	6.037289537546918e+17
19445.0	5.962784795787267e+17
19446.0	5.879300534304767e+17
19447.0	5.78162741005516e+17
19448.0	5.670784602559834e+17
19449.0	5.5259855857909754e+17
19450.0	5.2219048966662394e+17
19451.0	5.0990384491615584e+17
19452.0	5.3974083941608154e+17
19453.0	5.6045859221012544e+17
19454.0	5.724219357440678e+17
19455.0	5.825101501737642e+17
19456.0	5.913577836423853e+17
19457.0	5.988705110065147e+17
19458.0	6.048708039453375e+17
19459.0	6.123691382756699e+17
19460.0	6.178020340181672e+17
19461.0	6.225923663025492e+17
19462.0	6.268442048987136e+17
19463.0	6.31025625534737e+17
19464.0	6.352846153493162e+17
19465.0	6.389158283750057e+17
19466.0	6.419668606648315e+17
19467.0	6.448326946499242e+17
19468.0	6.473361374139734e+17
19469.0	6.493106820087805e+17
19470.0	6.516666670951082e+17
19471.0	6.53592681914914e+17
19472.0	6.553334695591933e+17
19473.0	6.571466111145299e+17
19474.0	6.591292824529577e+17
19475.0	6.606818990096379e+17
19476.0	6.623849444889939e+17
19477.0	6.637710429825708e+17
19478.0	6.650055929539242e+17
19479.0	6.661213924622335e+17
19480.0	6.67116054389282e+17
19481.0	6.680713224344915e+17
19482.0	6.689127740560723e+17
19483.0	6.697153899877715e+17
19484.0	6.704123389586089e+17
19485.0	6.711032030429183e+17
19486.0	6.717128890996052e+17
19487.0	6.722828611791529e+17
19488.0	6.728313355632639e+17
19489.0	6.73323944963823e+17
19490.0	6.73404805692347e+17
19491.0	6.742618228654077e+17
19492.0	6.747709627869865e+17
19493.0	6.752397224662356e+17
19494.0	6.757146200200532e+17
19495.0	6.760793889920339e+17
19496.0	6.763245471094098e+17
19497.0	6.767760161898495e+17
19498.0	6.768422116043439e+17
19499.0	6.724952247325997e+17
19500.0	6.77576543637777e+17
19501.0	6.777699326492671e+17
19502.0	6.780131283916115e+17
19503.0	6.781775243466067e+17
19504.0	6.78317882745378e+17
19505.0	6.785103436972031e+17
19506.0	6.786540720794281e+17
19507.0	6.787590310417747e+17
19508.0	6.788650026489172e+17
19509.0	6.789736686070441e+17
19510.0	6.79016577315635e+17
19511.0	6.754803301832e+17
19512.0	6.785166254363968e+17
19513.0	6.777894115562811e+17
19514.0	6.783155823793478e+17
19515.0	6.79161144838281e+17
19516.0	6.793953321243988e+17
19517.0	6.794027481432063e+17
19518.0	6.794382318152361e+17
19519.0	6.794462606218579e+17
19520.0	6.794425924932948e+17
19521.0	6.794723525481811e+17
19522.0	6.794527204791636e+17
19523.0	6.794578915666601e+17
19524.0	6.794512073839956e+17
19525.0	6.794605917896704e+17
19526.0	6.794524725957972e+17
19527.0	6.794222933202259e+17
19528.0	6.793927735989587e+17
19529.0	6.793627427318442e+17
19530.0	6.793501957510484e+17
19531.0	6.793102603845631e+17
19532.0	6.792638211904852e+17
19533.0	6.792167249586858e+17
19534.0	6.791648073744383e+17
19535.0	6.791033885731497e+17
19536.0	6.79063974978082e+17
19537.0	6.790191182249983e+17
19538.0	6.789396455314772e+17
19539.0	6.78721163257447e+17
19540.0	6.788183195560617e+17
19541.0	6.787598673160874e+17
19542.0	6.786895860902569e+17
19543.0	6.786288720718506e+17
19544.0	6.785599806286505e+17
19545.0	6.783771209979214e+17
19546.0	6.781403349909504e+17
19547.0	6.783405649821693e+17
19548.0	6.782658624705875e+17
19549.0	6.781474779605673e+17
19550.0	6.780999557272915e+17
19551.0	6.780163322806272e+17
19552.0	6.779296543320746e+17
19553.0	6.778360569703081e+17
19554.0	6.777408071226708e+17
19555.0	6.77659376038707e+17
19556.0	6.775728187462995e+17
19557.0	6.77480068494131e+17
19558.0	6.774000408242857e+17
19559.0	6.772982974950057e+17
19560.0	6.772048384054612e+17
19561.0	6.771088434397183e+17
19562.0	6.77019416264704e+17
19563.0	6.769224570284714e+17
19564.0	6.768254503966036e+17
19565.0	6.767248110081363e+17
19566.0	6.766170633229652e+17
19567.0	6.765251810121044e+17
19568.0	6.764140913055059e+17
19569.0	6.763155878663508e+17
19570.0	6.762207368271188e+17
19571.0	6.761172541898751e+17
19572.0	6.760008914042879e+17
19573.0	6.759038050107391e+17
19574.0	6.757698030097748e+17
19575.0	6.756967478110889e+17
19576.0	6.755915569037312e+17
19577.0	6.754594027033939e+17
19578.0	6.753646225478995e+17
19579.0	6.752617687766355e+17
19580.0	6.751549588679337e+17
19581.0	6.750505111213395e+17
19582.0	6.74947135648563e+17
19583.0	6.748431265562621e+17
19584.0	6.747371270569983e+17
19585.0	6.745901424967679e+17
19586.0	6.74459429179665e+17
19587.0	6.743687179184809e+17
19588.0	6.741356509309612e+17
19589.0	6.741532390457343e+17
19590.0	6.740451038767785e+17
19591.0	6.739585463047507e+17
19592.0	6.738483202752511e+17
19593.0	6.737278471416489e+17
19594.0	6.735350453327186e+17
19595.0	6.734998809870335e+17
19596.0	6.725529779918171e+17
19597.0	6.732703351876266e+17
19598.0	6.730853528895487e+17
19599.0	6.730525049181524e+17
19600.0	6.729405729254058e+17
19601.0	6.728043385760426e+17
19602.0	6.726979433441961e+17
19603.0	6.724143672896166e+17
19604.0	6.724605342034601e+17
19605.0	6.722635942242986e+17
19606.0	6.722434307369642e+17
19607.0	6.721315896907092e+17
19608.0	6.720118433600852e+17
19609.0	6.718810167268692e+17
19610.0	6.717852874003795e+17
19611.0	6.716655972035242e+17
19612.0	6.715530306125823e+17
19613.0	6.714312829698047e+17
19614.0	6.713047389306879e+17
19615.0	6.712011863883775e+17
19616.0	6.710566328467456e+17
19617.0	6.70966186246144e+17
19618.0	6.70686744307302e+17
19619.0	6.705207225701713e+17
19620.0	6.704104796935506e+17
19621.0	6.704926266053972e+17
19622.0	6.70378010677521e+17
19623.0	6.702608338474324e+17
19624.0	6.701391556902911e+17
19625.0	6.700235143249919e+17
19626.0	6.699014732207444e+17
19627.0	6.697871701879466e+17
19628.0	6.695784700794198e+17
19629.0	6.695194039331497e+17
19630.0	6.693308317302787e+17
19631.0	6.655296954957814e+17
19632.0	6.691879041105919e+17
19633.0	6.690562195324927e+17
19634.0	6.689546566980948e+17
19635.0	6.688217809376596e+17
19636.0	6.687127764292948e+17
19637.0	6.684572943122432e+17
19638.0	6.684741526880255e+17
19639.0	6.683513426280447e+17
19640.0	6.682164240318463e+17
19641.0	6.679520574701573e+17
19642.0	6.680036358750207e+17
19643.0	6.678763524500138e+17
19644.0	6.677482511357268e+17
19645.0	6.675653929730045e+17
19646.0	6.675293172050602e+17
19647.0	6.67409889571635e+17
19648.0	6.672883643667795e+17
19649.0	6.671674460078079e+17
19650.0	6.670498042391209e+17
19651.0	6.669276726777172e+17
19652.0	6.668064226192042e+17
19653.0	6.666877724699306e+17
19654.0	6.665654390925994e+17
19655.0	6.66443476701457e+17
19656.0	6.66325848634163e+17
19657.0	6.6620554229405e+17
19658.0	6.660867388429652e+17
19659.0	6.659664829044052e+17
19660.0	6.658482108716372e+17
19661.0	6.657261974497961e+17
19662.0	6.656074469168468e+17
19663.0	6.654709169389568e+17
19664.0	6.653470317390506e+17
19665.0	6.652461307658239e+17
19666.0	6.651195430360403e+17
