# Flux units: erg / (cm m2 s)
# Wavelength units: Angstrom
wave	flux
19000.0	7.321849085384019e+17
19001.0	7.320197769723903e+17
19002.0	7.319124136951807e+17
19003.0	7.317746249367551e+17
19004.0	7.316382528744105e+17
19005.0	7.315000771215357e+17
19006.0	7.313636805924178e+17
19007.0	7.312193459235497e+17
19008.0	7.310706410695338e+17
19009.0	7.309254044854953e+17
19010.0	7.306878497325052e+17
19011.0	7.306687973862057e+17
19012.0	7.305099128165718e+17
19013.0	7.304022198670675e+17
19014.0	7.302471041591978e+17
19015.0	7.301178958282751e+17
19016.0	7.299779546928467e+17
19017.0	7.298375874161321e+17
19018.0	7.297137104650239e+17
19019.0	7.295770361331711e+17
19020.0	7.294301567800659e+17
19021.0	7.293009283164841e+17
19022.0	7.291676064918186e+17
19023.0	7.290189537869823e+17
19024.0	7.288888319366483e+17
19025.0	7.287562298545491e+17
19026.0	7.286121394339839e+17
19027.0	7.284737754966697e+17
19028.0	7.283447648572756e+17
19029.0	7.282031535499944e+17
19030.0	7.280735517933565e+17
19031.0	7.279381670701738e+17
19032.0	7.278003127407955e+17
19033.0	7.276361043410943e+17
19034.0	7.275207265878016e+17
19035.0	7.273777064138067e+17
19036.0	7.263609548352169e+17
19037.0	7.271111944656212e+17
19038.0	7.269698332786688e+17
19039.0	7.268385749117608e+17
19040.0	7.267029302815402e+17
19041.0	7.265630619871914e+17
19042.0	7.264014646815402e+17
19043.0	7.262916727625044e+17
19044.0	7.261505663096148e+17
19045.0	7.260170469332308e+17
19046.0	7.258610558741161e+17
19047.0	7.257363744555005e+17
19048.0	7.25545016186197e+17
19049.0	7.254468894654463e+17
19050.0	7.253158795411455e+17
19051.0	7.250466161295356e+17
19052.0	7.25029439475985e+17
19053.0	7.249166568783871e+17
19054.0	7.247805984101716e+17
19055.0	7.245688317760854e+17
19056.0	7.244993208341844e+17
19057.0	7.243676083639636e+17
19058.0	7.242269470665386e+17
19059.0	7.240946205502122e+17
19060.0	7.239518229539497e+17
19061.0	7.238221610789544e+17
19062.0	7.236836451680255e+17
19063.0	7.235470192104787e+17
19064.0	7.233707292579158e+17
19065.0	7.23218482733602e+17
19066.0	7.231177691059539e+17
19067.0	7.229942591564457e+17
19068.0	7.22861603946496e+17
19069.0	7.227249624700244e+17
19070.0	7.22578915406643e+17
19071.0	7.224490347287892e+17
19072.0	7.22313812185361e+17
19073.0	7.221739665402538e+17
19074.0	7.220397632126975e+17
19075.0	7.219026960143699e+17
19076.0	7.217595445586602e+17
19077.0	7.216248046398122e+17
19078.0	7.21477572825361e+17
19079.0	7.21353056662323e+17
19080.0	7.212118828209491e+17
19081.0	7.210677691919017e+17
19082.0	7.209288174927871e+17
19083.0	7.207700843375272e+17
19084.0	7.205955726300502e+17
19085.0	7.205280741152083e+17
19086.0	7.20279519100928e+17
19087.0	7.202276450675369e+17
19088.0	7.200961859332777e+17
19089.0	7.19915793392162e+17
19090.0	7.198386017009663e+17
19091.0	7.197012692828157e+17
19092.0	7.195511839435433e+17
19093.0	7.19436202831599e+17
19094.0	7.192992325216938e+17
19095.0	7.191621045059584e+17
19096.0	7.19021333737199e+17
19097.0	7.188886537808553e+17
19098.0	7.187513982582781e+17
19099.0	7.186139439256918e+17
19100.0	7.184765534863357e+17
19101.0	7.183413726063274e+17
19102.0	7.181786871584084e+17
19103.0	7.180665760688808e+17
19104.0	7.179320481021951e+17
19105.0	7.17794184405538e+17
19106.0	7.176532588669608e+17
19107.0	7.175158221504511e+17
19108.0	7.173847825864019e+17
19109.0	7.171620787453948e+17
19110.0	7.171084816919208e+17
19111.0	7.169748162139475e+17
19112.0	7.168381881592489e+17
19113.0	7.167009382290772e+17
19114.0	7.165629530374143e+17
19115.0	7.164132240741716e+17
19116.0	7.162843289179476e+17
19117.0	7.161464743089491e+17
19118.0	7.159907245621245e+17
19119.0	7.150569177219059e+17
19120.0	7.157325924139007e+17
19121.0	7.156023557794474e+17
19122.0	7.154717964632063e+17
19123.0	7.153339025675603e+17
19124.0	7.151935906556586e+17
19125.0	7.150600514262356e+17
19126.0	7.149233572413439e+17
19127.0	7.142924054342313e+17
19128.0	7.145948998970024e+17
19129.0	7.144904256563881e+17
19130.0	7.14372198432768e+17
19131.0	7.142405709671081e+17
19132.0	7.141043184424276e+17
19133.0	7.138670031841962e+17
19134.0	7.138070784638975e+17
19135.0	7.13694773597525e+17
19136.0	7.135604205333161e+17
19137.0	7.133772495454207e+17
19138.0	7.132800613700948e+17
19139.0	7.131506030586538e+17
19140.0	7.130147425615871e+17
19141.0	7.128782478857555e+17
19142.0	7.127346193978706e+17
19143.0	7.12588765831714e+17
19144.0	7.124566435779923e+17
19145.0	7.123308317944489e+17
19146.0	7.12024262705152e+17
19147.0	7.120295434736982e+17
19148.0	7.119221108506623e+17
19149.0	7.117847771742207e+17
19150.0	7.116478235017215e+17
19151.0	7.115125022523391e+17
19152.0	7.113738732350122e+17
19153.0	7.112359002068308e+17
19154.0	7.110676765999101e+17
19155.0	7.109690243328681e+17
19156.0	7.108318020851028e+17
19157.0	7.106933050485417e+17
19158.0	7.104984368458408e+17
19159.0	7.104180043557545e+17
19160.0	7.102811450550953e+17
19161.0	7.101443942470995e+17
19162.0	7.098787487023105e+17
19163.0	7.098730430507689e+17
19164.0	7.097420171881129e+17
19165.0	7.096009782635178e+17
19166.0	7.094369298066089e+17
19167.0	7.093206360173225e+17
19168.0	7.091731420588713e+17
19169.0	7.090450723416745e+17
19170.0	7.089239525862057e+17
19171.0	7.087790855203497e+17
19172.0	7.08650806227763e+17
19173.0	7.085153981562879e+17
19174.0	7.083618266513407e+17
19175.0	7.082427112139433e+17
19176.0	7.081051344076799e+17
19177.0	7.079259509445972e+17
19178.0	7.078305952606889e+17
19179.0	7.076865815958867e+17
19180.0	7.075520499941375e+17
19181.0	7.073968039832233e+17
19182.0	7.072754508846419e+17
19183.0	7.071510913089536e+17
19184.0	7.069945875660799e+17
19185.0	7.068748355731455e+17
19186.0	7.067427963666432e+17
19187.0	7.065829371805696e+17
19188.0	7.064689804574719e+17
19189.0	7.063321681330175e+17
19190.0	7.061952531879254e+17
19191.0	7.06051357802496e+17
19192.0	7.059243763673769e+17
19193.0	7.057829459744083e+17
19194.0	7.056457381270867e+17
19195.0	7.055149031052628e+17
19196.0	7.0537355212445e+17
19197.0	7.052391590745427e+17
19198.0	7.051024478328148e+17
19199.0	7.04167290286899e+17
19200.0	7.042714510731949e+17
19201.0	7.046938039244118e+17
19202.0	7.045600904915625e+17
19203.0	7.044224516095999e+17
19204.0	7.042806452671828e+17
19205.0	7.041474024352425e+17
19206.0	7.040079138652159e+17
19207.0	7.038456766485844e+17
19208.0	7.036857388193107e+17
19209.0	7.035998387743402e+17
19210.0	7.034639239610365e+17
19211.0	7.033310411401898e+17
19212.0	7.031941872921257e+17
19213.0	7.030308808075945e+17
19214.0	7.028840947078486e+17
19215.0	7.027817138443603e+17
19216.0	7.026442589525332e+17
19217.0	7.025091618886995e+17
19218.0	7.021347286810619e+17
19219.0	7.021890997234345e+17
19220.0	7.020927227265023e+17
19221.0	7.018681208231254e+17
19222.0	7.018237095750313e+17
19223.0	7.016817525871956e+17
19224.0	7.015324635365375e+17
19225.0	7.013687972506281e+17
19226.0	7.012697166752425e+17
19227.0	7.011321235111936e+17
19228.0	7.010038505100627e+17
19229.0	7.008664439925417e+17
19230.0	7.007231743273642e+17
19231.0	7.005854799407785e+17
19232.0	7.004467591380991e+17
19233.0	7.002952214511615e+17
19234.0	7.001711201746943e+17
19235.0	7.000300342039891e+17
19236.0	6.999038841498281e+17
19237.0	6.997606733447165e+17
19238.0	6.996018321861289e+17
19239.0	6.994911942759763e+17
19240.0	6.993099884593151e+17
19241.0	6.991936952991743e+17
19242.0	6.990701452940628e+17
19243.0	6.988856948337321e+17
19244.0	6.988013328400383e+17
19245.0	6.986617661860521e+17
19246.0	6.985197123097939e+17
19247.0	6.983839402426367e+17
19248.0	6.982488136089599e+17
19249.0	6.981093829902335e+17
19250.0	6.979656631364265e+17
19251.0	6.977909921153023e+17
19252.0	6.976092545307987e+17
19253.0	6.975488652913321e+17
19254.0	6.974098770318676e+17
19255.0	6.972235262722045e+17
19256.0	6.971236800965289e+17
19257.0	6.969985552700756e+17
19258.0	6.968596724973567e+17
19259.0	6.966996909774164e+17
19260.0	6.96560940954419e+17
19261.0	6.964370884700841e+17
19262.0	6.962842937502378e+17
19263.0	6.961442429337597e+17
19264.0	6.958708824560978e+17
19265.0	6.958284338626559e+17
19266.0	6.956996350356138e+17
19267.0	6.956022152648019e+17
19268.0	6.954595649585151e+17
19269.0	6.953199762844329e+17
19270.0	6.951798564017492e+17
19271.0	6.949425467359232e+17
19272.0	6.94884252131874e+17
19273.0	6.935721120803487e+17
19274.0	6.939373178890913e+17
19275.0	6.944717953914196e+17
19276.0	6.943246441775104e+17
19277.0	6.941840029428393e+17
19278.0	6.940427190009855e+17
19279.0	6.938930271573331e+17
19280.0	6.937342644322304e+17
19281.0	6.936140615516159e+17
19282.0	6.934765389217791e+17
19283.0	6.933208836866047e+17
19284.0	6.931224871654739e+17
19285.0	6.929185996712616e+17
19286.0	6.928269246289235e+17
19287.0	6.926940127275689e+17
19288.0	6.922869120434171e+17
19289.0	6.918477258424311e+17
19290.0	6.922619276230655e+17
19291.0	6.920382927863808e+17
19292.0	6.919721793006249e+17
19293.0	6.918246631123625e+17
19294.0	6.916781671885481e+17
19295.0	6.915358142584148e+17
19296.0	6.9138781845149e+17
19297.0	6.912363109635411e+17
19298.0	6.910875264876543e+17
19299.0	6.909500355248127e+17
19300.0	6.908016540516351e+17
19301.0	6.906522826528083e+17
19302.0	6.905006500347903e+17
19303.0	6.903339437173417e+17
19304.0	6.901943787410772e+17
19305.0	6.900568739370323e+17
19306.0	6.899113659815252e+17
19307.0	6.897486963321513e+17
19308.0	6.896041738283689e+17
19309.0	6.894327752731306e+17
19310.0	6.892664771313663e+17
19311.0	6.891482601138858e+17
19312.0	6.890034432398676e+17
19313.0	6.88844931334144e+17
19314.0	6.882423370765655e+17
19315.0	6.881048338803374e+17
19316.0	6.883938298145449e+17
19317.0	6.882390351107412e+17
19318.0	6.88082304106496e+17
19319.0	6.879295766353235e+17
19320.0	6.877484193327786e+17
19321.0	6.875936513327101e+17
19322.0	6.874040188097876e+17
19323.0	6.872650908783955e+17
19324.0	6.871180276749652e+17
19325.0	6.868655147756202e+17
19326.0	6.867098519906985e+17
19327.0	6.865459534801577e+17
19328.0	6.863888652610217e+17
19329.0	6.862268253164884e+17
19330.0	6.860523876384765e+17
19331.0	6.858864228040703e+17
19332.0	6.857329335773866e+17
19333.0	6.855633354970452e+17
19334.0	6.8539766552221e+17
19335.0	6.852339356925951e+17
19336.0	6.850646712691369e+17
19337.0	6.848934917264724e+17
19338.0	6.846626765209599e+17
19339.0	6.845514241452713e+17
19340.0	6.843619777795412e+17
19341.0	6.841986989075113e+17
19342.0	6.839156569276413e+17
19343.0	6.838309234584234e+17
19344.0	6.835554378667348e+17
19345.0	6.828589402030068e+17
19346.0	6.829509674969766e+17
19347.0	6.829973332208297e+17
19348.0	6.828333665528489e+17
19349.0	6.826380937396223e+17
19350.0	6.824531856108201e+17
19351.0	6.822618757158228e+17
19352.0	6.820605791130964e+17
19353.0	6.818916543583572e+17
19354.0	6.816980918424915e+17
19355.0	6.81356555330082e+17
19356.0	6.811585102916266e+17
19357.0	6.809572947787773e+17
19358.0	6.807423095756115e+17
19359.0	6.804893170576042e+17
19360.0	6.803311963406335e+17
19361.0	6.801244930004307e+17
19362.0	6.799247393423359e+17
19363.0	6.79541250003217e+17
19364.0	6.793133228556287e+17
19365.0	6.790923612585983e+17
19366.0	6.788698198769661e+17
19367.0	6.786436368607913e+17
19368.0	6.783937300223313e+17
19369.0	6.779290865631231e+17
19370.0	6.775937755862356e+17
19371.0	6.774725298618367e+17
19372.0	6.772429660269225e+17
19373.0	6.768586706823848e+17
19374.0	6.764609252534953e+17
19375.0	6.761796363528874e+17
19376.0	6.75917900878097e+17
19377.0	6.754229316922022e+17
19378.0	6.750781934578346e+17
19379.0	6.747998425972735e+17
19380.0	6.744133102906026e+17
19381.0	6.740546061423955e+17
19382.0	6.737384016882345e+17
19383.0	6.73425908703778e+17
19384.0	6.731498208100351e+17
19385.0	6.728351585315498e+17
19386.0	6.725145806766079e+17
19387.0	6.721846606386515e+17
19388.0	6.7182086076061e+17
19389.0	6.714251613831165e+17
19390.0	6.710712561478313e+17
19391.0	6.699815686985034e+17
19392.0	6.703200312754175e+17
19393.0	6.699579005905577e+17
19394.0	6.695642364990804e+17
19395.0	6.691620738389332e+17
19396.0	6.686376746898771e+17
19397.0	6.682110244945919e+17
19398.0	6.677669140409001e+17
19399.0	6.671382120584531e+17
19400.0	6.667977116789417e+17
19401.0	6.662163435356159e+17
19402.0	6.65721397977634e+17
19403.0	6.65203508458291e+17
19404.0	6.645088208464552e+17
19405.0	6.639224108701011e+17
19406.0	6.633019900515668e+17
19407.0	6.625135483508052e+17
19408.0	6.616750935594328e+17
19409.0	6.609346006526633e+17
19410.0	6.60144058933794e+17
19411.0	6.592103087865855e+17
19412.0	6.580948262278483e+17
19413.0	6.569668333884755e+17
19414.0	6.556905341539674e+17
19415.0	6.542394721828858e+17
19416.0	6.527696243436202e+17
19417.0	6.516915792336212e+17
19418.0	6.506485116130644e+17
19419.0	6.495761749508095e+17
19420.0	6.484625940196009e+17
19421.0	6.472962171469824e+17
19422.0	6.460736298898772e+17
19423.0	6.448110052747946e+17
19424.0	6.434208274011476e+17
19425.0	6.420258218835968e+17
19426.0	6.405516358757033e+17
19427.0	6.388994526238036e+17
19428.0	6.37265870131473e+17
19429.0	6.35440948523827e+17
19430.0	6.334831252908717e+17
19431.0	6.312538865489238e+17
19432.0	6.289445835767805e+17
19433.0	6.261812937534122e+17
19434.0	6.22845935537357e+17
19435.0	6.187780083635548e+17
19436.0	6.149435813090644e+17
19437.0	6.117260452866729e+17
19438.0	6.07472212508672e+17
19439.0	6.043278635259222e+17
19440.0	6.001349974731434e+17
19441.0	5.953298574082044e+17
19442.0	5.895280341811203e+17
19443.0	5.821394277367809e+17
19444.0	5.74717682935398e+17
19445.0	5.669452023245484e+17
19446.0	5.575365368654506e+17
19447.0	5.45810559969962e+17
19448.0	5.322712357186224e+17
19449.0	5.1468404131539616e+17
19450.0	4.8788452940621997e+17
19451.0	4.791720707358723e+17
19452.0	5.019965399411375e+17
19453.0	5.241520780563802e+17
19454.0	5.3897856283224685e+17
19455.0	5.5136545780968083e+17
19456.0	5.616322376018604e+17
19457.0	5.699227762731686e+17
19458.0	5.765016432498004e+17
19459.0	5.84517300309197e+17
19460.0	5.907946385615529e+17
19461.0	5.957984795841876e+17
19462.0	6.000421713739776e+17
19463.0	6.03803664724787e+17
19464.0	6.072492871385087e+17
19465.0	6.104077700169728e+17
19466.0	6.134859047108604e+17
19467.0	6.174563692620461e+17
19468.0	6.208793120953684e+17
19469.0	6.235272591878825e+17
19470.0	6.259728933279059e+17
19471.0	6.27983959195648e+17
19472.0	6.297729168135507e+17
19473.0	6.313618784124925e+17
19474.0	6.328883885025961e+17
19475.0	6.341007920594941e+17
19476.0	6.355593593880575e+17
19477.0	6.367528425095167e+17
19478.0	6.378988131844095e+17
19479.0	6.389762200611497e+17
19480.0	6.399599375111508e+17
19481.0	6.409027041536681e+17
19482.0	6.417924764641961e+17
19483.0	6.426378516474538e+17
19484.0	6.43443529490978e+17
19485.0	6.441921686448809e+17
19486.0	6.452061239508991e+17
19487.0	6.464878113980413e+17
19488.0	6.476013281563988e+17
19489.0	6.485339437443754e+17
19490.0	6.49055157039923e+17
19491.0	6.500325268302506e+17
19492.0	6.507827440211284e+17
19493.0	6.513011273498624e+17
19494.0	6.518561077985279e+17
19495.0	6.522656373342209e+17
19496.0	6.526817955479551e+17
19497.0	6.530752266458452e+17
19498.0	6.53374604461124e+17
19499.0	6.52683643418487e+17
19500.0	6.540778096558079e+17
19501.0	6.543320257221972e+17
19502.0	6.546778295894015e+17
19503.0	6.548824654173524e+17
19504.0	6.550699396213416e+17
19505.0	6.552483630066344e+17
19506.0	6.554492517132969e+17
19507.0	6.556718639786666e+17
19508.0	6.558187566137343e+17
19509.0	6.559488156194132e+17
19510.0	6.560185970240169e+17
19511.0	6.551570142811473e+17
19512.0	6.560859399301798e+17
19513.0	6.559684345462776e+17
19514.0	6.562569275135313e+17
19515.0	6.564924396404737e+17
19516.0	6.566814943980202e+17
19517.0	6.567343090739882e+17
19518.0	6.568056574006612e+17
19519.0	6.568539206975487e+17
19520.0	6.56889740263424e+17
19521.0	6.569361600238932e+17
19522.0	6.570515821669033e+17
19523.0	6.571561403635027e+17
19524.0	6.571767815820627e+17
19525.0	6.572790766720344e+17
19526.0	6.574799517472084e+17
19527.0	6.574835831057065e+17
19528.0	6.574843573043199e+17
19529.0	6.57611338040388e+17
19530.0	6.577584564688212e+17
19531.0	6.577475450568701e+17
19532.0	6.577305990201343e+17
19533.0	6.577117305940649e+17
19534.0	6.578103165211987e+17
19535.0	6.57855858343936e+17
19536.0	6.578201330100906e+17
19537.0	6.57798100820514e+17
19538.0	6.57729736741137e+17
19539.0	6.575810007094616e+17
19540.0	6.577405984505852e+17
19541.0	6.578020765313706e+17
19542.0	6.577541090028201e+17
19543.0	6.577045243603625e+17
19544.0	6.576539537768445e+17
19545.0	6.574659413038419e+17
19546.0	6.57308674756881e+17
19547.0	6.574872819924991e+17
19548.0	6.574278491941546e+17
19549.0	6.57451068301858e+17
19550.0	6.574366018677417e+17
19551.0	6.57372135694882e+17
19552.0	6.573048593383423e+17
19553.0	6.572294491777706e+17
19554.0	6.571552082493439e+17
19555.0	6.570905448043859e+17
19556.0	6.570219271094271e+17
19557.0	6.569462399150761e+17
19558.0	6.568701517452627e+17
19559.0	6.567898466921129e+17
19560.0	6.567075828989951e+17
19561.0	6.56632810971682e+17
19562.0	6.566580274069503e+17
19563.0	6.565780063780863e+17
19564.0	6.564947402162175e+17
19565.0	6.56409904685602e+17
19566.0	6.563174750879743e+17
19567.0	6.56239719682321e+17
19568.0	6.561440082515284e+17
19569.0	6.560593371376298e+17
19570.0	6.559763538116607e+17
19571.0	6.558858533142527e+17
19572.0	6.557866275460435e+17
19573.0	6.556986435611305e+17
19574.0	6.555867359652521e+17
19575.0	6.555198833732265e+17
19576.0	6.554268952341161e+17
19577.0	6.553214054126931e+17
19578.0	6.552254203734698e+17
19579.0	6.551347507757055e+17
19580.0	6.550388000598697e+17
19581.0	6.549465016740521e+17
19582.0	6.548537733720745e+17
19583.0	6.547559347301033e+17
19584.0	6.54655639134754e+17
19585.0	6.546054231097343e+17
19586.0	6.544953229792598e+17
19587.0	6.544300488436393e+17
19588.0	6.5420170625024e+17
19589.0	6.542275208631636e+17
19590.0	6.541114170758484e+17
19591.0	6.540300354147668e+17
19592.0	6.539295184300714e+17
19593.0	6.538206993099433e+17
19594.0	6.536557167815336e+17
19595.0	6.536059302532435e+17
19596.0	6.53387930603793e+17
19597.0	6.534025963372543e+17
19598.0	6.532238209100457e+17
19599.0	6.532003054048595e+17
19600.0	6.530968389156864e+17
19601.0	6.529717129707519e+17
19602.0	6.528700309482153e+17
19603.0	6.526590397011282e+17
19604.0	6.526547188689578e+17
19605.0	6.524775602760362e+17
19606.0	6.524549863221929e+17
19607.0	6.523504460212905e+17
19608.0	6.522376207116969e+17
19609.0	6.521187402951337e+17
19610.0	6.520269022341801e+17
19611.0	6.519369569927167e+17
19612.0	6.518310880761171e+17
19613.0	6.517185870561279e+17
19614.0	6.516003422863359e+17
19615.0	6.515033022398463e+17
19616.0	6.51387385029154e+17
19617.0	6.51283066467123e+17
19618.0	6.510151209757352e+17
19619.0	6.508733702777512e+17
19620.0	6.507673443543721e+17
19621.0	6.508404642851498e+17
19622.0	6.507310784446464e+17
19623.0	6.506207618181801e+17
19624.0	6.505065927234899e+17
19625.0	6.503982232327508e+17
19626.0	6.502834444260694e+17
19627.0	6.501749855966548e+17
19628.0	6.500429126959104e+17
19629.0	6.499253198607699e+17
19630.0	6.497819045833386e+17
19631.0	6.488850832556032e+17
19632.0	6.496125267039572e+17
19633.0	6.494887590144681e+17
19634.0	6.493892998332415e+17
19635.0	6.492643030728703e+17
19636.0	6.491604556709887e+17
19637.0	6.489313030176768e+17
19638.0	6.489345247324841e+17
19639.0	6.488190220588372e+17
19640.0	6.486809786362538e+17
19641.0	6.484259360822615e+17
19642.0	6.484809461268479e+17
19643.0	6.483642329071615e+17
19644.0	6.482383710016852e+17
19645.0	6.480667666459305e+17
19646.0	6.480296528576511e+17
19647.0	6.479157114437632e+17
19648.0	6.478002437226496e+17
19649.0	6.476852509365588e+17
19650.0	6.475732987412479e+17
19651.0	6.474571224623785e+17
19652.0	6.473416638289236e+17
19653.0	6.472295980378793e+17
19654.0	6.471124995014656e+17
19655.0	6.469963718066175e+17
19656.0	6.46884393886242e+17
19657.0	6.467693994224298e+17
19658.0	6.466561528649044e+17
19659.0	6.465443533422591e+17
19660.0	6.46482263871761e+17
19661.0	6.46366455153732e+17
19662.0	6.462521922464425e+17
19663.0	6.461229114239657e+17
19664.0	6.460167467390291e+17
19665.0	6.459067209176403e+17
