# Flux units: erg / (cm m2 s)
# Wavelength units: Angstrom
wave	flux
19000.0	7.545694090253651e+17
19001.0	7.544267659193002e+17
19002.0	7.542967040475136e+17
19003.0	7.541595605128531e+17
19004.0	7.540223943289514e+17
19005.0	7.538868010090493e+17
19006.0	7.537499431064918e+17
19007.0	7.536079434066602e+17
19008.0	7.534729438603948e+17
19009.0	7.533299747170985e+17
19010.0	7.531795900443306e+17
19011.0	7.53057699795217e+17
19012.0	7.528874299271849e+17
19013.0	7.52792681578496e+17
19014.0	7.526559060241066e+17
19015.0	7.525200494417236e+17
19016.0	7.523831033189718e+17
19017.0	7.522473546700115e+17
19018.0	7.521086662333782e+17
19019.0	7.519863759874728e+17
19020.0	7.518554693828608e+17
19021.0	7.517190577542483e+17
19022.0	7.515818450135722e+17
19023.0	7.514410036406953e+17
19024.0	7.513037161015977e+17
19025.0	7.511610763509761e+17
19026.0	7.510187545285972e+17
19027.0	7.508528393267881e+17
19028.0	7.507492882524842e+17
19029.0	7.506124198641661e+17
19030.0	7.5047557412509e+17
19031.0	7.503364876490067e+17
19032.0	7.501963812580009e+17
19033.0	7.500481278509055e+17
19034.0	7.499015844615508e+17
19035.0	7.49658433528354e+17
19036.0	7.471762536486225e+17
19037.0	7.494114415913641e+17
19038.0	7.493491684802557e+17
19039.0	7.492237090182483e+17
19040.0	7.490889801444006e+17
19041.0	7.489520963769683e+17
19042.0	7.488033213382653e+17
19043.0	7.486762802042195e+17
19044.0	7.485368960723625e+17
19045.0	7.483969725530111e+17
19046.0	7.482574585375402e+17
19047.0	7.481179330576383e+17
19048.0	7.479703318648148e+17
19049.0	7.478235074570922e+17
19050.0	7.476829148064425e+17
19051.0	7.472031577320104e+17
19052.0	7.472732203646973e+17
19053.0	7.472742283957586e+17
19054.0	7.471456722791081e+17
19055.0	7.469915415336278e+17
19056.0	7.468693316785491e+17
19057.0	7.467320621749587e+17
19058.0	7.465865683402751e+17
19059.0	7.464528593813503e+17
19060.0	7.46315113824256e+17
19061.0	7.461769747016361e+17
19062.0	7.460501473372841e+17
19063.0	7.459108997999274e+17
19064.0	7.457658031658323e+17
19065.0	7.456214289306964e+17
19066.0	7.454875899483475e+17
19067.0	7.453544455427412e+17
19068.0	7.452152276451327e+17
19069.0	7.450759292168874e+17
19070.0	7.449352839976275e+17
19071.0	7.447955545347411e+17
19072.0	7.44655600676591e+17
19073.0	7.445183026517332e+17
19074.0	7.443790717517824e+17
19075.0	7.442395740940969e+17
19076.0	7.440992382746623e+17
19077.0	7.439595109089279e+17
19078.0	7.438197319532543e+17
19079.0	7.436812686109352e+17
19080.0	7.43540667851298e+17
19081.0	7.43398958117683e+17
19082.0	7.432600557715455e+17
19083.0	7.431138586918913e+17
19084.0	7.429651576127488e+17
19085.0	7.428385753355604e+17
19086.0	7.426611257977513e+17
19087.0	7.425185590280191e+17
19088.0	7.423911446009174e+17
19089.0	7.422452485324799e+17
19090.0	7.421299679472298e+17
19091.0	7.419955876200445e+17
19092.0	7.41846799019759e+17
19093.0	7.417220936936105e+17
19094.0	7.415849986730664e+17
19095.0	7.414462456441513e+17
19096.0	7.413063882549929e+17
19097.0	7.411673343546708e+17
19098.0	7.410218806454953e+17
19099.0	7.40873141957427e+17
19100.0	7.407308297819476e+17
19101.0	7.40593705680896e+17
19102.0	7.404513005316776e+17
19103.0	7.403159022469117e+17
19104.0	7.401752928190461e+17
19105.0	7.400281088196607e+17
19106.0	7.398862360674303e+17
19107.0	7.397459835748352e+17
19108.0	7.395921000136703e+17
19109.0	7.393307088912383e+17
19110.0	7.392836570491561e+17
19111.0	7.391840430282068e+17
19112.0	7.390516558342825e+17
19113.0	7.389156950933501e+17
19114.0	7.387748094006612e+17
19115.0	7.38628459508531e+17
19116.0	7.3849462863517e+17
19117.0	7.383531771308714e+17
19118.0	7.382024801222655e+17
19119.0	7.378817447712082e+17
19120.0	7.379112832969386e+17
19121.0	7.377777967759357e+17
19122.0	7.376564653479251e+17
19123.0	7.375173941111466e+17
19124.0	7.373585422570836e+17
19125.0	7.372356341901994e+17
19126.0	7.370914777792511e+17
19127.0	7.368712313809578e+17
19128.0	7.367808568524799e+17
19129.0	7.366705522496851e+17
19130.0	7.365358721695743e+17
19131.0	7.363962766447955e+17
19132.0	7.362564755991208e+17
19133.0	7.361093763246761e+17
19134.0	7.359619030581245e+17
19135.0	7.358354419963219e+17
19136.0	7.35695265001199e+17
19137.0	7.355482609374548e+17
19138.0	7.354136380396884e+17
19139.0	7.35274843906594e+17
19140.0	7.351347951173632e+17
19141.0	7.349944619543212e+17
19142.0	7.348514524058964e+17
19143.0	7.347111144893096e+17
19144.0	7.345702371852288e+17
19145.0	7.344323364388863e+17
19146.0	7.342530251893417e+17
19147.0	7.341476062516564e+17
19148.0	7.340079106228225e+17
19149.0	7.338671327237462e+17
19150.0	7.337289716509353e+17
19151.0	7.335882864459775e+17
19152.0	7.334437897371647e+17
19153.0	7.333005966180348e+17
19154.0	7.33157767983923e+17
19155.0	7.330190697605802e+17
19156.0	7.32867911098914e+17
19157.0	7.327048016068607e+17
19158.0	7.325175536156671e+17
19159.0	7.324275174277119e+17
19160.0	7.322942641100116e+17
19161.0	7.321322008171859e+17
19162.0	7.318001696462164e+17
19163.0	7.318084406738941e+17
19164.0	7.317317952208893e+17
19165.0	7.31593867211571e+17
19166.0	7.314516689813501e+17
19167.0	7.313013557515603e+17
19168.0	7.311757348088489e+17
19169.0	7.310393522607444e+17
19170.0	7.308998516670463e+17
19171.0	7.307533084175017e+17
19172.0	7.306076406590122e+17
19173.0	7.304703219422547e+17
19174.0	7.303285748793343e+17
19175.0	7.301899204165632e+17
19176.0	7.300483211329535e+17
19177.0	7.298956803440637e+17
19178.0	7.297563873684138e+17
19179.0	7.296113433029289e+17
19180.0	7.29478702633233e+17
19181.0	7.293351029462356e+17
19182.0	7.291976592392191e+17
19183.0	7.290584149174952e+17
19184.0	7.289161139268266e+17
19185.0	7.287746537542996e+17
19186.0	7.286325929574399e+17
19187.0	7.284845570949119e+17
19188.0	7.283466665547092e+17
19189.0	7.282026590415529e+17
19190.0	7.280573143842815e+17
19191.0	7.279115385525587e+17
19192.0	7.277701386381994e+17
19193.0	7.276221349320019e+17
19194.0	7.274708298891263e+17
19195.0	7.273162306398889e+17
19196.0	7.271457805565951e+17
19197.0	7.269392491129514e+17
19198.0	7.265867827336531e+17
19199.0	7.25161431426662e+17
19200.0	7.252122445807617e+17
19201.0	7.261884868722687e+17
19202.0	7.262352142150313e+17
19203.0	7.26146328245043e+17
19204.0	7.260341689210195e+17
19205.0	7.259065377882111e+17
19206.0	7.257721799704573e+17
19207.0	7.256273997266943e+17
19208.0	7.254854763631955e+17
19209.0	7.253536958054399e+17
19210.0	7.252131122424489e+17
19211.0	7.25070489269043e+17
19212.0	7.249259346788351e+17
19213.0	7.247674294140927e+17
19214.0	7.246181910446079e+17
19215.0	7.244904050021718e+17
19216.0	7.243544748796585e+17
19217.0	7.242102008883881e+17
19218.0	7.240318715254099e+17
19219.0	7.239122045370365e+17
19220.0	7.237799424731817e+17
19221.0	7.236258423461203e+17
19222.0	7.234926369832957e+17
19223.0	7.233503269049684e+17
19224.0	7.232040322378408e+17
19225.0	7.230573705691135e+17
19226.0	7.229172978723498e+17
19227.0	7.227728505165139e+17
19228.0	7.226301756735487e+17
19229.0	7.224852652665513e+17
19230.0	7.223390876205055e+17
19231.0	7.221935089210708e+17
19232.0	7.220490839348563e+17
19233.0	7.21899590132258e+17
19234.0	7.2175105095325e+17
19235.0	7.215998355286698e+17
19236.0	7.214554118007466e+17
19237.0	7.213085826394794e+17
19238.0	7.211560781654698e+17
19239.0	7.21016922902801e+17
19240.0	7.208706134157993e+17
19241.0	7.207229926495571e+17
19242.0	7.205769229369343e+17
19243.0	7.204201527159466e+17
19244.0	7.202843524770472e+17
19245.0	7.20137176027409e+17
19246.0	7.199893544938152e+17
19247.0	7.198423881788074e+17
19248.0	7.196943179229866e+17
19249.0	7.19545982587153e+17
19250.0	7.193970572525568e+17
19251.0	7.192439595641513e+17
19252.0	7.190829929420116e+17
19253.0	7.189529082811731e+17
19254.0	7.188055358177279e+17
19255.0	7.186437131381417e+17
19256.0	7.185052622389247e+17
19257.0	7.183580325216255e+17
19258.0	7.182082673475581e+17
19259.0	7.180517545170259e+17
19260.0	7.178601071203667e+17
19261.0	7.177558778271059e+17
19262.0	7.176032828959402e+17
19263.0	7.174504247022931e+17
19264.0	7.17278862848819e+17
19265.0	7.171433307657556e+17
19266.0	7.169934935894698e+17
19267.0	7.168456411578365e+17
19268.0	7.166798435363497e+17
19269.0	7.165273215860736e+17
19270.0	7.163727737869651e+17
19271.0	7.162055735902207e+17
19272.0	7.160652222518611e+17
19273.0	7.158853664418474e+17
19274.0	7.157260836929535e+17
19275.0	7.15606089409058e+17
19276.0	7.154509040757416e+17
19277.0	7.152963295728978e+17
19278.0	7.151411979266729e+17
19279.0	7.149828567990272e+17
19280.0	7.14825439257122e+17
19281.0	7.146703482956458e+17
19282.0	7.145117383131135e+17
19283.0	7.143399545809578e+17
19284.0	7.141748743252649e+17
19285.0	7.140242874870441e+17
19286.0	7.138647658026323e+17
19287.0	7.13687387288371e+17
19288.0	7.127067760700069e+17
19289.0	7.118043757587098e+17
19290.0	7.131726059580072e+17
19291.0	7.130232467925674e+17
19292.0	7.128851175964671e+17
19293.0	7.127256811962368e+17
19294.0	7.125640453029887e+17
19295.0	7.124026972788051e+17
19296.0	7.122371595643561e+17
19297.0	7.120733461282815e+17
19298.0	7.119099315705172e+17
19299.0	7.117438136440147e+17
19300.0	7.115809366562131e+17
19301.0	7.114145846875476e+17
19302.0	7.11246784565521e+17
19303.0	7.110566678102015e+17
19304.0	7.10870517747985e+17
19305.0	7.107012631811411e+17
19306.0	7.105302541369343e+17
19307.0	7.103559247418708e+17
19308.0	7.101798296846333e+17
19309.0	7.099614950501034e+17
19310.0	7.097669865788755e+17
19311.0	7.096497904549887e+17
19312.0	7.094930248477353e+17
19313.0	7.093100353333929e+17
19314.0	7.072299116483921e+17
19315.0	7.071612138422295e+17
19316.0	7.087206453040468e+17
19317.0	7.085665053310975e+17
19318.0	7.083935023147689e+17
19319.0	7.082180579338921e+17
19320.0	7.08037743546641e+17
19321.0	7.07853974311185e+17
19322.0	7.076474295855786e+17
19323.0	7.074556506275837e+17
19324.0	7.072250823267668e+17
19325.0	7.070076168918356e+17
19326.0	7.068414526881791e+17
19327.0	7.066611742321321e+17
19328.0	7.064710925691561e+17
19329.0	7.062866340697428e+17
19330.0	7.060942202339325e+17
19331.0	7.059002345127935e+17
19332.0	7.056473691521023e+17
19333.0	7.054287557361663e+17
19334.0	7.05233470759458e+17
19335.0	7.050269060410025e+17
19336.0	7.048344924848127e+17
19337.0	7.046348342471336e+17
19338.0	7.044198909870079e+17
19339.0	7.041975150007636e+17
19340.0	7.039661872513023e+17
19341.0	7.037297033740287e+17
19342.0	7.03493298139955e+17
19343.0	7.033003370872831e+17
19344.0	7.030812774673065e+17
19345.0	7.027799832745299e+17
19346.0	7.025970029177513e+17
19347.0	7.024256220484948e+17
19348.0	7.022133311963135e+17
19349.0	7.019878527533055e+17
19350.0	7.017612760317951e+17
19351.0	7.015353875955711e+17
19352.0	7.012984929561257e+17
19353.0	7.010751310288212e+17
19354.0	7.007953066393597e+17
19355.0	7.005485383286783e+17
19356.0	7.003153477490003e+17
19357.0	7.000740061686441e+17
19358.0	6.998287719246505e+17
19359.0	6.995803920924671e+17
19360.0	6.993294075974995e+17
19361.0	6.990834661938515e+17
19362.0	6.988289980497919e+17
19363.0	6.985283197905577e+17
19364.0	6.982276593571156e+17
19365.0	6.979582511721129e+17
19366.0	6.976850471419904e+17
19367.0	6.974078743216128e+17
19368.0	6.971264079320404e+17
19369.0	6.968371768371882e+17
19370.0	6.96546102485538e+17
19371.0	6.961696667773609e+17
19372.0	6.958547090800639e+17
19373.0	6.955404774866943e+17
19374.0	6.952182800012628e+17
19375.0	6.949021489474217e+17
19376.0	6.945804178685952e+17
19377.0	6.941937382719487e+17
19378.0	6.937900566446079e+17
19379.0	6.934465826433706e+17
19380.0	6.930947077308415e+17
19381.0	6.92735472443938e+17
19382.0	6.923642565470889e+17
19383.0	6.918876322682194e+17
19384.0	6.914623924076543e+17
19385.0	6.910791537481044e+17
19386.0	6.906882655169193e+17
19387.0	6.902621480681471e+17
19388.0	6.897550783851176e+17
19389.0	6.892313392797012e+17
19390.0	6.887784881061887e+17
19391.0	6.864784039346156e+17
19392.0	6.8777204542778e+17
19393.0	6.873826989528403e+17
19394.0	6.868594442196307e+17
19395.0	6.863853943346516e+17
19396.0	6.858454888437076e+17
19397.0	6.853149761470463e+17
19398.0	6.846438701705898e+17
19399.0	6.840272605762899e+17
19400.0	6.835111454572543e+17
19401.0	6.829663238924969e+17
19402.0	6.8239625827997e+17
19403.0	6.816012763310764e+17
19404.0	6.809599902482432e+17
19405.0	6.803352783770963e+17
19406.0	6.796867683745791e+17
19407.0	6.790113292626602e+17
19408.0	6.782447437305171e+17
19409.0	6.773971036930047e+17
19410.0	6.76637952844322e+17
19411.0	6.758557578603177e+17
19412.0	6.750466025892521e+17
19413.0	6.742074238610088e+17
19414.0	6.73138500453444e+17
19415.0	6.722526365351935e+17
19416.0	6.713114240221181e+17
19417.0	6.703491250651135e+17
19418.0	6.693039999986348e+17
19419.0	6.680491985993727e+17
19420.0	6.668905507804499e+17
19421.0	6.657275968793258e+17
19422.0	6.645038120785235e+17
19423.0	6.632102571278335e+17
19424.0	6.617712818126847e+17
19425.0	6.603084624385364e+17
19426.0	6.586421687790249e+17
19427.0	6.570160153078442e+17
19428.0	6.553636313584982e+17
19429.0	6.535606465200127e+17
19430.0	6.515363280497324e+17
19431.0	6.49326542909167e+17
19432.0	6.474606558838783e+17
19433.0	6.451758768674134e+17
19434.0	6.427168760397823e+17
19435.0	6.400618277808808e+17
19436.0	6.372045407387648e+17
19437.0	6.342356922007551e+17
19438.0	6.28563053956301e+17
19439.0	6.270491963337386e+17
19440.0	6.233933307969535e+17
19441.0	6.19075662599509e+17
19442.0	6.143282344099841e+17
19443.0	6.089872627116713e+17
19444.0	6.030000720794962e+17
19445.0	5.961789393076227e+17
19446.0	5.882986913682772e+17
19447.0	5.790061281585829e+17
19448.0	5.677306052520623e+17
19449.0	5.5344086674746016e+17
19450.0	5.335596197915294e+17
19451.0	5.214419985017519e+17
19452.0	5.4459399866941446e+17
19453.0	5.608837750281562e+17
19454.0	5.7322848320662125e+17
19455.0	5.831742692786175e+17
19456.0	5.914608870446423e+17
19457.0	5.985258697304742e+17
19458.0	6.01704837240154e+17
19459.0	6.099434429480966e+17
19460.0	6.148747499143164e+17
19461.0	6.191698420607657e+17
19462.0	6.230616195814742e+17
19463.0	6.265652834729981e+17
19464.0	6.298176163501395e+17
19465.0	6.327499666139818e+17
19466.0	6.354290806008489e+17
19467.0	6.378363408438611e+17
19468.0	6.401248550977536e+17
19469.0	6.422363948187645e+17
19470.0	6.442140188016637e+17
19471.0	6.460402571411455e+17
19472.0	6.477420596385107e+17
19473.0	6.493937611046911e+17
19474.0	6.508318122748586e+17
19475.0	6.521621423237801e+17
19476.0	6.536393803169792e+17
19477.0	6.549083207849302e+17
19478.0	6.561218674294783e+17
19479.0	6.572171992935082e+17
19480.0	6.582201100883284e+17
19481.0	6.591559468318719e+17
19482.0	6.600366702810454e+17
19483.0	6.610483399010985e+17
19484.0	6.619165850162515e+17
19485.0	6.62667142504994e+17
19486.0	6.633450150122836e+17
19487.0	6.639958799766867e+17
19488.0	6.647263880631636e+17
19489.0	6.653917212792148e+17
19490.0	6.659150701745491e+17
19491.0	6.665025062174719e+17
19492.0	6.670163164965546e+17
19493.0	6.675699595913898e+17
19494.0	6.681390826739028e+17
19495.0	6.685622303457279e+17
19496.0	6.689408774307837e+17
19497.0	6.693053163809449e+17
19498.0	6.691518619669844e+17
19499.0	6.672870205816822e+17
19500.0	6.705223556923391e+17
19501.0	6.708783883485184e+17
19502.0	6.711748204341929e+17
19503.0	6.714501122490368e+17
19504.0	6.71906707468015e+17
19505.0	6.721741374095359e+17
19506.0	6.724848543159635e+17
19507.0	6.727121913948841e+17
19508.0	6.729186723670697e+17
19509.0	6.732862055951016e+17
19510.0	6.734202003958442e+17
19511.0	6.700775533882003e+17
19512.0	6.731281327631013e+17
19513.0	6.730616075365027e+17
19514.0	6.735471188464973e+17
19515.0	6.744056407960233e+17
19516.0	6.745966082260991e+17
19517.0	6.747287538281129e+17
19518.0	6.748524969809236e+17
19519.0	6.750979145859072e+17
19520.0	6.752225078542335e+17
19521.0	6.75328757403921e+17
19522.0	6.754215902139731e+17
19523.0	6.755102908656298e+17
19524.0	6.755931379466239e+17
19525.0	6.757790384477523e+17
19526.0	6.758434206646271e+17
19527.0	6.759014533343913e+17
19528.0	6.759530433434964e+17
19529.0	6.760159963512831e+17
19530.0	6.760616181454164e+17
19531.0	6.761588999236266e+17
19532.0	6.762243539948884e+17
19533.0	6.762515314070867e+17
19534.0	6.762740420269395e+17
19535.0	6.762916360137385e+17
19536.0	6.763042560453292e+17
19537.0	6.763165235456681e+17
19538.0	6.76310845157103e+17
19539.0	6.763628555053738e+17
19540.0	6.763913972547583e+17
19541.0	6.763855666828627e+17
19542.0	6.763738565356201e+17
19543.0	6.763575169253375e+17
19544.0	6.763440798433279e+17
19545.0	6.762988410590548e+17
19546.0	6.762657556900522e+17
19547.0	6.762830470578175e+17
19548.0	6.762746637626025e+17
19549.0	6.762718022686036e+17
19550.0	6.762485613505193e+17
19551.0	6.762169231562067e+17
19552.0	6.761829327962111e+17
19553.0	6.761457246360916e+17
19554.0	6.761072996384768e+17
19555.0	6.760680422812329e+17
19556.0	6.760269767595348e+17
19557.0	6.759828813425321e+17
19558.0	6.759371681824767e+17
19559.0	6.758897868079101e+17
19560.0	6.758374028869631e+17
19561.0	6.757956716593151e+17
19562.0	6.757633734912681e+17
19563.0	6.757545454600191e+17
19564.0	6.757037578212692e+17
19565.0	6.75644930400802e+17
19566.0	6.755831673170602e+17
19567.0	6.75522986324787e+17
19568.0	6.754583070812842e+17
19569.0	6.753952044766548e+17
19570.0	6.753790325686271e+17
19571.0	6.753390907009705e+17
19572.0	6.752688657487188e+17
19573.0	6.752006366560255e+17
19574.0	6.751244397838335e+17
19575.0	6.75058650587682e+17
19576.0	6.749854232128169e+17
19577.0	6.74910644994048e+17
19578.0	6.748633567330303e+17
19579.0	6.74818329621299e+17
19580.0	6.747410640404479e+17
19581.0	6.746658029174783e+17
19582.0	6.74598408631091e+17
19583.0	6.745170733869738e+17
19584.0	6.744334806985385e+17
19585.0	6.743440191302313e+17
19586.0	6.742562173878271e+17
19587.0	6.741772389231273e+17
19588.0	6.741215430399316e+17
19589.0	6.740553943220223e+17
19590.0	6.739658881542825e+17
19591.0	6.738844008666452e+17
19592.0	6.737965843043668e+17
19593.0	6.737067610472447e+17
19594.0	6.736030997326504e+17
19595.0	6.735272196702207e+17
19596.0	6.733705831776255e+17
19597.0	6.733454689435647e+17
19598.0	6.7323750790813e+17
19599.0	6.731704614693545e+17
19600.0	6.731042553593853e+17
19601.0	6.730063754035197e+17
19602.0	6.729089089361236e+17
19603.0	6.727809643489962e+17
19604.0	6.727122645854889e+17
19605.0	6.726126141439999e+17
19606.0	6.725341621343572e+17
19607.0	6.724380892244649e+17
19608.0	6.723398863071913e+17
19609.0	6.722403380669097e+17
19610.0	6.721430802661375e+17
19611.0	6.720435570518697e+17
19612.0	6.719470057117012e+17
19613.0	6.718465532493823e+17
19614.0	6.717442344615935e+17
19615.0	6.716647039565823e+17
19616.0	6.715490670652073e+17
19617.0	6.714628962779133e+17
19618.0	6.713325185750355e+17
19619.0	6.712217039448745e+17
19620.0	6.711255205849769e+17
19621.0	6.710505725668009e+17
19622.0	6.709512304066559e+17
19623.0	6.708702345516371e+17
19624.0	6.707717687913129e+17
19625.0	6.706654053662719e+17
19626.0	6.705558622393684e+17
19627.0	6.704368236276393e+17
19628.0	6.702854137970687e+17
19629.0	6.701435216112297e+17
19630.0	6.695602061923667e+17
19631.0	6.684106478496428e+17
19632.0	6.697662196394665e+17
19633.0	6.697716309207721e+17
19634.0	6.696948733400403e+17
19635.0	6.695942807879679e+17
19636.0	6.695030920751786e+17
19637.0	6.693766255607807e+17
19638.0	6.692977825721001e+17
19639.0	6.691901515584852e+17
19640.0	6.690751827498323e+17
19641.0	6.689368613847039e+17
19642.0	6.688648569989801e+17
19643.0	6.687551776271017e+17
19644.0	6.686421325359785e+17
19645.0	6.685248360983208e+17
19646.0	6.684234958416553e+17
19647.0	6.683177908524372e+17
19648.0	6.682076751331327e+17
19649.0	6.680970959432361e+17
19650.0	6.67986497179921e+17
19651.0	6.67875158331665e+17
19652.0	6.67764363694353e+17
19653.0	6.676520900755455e+17
19654.0	6.675417630332244e+17
19655.0	6.674298934657024e+17
19656.0	6.673180262050473e+17
19657.0	6.672064374461779e+17
19658.0	6.670944049299455e+17
19659.0	6.669821471096831e+17
19660.0	6.668698389577727e+17
19661.0	6.667572481097727e+17
19662.0	6.66644162613521e+17
19663.0	6.665273498490196e+17
19664.0	6.664128742905171e+17
19665.0	6.663053209414313e+17
