# Flux units: erg / (cm m2 s)
# Wavelength units: Angstrom
wave	flux
19000.0	7.353139090948093e+17
19001.0	7.351736728201897e+17
19002.0	7.350426093486079e+17
19003.0	7.349067555624276e+17
19004.0	7.347709047122602e+17
19005.0	7.346351777338708e+17
19006.0	7.344992641089535e+17
19007.0	7.34353543082803e+17
19008.0	7.342244714861906e+17
19009.0	7.3408698150202e+17
19010.0	7.339350225671508e+17
19011.0	7.338163802472445e+17
19012.0	7.336595236235945e+17
19013.0	7.335467042559316e+17
19014.0	7.334070607762772e+17
19015.0	7.332720159315283e+17
19016.0	7.331351815170729e+17
19017.0	7.330000737577642e+17
19018.0	7.328629456022185e+17
19019.0	7.327283473110356e+17
19020.0	7.325903242308266e+17
19021.0	7.324551427915775e+17
19022.0	7.323191750601385e+17
19023.0	7.321805337395199e+17
19024.0	7.320445876786516e+17
19025.0	7.319070979741012e+17
19026.0	7.317693869501098e+17
19027.0	7.316146957058045e+17
19028.0	7.314993639500457e+17
19029.0	7.313626469761024e+17
19030.0	7.312259174192467e+17
19031.0	7.310891324975786e+17
19032.0	7.309523115048957e+17
19033.0	7.30811286561314e+17
19034.0	7.306784648374952e+17
19035.0	7.305382868637011e+17
19036.0	7.290085850480637e+17
19037.0	7.30266906726673e+17
19038.0	7.301297384456191e+17
19039.0	7.2999408514717e+17
19040.0	7.298571584580266e+17
19041.0	7.297201614443862e+17
19042.0	7.295794684100605e+17
19043.0	7.294462806633129e+17
19044.0	7.293090034701651e+17
19045.0	7.291714024767488e+17
19046.0	7.290328036584106e+17
19047.0	7.288971826561023e+17
19048.0	7.287518652618067e+17
19049.0	7.286207226576893e+17
19050.0	7.284845597513044e+17
19051.0	7.281382315960998e+17
19052.0	7.281705625496233e+17
19053.0	7.280726736459091e+17
19054.0	7.279379793051645e+17
19055.0	7.277890336980991e+17
19056.0	7.276627048966825e+17
19057.0	7.275258181932372e+17
19058.0	7.273864049808726e+17
19059.0	7.272519864855208e+17
19060.0	7.271137406877693e+17
19061.0	7.269775924614484e+17
19062.0	7.268401164582911e+17
19063.0	7.267029298621098e+17
19064.0	7.265603840638975e+17
19065.0	7.264201683413674e+17
19066.0	7.262883483571539e+17
19067.0	7.261537759308457e+17
19068.0	7.260165736759293e+17
19069.0	7.258793085064531e+17
19070.0	7.257415316318889e+17
19071.0	7.25604004598033e+17
19072.0	7.254670857382569e+17
19073.0	7.25329753739537e+17
19074.0	7.251926727000063e+17
19075.0	7.250553223861587e+17
19076.0	7.249170245790378e+17
19077.0	7.247799948498259e+17
19078.0	7.246419807174655e+17
19079.0	7.245058668844372e+17
19080.0	7.243680937847466e+17
19081.0	7.242293031469053e+17
19082.0	7.240916385398781e+17
19083.0	7.239507815082666e+17
19084.0	7.238075492422995e+17
19085.0	7.236813153719636e+17
19086.0	7.235244819567956e+17
19087.0	7.233645917328726e+17
19088.0	7.232620567986173e+17
19089.0	7.231013484057939e+17
19090.0	7.229922546985641e+17
19091.0	7.228551659694761e+17
19092.0	7.22707220144674e+17
19093.0	7.225819508244479e+17
19094.0	7.224437712966995e+17
19095.0	7.223061633127764e+17
19096.0	7.221690003445076e+17
19097.0	7.220323500599978e+17
19098.0	7.218951539567274e+17
19099.0	7.217576927734441e+17
19100.0	7.216181180803753e+17
19101.0	7.214819428706986e+17
19102.0	7.213412344572585e+17
19103.0	7.212079789025961e+17
19104.0	7.210705082122241e+17
19105.0	7.209328676525398e+17
19106.0	7.207878037340157e+17
19107.0	7.206571078232744e+17
19108.0	7.2052005418653e+17
19109.0	7.202542344383144e+17
19110.0	7.20239996174336e+17
19111.0	7.201081101997395e+17
19112.0	7.199708339852628e+17
19113.0	7.1983341502464e+17
19114.0	7.196959507655338e+17
19115.0	7.195544908726271e+17
19116.0	7.194198963563178e+17
19117.0	7.192822030882131e+17
19118.0	7.191351524676948e+17
19119.0	7.188653161141585e+17
19120.0	7.188592436008275e+17
19121.0	7.187247001152169e+17
19122.0	7.185961178540714e+17
19123.0	7.184585279056553e+17
19124.0	7.183136393090387e+17
19125.0	7.181822995726335e+17
19126.0	7.180454069971625e+17
19127.0	7.178305158862164e+17
19128.0	7.177122685299369e+17
19129.0	7.176297117646847e+17
19130.0	7.174955391953577e+17
19131.0	7.173565357664938e+17
19132.0	7.172207627905706e+17
19133.0	7.17065350545408e+17
19134.0	7.169202084730198e+17
19135.0	7.168079237393065e+17
19136.0	7.16670827041041e+17
19137.0	7.165258819611305e+17
19138.0	7.163926368922281e+17
19139.0	7.162579368192681e+17
19140.0	7.161206070575104e+17
19141.0	7.159830432535892e+17
19142.0	7.15844339437841e+17
19143.0	7.157055801174697e+17
19144.0	7.155697656179369e+17
19145.0	7.154321681197736e+17
19146.0	7.152669637126826e+17
19147.0	7.151529281366697e+17
19148.0	7.150189745100116e+17
19149.0	7.14881528705843e+17
19150.0	7.147440048876202e+17
19151.0	7.146067444716883e+17
19152.0	7.144673793540093e+17
19153.0	7.143305194941097e+17
19154.0	7.141878519212714e+17
19155.0	7.140558848567977e+17
19156.0	7.139177135778474e+17
19157.0	7.137763725235539e+17
19158.0	7.135558287491071e+17
19159.0	7.135024149867177e+17
19160.0	7.133648086805161e+17
19161.0	7.132230711246847e+17
19162.0	7.12892367171311e+17
19163.0	7.129454537779881e+17
19164.0	7.128155887588692e+17
19165.0	7.126743445929981e+17
19166.0	7.125307257520127e+17
19167.0	7.123833398667945e+17
19168.0	7.122617594369363e+17
19169.0	7.121220347275944e+17
19170.0	7.119883443634175e+17
19171.0	7.118395230475603e+17
19172.0	7.117113560225108e+17
19173.0	7.115742442247508e+17
19174.0	7.114345260864851e+17
19175.0	7.112990970434899e+17
19176.0	7.111610304823296e+17
19177.0	7.11015867158801e+17
19178.0	7.10879150744098e+17
19179.0	7.107311621373951e+17
19180.0	7.106038220892841e+17
19181.0	7.10465536725265e+17
19182.0	7.103308594413568e+17
19183.0	7.101934466323795e+17
19184.0	7.100532362226345e+17
19185.0	7.099173361593002e+17
19186.0	7.097793011952298e+17
19187.0	7.096380494796116e+17
19188.0	7.09501934248482e+17
19189.0	7.093615240500564e+17
19190.0	7.092222191905449e+17
19191.0	7.090850482530986e+17
19192.0	7.089483974093481e+17
19193.0	7.08807445446656e+17
19194.0	7.086701875473066e+17
19195.0	7.085321700595028e+17
19196.0	7.083926918354259e+17
19197.0	7.082522176039593e+17
19198.0	7.081056511459327e+17
19199.0	7.067998073039526e+17
19200.0	7.070014621701464e+17
19201.0	7.076907598217215e+17
19202.0	7.075591364105555e+17
19203.0	7.074191905215828e+17
19204.0	7.072826541823316e+17
19205.0	7.07145114984994e+17
19206.0	7.070056805214889e+17
19207.0	7.068633083674623e+17
19208.0	7.067195911001428e+17
19209.0	7.065892542218239e+17
19210.0	7.064500489071274e+17
19211.0	7.063107240547667e+17
19212.0	7.06171330835251e+17
19213.0	7.060193836444329e+17
19214.0	7.058736687699283e+17
19215.0	7.057480244789247e+17
19216.0	7.056132160531113e+17
19217.0	7.05473914549043e+17
19218.0	7.052970557090472e+17
19219.0	7.051871031481683e+17
19220.0	7.050532534004394e+17
19221.0	7.048998458927785e+17
19222.0	7.04774421942545e+17
19223.0	7.046347405743444e+17
19224.0	7.044930534899711e+17
19225.0	7.043479237208745e+17
19226.0	7.042135678604627e+17
19227.0	7.040730386836138e+17
19228.0	7.03933685170176e+17
19229.0	7.03793175007505e+17
19230.0	7.036502050253481e+17
19231.0	7.035104201976489e+17
19232.0	7.0337044166301e+17
19233.0	7.032269962564948e+17
19234.0	7.030883206124884e+17
19235.0	7.029473124461225e+17
19236.0	7.028072133252436e+17
19237.0	7.026652389310463e+17
19238.0	7.025187371352063e+17
19239.0	7.023832265829033e+17
19240.0	7.022379382691155e+17
19241.0	7.02097702064401e+17
19242.0	7.019573736549032e+17
19243.0	7.018084590856873e+17
19244.0	7.016744713453565e+17
19245.0	7.015323395948541e+17
19246.0	7.013893729681407e+17
19247.0	7.012476451990185e+17
19248.0	7.011052182394196e+17
19249.0	7.009625190694911e+17
19250.0	7.008195086123007e+17
19251.0	7.006707063805267e+17
19252.0	7.005208857717417e+17
19253.0	7.003901628077395e+17
19254.0	7.002466896489129e+17
19255.0	7.000953978879997e+17
19256.0	6.999564986176852e+17
19257.0	6.998160972972031e+17
19258.0	6.996722834909865e+17
19259.0	6.995248603463679e+17
19260.0	6.993605393995091e+17
19261.0	6.99239294374161e+17
19262.0	6.990923697225727e+17
19263.0	6.989468980477951e+17
19264.0	6.987811961962493e+17
19265.0	6.986509315997695e+17
19266.0	6.985068940274345e+17
19267.0	6.983683820311892e+17
19268.0	6.982225197968042e+17
19269.0	6.980764428140543e+17
19270.0	6.979300726494548e+17
19271.0	6.977689890062335e+17
19272.0	6.976353125531647e+17
19273.0	6.973795787079677e+17
19274.0	6.972756439247529e+17
19275.0	6.972025988623017e+17
19276.0	6.970540642970281e+17
19277.0	6.969070707889492e+17
19278.0	6.967588592549887e+17
19279.0	6.966086187264681e+17
19280.0	6.964581244425555e+17
19281.0	6.963122981393748e+17
19282.0	6.961626317411668e+17
19283.0	6.959958306324479e+17
19284.0	6.958417115611135e+17
19285.0	6.957039483879423e+17
19286.0	6.955609366724607e+17
19287.0	6.954115800935082e+17
19288.0	6.948555737879887e+17
19289.0	6.94230624659045e+17
19290.0	6.949569006228819e+17
19291.0	6.947927734528681e+17
19292.0	6.946523393469097e+17
19293.0	6.944989959421951e+17
19294.0	6.943459734017363e+17
19295.0	6.941921797384874e+17
19296.0	6.940379623107242e+17
19297.0	6.938825889327785e+17
19298.0	6.937274440744959e+17
19299.0	6.935727705161727e+17
19300.0	6.934167109500927e+17
19301.0	6.932600504800596e+17
19302.0	6.931026059547988e+17
19303.0	6.929424984659284e+17
19304.0	6.927861295000234e+17
19305.0	6.926287526428672e+17
19306.0	6.924703439869268e+17
19307.0	6.922588047540223e+17
19308.0	6.920802603630591e+17
19309.0	6.918813190717437e+17
19310.0	6.917060125436585e+17
19311.0	6.915928007988564e+17
19312.0	6.914369382252543e+17
19313.0	6.912739572187135e+17
19314.0	6.90277992331128e+17
19315.0	6.90154505590102e+17
19316.0	6.907780866069844e+17
19317.0	6.906168961488212e+17
19318.0	6.904499781588307e+17
19319.0	6.902838787571711e+17
19320.0	6.901159834943487e+17
19321.0	6.899476220346367e+17
19322.0	6.897710809131689e+17
19323.0	6.895901243080703e+17
19324.0	6.894359284110676e+17
19325.0	6.892291129431379e+17
19326.0	6.890914672803839e+17
19327.0	6.889185334700713e+17
19328.0	6.887448821541546e+17
19329.0	6.885695777232212e+17
19330.0	6.883914712875007e+17
19331.0	6.882137686234452e+17
19332.0	6.880371374642516e+17
19333.0	6.878578571826516e+17
19334.0	6.876770224919891e+17
19335.0	6.874955792078163e+17
19336.0	6.873126331045203e+17
19337.0	6.871287081205759e+17
19338.0	6.869345428133204e+17
19339.0	6.867580548197033e+17
19340.0	6.865681318412287e+17
19341.0	6.863808265977855e+17
19342.0	6.860816447963133e+17
19343.0	6.858965214298111e+17
19344.0	6.857034464318804e+17
19345.0	6.854269400165032e+17
19346.0	6.852733798361768e+17
19347.0	6.851084505754281e+17
19348.0	6.849058931649194e+17
19349.0	6.847034935301459e+17
19350.0	6.845003877143892e+17
19351.0	6.842961597125972e+17
19352.0	6.840875258041684e+17
19353.0	6.838825704401578e+17
19354.0	6.836723501760511e+17
19355.0	6.834562558590973e+17
19356.0	6.832455243093332e+17
19357.0	6.830092716780202e+17
19358.0	6.826625647072596e+17
19359.0	6.824360598481577e+17
19360.0	6.822155197087743e+17
19361.0	6.819884035997695e+17
19362.0	6.817603604796756e+17
19363.0	6.815280154716841e+17
19364.0	6.812930710437887e+17
19365.0	6.810555497753257e+17
19366.0	6.808152367781204e+17
19367.0	6.804492713110185e+17
19368.0	6.801285604966399e+17
19369.0	6.798748864042324e+17
19370.0	6.796127309398015e+17
19371.0	6.793654685401087e+17
19372.0	6.791073930149888e+17
19373.0	6.788361842152788e+17
19374.0	6.7832175919104e+17
19375.0	6.780477514623657e+17
19376.0	6.777697710986582e+17
19377.0	6.774871408596307e+17
19378.0	6.771668162008406e+17
19379.0	6.765892314595327e+17
19380.0	6.762873107076435e+17
19381.0	6.75979886399761e+17
19382.0	6.755728500981756e+17
19383.0	6.749549125173247e+17
19384.0	6.746299057569791e+17
19385.0	6.742545153392644e+17
19386.0	6.734887165886461e+17
19387.0	6.73132521193472e+17
19388.0	6.725284194331308e+17
19389.0	6.718512768745472e+17
19390.0	6.713595479283022e+17
19391.0	6.693278180529477e+17
19392.0	6.6991664688442e+17
19393.0	6.692334204878847e+17
19394.0	6.687889434520234e+17
19395.0	6.683317002829823e+17
19396.0	6.678463934453076e+17
19397.0	6.673515893751808e+17
19398.0	6.668575934076244e+17
19399.0	6.663277357214378e+17
19400.0	6.658354308972543e+17
19401.0	6.653075082532179e+17
19402.0	6.647616174205608e+17
19403.0	6.641998405216938e+17
19404.0	6.636227161052499e+17
19405.0	6.630285552648191e+17
19406.0	6.62370505387759e+17
19407.0	6.617149855847764e+17
19408.0	6.610364650575188e+17
19409.0	6.603936737088852e+17
19410.0	6.596988809598291e+17
19411.0	6.589072044021075e+17
19412.0	6.581285035529556e+17
19413.0	6.573716149021353e+17
19414.0	6.565183333859327e+17
19415.0	6.556182315532288e+17
19416.0	6.547601039381841e+17
19417.0	6.536902287731369e+17
19418.0	6.527188432060415e+17
19419.0	6.515570754540884e+17
19420.0	6.502452585736874e+17
19421.0	6.488454476420442e+17
19422.0	6.472688282020517e+17
19423.0	6.45435694566605e+17
19424.0	6.43201908430166e+17
19425.0	6.405865182243502e+17
19426.0	6.381377972862976e+17
19427.0	6.364248454201344e+17
19428.0	6.346298184346282e+17
19429.0	6.327934091875667e+17
19430.0	6.30870085852638e+17
19431.0	6.287356432744449e+17
19432.0	6.268008235619667e+17
19433.0	6.245661714415615e+17
19434.0	6.221552274811561e+17
19435.0	6.195157216351569e+17
19436.0	6.165494683227476e+17
19437.0	6.132785164408146e+17
19438.0	6.07961521621129e+17
19439.0	6.039148569821187e+17
19440.0	5.981390122953386e+17
19441.0	5.933454517949779e+17
19442.0	5.88183771143646e+17
19443.0	5.823139797794816e+17
19444.0	5.754235651446098e+17
19445.0	5.667366418164395e+17
19446.0	5.561145022742525e+17
19447.0	5.4453003735094554e+17
19448.0	5.298789866799112e+17
19449.0	5.1037105417093114e+17
19450.0	4.827974832488404e+17
19451.0	4.7440662773104723e+17
19452.0	4.968944832086018e+17
19453.0	5.2089749619343443e+17
19454.0	5.373658163139918e+17
19455.0	5.4995477747903136e+17
19456.0	5.607365164400646e+17
19457.0	5.7029728469865786e+17
19458.0	5.76701919657985e+17
19459.0	5.837563563256495e+17
19460.0	5.890530350552403e+17
19461.0	5.936864185810944e+17
19462.0	5.98755716960529e+17
19463.0	6.042288364279128e+17
19464.0	6.085790061472429e+17
19465.0	6.120575963496448e+17
19466.0	6.148743896935081e+17
19467.0	6.173939743763114e+17
19468.0	6.196418541431466e+17
19469.0	6.217329102815231e+17
19470.0	6.236611320042835e+17
19471.0	6.254722152049321e+17
19472.0	6.271640566497279e+17
19473.0	6.287794376802303e+17
19474.0	6.303514145849344e+17
19475.0	6.318321985825448e+17
19476.0	6.33510483547478e+17
19477.0	6.361075396116484e+17
19478.0	6.381461330460662e+17
19479.0	6.398849196578139e+17
19480.0	6.413729435134633e+17
19481.0	6.42629580479966e+17
19482.0	6.437039387967487e+17
19483.0	6.446041307370838e+17
19484.0	6.455059179809448e+17
19485.0	6.462286035506514e+17
19486.0	6.469432312332287e+17
19487.0	6.475251959463933e+17
19488.0	6.482173666263039e+17
19489.0	6.487281477091327e+17
19490.0	6.491774319766185e+17
19491.0	6.497936705148244e+17
19492.0	6.502698551607295e+17
19493.0	6.507000869421055e+17
19494.0	6.511065454783145e+17
19495.0	6.514929359476052e+17
19496.0	6.518999302362452e+17
19497.0	6.522770594725887e+17
19498.0	6.524494137698988e+17
19499.0	6.51197827025032e+17
19500.0	6.532236524388352e+17
19501.0	6.535078411414185e+17
19502.0	6.537759883089235e+17
19503.0	6.540319528408404e+17
19504.0	6.542750018524499e+17
19505.0	6.545069603553279e+17
19506.0	6.547494699794432e+17
19507.0	6.549642946805759e+17
19508.0	6.551590409688403e+17
19509.0	6.554255380272465e+17
19510.0	6.558438147839315e+17
19511.0	6.545292047067817e+17
19512.0	6.56444876093303e+17
19513.0	6.56428967727376e+17
19514.0	6.57125857069192e+17
19515.0	6.575732246795604e+17
19516.0	6.578159540852056e+17
19517.0	6.582260241967785e+17
19518.0	6.583060575988393e+17
19519.0	6.58403787398622e+17
19520.0	6.588041908977663e+17
19521.0	6.5885969069725e+17
19522.0	6.589078259280553e+17
19523.0	6.589866639534761e+17
19524.0	6.592869524919635e+17
19525.0	6.593152118947837e+17
19526.0	6.593406387443028e+17
19527.0	6.59361107087633e+17
19528.0	6.593809831952381e+17
19529.0	6.596266069502634e+17
19530.0	6.596331345455785e+17
19531.0	6.596360581851817e+17
19532.0	6.596355308912637e+17
19533.0	6.596316885592746e+17
19534.0	6.596246744946004e+17
19535.0	6.596357940139347e+17
19536.0	6.597824922430121e+17
19537.0	6.597673551396863e+17
19538.0	6.597426221678591e+17
19539.0	6.597029289525247e+17
19540.0	6.596991228313599e+17
19541.0	6.596731739308032e+17
19542.0	6.596432593857193e+17
19543.0	6.596103662556499e+17
19544.0	6.595750574161919e+17
19545.0	6.595173472185001e+17
19546.0	6.595948741743956e+17
19547.0	6.595897685879465e+17
19548.0	6.595450479400276e+17
19549.0	6.594942285643775e+17
19550.0	6.594501736923133e+17
19551.0	6.593999352277674e+17
19552.0	6.5934772418205e+17
19553.0	6.592927653079722e+17
19554.0	6.592367029125119e+17
19555.0	6.591810482034004e+17
19556.0	6.591221668861268e+17
19557.0	6.590616221777919e+17
19558.0	6.589998550395562e+17
19559.0	6.589363381775017e+17
19560.0	6.588706311897087e+17
19561.0	6.58805131190818e+17
19562.0	6.587384757310804e+17
19563.0	6.58705499693602e+17
19564.0	6.58701789831714e+17
19565.0	6.586303228761428e+17
19566.0	6.585569879173801e+17
19567.0	6.58484312093491e+17
19568.0	6.584084941766655e+17
19569.0	6.583337677575508e+17
19570.0	6.582573988489898e+17
19571.0	6.581793878704127e+17
19572.0	6.580995060225364e+17
19573.0	6.580200377330346e+17
19574.0	6.579362716800339e+17
19575.0	6.578588089668948e+17
19576.0	6.577763768423764e+17
19577.0	6.576922872687273e+17
19578.0	6.576069329726121e+17
19579.0	6.575226102655657e+17
19580.0	6.574368032642387e+17
19581.0	6.57350593749538e+17
19582.0	6.572639188768084e+17
19583.0	6.571757936137555e+17
19584.0	6.570865723790676e+17
19585.0	6.569924188525907e+17
19586.0	6.568999171129343e+17
19587.0	6.568091213365247e+17
19588.0	6.567039112052736e+17
19589.0	6.56630974845201e+17
19590.0	6.5653576840861e+17
19591.0	6.564462855192575e+17
19592.0	6.563524002884265e+17
19593.0	6.562569721828691e+17
19594.0	6.561514571956223e+17
19595.0	6.560651061930666e+17
19596.0	6.5583845998592e+17
19597.0	6.558691399914836e+17
19598.0	6.557649850772136e+17
19599.0	6.556803024988842e+17
19600.0	6.555823466261162e+17
19601.0	6.554807793876991e+17
19602.0	6.553824925843455e+17
19603.0	6.552501878783997e+17
19604.0	6.5518077228701e+17
19605.0	6.550722995464873e+17
19606.0	6.549849489014783e+17
19607.0	6.548841864800938e+17
19608.0	6.547825762500608e+17
19609.0	6.546852360312148e+17
19610.0	6.546380398351702e+17
19611.0	6.545352558990676e+17
19612.0	6.544326370088276e+17
19613.0	6.543294042821972e+17
19614.0	6.542238904833364e+17
19615.0	6.541215062644052e+17
19616.0	6.540073865226921e+17
19617.0	6.539132162889043e+17
19618.0	6.537835857313791e+17
19619.0	6.53673183401301e+17
19620.0	6.535688742764543e+17
19621.0	6.534922727238313e+17
19622.0	6.533863670371668e+17
19623.0	6.532801702658047e+17
19624.0	6.53173714915601e+17
19625.0	6.530668968979114e+17
19626.0	6.529599350155945e+17
19627.0	6.52852352586001e+17
19628.0	6.527168925051562e+17
19629.0	6.526322572525567e+17
19630.0	6.524361229292884e+17
19631.0	6.511679241540951e+17
19632.0	6.523104006941353e+17
19633.0	6.522024790851583e+17
19634.0	6.520961980082857e+17
19635.0	6.519856413278207e+17
19636.0	6.518785940215124e+17
19637.0	6.517513444305578e+17
19638.0	6.516596691785044e+17
19639.0	6.515496224555007e+17
19640.0	6.514359048776362e+17
19641.0	6.513019230792361e+17
19642.0	6.512207458904745e+17
19643.0	6.511102595345065e+17
19644.0	6.509971407634431e+17
19645.0	6.508774606329171e+17
19646.0	6.507788225566036e+17
19647.0	6.506679754904916e+17
19648.0	6.505569782682964e+17
19649.0	6.504457144281769e+17
19650.0	6.503345665605631e+17
19651.0	6.502231569683798e+17
19652.0	6.501116215470761e+17
19653.0	6.499998734745599e+17
19654.0	6.498881669256532e+17
19655.0	6.497760523408724e+17
19656.0	6.49663932722927e+17
19657.0	6.495521039799636e+17
19658.0	6.494398598610943e+17
19659.0	6.493274322414249e+17
19660.0	6.492150415316308e+17
19661.0	6.491024744513536e+17
19662.0	6.489897938452479e+17
19663.0	6.488744337080319e+17
19664.0	6.487595039064063e+17
19665.0	6.486512130588671e+17
