# Flux units: erg / (cm m2 s)
# Wavelength units: Angstrom
wave	flux
19000.0	8.566294830557864e+17
19001.0	8.564782228919636e+17
19002.0	8.563330373386239e+17
19003.0	8.561843487025833e+17
19004.0	8.56035429379823e+17
19005.0	8.558863996070569e+17
19006.0	8.557370267402239e+17
19007.0	8.555859651067903e+17
19008.0	8.554357041659901e+17
19009.0	8.552848996433919e+17
19010.0	8.551241695799978e+17
19011.0	8.549856410861567e+17
19012.0	8.54830713283106e+17
19013.0	8.546850529345536e+17
19014.0	8.545320573075453e+17
19015.0	8.543825031069695e+17
19016.0	8.542292514876073e+17
19017.0	8.540777755967484e+17
19018.0	8.539269879911762e+17
19019.0	8.537749819402921e+17
19020.0	8.536221552039254e+17
19021.0	8.53469674078208e+17
19022.0	8.533173361180671e+17
19023.0	8.53164378239795e+17
19024.0	8.530109824761855e+17
19025.0	8.528578899607548e+17
19026.0	8.527034776376659e+17
19027.0	8.525473989175977e+17
19028.0	8.523970142448296e+17
19029.0	8.52243034354483e+17
19030.0	8.520888908862803e+17
19031.0	8.519345565772458e+17
19032.0	8.517800539368106e+17
19033.0	8.516225255254697e+17
19034.0	8.5147046131357e+17
19035.0	8.513134201405439e+17
19036.0	8.509433011940012e+17
19037.0	8.510045022410067e+17
19038.0	8.508496867054931e+17
19039.0	8.506942013396307e+17
19040.0	8.505384987088214e+17
19041.0	8.503826259290794e+17
19042.0	8.502240532758527e+17
19043.0	8.500705104319827e+17
19044.0	8.499141592219647e+17
19045.0	8.497577803295401e+17
19046.0	8.495997484619091e+17
19047.0	8.494439639023612e+17
19048.0	8.492818224556713e+17
19049.0	8.491285272155475e+17
19050.0	8.489721305672361e+17
19051.0	8.487807928500221e+17
19052.0	8.486520853189972e+17
19053.0	8.48501468561408e+17
19054.0	8.483439488182953e+17
19055.0	8.481780986281984e+17
19056.0	8.480284279657812e+17
19057.0	8.478704685197992e+17
19058.0	8.477123762541906e+17
19059.0	8.475541060102825e+17
19060.0	8.473951390924797e+17
19061.0	8.472373976104957e+17
19062.0	8.470786985689085e+17
19063.0	8.469200649584639e+17
19064.0	8.467578182347434e+17
19065.0	8.465964946773332e+17
19066.0	8.46441327519334e+17
19067.0	8.462843066187773e+17
19068.0	8.461251105521664e+17
19069.0	8.45965781106688e+17
19070.0	8.458060729155583e+17
19071.0	8.456468227424256e+17
19072.0	8.454871686578173e+17
19073.0	8.453272648723113e+17
19074.0	8.451675590579539e+17
19075.0	8.450075860664319e+17
19076.0	8.448469028394324e+17
19077.0	8.446869758454441e+17
19078.0	8.445262213152767e+17
19079.0	8.44366695576371e+17
19080.0	8.442059855058259e+17
19081.0	8.440442532833961e+17
19082.0	8.438836203880445e+17
19083.0	8.437204685335209e+17
19084.0	8.435548697220438e+17
19085.0	8.43402171191569e+17
19086.0	8.432277586094761e+17
19087.0	8.430745436203689e+17
19088.0	8.429148850618365e+17
19089.0	8.427487303652692e+17
19090.0	8.425952751823528e+17
19091.0	8.424331990269952e+17
19092.0	8.422698764642986e+17
19093.0	8.421108627101014e+17
19094.0	8.419474850622122e+17
19095.0	8.417852583313407e+17
19096.0	8.416247680423251e+17
19097.0	8.414631226419881e+17
19098.0	8.413010330648576e+17
19099.0	8.411387069289812e+17
19100.0	8.409763329780392e+17
19101.0	8.408137611957588e+17
19102.0	8.40648781882982e+17
19103.0	8.404885635246761e+17
19104.0	8.40325770842385e+17
19105.0	8.401627910941353e+17
19106.0	8.399988827269804e+17
19107.0	8.398361916866557e+17
19108.0	8.396731546162515e+17
19109.0	8.394893353287676e+17
19110.0	8.393447741674834e+17
19111.0	8.391835150625449e+17
19112.0	8.390201511160488e+17
19113.0	8.388565750775808e+17
19114.0	8.386928656602451e+17
19115.0	8.385280103590569e+17
19116.0	8.383651112812543e+17
19117.0	8.382003109254483e+17
19118.0	8.38033655009553e+17
19119.0	8.378082268282876e+17
19120.0	8.377065792689492e+17
19121.0	8.37542693970466e+17
19122.0	8.373796999615827e+17
19123.0	8.372150269728083e+17
19124.0	8.370490146029564e+17
19125.0	8.368854486308179e+17
19126.0	8.367203420908202e+17
19127.0	8.365058144862207e+17
19128.0	8.363821212456276e+17
19129.0	8.362227034401452e+17
19130.0	8.3606009558685e+17
19131.0	8.358949622033064e+17
19132.0	8.357292768493565e+17
19133.0	8.355563880579071e+17
19134.0	8.353947806859263e+17
19135.0	8.35232529068851e+17
19136.0	8.350666565091325e+17
19137.0	8.348959856656381e+17
19138.0	8.347339504746493e+17
19139.0	8.345683639664637e+17
19140.0	8.344021836846419e+17
19141.0	8.342357966236328e+17
19142.0	8.340692285085012e+17
19143.0	8.339011380008275e+17
19144.0	8.337355573646675e+17
19145.0	8.335690085433343e+17
19146.0	8.333840408554152e+17
19147.0	8.332322786334036e+17
19148.0	8.33067570692096e+17
19149.0	8.32900267455283e+17
19150.0	8.327326936858621e+17
19151.0	8.325653422145535e+17
19152.0	8.323975641825276e+17
19153.0	8.32229828932403e+17
19154.0	8.320580693874003e+17
19155.0	8.318936859454122e+17
19156.0	8.317252222844927e+17
19157.0	8.315553480791379e+17
19158.0	8.313764403216383e+17
19159.0	8.312185686764198e+17
19160.0	8.310507769430015e+17
19161.0	8.308807546787156e+17
19162.0	8.306807657900714e+17
19163.0	8.305412835115004e+17
19164.0	8.303751063055017e+17
19165.0	8.302054679598417e+17
19166.0	8.300330504683519e+17
19167.0	8.298636876884649e+17
19168.0	8.295652636579155e+17
19169.0	8.293621325365245e+17
19170.0	8.291930562276008e+17
19171.0	8.290215820350803e+17
19172.0	8.288521494899369e+17
19173.0	8.286816696270845e+17
19174.0	8.285093274932562e+17
19175.0	8.283621365033644e+17
19176.0	8.282101319903913e+17
19177.0	8.280338365852328e+17
19178.0	8.278659002881362e+17
19179.0	8.276932283422034e+17
19180.0	8.275223641412948e+17
19181.0	8.273481175138301e+17
19182.0	8.271776674305366e+17
19183.0	8.270059561200297e+17
19184.0	8.268320700628992e+17
19185.0	8.266601393902932e+17
19186.0	8.264872419306153e+17
19187.0	8.263116629125804e+17
19188.0	8.261403889281705e+17
19189.0	8.25966401229073e+17
19190.0	8.257922211512317e+17
19191.0	8.256184126887254e+17
19192.0	8.254443206912682e+17
19193.0	8.252693153142098e+17
19194.0	8.250948361824936e+17
19195.0	8.24919880577843e+17
19196.0	8.247438045347837e+17
19197.0	8.245669452753578e+17
19198.0	8.243845008807251e+17
19199.0	8.240208210296831e+17
19200.0	8.238907430797311e+17
19201.0	8.238578568003581e+17
19202.0	8.236877108041046e+17
19203.0	8.235127371639466e+17
19204.0	8.233357934591997e+17
19205.0	8.231596893143037e+17
19206.0	8.229821321226922e+17
19207.0	8.228029546714454e+17
19208.0	8.226217597599743e+17
19209.0	8.224490776079017e+17
19210.0	8.222706643588436e+17
19211.0	8.220918663522986e+17
19212.0	8.219128141709312e+17
19213.0	8.216247977465175e+17
19214.0	8.213362350839122e+17
19215.0	8.211599174489427e+17
19216.0	8.209800736626003e+17
19217.0	8.207993334136831e+17
19218.0	8.205945054167039e+17
19219.0	8.204313092423679e+17
19220.0	8.202552786376019e+17
19221.0	8.200639920908968e+17
19222.0	8.198903899881471e+17
19223.0	8.197080380080128e+17
19224.0	8.195238039038634e+17
19225.0	8.193373933753683e+17
19226.0	8.191578761854973e+17
19227.0	8.189738326425599e+17
19228.0	8.187893713469439e+17
19229.0	8.1860452445498e+17
19230.0	8.184192308696404e+17
19231.0	8.182337871282175e+17
19232.0	8.18047254405666e+17
19233.0	8.178590524899327e+17
19234.0	8.176739346459305e+17
19235.0	8.174874504374953e+17
19236.0	8.17299799094067e+17
19237.0	8.17050550621525e+17
19238.0	8.166499279000915e+17
19239.0	8.16463401189376e+17
19240.0	8.162708371974826e+17
19241.0	8.160819717428564e+17
19242.0	8.158920100369747e+17
19243.0	8.156950908196178e+17
19244.0	8.155088002482173e+17
19245.0	8.15316468760576e+17
19246.0	8.15123413755494e+17
19247.0	8.149307064582144e+17
19248.0	8.147371686887421e+17
19249.0	8.145429778661373e+17
19250.0	8.143481242036904e+17
19251.0	8.141490997253459e+17
19252.0	8.139477948039165e+17
19253.0	8.137605863789908e+17
19254.0	8.134413616764246e+17
19255.0	8.130250040235348e+17
19256.0	8.128307628692819e+17
19257.0	8.126321690061484e+17
19258.0	8.124317246160896e+17
19259.0	8.12228241732403e+17
19260.0	8.120253645062143e+17
19261.0	8.118262546038784e+17
19262.0	8.116224667942911e+17
19263.0	8.114176945815551e+17
19264.0	8.112003948216319e+17
19265.0	8.110037387269459e+17
19266.0	8.10799210902323e+17
19267.0	8.103216615697068e+17
19268.0	8.099807168036864e+17
19269.0	8.097707334478505e+17
19270.0	8.095597577196884e+17
19271.0	8.093391785732777e+17
19272.0	8.09134347919906e+17
19273.0	8.088489572696061e+17
19274.0	8.086628466338472e+17
19275.0	8.084930477861544e+17
19276.0	8.082773833853609e+17
19277.0	8.07880031521997e+17
19278.0	8.075995326884522e+17
19279.0	8.07379515299157e+17
19280.0	8.071566561290921e+17
19281.0	8.069367157751804e+17
19282.0	8.067136296932691e+17
19283.0	8.064876203212799e+17
19284.0	8.062605646102525e+17
19285.0	8.060338247303165e+17
19286.0	8.058098375720957e+17
19287.0	8.055823206274387e+17
19288.0	8.052940152154794e+17
19289.0	8.049872231290194e+17
19290.0	8.048857915763369e+17
19291.0	8.046432279855103e+17
19292.0	8.044157556402857e+17
19293.0	8.041787132914345e+17
19294.0	8.039408647973544e+17
19295.0	8.037016395928915e+17
19296.0	8.034611808436221e+17
19297.0	8.031989775641257e+17
19298.0	8.029541284970493e+17
19299.0	8.027098940353194e+17
19300.0	8.024642859390292e+17
19301.0	8.022172988953939e+17
19302.0	8.019688228738387e+17
19303.0	8.017174888535382e+17
19304.0	8.014677120385024e+17
19305.0	8.012166559607466e+17
19306.0	8.009630862366036e+17
19307.0	8.007062227255297e+17
19308.0	8.004509968105472e+17
19309.0	8.001875404128255e+17
19310.0	7.999249818757802e+17
19311.0	7.996721268610387e+17
19312.0	7.99412381024256e+17
19313.0	7.991483887342932e+17
19314.0	7.988020586217471e+17
19315.0	7.985401460075178e+17
19316.0	7.983488733020157e+17
19317.0	7.980801520741033e+17
19318.0	7.978090103133524e+17
19319.0	7.97536156577519e+17
19320.0	7.972608294606166e+17
19321.0	7.969812690326867e+17
19322.0	7.96695079087855e+17
19323.0	7.964103516968276e+17
19324.0	7.961249205015892e+17
19325.0	7.958317325003433e+17
19326.0	7.955433013990739e+17
19327.0	7.952490678976511e+17
19328.0	7.949528285402451e+17
19329.0	7.946537233547263e+17
19330.0	7.943460202654378e+17
19331.0	7.939986457711955e+17
19332.0	7.936927997799081e+17
19333.0	7.933831956922365e+17
19334.0	7.930705877838505e+17
19335.0	7.927555304019284e+17
19336.0	7.92437367137894e+17
19337.0	7.921162043872596e+17
19338.0	7.917864089201322e+17
19339.0	7.914659466182655e+17
19340.0	7.911358431494145e+17
19341.0	7.908040050562386e+17
19342.0	7.904594477361834e+17
19343.0	7.901300986828114e+17
19344.0	7.897882373215572e+17
19345.0	7.89394922755413e+17
19346.0	7.890675429277696e+17
19347.0	7.886561599990441e+17
19348.0	7.883008469456212e+17
19349.0	7.879392874550612e+17
19350.0	7.87573649842722e+17
19351.0	7.872031384491348e+17
19352.0	7.868276716251817e+17
19353.0	7.864513146301097e+17
19354.0	7.86068294144273e+17
19355.0	7.856782588248063e+17
19356.0	7.852756910647977e+17
19357.0	7.847615296525651e+17
19358.0	7.843570400624637e+17
19359.0	7.839455100534781e+17
19360.0	7.835332439441407e+17
19361.0	7.831127565795327e+17
19362.0	7.826863783149565e+17
19363.0	7.822052933238779e+17
19364.0	7.816280972547412e+17
19365.0	7.811798609341098e+17
19366.0	7.807248755589117e+17
19367.0	7.802621512734036e+17
19368.0	7.797583741190145e+17
19369.0	7.79075271594257e+17
19370.0	7.785869357700434e+17
19371.0	7.781015840533162e+17
19372.0	7.776043117051901e+17
19373.0	7.768355118601558e+17
19374.0	7.762657841687208e+17
19375.0	7.757387343593471e+17
19376.0	7.751930115085654e+17
19377.0	7.742700477830483e+17
19378.0	7.737115803997523e+17
19379.0	7.731428294219094e+17
19380.0	7.722935782124198e+17
19381.0	7.714937669419007e+17
19382.0	7.708754629186902e+17
19383.0	7.69753757410919e+17
19384.0	7.690622163659434e+17
19385.0	7.680687114376531e+17
19386.0	7.671003884115284e+17
19387.0	7.66117959521622e+17
19388.0	7.649792810636628e+17
19389.0	7.640553814491133e+17
19390.0	7.630898424621738e+17
19391.0	7.621809302142972e+17
19392.0	7.615377774564691e+17
19393.0	7.607477200399017e+17
19394.0	7.599376763453439e+17
19395.0	7.591086127404372e+17
19396.0	7.58261454488644e+17
19397.0	7.573948026497708e+17
19398.0	7.565031709343743e+17
19399.0	7.555344563000658e+17
19400.0	7.546093650837503e+17
19401.0	7.53662153527569e+17
19402.0	7.526929248114002e+17
19403.0	7.517023256969216e+17
19404.0	7.506294789373948e+17
19405.0	7.495612740141053e+17
19406.0	7.484966654268756e+17
19407.0	7.474031819926186e+17
19408.0	7.461840246276096e+17
19409.0	7.449743872141996e+17
19410.0	7.437641393897471e+17
19411.0	7.423800296953169e+17
19412.0	7.410331894677501e+17
19413.0	7.395958505603071e+17
19414.0	7.380581012733951e+17
19415.0	7.364936215472809e+17
19416.0	7.347882442446163e+17
19417.0	7.329817187844099e+17
19418.0	7.31165741879569e+17
19419.0	7.290697185667753e+17
19420.0	7.27018684616977e+17
19421.0	7.248608301329062e+17
19422.0	7.225678915174405e+17
19423.0	7.201217748227411e+17
19424.0	7.175056825603414e+17
19425.0	7.150414084440064e+17
19426.0	7.127599489395369e+17
19427.0	7.10318029205231e+17
19428.0	7.077827662140755e+17
19429.0	7.050930186179922e+17
19430.0	7.023075242890582e+17
19431.0	6.993482365272063e+17
19432.0	6.962551760530089e+17
19433.0	6.928233668804608e+17
19434.0	6.891525394224468e+17
19435.0	6.852768919366313e+17
19436.0	6.811843701331286e+17
19437.0	6.768108805728936e+17
19438.0	6.719717481906173e+17
19439.0	6.670022402725207e+17
19440.0	6.616755605252778e+17
19441.0	6.558913602256892e+17
19442.0	6.497612331657901e+17
19443.0	6.431425574207487e+17
19444.0	6.360212289443154e+17
19445.0	6.283321680767661e+17
19446.0	6.200302032825001e+17
19447.0	6.110793406524069e+17
19448.0	6.014407319835992e+17
19449.0	5.910155507357012e+17
19450.0	5.792245971506505e+17
19451.0	5.733692980854789e+17
19452.0	5.852578381649238e+17
19453.0	5.960717858155182e+17
19454.0	6.058464999986513e+17
19455.0	6.149038219635369e+17
19456.0	6.232863926124545e+17
19457.0	6.310326270164987e+17
19458.0	6.381563938515625e+17
19459.0	6.447913829225814e+17
19460.0	6.509230351013203e+17
19461.0	6.566129556957866e+17
19462.0	6.619168744931328e+17
19463.0	6.668232760317267e+17
19464.0	6.714621507403775e+17
19465.0	6.757687862405804e+17
19466.0	6.797055373257384e+17
19467.0	6.834361759782227e+17
19468.0	6.86955019894784e+17
19469.0	6.90204399912004e+17
19470.0	6.932089817530367e+17
19471.0	6.959613523350868e+17
19472.0	6.985247184213331e+17
19473.0	7.010093866418175e+17
19474.0	7.033321675205292e+17
19475.0	7.05534836814643e+17
19476.0	7.076266419159037e+17
19477.0	7.097285032804352e+17
19478.0	7.119802666931546e+17
19479.0	7.142143513941335e+17
19480.0	7.162744844670294e+17
19481.0	7.182176771287721e+17
19482.0	7.201391118385148e+17
19483.0	7.218358446806355e+17
19484.0	7.234265745981436e+17
19485.0	7.250812297631058e+17
19486.0	7.264391001713325e+17
19487.0	7.278679541415935e+17
19488.0	7.290424184012797e+17
19489.0	7.303120975560703e+17
19490.0	7.313254710422185e+17
19491.0	7.324755961752233e+17
19492.0	7.334501473233578e+17
19493.0	7.343510256615423e+17
19494.0	7.353295436425897e+17
19495.0	7.361534054716756e+17
19496.0	7.369355696275455e+17
19497.0	7.377006597505024e+17
19498.0	7.384933102256127e+17
19499.0	7.390243372138493e+17
19500.0	7.399181896734036e+17
19501.0	7.405842230586025e+17
19502.0	7.41229420819251e+17
19503.0	7.41888964357871e+17
19504.0	7.425124649839272e+17
19505.0	7.430978514102953e+17
19506.0	7.436583788959062e+17
19507.0	7.442014836621311e+17
19508.0	7.447249822941183e+17
19509.0	7.452302987580758e+17
19510.0	7.457148945214122e+17
19511.0	7.460175415170387e+17
19512.0	7.466822583102122e+17
19513.0	7.47430338573107e+17
19514.0	7.479942276535631e+17
19515.0	7.490025837734569e+17
19516.0	7.494266238533632e+17
19517.0	7.503701193960105e+17
19518.0	7.507220546366122e+17
19519.0	7.514104007404198e+17
19520.0	7.519023805759487e+17
19521.0	7.522171081457668e+17
19522.0	7.529488346775553e+17
19523.0	7.532255499692713e+17
19524.0	7.534899823815336e+17
19525.0	7.539358205389478e+17
19526.0	7.543520548793e+17
19527.0	7.545841405394943e+17
19528.0	7.548071363040596e+17
19529.0	7.552323665876308e+17
19530.0	7.555198011222698e+17
19531.0	7.557146937917437e+17
19532.0	7.559018492286292e+17
19533.0	7.561651505769128e+17
19534.0	7.564810413670399e+17
19535.0	7.566433255598761e+17
19536.0	7.567999742858578e+17
19537.0	7.569542179979261e+17
19538.0	7.57131117802291e+17
19539.0	7.573937301662377e+17
19540.0	7.575363044857172e+17
19541.0	7.576600132452352e+17
19542.0	7.577767182161236e+17
19543.0	7.578877365496489e+17
19544.0	7.57993202463539e+17
19545.0	7.581107785913682e+17
19546.0	7.582851397233322e+17
19547.0	7.583958065741824e+17
19548.0	7.584800957267968e+17
19549.0	7.585569106296832e+17
19550.0	7.586349316745896e+17
19551.0	7.587056865072467e+17
19552.0	7.587720796831741e+17
19553.0	7.588337474164054e+17
19554.0	7.588915816955903e+17
19555.0	7.589496198179496e+17
19556.0	7.590720421844308e+17
19557.0	7.591175263354879e+17
19558.0	7.591595225033386e+17
19559.0	7.591982138392575e+17
19560.0	7.592330998229674e+17
19561.0	7.592662309098836e+17
19562.0	7.592951920197632e+17
19563.0	7.593210343849983e+17
19564.0	7.593446080511999e+17
19565.0	7.59365245285171e+17
19566.0	7.593823960738474e+17
19567.0	7.593975730230611e+17
19568.0	7.594085514739711e+17
19569.0	7.594183936879276e+17
19570.0	7.594249546978644e+17
19571.0	7.594285373325311e+17
19572.0	7.594418594207059e+17
19573.0	7.594703372069548e+17
19574.0	7.594639682961405e+17
19575.0	7.594602160717824e+17
19576.0	7.594512784293887e+17
19577.0	7.594396908257279e+17
19578.0	7.594253387563007e+17
19579.0	7.594098101846016e+17
19580.0	7.593918587032915e+17
19581.0	7.593715321274368e+17
19582.0	7.593473690217128e+17
19583.0	7.593193863031462e+17
19584.0	7.592895200624639e+17
19585.0	7.592550459594068e+17
19586.0	7.592209012490239e+17
19587.0	7.591893992297811e+17
19588.0	7.591419253009066e+17
19589.0	7.591158549053439e+17
19590.0	7.590752834027519e+17
19591.0	7.590364030435327e+17
19592.0	7.589940502200319e+17
19593.0	7.58950630924834e+17
19594.0	7.588989316541098e+17
19595.0	7.588588587144532e+17
19596.0	7.587872207011839e+17
19597.0	7.587618689297066e+17
19598.0	7.587053260767232e+17
19599.0	7.586599431482026e+17
19600.0	7.586066673784148e+17
19601.0	7.585500593739092e+17
19602.0	7.584945160235689e+17
19603.0	7.584257031536637e+17
19604.0	7.583782353764351e+17
19605.0	7.583119046956374e+17
19606.0	7.58259622416657e+17
19607.0	7.581975759377746e+17
19608.0	7.581340757131263e+17
19609.0	7.580689359350442e+17
19610.0	7.580226812903421e+17
19611.0	7.579559377502207e+17
19612.0	7.578880428736511e+17
19613.0	7.57818895438097e+17
19614.0	7.577472906996393e+17
19615.0	7.576763344005802e+17
19616.0	7.576010593665024e+17
19617.0	7.575275804732074e+17
19618.0	7.5743661930141e+17
19619.0	7.573559536080212e+17
19620.0	7.572786819454292e+17
19621.0	7.572171800270164e+17
19622.0	7.571370818229587e+17
19623.0	7.570559428722687e+17
19624.0	7.56973811129822e+17
19625.0	7.569591932813313e+17
19626.0	7.570166840470185e+17
19627.0	7.569304922182995e+17
19628.0	7.568390530356563e+17
19629.0	7.567524770086911e+17
19630.0	7.566451857337e+17
19631.0	7.563713671681363e+17
19632.0	7.56486311510016e+17
19633.0	7.5639738625338e+17
19634.0	7.563062252929024e+17
19635.0	7.56235345190366e+17
19636.0	7.564696954950995e+17
19637.0	7.563612205875197e+17
19638.0	7.562782122355369e+17
19639.0	7.561812360123732e+17
19640.0	7.560820938506237e+17
19641.0	7.559715862435156e+17
19642.0	7.55887509881924e+17
19643.0	7.557879452139519e+17
19644.0	7.55686050889728e+17
19645.0	7.555798657925119e+17
19646.0	7.554860132073471e+17
19647.0	7.553841468451496e+17
19648.0	7.552816731477331e+17
19649.0	7.554151981165225e+17
19650.0	7.55357539438865e+17
19651.0	7.552524121451177e+17
19652.0	7.551467641984339e+17
19653.0	7.550405479235583e+17
19654.0	7.549339264789161e+17
19655.0	7.548266300309503e+17
19656.0	7.547189254772051e+17
19657.0	7.546110896417449e+17
19658.0	7.54502763492147e+17
19659.0	7.543939284336637e+17
19660.0	7.542847473451007e+17
19661.0	7.541750625206271e+17
19662.0	7.540649293250557e+17
19663.0	7.539530320052221e+17
19664.0	7.538426650471081e+17
19665.0	7.537320412577791e+17
19666.0	7.536434237232467e+17
