# Flux units: erg / (cm m2 s)
# Wavelength units: Angstrom
wave	flux
19000.0	5.6392105412526086e+17
19001.0	5.6381216370196474e+17
19002.0	5.6371062044098554e+17
19003.0	5.6360534571745274e+17
19004.0	5.635000462475264e+17
19005.0	5.633946742161407e+17
19006.0	5.632897948057598e+17
19007.0	5.631838229889024e+17
19008.0	5.6307688123924474e+17
19009.0	5.629733702205438e+17
19010.0	5.628494502778195e+17
19011.0	5.627629027022164e+17
19012.0	5.626544170292564e+17
19013.0	5.6255335471513594e+17
19014.0	5.624462324006911e+17
19015.0	5.623418890223616e+17
19016.0	5.6223632635985914e+17
19017.0	5.6213207504650234e+17
19018.0	5.620277356527614e+17
19019.0	5.6192299849919136e+17
19020.0	5.618166972197545e+17
19021.0	5.6171255936232096e+17
19022.0	5.6160805674024954e+17
19023.0	5.615017755934719e+17
19024.0	5.6139752847441914e+17
19025.0	5.6129358537250125e+17
19026.0	5.611874987715241e+17
19027.0	5.610823210762239e+17
19028.0	5.609786968113151e+17
19029.0	5.6087319370792954e+17
19030.0	5.6076946668257274e+17
19031.0	5.606646325706751e+17
19032.0	5.6055969527889914e+17
19033.0	5.6045170600181754e+17
19034.0	5.6034974414929914e+17
19035.0	5.602441974251519e+17
19036.0	5.6001725013688294e+17
19037.0	5.600356268507135e+17
19038.0	5.5993041776803834e+17
19039.0	5.5982663055441914e+17
19040.0	5.5972195351920634e+17
19041.0	5.5961698819549856e+17
19042.0	5.595092393219411e+17
19043.0	5.5940803733749754e+17
19044.0	5.5930297211944954e+17
19045.0	5.591988374077439e+17
19046.0	5.590923712921599e+17
19047.0	5.589896618049534e+17
19048.0	5.588766601248767e+17
19049.0	5.5877814018812576e+17
19050.0	5.586743159248211e+17
19051.0	5.585504164642814e+17
19052.0	5.5846609145036794e+17
19053.0	5.583625055633407e+17
19054.0	5.5825833897492474e+17
19055.0	5.5814450668284576e+17
19056.0	5.5804839791165434e+17
19057.0	5.5794485075203386e+17
19058.0	5.578403621808811e+17
19059.0	5.577362772415828e+17
19060.0	5.576311877664767e+17
19061.0	5.575278435412649e+17
19062.0	5.574233797165056e+17
19063.0	5.5731922983540045e+17
19064.0	5.57210141790481e+17
19065.0	5.571042956629332e+17
19066.0	5.570043423227903e+17
19067.0	5.569018952592041e+17
19068.0	5.567981969648299e+17
19069.0	5.5669410964875936e+17
19070.0	5.565888220626943e+17
19071.0	5.564856267352745e+17
19072.0	5.5638176304551245e+17
19073.0	5.56277482861363e+17
19074.0	5.561736292379305e+17
19075.0	5.560695929525589e+17
19076.0	5.5596470522347514e+17
19077.0	5.5586119287657805e+17
19078.0	5.5575612549147296e+17
19079.0	5.556536102005418e+17
19080.0	5.555492032785066e+17
19081.0	5.554440166353577e+17
19082.0	5.553398851392852e+17
19083.0	5.552342872446292e+17
19084.0	5.551255985673557e+17
19085.0	5.550297972386474e+17
19086.0	5.5491276210612896e+17
19087.0	5.5481916935809696e+17
19088.0	5.547162754613247e+17
19089.0	5.5460655820090016e+17
19090.0	5.545101622596949e+17
19091.0	5.5440682859014816e+17
19092.0	5.543012048306175e+17
19093.0	5.5420017509225805e+17
19094.0	5.5409619948448403e+17
19095.0	5.539924672861524e+17
19096.0	5.538884458905598e+17
19097.0	5.5378557792856723e+17
19098.0	5.536820077002751e+17
19099.0	5.53578404127266e+17
19100.0	5.5347444340927136e+17
19101.0	5.533713390283434e+17
19102.0	5.5326387257125536e+17
19103.0	5.5316418780637856e+17
19104.0	5.530608415539199e+17
19105.0	5.5295738205525325e+17
19106.0	5.528533039666517e+17
19107.0	5.5274980364342605e+17
19108.0	5.52647127081506e+17
19109.0	5.525334002761726e+17
19110.0	5.5244035956845216e+17
19111.0	5.523370509948244e+17
19112.0	5.5223372990818976e+17
19113.0	5.5213033227550714e+17
19114.0	5.520271214990677e+17
19115.0	5.519220432786773e+17
19116.0	5.5181981991130445e+17
19117.0	5.517169223095637e+17
19118.0	5.5161089254140576e+17
19119.0	5.513520832228008e+17
19120.0	5.514063654857385e+17
19121.0	5.5130403159845536e+17
19122.0	5.512015867019264e+17
19123.0	5.5109837047289165e+17
19124.0	5.509947614472873e+17
19125.0	5.508922776835411e+17
19126.0	5.5078900140605434e+17
19127.0	5.5062151138290336e+17
19128.0	5.505777046039209e+17
19129.0	5.5047693540174496e+17
19130.0	5.503767695501994e+17
19131.0	5.502742032285696e+17
19132.0	5.501712166376788e+17
19133.0	5.500573147900586e+17
19134.0	5.4996224459844256e+17
19135.0	5.498624757377705e+17
19136.0	5.4975984202765645e+17
19137.0	5.496509007134719e+17
19138.0	5.49553331835153e+17
19139.0	5.4945137193997645e+17
19140.0	5.493486092550143e+17
19141.0	5.4924584971578016e+17
19142.0	5.4914217204340045e+17
19143.0	5.490380262167892e+17
19144.0	5.489364645008724e+17
19145.0	5.4883499352173216e+17
19146.0	5.487104154927103e+17
19147.0	5.486261550011732e+17
19148.0	5.4852698557644794e+17
19149.0	5.4842414683477325e+17
19150.0	5.4832147754298016e+17
19151.0	5.4821905501607245e+17
19152.0	5.481164673034922e+17
19153.0	5.480133238456319e+17
19154.0	5.479069165202089e+17
19155.0	5.478091700830207e+17
19156.0	5.4770658866189645e+17
19157.0	5.4760410622634656e+17
19158.0	5.47494614409762e+17
19159.0	5.473985487699967e+17
19160.0	5.472962492061013e+17
19161.0	5.4719396012796576e+17
19162.0	5.470758176292864e+17
19163.0	5.46989793223202e+17
19164.0	5.468875081995604e+17
19165.0	5.467845300671828e+17
19166.0	5.466783611180373e+17
19167.0	5.4657910137596576e+17
19168.0	5.4647573184512e+17
19169.0	5.463744749851989e+17
19170.0	5.46273822314769e+17
19171.0	5.4617063838187514e+17
19172.0	5.4606946750518605e+17
19173.0	5.4596725721006074e+17
19174.0	5.45862983946513e+17
19175.0	5.457629140047189e+17
19176.0	5.4566064771563514e+17
19177.0	5.4555320733313696e+17
19178.0	5.454564806710613e+17
19179.0	5.453530406060031e+17
19180.0	5.452513678109354e+17
19181.0	5.4514586065305594e+17
19182.0	5.4504729849364474e+17
19183.0	5.449463707467775e+17
19184.0	5.448421485838335e+17
19185.0	5.447419331695957e+17
19186.0	5.446404269583018e+17
19187.0	5.445358930187604e+17
19188.0	5.444364991987711e+17
19189.0	5.4433455670995616e+17
19190.0	5.442325551513599e+17
19191.0	5.4412969725569696e+17
19192.0	5.440291153990996e+17
19193.0	5.4392673893963085e+17
19194.0	5.4382480763562656e+17
19195.0	5.437235927187455e+17
19196.0	5.436211035723092e+17
19197.0	5.435196518170623e+17
19198.0	5.4341818622061216e+17
19199.0	5.432190463989076e+17
19200.0	5.43154789941248e+17
19201.0	5.4311299775638176e+17
19202.0	5.43011344954163e+17
19203.0	5.429094284001279e+17
19204.0	5.4280696511856634e+17
19205.0	5.427058751919445e+17
19206.0	5.4260420106868045e+17
19207.0	5.4249978659689805e+17
19208.0	5.4239248266909005e+17
19209.0	5.4229928076028576e+17
19210.0	5.4219760090480634e+17
19211.0	5.4209651139761485e+17
19212.0	5.4199499931429536e+17
19213.0	5.418895315828735e+17
19214.0	5.4178772002624845e+17
19215.0	5.4169001888754336e+17
19216.0	5.41588394816307e+17
19217.0	5.414870429554004e+17
19218.0	5.4135545785221114e+17
19219.0	5.412786719599273e+17
19220.0	5.4118190083822925e+17
19221.0	5.4106892537255245e+17
19222.0	5.409798651991379e+17
19223.0	5.408775030003028e+17
19224.0	5.407746945974271e+17
19225.0	5.406697502452394e+17
19226.0	5.4057316674874016e+17
19227.0	5.4047167731466234e+17
19228.0	5.4037131908437325e+17
19229.0	5.4026990689539405e+17
19230.0	5.401683209923241e+17
19231.0	5.400666103087103e+17
19232.0	5.3996504314019834e+17
19233.0	5.3986173785210874e+17
19234.0	5.397620344225791e+17
19235.0	5.396605270928041e+17
19236.0	5.395603078337877e+17
19237.0	5.3945838065418234e+17
19238.0	5.393542360858623e+17
19239.0	5.392564070907903e+17
19240.0	5.3914995817185274e+17
19241.0	5.390516845805567e+17
19242.0	5.389517886324734e+17
19243.0	5.388449506918399e+17
19244.0	5.387497839613268e+17
19245.0	5.3864832102126925e+17
19246.0	5.385466091492692e+17
19247.0	5.384457619330389e+17
19248.0	5.3834471562717856e+17
19249.0	5.382433721548799e+17
19250.0	5.3814134969466874e+17
19251.0	5.380378224579925e+17
19252.0	5.379275597982377e+17
19253.0	5.378373654151168e+17
19254.0	5.377362516508671e+17
19255.0	5.3762806880665594e+17
19256.0	5.375339609281877e+17
19257.0	5.3743315719290874e+17
19258.0	5.3733182057130656e+17
19259.0	5.3722768390225914e+17
19260.0	5.371266894659583e+17
19261.0	5.3702747551170554e+17
19262.0	5.3692444313299616e+17
19263.0	5.368234047963135e+17
19264.0	5.367044270019924e+17
19265.0	5.366150882568874e+17
19266.0	5.365139549891241e+17
19267.0	5.3642038950406816e+17
19268.0	5.363193531247273e+17
19269.0	5.3621811716642125e+17
19270.0	5.361168480731135e+17
19271.0	5.360030744313856e+17
19272.0	5.35912771625506e+17
19273.0	5.356689650526887e+17
19274.0	5.3563886435041254e+17
19275.0	5.3560977852989434e+17
19276.0	5.35507574666035e+17
19277.0	5.354062614626304e+17
19278.0	5.353049174310911e+17
19279.0	5.352025944489983e+17
19280.0	5.350986491101182e+17
19281.0	5.350000844341247e+17
19282.0	5.3489915228323834e+17
19283.0	5.347960440575317e+17
19284.0	5.3469336721599136e+17
19285.0	5.3458666174545914e+17
19286.0	5.34491291591202e+17
19287.0	5.343908343054335e+17
19288.0	5.342627896142506e+17
19289.0	5.3409871564199226e+17
19290.0	5.340855317561343e+17
19291.0	5.339741558581931e+17
19292.0	5.3388180406490445e+17
19293.0	5.337795734274047e+17
19294.0	5.3367750133459616e+17
19295.0	5.3357592249193805e+17
19296.0	5.3347363600029005e+17
19297.0	5.333710961726804e+17
19298.0	5.3326860604757325e+17
19299.0	5.331674711719935e+17
19300.0	5.33065107575057e+17
19301.0	5.329626045175125e+17
19302.0	5.328602923007998e+17
19303.0	5.3275470412294816e+17
19304.0	5.3265383111174816e+17
19305.0	5.325523534916266e+17
19306.0	5.3245004770618016e+17
19307.0	5.32345706844433e+17
19308.0	5.32244026429713e+17
19309.0	5.321385690442409e+17
19310.0	5.3203382965370874e+17
19311.0	5.3193488965741216e+17
19312.0	5.31832700543522e+17
19313.0	5.3172898351458976e+17
19314.0	5.315240662488401e+17
19315.0	5.3143145734471686e+17
19316.0	5.3142017928069114e+17
19317.0	5.3131636005055136e+17
19318.0	5.3121260478354765e+17
19319.0	5.31109624623923e+17
19320.0	5.310054595734185e+17
19321.0	5.3090183600756045e+17
19322.0	5.307939448771925e+17
19323.0	5.3069176275380896e+17
19324.0	5.3058922432430074e+17
19325.0	5.3048172682936314e+17
19326.0	5.303801449807871e+17
19327.0	5.302747630927871e+17
19328.0	5.301423568846848e+17
19329.0	5.299861639397375e+17
19330.0	5.298793255796735e+17
19331.0	5.2977383631749114e+17
19332.0	5.296698747606356e+17
19333.0	5.295636000451241e+17
19334.0	5.294577140716885e+17
19335.0	5.2935194197360634e+17
19336.0	5.292454318877354e+17
19337.0	5.291386376377685e+17
19338.0	5.290242233161044e+17
19339.0	5.2892473820009805e+17
19340.0	5.288136303181824e+17
19341.0	5.287095879510698e+17
19342.0	5.285872907146579e+17
19343.0	5.2849379925906765e+17
19344.0	5.2838528394635936e+17
19345.0	5.281917840654333e+17
19346.0	5.281484399181824e+17
19347.0	5.280557063034196e+17
19348.0	5.279486069877417e+17
19349.0	5.278370605913427e+17
19350.0	5.277269780070398e+17
19351.0	5.2761543580494496e+17
19352.0	5.2750309640546976e+17
19353.0	5.273941121695743e+17
19354.0	5.2728194949010765e+17
19355.0	5.2716573776936954e+17
19356.0	5.2705609153249274e+17
19357.0	5.2694244833361914e+17
19358.0	5.268273780228094e+17
19359.0	5.267059116780202e+17
19360.0	5.2659691730589e+17
19361.0	5.264806603565739e+17
19362.0	5.263659097915391e+17
19363.0	5.2624861496169805e+17
19364.0	5.2613043107921914e+17
19365.0	5.260120261569195e+17
19366.0	5.2589257978893645e+17
19367.0	5.257723745315498e+17
19368.0	5.256513347474773e+17
19369.0	5.255260836724735e+17
19370.0	5.253898668692819e+17
19371.0	5.2528049493988685e+17
19372.0	5.251576714581332e+17
19373.0	5.2503074329067514e+17
19374.0	5.249043360557738e+17
19375.0	5.2477617455322445e+17
19376.0	5.2464672665763834e+17
19377.0	5.245154319400959e+17
19378.0	5.243833489031167e+17
19379.0	5.2424970006254925e+17
19380.0	5.241145298780159e+17
19381.0	5.239284882385578e+17
19382.0	5.237304239063039e+17
19383.0	5.2358895912004256e+17
19384.0	5.2345032590841165e+17
19385.0	5.233056493338623e+17
19386.0	5.2315905638181536e+17
19387.0	5.230100422677844e+17
19388.0	5.228586362120875e+17
19389.0	5.2269760513747616e+17
19390.0	5.2252860698241696e+17
19391.0	5.222565364629501e+17
19392.0	5.222065363047766e+17
19393.0	5.220410560522922e+17
19394.0	5.218716964181332e+17
19395.0	5.216051862175743e+17
19396.0	5.2138715797695136e+17
19397.0	5.2120624366441805e+17
19398.0	5.2102035826278394e+17
19399.0	5.208033955850921e+17
19400.0	5.206342256732841e+17
19401.0	5.2043551115400525e+17
19402.0	5.201271959060479e+17
19403.0	5.198491208209749e+17
19404.0	5.196301569010346e+17
19405.0	5.194028704333823e+17
19406.0	5.191462674584918e+17
19407.0	5.187255962435583e+17
19408.0	5.184444934302377e+17
19409.0	5.182093631946751e+17
19410.0	5.177236870485335e+17
19411.0	5.174154251381417e+17
19412.0	5.169949601431552e+17
19413.0	5.1652856248620365e+17
19414.0	5.160326832761515e+17
19415.0	5.155349291423062e+17
19416.0	5.1482755320163e+17
19417.0	5.1418151623065626e+17
19418.0	5.1341207186090624e+17
19419.0	5.1259458782057824e+17
19420.0	5.119685467045887e+17
19421.0	5.114541067905707e+17
19422.0	5.109090780271957e+17
19423.0	5.1033987518300154e+17
19424.0	5.0972691735947936e+17
19425.0	5.090186299266388e+17
19426.0	5.0833305297223654e+17
19427.0	5.076044556708522e+17
19428.0	5.06836797235746e+17
19429.0	5.0597365547007994e+17
19430.0	5.050253398332757e+17
19431.0	5.040658806996991e+17
19432.0	5.0294391766166176e+17
19433.0	5.017499047996074e+17
19434.0	5.003750373239464e+17
19435.0	4.987310287006379e+17
19436.0	4.966974647959553e+17
19437.0	4.94041341886463e+17
19438.0	4.8998109811834835e+17
19439.0	4.869802318015147e+17
19440.0	4.843877220133547e+17
19441.0	4.815402620857001e+17
19442.0	4.783978685573803e+17
19443.0	4.74840840675874e+17
19444.0	4.704370006425594e+17
19445.0	4.6384648384675885e+17
19446.0	4.5476664399189395e+17
19447.0	4.46809750599543e+17
19448.0	4.351584879596888e+17
19449.0	4.162181126597292e+17
19450.0	3.7443722899619757e+17
19451.0	3.625108539878049e+17
19452.0	3.975934535270411e+17
19453.0	4.268693153731934e+17
19454.0	4.415449211775652e+17
19455.0	4.5049191162620563e+17
19456.0	4.584791050201773e+17
19457.0	4.667094404694015e+17
19458.0	4.7145084214313005e+17
19459.0	4.753781659009026e+17
19460.0	4.785541079192916e+17
19461.0	4.8132024050210125e+17
19462.0	4.838753219990869e+17
19463.0	4.8627965580629344e+17
19464.0	4.900597643870207e+17
19465.0	4.9303721404443264e+17
19466.0	4.95148326785297e+17
19467.0	4.967371821285378e+17
19468.0	4.98061390520866e+17
19469.0	4.9914967175987194e+17
19470.0	5.001012028200276e+17
19471.0	5.00962193117457e+17
19472.0	5.016840948416511e+17
19473.0	5.0243913715985056e+17
19474.0	5.030435435664726e+17
19475.0	5.0356932634651296e+17
19476.0	5.0411042504703994e+17
19477.0	5.046040094135636e+17
19478.0	5.0508861475389434e+17
19479.0	5.054776142200832e+17
19480.0	5.058423532027903e+17
19481.0	5.0617839084284576e+17
19482.0	5.0650097112842246e+17
19483.0	5.070222651643221e+17
19484.0	5.0767993077323085e+17
19485.0	5.082330938998783e+17
19486.0	5.086428577573541e+17
19487.0	5.089844974496425e+17
19488.0	5.093993356460032e+17
19489.0	5.095653360620883e+17
19490.0	5.098713545091752e+17
19491.0	5.10042792071441e+17
19492.0	5.102240560491176e+17
19493.0	5.1043467218561696e+17
19494.0	5.1049840449508685e+17
19495.0	5.105674463739905e+17
19496.0	5.107782921486336e+17
19497.0	5.108289348741803e+17
19498.0	5.108567192720725e+17
19499.0	5.106933361016829e+17
19500.0	5.1095892222716576e+17
19501.0	5.110707915150676e+17
19502.0	5.1107503076802554e+17
19503.0	5.110749025621334e+17
19504.0	5.1106915944147616e+17
19505.0	5.110593834276181e+17
19506.0	5.1104593620937376e+17
19507.0	5.110273436286975e+17
19508.0	5.111024774545406e+17
19509.0	5.1110968774273696e+17
19510.0	5.1107363525317965e+17
19511.0	5.108396156693161e+17
19512.0	5.1099417458332986e+17
19513.0	5.109134106034174e+17
19514.0	5.1090352644642125e+17
19515.0	5.108753973466453e+17
19516.0	5.1084968877970765e+17
19517.0	5.1080034733697696e+17
19518.0	5.107575611020628e+17
19519.0	5.1072154531266554e+17
19520.0	5.1066772274544634e+17
19521.0	5.106144234176511e+17
19522.0	5.105568496746494e+17
19523.0	5.105006889227605e+17
19524.0	5.105161280159745e+17
19525.0	5.1047839738538656e+17
19526.0	5.1041721437388794e+17
19527.0	5.1035369282819405e+17
19528.0	5.1028892452563616e+17
19529.0	5.102231284088832e+17
19530.0	5.1015685120546125e+17
19531.0	5.100890095266475e+17
19532.0	5.100201933712041e+17
19533.0	5.099504497852414e+17
19534.0	5.098797731763541e+17
19535.0	5.0980765128021325e+17
19536.0	5.0973455511715834e+17
19537.0	5.096630337055402e+17
19538.0	5.095882429737641e+17
19539.0	5.09491800895215e+17
19540.0	5.094385618255871e+17
19541.0	5.09363758440994e+17
19542.0	5.092871403208703e+17
19543.0	5.092102963374762e+17
19544.0	5.0913283180680525e+17
19545.0	5.090424089739262e+17
19546.0	5.08938450702609e+17
19547.0	5.088972852166655e+17
19548.0	5.0881793457739085e+17
19549.0	5.0873429714971296e+17
19550.0	5.0865762114819405e+17
19551.0	5.0857694776524794e+17
19552.0	5.084957672909481e+17
19553.0	5.084135973104298e+17
19554.0	5.0833081635962874e+17
19555.0	5.082496667833685e+17
19556.0	5.0816769638181536e+17
19557.0	5.0808467502749005e+17
19558.0	5.080016073261055e+17
19559.0	5.0791780876724896e+17
19560.0	5.0783350605305165e+17
19561.0	5.077494841475071e+17
19562.0	5.07666347589632e+17
19563.0	5.0758182034036045e+17
19564.0	5.0749716998826656e+17
19565.0	5.0741224441992525e+17
19566.0	5.073259309563903e+17
19567.0	5.072416792029866e+17
19568.0	5.071551855241898e+17
19569.0	5.070695990733483e+17
19570.0	5.0698452705389216e+17
19571.0	5.0689838996084045e+17
19572.0	5.068107475320832e+17
19573.0	5.0672518065466016e+17
19574.0	5.0663540514269856e+17
19575.0	5.065523635159039e+17
19576.0	5.064653268145493e+17
19577.0	5.0637596332305056e+17
19578.0	5.0628977093509114e+17
19579.0	5.062028934075732e+17
19580.0	5.061157081579519e+17
19581.0	5.0602838491572896e+17
19582.0	5.0594145216320845e+17
19583.0	5.0585370089226234e+17
19584.0	5.0576583057298765e+17
19585.0	5.0567367535274656e+17
19586.0	5.0558460567224314e+17
19587.0	5.0550079690724685e+17
19588.0	5.0539568107793056e+17
19589.0	5.053242471175509e+17
19590.0	5.052331790609066e+17
19591.0	5.051479058546688e+17
19592.0	5.0505953082081274e+17
19593.0	5.0497018892997965e+17
19594.0	5.0487283256306336e+17
19595.0	5.047926912974847e+17
19596.0	5.046904261967871e+17
19597.0	5.0461507657400314e+17
19598.0	5.0451361622043296e+17
19599.0	5.0443741683165843e+17
19600.0	5.0434866514930336e+17
19601.0	5.0425702037585914e+17
19602.0	5.041688191959039e+17
19603.0	5.0406467294986214e+17
19604.0	5.0399027823028896e+17
19605.0	5.038911418706602e+17
19606.0	5.038126846880426e+17
19607.0	5.037236881282389e+17
19608.0	5.036335909830655e+17
19609.0	5.0354264637876896e+17
19610.0	5.0345519451122336e+17
19611.0	5.033651874037759e+17
19612.0	5.032760277554517e+17
19613.0	5.0318589384021325e+17
19614.0	5.030952151547903e+17
19615.0	5.0300702788594336e+17
19616.0	5.029163436780202e+17
19617.0	5.0282734893574816e+17
19618.0	5.027187460319913e+17
19619.0	5.026206502791849e+17
19620.0	5.0253357170469536e+17
19621.0	5.0246831294818976e+17
19622.0	5.023784531307177e+17
19623.0	5.0228856940571296e+17
19624.0	5.021983067253417e+17
19625.0	5.0210872464069965e+17
19626.0	5.020188040058196e+17
19627.0	5.019288496067925e+17
19628.0	5.018366453830996e+17
19629.0	5.0174569693402445e+17
19630.0	5.016579982316885e+17
19631.0	5.0146170725116563e+17
19632.0	5.014787731750911e+17
19633.0	5.01387450524194e+17
19634.0	5.012987813997225e+17
19635.0	5.0120732397185696e+17
19636.0	5.011184187779754e+17
19637.0	5.010151678061226e+17
19638.0	5.00938221621521e+17
19639.0	5.008481493625514e+17
19640.0	5.007561576502612e+17
19641.0	5.006367190417408e+17
19642.0	5.0057782311430816e+17
19643.0	5.0048735659076256e+17
19644.0	5.0039570056260256e+17
19645.0	5.002976817752745e+17
19646.0	5.0021778112293536e+17
19647.0	5.0012767146475514e+17
19648.0	5.0003755866084685e+17
19649.0	4.999471640696149e+17
19650.0	4.998573320044543e+17
19651.0	4.997669544700585e+17
19652.0	4.9967681153706656e+17
19653.0	4.9958692459642874e+17
19654.0	4.99496560763426e+17
19655.0	4.9940635589454496e+17
