# Flux units: erg / (cm m2 s)
# Wavelength units: Angstrom
wave	flux
19000.0	3.797661487114921e+17
19001.0	3.796824696203946e+17
19002.0	3.7962697366568954e+17
19003.0	3.7955682490996045e+17
19004.0	3.794854830844587e+17
19005.0	3.7941483688427514e+17
19006.0	3.793293566891348e+17
19007.0	3.792781062089387e+17
19008.0	3.791984456105984e+17
19009.0	3.7912112795047245e+17
19010.0	3.789910897765033e+17
19011.0	3.7899276896610976e+17
19012.0	3.78910960324881e+17
19013.0	3.7885848357000525e+17
19014.0	3.787822410498047e+17
19015.0	3.787109102693034e+17
19016.0	3.7863819711610886e+17
19017.0	3.78580390449425e+17
19018.0	3.7850889839793485e+17
19019.0	3.78436665212928e+17
19020.0	3.783693316041386e+17
19021.0	3.7830165553042765e+17
19022.0	3.782315810138795e+17
19023.0	3.7815804179251194e+17
19024.0	3.780878143935829e+17
19025.0	3.780228588153514e+17
19026.0	3.7794991203942394e+17
19027.0	3.7787823236273485e+17
19028.0	3.778154344043861e+17
19029.0	3.7774346182546765e+17
19030.0	3.776774959093076e+17
19031.0	3.776086279542101e+17
19032.0	3.775376199254015e+17
19033.0	3.7745646189062816e+17
19034.0	3.7739861831406925e+17
19035.0	3.773269503115264e+17
19036.0	3.7660985316256416e+17
19037.0	3.7719147624966816e+17
19038.0	3.7712030960626336e+17
19039.0	3.7705239229016736e+17
19040.0	3.769850480558079e+17
19041.0	3.769144764443306e+17
19042.0	3.7680836733392205e+17
19043.0	3.7677760246360736e+17
19044.0	3.767068123288917e+17
19045.0	3.7663879756513274e+17
19046.0	3.7656019400130554e+17
19047.0	3.7649775612395514e+17
19048.0	3.763924941930495e+17
19049.0	3.763028864532479e+17
19050.0	3.762853116903423e+17
19051.0	3.761353986670591e+17
19052.0	3.761400433694037e+17
19053.0	3.7608661639495674e+17
19054.0	3.760169694177961e+17
19055.0	3.7590530229534726e+17
19056.0	3.758723990989482e+17
19057.0	3.7580963895924045e+17
19058.0	3.757134047084544e+17
19059.0	3.756612993591978e+17
19060.0	3.7560012529554765e+17
19061.0	3.7553496468575565e+17
19062.0	3.754652371080532e+17
19063.0	3.753966830966101e+17
19064.0	3.75309336645905e+17
19065.0	3.7523625607167994e+17
19066.0	3.751733494109524e+17
19067.0	3.751199573890389e+17
19068.0	3.7505295785656314e+17
19069.0	3.7498423069026976e+17
19070.0	3.7491128181719034e+17
19071.0	3.748457600778238e+17
19072.0	3.747674528415744e+17
19073.0	3.7470852259075405e+17
19074.0	3.7464064141557754e+17
19075.0	3.7457195493403296e+17
19076.0	3.744939433263104e+17
19077.0	3.744314799336106e+17
19078.0	3.7435897202169165e+17
19079.0	3.742967672777387e+17
19080.0	3.742263970627584e+17
19081.0	3.741535033447765e+17
19082.0	3.740852077723648e+17
19083.0	3.740113745302868e+17
19084.0	3.739271643703978e+17
19085.0	3.73883639238929e+17
19086.0	3.737587417437525e+17
19087.0	3.737119113609215e+17
19088.0	3.7365807998566394e+17
19089.0	3.7358240264792736e+17
19090.0	3.735402535277908e+17
19091.0	3.734683962922325e+17
19092.0	3.7337933283327994e+17
19093.0	3.7333826374642336e+17
19094.0	3.7326953930642765e+17
19095.0	3.7320148050247674e+17
19096.0	3.731305364368042e+17
19097.0	3.730642992190806e+17
19098.0	3.7298463316814496e+17
19099.0	3.729144273698816e+17
19100.0	3.728547038363648e+17
19101.0	3.727902452831572e+17
19102.0	3.7270164473555616e+17
19103.0	3.7265413473566714e+17
19104.0	3.72586801266688e+17
19105.0	3.724946297585664e+17
19106.0	3.7244744530657274e+17
19107.0	3.7237331398929056e+17
19108.0	3.723055720650069e+17
19109.0	3.722110339907584e+17
19110.0	3.7217698756689914e+17
19111.0	3.7210289539645434e+17
19112.0	3.720245799114068e+17
19113.0	3.7197240290945696e+17
19114.0	3.7190032204759034e+17
19115.0	3.718202875270485e+17
19116.0	3.717618312325802e+17
19117.0	3.716981421244416e+17
19118.0	3.7161975100211194e+17
19119.0	3.695439061363342e+17
19120.0	3.7149085703427405e+17
19121.0	3.714253722047829e+17
19122.0	3.713611279805098e+17
19123.0	3.7129319109099514e+17
19124.0	3.712231339109034e+17
19125.0	3.711570747413845e+17
19126.0	3.7108946242109434e+17
19127.0	3.707328642329257e+17
19128.0	3.709509753809578e+17
19129.0	3.7087577486568096e+17
19130.0	3.7081528650082976e+17
19131.0	3.7074937098622285e+17
19132.0	3.7068155754905594e+17
19133.0	3.706046439402155e+17
19134.0	3.7054587251370656e+17
19135.0	3.704782727064233e+17
19136.0	3.7041113650954234e+17
19137.0	3.7031809992622074e+17
19138.0	3.702734591098879e+17
19139.0	3.7020798238938445e+17
19140.0	3.7014048205701114e+17
19141.0	3.700727420201642e+17
19142.0	3.7000137432978765e+17
19143.0	3.6992825425919994e+17
19144.0	3.698643624962731e+17
19145.0	3.698017342674261e+17
19146.0	3.696477892597078e+17
19147.0	3.696387568260437e+17
19148.0	3.6958894240563194e+17
19149.0	3.6952037532194125e+17
19150.0	3.694632154868395e+17
19151.0	3.6939616939758925e+17
19152.0	3.6932830472000845e+17
19153.0	3.6924175085294925e+17
19154.0	3.6917243089169056e+17
19155.0	3.6912702489449805e+17
19156.0	3.6905947444019194e+17
19157.0	3.689851629775531e+17
19158.0	3.688889444554068e+17
19159.0	3.6884919196057594e+17
19160.0	3.6878790534976845e+17
19161.0	3.687222402351104e+17
19162.0	3.686011373267627e+17
19163.0	3.6858693492408314e+17
19164.0	3.685200696792404e+17
19165.0	3.684305874889386e+17
19166.0	3.6836266695720954e+17
19167.0	3.6830512397243725e+17
19168.0	3.682499983747755e+17
19169.0	3.6818182933053434e+17
19170.0	3.6811678210676045e+17
19171.0	3.680461042395818e+17
19172.0	3.6798226902985376e+17
19173.0	3.6791510466123085e+17
19174.0	3.6782956630507514e+17
19175.0	3.677674977361919e+17
19176.0	3.677006893940736e+17
19177.0	3.6761192953282554e+17
19178.0	3.6755655912762016e+17
19179.0	3.6748383150407674e+17
19180.0	3.6743162220598605e+17
19181.0	3.6733813466507936e+17
19182.0	3.672925207702185e+17
19183.0	3.672315888577195e+17
19184.0	3.6716020257259514e+17
19185.0	3.6709619001371296e+17
19186.0	3.670302363309397e+17
19187.0	3.669555094224895e+17
19188.0	3.668939630444544e+17
19189.0	3.668300322045951e+17
19190.0	3.6676288552195405e+17
19191.0	3.6668930799261e+17
19192.0	3.666290220029268e+17
19193.0	3.665590680027136e+17
19194.0	3.664892387131392e+17
19195.0	3.6642831309209594e+17
19196.0	3.663591348284074e+17
19197.0	3.6629367817065805e+17
19198.0	3.662282657628159e+17
19199.0	3.658328292283732e+17
19200.0	3.658722060533761e+17
19201.0	3.6602674168900256e+17
19202.0	3.6596108985630714e+17
19203.0	3.658934449602559e+17
19204.0	3.6582365341941754e+17
19205.0	3.657594194012842e+17
19206.0	3.6569146713265485e+17
19207.0	3.656098915549183e+17
19208.0	3.6552042795936416e+17
19209.0	3.6549227285490336e+17
19210.0	3.654260259203754e+17
19211.0	3.653601826876074e+17
19212.0	3.652939045055146e+17
19213.0	3.652150815795882e+17
19214.0	3.6514222148594336e+17
19215.0	3.650936964644864e+17
19216.0	3.650283487188308e+17
19217.0	3.649610793527978e+17
19218.0	3.647709654635858e+17
19219.0	3.648108542033919e+17
19220.0	3.647590112777557e+17
19221.0	3.646464216880469e+17
19222.0	3.6462832871888205e+17
19223.0	3.64560053768465e+17
19224.0	3.6449067802296314e+17
19225.0	3.644059725157716e+17
19226.0	3.6436058217731405e+17
19227.0	3.642946940654933e+17
19228.0	3.6423113714783565e+17
19229.0	3.641647058037418e+17
19230.0	3.640971796064938e+17
19231.0	3.64030479896849e+17
19232.0	3.6396478374434125e+17
19233.0	3.6389019832374605e+17
19234.0	3.63829614748194e+17
19235.0	3.637628240920576e+17
19236.0	3.6370087191511034e+17
19237.0	3.6363161598689274e+17
19238.0	3.6355403555362125e+17
19239.0	3.6350222499403085e+17
19240.0	3.634341921248597e+17
19241.0	3.633666048305834e+17
19242.0	3.6330135809774925e+17
19243.0	3.632172353191935e+17
19244.0	3.631712897247914e+17
19245.0	3.63103519838481e+17
19246.0	3.630369155492521e+17
19247.0	3.629720718191274e+17
19248.0	3.629073116255572e+17
19249.0	3.6284035655270394e+17
19250.0	3.6276894594061645e+17
19251.0	3.626882878668799e+17
19252.0	3.6260911268932256e+17
19253.0	3.625727398947498e+17
19254.0	3.62511075447057e+17
19255.0	3.6242163715713696e+17
19256.0	3.62372720038161e+17
19257.0	3.623131393906005e+17
19258.0	3.6224744491581434e+17
19259.0	3.6217255904324256e+17
19260.0	3.620983351716522e+17
19261.0	3.620479953447595e+17
19262.0	3.619761683780949e+17
19263.0	3.6190766637602125e+17
19264.0	3.617615695402324e+17
19265.0	3.61750608285969e+17
19266.0	3.616581609324544e+17
19267.0	3.6165442436683085e+17
19268.0	3.61587723538705e+17
19269.0	3.6152236195184634e+17
19270.0	3.6145701231875405e+17
19271.0	3.613344444099243e+17
19272.0	3.613204135542784e+17
19273.0	3.611675006948692e+17
19274.0	3.611167283653289e+17
19275.0	3.611287287584085e+17
19276.0	3.6106012826009594e+17
19277.0	3.6099546600352416e+17
19278.0	3.609297701306367e+17
19279.0	3.6086273229018445e+17
19280.0	3.6078608229335034e+17
19281.0	3.607324412695893e+17
19282.0	3.606695016835754e+17
19283.0	3.6059894705902925e+17
19284.0	3.6053582159544314e+17
19285.0	3.6044737113402016e+17
19286.0	3.604021463307604e+17
19287.0	3.6034180273930234e+17
19288.0	3.6008781694020243e+17
19289.0	3.597882794617507e+17
19290.0	3.601455161627989e+17
19291.0	3.600465696653312e+17
19292.0	3.600146124941995e+17
19293.0	3.599481797520042e+17
19294.0	3.598823633627818e+17
19295.0	3.5981843161415674e+17
19296.0	3.597420340445184e+17
19297.0	3.5968216727551994e+17
19298.0	3.596181819796138e+17
19299.0	3.595450271662079e+17
19300.0	3.594888032900437e+17
19301.0	3.594254497961301e+17
19302.0	3.593585808463189e+17
19303.0	3.5928503624226125e+17
19304.0	3.5922567013335034e+17
19305.0	3.5916245561070925e+17
19306.0	3.590988034124458e+17
19307.0	3.590272125151914e+17
19308.0	3.589653171011584e+17
19309.0	3.5888997244163405e+17
19310.0	3.588202564681728e+17
19311.0	3.587681532859733e+17
19312.0	3.5870722340072096e+17
19313.0	3.5864398021700256e+17
19314.0	3.567290138230795e+17
19315.0	3.5673900836017664e+17
19316.0	3.584329793929215e+17
19317.0	3.583813650568533e+17
19318.0	3.5831658354223776e+17
19319.0	3.582532604570282e+17
19320.0	3.5818355420037114e+17
19321.0	3.581144657646933e+17
19322.0	3.580483739495082e+17
19323.0	3.579876668517034e+17
19324.0	3.579279372364458e+17
19325.0	3.5785180111175674e+17
19326.0	3.577990346003797e+17
19327.0	3.577310763199146e+17
19328.0	3.57648185757969e+17
19329.0	3.576043317231616e+17
19330.0	3.5753345273910605e+17
19331.0	3.5746797119515296e+17
19332.0	3.574090458376874e+17
19333.0	3.5734296373930656e+17
19334.0	3.572786391242069e+17
19335.0	3.571736777151829e+17
19336.0	3.5714884198290765e+17
19337.0	3.5708493288352416e+17
19338.0	3.5699014587733325e+17
19339.0	3.569553688756223e+17
19340.0	3.568448714047487e+17
19341.0	3.5679677420229965e+17
19342.0	3.566976365144745e+17
19343.0	3.56696445751569e+17
19344.0	3.5661638900121594e+17
19345.0	3.5623157726795034e+17
19346.0	3.563503435994451e+17
19347.0	3.5640858255906125e+17
19348.0	3.563734873494869e+17
19349.0	3.563044948934655e+17
19350.0	3.5623346072016205e+17
19351.0	3.56173994856721e+17
19352.0	3.560836347286868e+17
19353.0	3.5605032950824954e+17
19354.0	3.5598657112418976e+17
19355.0	3.559082108998997e+17
19356.0	3.5585726891076256e+17
19357.0	3.557929479307264e+17
19358.0	3.5572780731378336e+17
19359.0	3.556506182090752e+17
19360.0	3.5557775259293e+17
19361.0	3.5552913599583565e+17
19362.0	3.5547064607703034e+17
19363.0	3.5540587980171936e+17
19364.0	3.5534102432754336e+17
19365.0	3.552770886642346e+17
19366.0	3.552129577560746e+17
19367.0	3.551485905687893e+17
19368.0	3.550842172997631e+17
19369.0	3.550124968684202e+17
19370.0	3.549460365137237e+17
19371.0	3.5488382212287136e+17
19372.0	3.5482676085391354e+17
19373.0	3.5475986806647456e+17
19374.0	3.54697353433361e+17
19375.0	3.546332688722602e+17
19376.0	3.545696430282068e+17
19377.0	3.5450381370654714e+17
19378.0	3.5444009076435616e+17
19379.0	3.5437636684349434e+17
19380.0	3.5431217826365434e+17
19381.0	3.5424726994124794e+17
19382.0	3.541745882453333e+17
19383.0	3.541030789272917e+17
19384.0	3.5405244612826445e+17
19385.0	3.539907661616468e+17
19386.0	3.5392732801269754e+17
19387.0	3.5386315753826976e+17
19388.0	3.5379895057339725e+17
19389.0	3.537345770946559e+17
19390.0	3.536704697445034e+17
19391.0	3.53006909320942e+17
19392.0	3.5353080256703123e+17
19393.0	3.5347786975150074e+17
19394.0	3.5341233570884256e+17
19395.0	3.5334237464821754e+17
19396.0	3.532828196558165e+17
19397.0	3.532214034410154e+17
19398.0	3.5314806072279034e+17
19399.0	3.5295873438405965e+17
19400.0	3.5301261679001594e+17
19401.0	3.5296336657339725e+17
19402.0	3.5290052261751456e+17
19403.0	3.5283367806457165e+17
19404.0	3.527719918764031e+17
19405.0	3.5270577017760416e+17
19406.0	3.5264274880266234e+17
19407.0	3.525724270318933e+17
19408.0	3.523782776629932e+17
19409.0	3.524497126020437e+17
19410.0	3.5238726451855354e+17
19411.0	3.523229755550378e+17
19412.0	3.5225764374773754e+17
19413.0	3.521865827308885e+17
19414.0	3.521232522357418e+17
19415.0	3.5206269976794445e+17
19416.0	3.519766441142953e+17
19417.0	3.5192910202798074e+17
19418.0	3.5187102315096736e+17
19419.0	3.5180602538502816e+17
19420.0	3.5174200006847136e+17
19421.0	3.5167697046077434e+17
19422.0	3.5160544922391885e+17
19423.0	3.515450904980138e+17
19424.0	3.514805812985856e+17
19425.0	3.514154224364202e+17
19426.0	3.513495819998549e+17
19427.0	3.512811883855871e+17
19428.0	3.5121649558050125e+17
19429.0	3.511491948620458e+17
19430.0	3.510694693568512e+17
19431.0	3.5090425670096224e+17
19432.0	3.509454065281706e+17
19433.0	3.508748408935765e+17
19434.0	3.5080381329134925e+17
19435.0	3.5071675212322125e+17
19436.0	3.5060153417291085e+17
19437.0	3.5058132332489376e+17
19438.0	3.4912997432361005e+17
19439.0	3.5036517252464646e+17
19440.0	3.50319647199505e+17
19441.0	3.5022127311967565e+17
19442.0	3.501096580765013e+17
19443.0	3.4997828656824314e+17
19444.0	3.49815357116689e+17
19445.0	3.4959562354196474e+17
19446.0	3.4926472039410336e+17
19447.0	3.4868084010734925e+17
19448.0	3.474239293926059e+17
19449.0	3.3894119009594086e+17
19450.0	2.8284950567102925e+17
19451.0	2.491837960246605e+17
19452.0	3.0099003202164077e+17
19453.0	3.433948970833251e+17
19454.0	3.47476879684403e+17
19455.0	3.483516963651583e+17
19456.0	3.487152856891391e+17
19457.0	3.4888740755210234e+17
19458.0	3.41908168219043e+17
19459.0	3.486442928996375e+17
19460.0	3.4899120902635514e+17
19461.0	3.489742662052522e+17
19462.0	3.4894196101174605e+17
19463.0	3.489059402241365e+17
19464.0	3.488626487154005e+17
19465.0	3.4881837311808845e+17
19466.0	3.4875945807162016e+17
19467.0	3.487149219031722e+17
19468.0	3.4866082565761696e+17
19469.0	3.4853503523007136e+17
19470.0	3.485469248236202e+17
19471.0	3.4849154187045536e+17
19472.0	3.484258222997503e+17
19473.0	3.483642732653226e+17
19474.0	3.4829902495962445e+17
19475.0	3.480939975234899e+17
19476.0	3.481802869396821e+17
19477.0	3.481292290479445e+17
19478.0	3.480731110779562e+17
19479.0	3.4799694360084474e+17
19480.0	3.4794745598661965e+17
19481.0	3.4787654089659725e+17
19482.0	3.4782527398871034e+17
19483.0	3.477677565192875e+17
19484.0	3.4770426632601594e+17
19485.0	3.476341342426453e+17
19486.0	3.475587965037226e+17
19487.0	3.4751896159081805e+17
19488.0	3.4745944494134605e+17
19489.0	3.4737549972165965e+17
19490.0	3.4708507132777786e+17
19491.0	3.4726847887441914e+17
19492.0	3.4721193500781216e+17
19493.0	3.471499573504682e+17
19494.0	3.470869921792e+17
19495.0	3.4702480211531085e+17
19496.0	3.468832423630163e+17
19497.0	3.4689642680811514e+17
19498.0	3.467660367669931e+17
19499.0	3.4580308112179155e+17
19500.0	3.4671361516721485e+17
19501.0	3.4665669744831136e+17
19502.0	3.465963081738922e+17
19503.0	3.4653449654108154e+17
19504.0	3.4647235649426765e+17
19505.0	3.4640948247920634e+17
19506.0	3.463482572450474e+17
19507.0	3.4628138647770445e+17
19508.0	3.4622408721694714e+17
19509.0	3.461614192121173e+17
19510.0	3.460635777739434e+17
19511.0	3.431115052285938e+17
19512.0	3.4581950895226854e+17
19513.0	3.4559192087920595e+17
19514.0	3.456432167627432e+17
19515.0	3.4571041517513395e+17
19516.0	3.457204391422634e+17
19517.0	3.45650925019682e+17
19518.0	3.455976330668715e+17
19519.0	3.455342245576703e+17
19520.0	3.4545892893655034e+17
19521.0	3.454151686094847e+17
19522.0	3.4534659226337274e+17
19523.0	3.452867269274282e+17
19524.0	3.4521869706417485e+17
19525.0	3.4516480871628794e+17
19526.0	3.4510482670878714e+17
19527.0	3.4504033557981856e+17
19528.0	3.449779408688469e+17
19529.0	3.449151101949269e+17
19530.0	3.4485672408514554e+17
19531.0	3.447947103218346e+17
19532.0	3.4473271102887245e+17
19533.0	3.4467070757655885e+17
19534.0	3.4460820982551885e+17
19535.0	3.4454443434967034e+17
19536.0	3.444789141482154e+17
19537.0	3.444227749270869e+17
19538.0	3.44327064579823e+17
19539.0	3.442073175501484e+17
19540.0	3.4423318039756794e+17
19541.0	3.441718170659498e+17
19542.0	3.4411099773556045e+17
19543.0	3.4403638554132474e+17
19544.0	3.4398791854107296e+17
19545.0	3.438475804497236e+17
19546.0	3.437174510845952e+17
19547.0	3.4380433095393274e+17
19548.0	3.4374196997215565e+17
19549.0	3.4366784134621856e+17
19550.0	3.4361858697024845e+17
19551.0	3.4355731416569165e+17
19552.0	3.434954187167061e+17
19553.0	3.4342986331805005e+17
19554.0	3.433652330779989e+17
19555.0	3.4330674696901965e+17
19556.0	3.432477452053162e+17
19557.0	3.4318632553021434e+17
19558.0	3.4312473567122765e+17
19559.0	3.4306353759518714e+17
19560.0	3.4299372896255994e+17
19561.0	3.4293673162178554e+17
19562.0	3.428729946286762e+17
19563.0	3.4281747560529914e+17
19564.0	3.4275594415199565e+17
19565.0	3.426940330442752e+17
19566.0	3.4262819578839034e+17
19567.0	3.425711964553215e+17
19568.0	3.4250700305203194e+17
19569.0	3.424449778592426e+17
19570.0	3.42386744631842e+17
19571.0	3.423241844905301e+17
19572.0	3.4225959434103456e+17
19573.0	3.4219763160842234e+17
19574.0	3.421289925574655e+17
19575.0	3.420791570606762e+17
19576.0	3.4201689132455245e+17
19577.0	3.419500810949973e+17
19578.0	3.418878243067221e+17
19579.0	3.418292098520405e+17
19580.0	3.4176897758440096e+17
19581.0	3.417086850236416e+17
19582.0	3.416501383419221e+17
19583.0	3.415888530942634e+17
19584.0	3.4152647040696314e+17
19585.0	3.4145091655652685e+17
19586.0	3.41385569370112e+17
19587.0	3.4134166231231136e+17
19588.0	3.4120492712809824e+17
19589.0	3.4121833754132474e+17
19590.0	3.4113664074820256e+17
19591.0	3.4109757968438605e+17
19592.0	3.410366695822677e+17
19593.0	3.4097247925480096e+17
19594.0	3.408802703474687e+17
19595.0	3.408475593900031e+17
19596.0	3.4078213317591034e+17
19597.0	3.4072980703150074e+17
19598.0	3.405642730220201e+17
19599.0	3.406064806526975e+17
19600.0	3.4054654964094285e+17
19601.0	3.404753601385813e+17
19602.0	3.4041668315381754e+17
19603.0	3.402923567131305e+17
19604.0	3.4029583917383674e+17
19605.0	3.401984355510954e+17
19606.0	3.401791294494037e+17
19607.0	3.40119427027217e+17
19608.0	3.4005574487463245e+17
19609.0	3.3998936893030394e+17
19610.0	3.3992898346571085e+17
19611.0	3.3986352104079354e+17
19612.0	3.3981468127177376e+17
19613.0	3.3975239414469965e+17
19614.0	3.39687743492369e+17
19615.0	3.3963191325163514e+17
19616.0	3.395586819970389e+17
19617.0	3.3949606421899936e+17
19618.0	3.393527784407039e+17
19619.0	3.392642231216808e+17
19620.0	3.3921020440084474e+17
19621.0	3.3925281300698445e+17
19622.0	3.392063968815786e+17
19623.0	3.3914498269402445e+17
19624.0	3.3908184800296954e+17
19625.0	3.3902409757491194e+17
19626.0	3.3896244361297914e+17
19627.0	3.3890270005166074e+17
19628.0	3.388329024640341e+17
19629.0	3.3873358700762445e+17
19630.0	3.387022902646101e+17
19631.0	3.383037624582144e+17
19632.0	3.3859888574627834e+17
19633.0	3.3853243528314874e+17
19634.0	3.384779038086485e+17
19635.0	3.3841028222593696e+17
19636.0	3.3833991735869434e+17
19637.0	3.382394144598699e+17
19638.0	3.3823133378368845e+17
19639.0	3.3817322428825594e+17
19640.0	3.380878955424427e+17
19641.0	3.3779021610571136e+17
19642.0	3.3799141001789434e+17
19643.0	3.3793037530999456e+17
19644.0	3.3786309517858125e+17
19645.0	3.377654246932478e+17
19646.0	3.377342911086591e+17
19647.0	3.3769044221187405e+17
19648.0	3.3763039459846816e+17
19649.0	3.375693324178773e+17
19650.0	3.375098669738666e+17
19651.0	3.3744901845811194e+17
19652.0	3.3738830510380365e+17
19653.0	3.373287303282687e+17
