# Flux units: erg / (cm m2 s)
# Wavelength units: Angstrom
wave	flux
19000.0	5.5851264514894496e+17
19001.0	5.5840401987556685e+17
19002.0	5.583047761417556e+17
19003.0	5.5819996656653645e+17
19004.0	5.5809555048693754e+17
19005.0	5.5799265001908896e+17
19006.0	5.5788889244521805e+17
19007.0	5.577568864436224e+17
19008.0	5.57678075052032e+17
19009.0	5.575757889798142e+17
19010.0	5.57448338551603e+17
19011.0	5.573661935271935e+17
19012.0	5.5720025826263014e+17
19013.0	5.571612699000832e+17
19014.0	5.570552097232211e+17
19015.0	5.5695204445498016e+17
19016.0	5.568478149520042e+17
19017.0	5.567454405896873e+17
19018.0	5.566383367301802e+17
19019.0	5.5653863022482765e+17
19020.0	5.5643371537257805e+17
19021.0	5.563309347919189e+17
19022.0	5.5622754652651514e+17
19023.0	5.5612227390013434e+17
19024.0	5.5601927878082554e+17
19025.0	5.5591129306890234e+17
19026.0	5.558051627772586e+17
19027.0	5.556539049203028e+17
19028.0	5.556057459217749e+17
19029.0	5.5548584628933965e+17
19030.0	5.5537523997627725e+17
19031.0	5.5527203674958496e+17
19032.0	5.551681331440298e+17
19033.0	5.5506062621190816e+17
19034.0	5.5496063798913683e+17
19035.0	5.5484958603127456e+17
19036.0	5.510212547684996e+17
19037.0	5.5464854311403514e+17
19038.0	5.5454645011961165e+17
19039.0	5.544440578615977e+17
19040.0	5.5434082450582176e+17
19041.0	5.5423688343115085e+17
19042.0	5.5412840642641914e+17
19043.0	5.540308934721536e+17
19044.0	5.539265762383188e+17
19045.0	5.538219616283305e+17
19046.0	5.537180320180906e+17
19047.0	5.5361727791540896e+17
19048.0	5.535034600237737e+17
19049.0	5.5340568380702714e+17
19050.0	5.5330579876413434e+17
19051.0	5.526318888255478e+17
19052.0	5.5305925072431795e+17
19053.0	5.5299183994033485e+17
19054.0	5.528954207207423e+17
19055.0	5.527801353819477e+17
19056.0	5.526876938305536e+17
19057.0	5.5258541370026656e+17
19058.0	5.5247450644589216e+17
19059.0	5.5237920095382176e+17
19060.0	5.522752023472809e+17
19061.0	5.521739147990356e+17
19062.0	5.520809606337876e+17
19063.0	5.519809281611092e+17
19064.0	5.5187148905294496e+17
19065.0	5.517668346669738e+17
19066.0	5.5167619491867296e+17
19067.0	5.5173050975737165e+17
19068.0	5.516281394495487e+17
19069.0	5.515251425127083e+17
19070.0	5.514208828806484e+17
19071.0	5.513165760626688e+17
19072.0	5.512158031555242e+17
19073.0	5.5111343662257485e+17
19074.0	5.510108395427156e+17
19075.0	5.5090797968971085e+17
19076.0	5.5080406804507296e+17
19077.0	5.5070157085955405e+17
19078.0	5.505974626418687e+17
19079.0	5.504966957465598e+17
19080.0	5.5039333928796154e+17
19081.0	5.502891095752704e+17
19082.0	5.5018604559947085e+17
19083.0	5.5008120421744634e+17
19084.0	5.499724778613417e+17
19085.0	5.4987989964554234e+17
19086.0	5.497568904260266e+17
19087.0	5.495633512584532e+17
19088.0	5.4956621659723085e+17
19089.0	5.4940219085946854e+17
19090.0	5.493642024889002e+17
19091.0	5.4926255115468794e+17
19092.0	5.491311280914431e+17
19093.0	5.490586949779455e+17
19094.0	5.489560240084308e+17
19095.0	5.4885346237044045e+17
19096.0	5.4874889585513805e+17
19097.0	5.486487072844458e+17
19098.0	5.4854566085481805e+17
19099.0	5.484432028860415e+17
19100.0	5.4833555558454605e+17
19101.0	5.4823706654583456e+17
19102.0	5.481317359681534e+17
19103.0	5.4803421602338125e+17
19104.0	5.479324989085013e+17
19105.0	5.4782900466701645e+17
19106.0	5.4770694063390714e+17
19107.0	5.476244689431209e+17
19108.0	5.4752292638119245e+17
19109.0	5.4709915298911514e+17
19110.0	5.473132111811924e+17
19111.0	5.472152322397524e+17
19112.0	5.4711437621548365e+17
19113.0	5.470125926907903e+17
19114.0	5.469100233632426e+17
19115.0	5.467979421231786e+17
19116.0	5.467054394048511e+17
19117.0	5.4660358254974285e+17
19118.0	5.464788277308074e+17
19119.0	5.4617393573396435e+17
19120.0	5.4626375773279546e+17
19121.0	5.4617614459426125e+17
19122.0	5.460945223898452e+17
19123.0	5.4599248713700685e+17
19124.0	5.458710793726634e+17
19125.0	5.4578722251298125e+17
19126.0	5.45683744699187e+17
19127.0	5.455001681919999e+17
19128.0	5.453089734306471e+17
19129.0	5.45377221747234e+17
19130.0	5.4527884217985683e+17
19131.0	5.45171896934946e+17
19132.0	5.4507587386736634e+17
19133.0	5.449458329670998e+17
19134.0	5.4478514442731526e+17
19135.0	5.4476916944186016e+17
19136.0	5.4466923560523085e+17
19137.0	5.445596793361749e+17
19138.0	5.444554622063957e+17
19139.0	5.443641827568298e+17
19140.0	5.442627033191764e+17
19141.0	5.441611139907583e+17
19142.0	5.440572126221652e+17
19143.0	5.439549187904852e+17
19144.0	5.4385447171085645e+17
19145.0	5.437542035881983e+17
19146.0	5.436201564984662e+17
19147.0	5.435468089567915e+17
19148.0	5.434479349508777e+17
19149.0	5.4334699364242765e+17
19150.0	5.4324700444098554e+17
19151.0	5.4314584887350605e+17
19152.0	5.430407017966249e+17
19153.0	5.429416282816511e+17
19154.0	5.428358330449919e+17
19155.0	5.427395232967338e+17
19156.0	5.4263918303204685e+17
19157.0	5.425343103325524e+17
19158.0	5.422171917298342e+17
19159.0	5.4233401980354554e+17
19160.0	5.422289954799615e+17
19161.0	5.4211687844850336e+17
19162.0	5.4153814153188717e+17
19163.0	5.4191745579089914e+17
19164.0	5.418189878635178e+17
19165.0	5.4170722902562125e+17
19166.0	5.415987286026921e+17
19167.0	5.414684979101694e+17
19168.0	5.414113103926613e+17
19169.0	5.4130295145758714e+17
19170.0	5.4121227605770234e+17
19171.0	5.4108024377180154e+17
19172.0	5.410078792351743e+17
19173.0	5.409080749326335e+17
19174.0	5.408059226587135e+17
19175.0	5.4070746053345274e+17
19176.0	5.4060662058734925e+17
19177.0	5.4049874322827936e+17
19178.0	5.4039948928832845e+17
19179.0	5.402567383187458e+17
19180.0	5.4018594273143456e+17
19181.0	5.4009613156788896e+17
19182.0	5.3999900973247136e+17
19183.0	5.3989926037531296e+17
19184.0	5.3979680275606176e+17
19185.0	5.3970017403098445e+17
19186.0	5.395999115706367e+17
19187.0	5.394947047948287e+17
19188.0	5.39395638829602e+17
19189.0	5.39290192908561e+17
19190.0	5.391870895063039e+17
19191.0	5.390882728225449e+17
19192.0	5.3899487916414285e+17
19193.0	5.388868803799721e+17
19194.0	5.387896053825535e+17
19195.0	5.386916125300052e+17
19196.0	5.385916308783103e+17
19197.0	5.3849084378043725e+17
19198.0	5.383885406513835e+17
19199.0	5.353951106258253e+17
19200.0	5.36368981527758e+17
19201.0	5.380872122051241e+17
19202.0	5.379885187639978e+17
19203.0	5.3788088796009805e+17
19204.0	5.377885091135487e+17
19205.0	5.3769225291257165e+17
19206.0	5.3759166553347405e+17
19207.0	5.37487696077346e+17
19208.0	5.373801051193343e+17
19209.0	5.3728868627906554e+17
19210.0	5.371899599126526e+17
19211.0	5.3707036709355514e+17
19212.0	5.3696824704587085e+17
19213.0	5.368378615835305e+17
19214.0	5.367246369062912e+17
19215.0	5.3665719068043936e+17
19216.0	5.365667634435412e+17
19217.0	5.3646621807738854e+17
19218.0	5.363258814889983e+17
19219.0	5.3625888943636474e+17
19220.0	5.3616255263484576e+17
19221.0	5.360477225178453e+17
19222.0	5.3596449836892154e+17
19223.0	5.3586362773449376e+17
19224.0	5.3576192096556365e+17
19225.0	5.3565693655777274e+17
19226.0	5.3556274982638925e+17
19227.0	5.3546252252829e+17
19228.0	5.353635612808531e+17
19229.0	5.352633210503166e+17
19230.0	5.3515673392906234e+17
19231.0	5.350576814555136e+17
19232.0	5.3496151648064845e+17
19233.0	5.3485829570778445e+17
19234.0	5.347608274228563e+17
19235.0	5.3465967423214925e+17
19236.0	5.345609874320041e+17
19237.0	5.344599216226304e+17
19238.0	5.343518160235177e+17
19239.0	5.342650380408149e+17
19240.0	5.3416026607452154e+17
19241.0	5.34062775280162e+17
19242.0	5.339645957810857e+17
19243.0	5.338585888718847e+17
19244.0	5.3376616137140896e+17
19245.0	5.336658143259306e+17
19246.0	5.3356511852407456e+17
19247.0	5.334654570375849e+17
19248.0	5.333648377118719e+17
19249.0	5.332638899721556e+17
19250.0	5.3316412761265485e+17
19251.0	5.330613175320575e+17
19252.0	5.329496767638186e+17
19253.0	5.328636968872617e+17
19254.0	5.3276364008762003e+17
19255.0	5.326549298096809e+17
19256.0	5.325591768552788e+17
19257.0	5.3246399362717e+17
19258.0	5.3236406433437e+17
19259.0	5.3226026216106656e+17
19260.0	5.320935461967188e+17
19261.0	5.320628888403968e+17
19262.0	5.319605513879551e+17
19263.0	5.3186034296422394e+17
19264.0	5.317379684827134e+17
19265.0	5.3165257441061536e+17
19266.0	5.3155269230373536e+17
19267.0	5.314621622364841e+17
19268.0	5.313611920572415e+17
19269.0	5.3126116531677856e+17
19270.0	5.311607401174355e+17
19271.0	5.3104443633172474e+17
19272.0	5.309588420515156e+17
19273.0	5.307111788161704e+17
19274.0	5.3067817887115923e+17
19275.0	5.3065960201912314e+17
19276.0	5.3055830950761805e+17
19277.0	5.304578774575786e+17
19278.0	5.3003901349833325e+17
19279.0	5.2987414169954976e+17
19280.0	5.2977617163605325e+17
19281.0	5.2967950760891725e+17
19282.0	5.295797213418836e+17
19283.0	5.29432630595857e+17
19284.0	5.2932165350632083e+17
19285.0	5.2926843932289696e+17
19286.0	5.291761889618602e+17
19287.0	5.2907729957683194e+17
19288.0	5.2816216424011136e+17
19289.0	5.262068963169568e+17
19290.0	5.287753436626943e+17
19291.0	5.2866275183602336e+17
19292.0	5.2857387194777594e+17
19293.0	5.284727331575125e+17
19294.0	5.283716530875049e+17
19295.0	5.2827134435000314e+17
19296.0	5.2816951923179514e+17
19297.0	5.280663395631102e+17
19298.0	5.279690532410709e+17
19299.0	5.2787293335497376e+17
19300.0	5.27772133045043e+17
19301.0	5.276696517978794e+17
19302.0	5.2756824170605216e+17
19303.0	5.2746190393617056e+17
19304.0	5.2736337742834336e+17
19305.0	5.272629769753941e+17
19306.0	5.271594970644479e+17
19307.0	5.270541288778409e+17
19308.0	5.269550958379007e+17
19309.0	5.2675492135130445e+17
19310.0	5.2660982828236774e+17
19311.0	5.2664398781262496e+17
19312.0	5.265494937785685e+17
19313.0	5.264469254995967e+17
19314.0	5.2288232606049946e+17
19315.0	5.231387736364449e+17
19316.0	5.261317689223851e+17
19317.0	5.2603788019630074e+17
19318.0	5.2602788426110285e+17
19319.0	5.260095819262635e+17
19320.0	5.2590648859033594e+17
19321.0	5.258035481367892e+17
19322.0	5.2569221103616e+17
19323.0	5.255457397888342e+17
19324.0	5.2548988836686496e+17
19325.0	5.2528959147649696e+17
19326.0	5.2528423066664954e+17
19327.0	5.251801487332692e+17
19328.0	5.2507634047822496e+17
19329.0	5.2497315088302074e+17
19330.0	5.2486668910155085e+17
19331.0	5.247621814463146e+17
19332.0	5.24503177162479e+17
19333.0	5.2412677766512634e+17
19334.0	5.240230978256896e+17
19335.0	5.239160786212181e+17
19336.0	5.2381633003301536e+17
19337.0	5.237206352396287e+17
19338.0	5.2360463211560954e+17
19339.0	5.2350687798886394e+17
19340.0	5.233954421123753e+17
19341.0	5.2329219169976314e+17
19342.0	5.231629229708627e+17
19343.0	5.2307819642224634e+17
19344.0	5.22969112711441e+17
19345.0	5.227508669961552e+17
19346.0	5.227288326395222e+17
19347.0	5.22634746012194e+17
19348.0	5.225260785161556e+17
19349.0	5.224133498852692e+17
19350.0	5.223025477681151e+17
19351.0	5.2219273340955296e+17
19352.0	5.220795634679807e+17
19353.0	5.2197209099905696e+17
19354.0	5.216095759062358e+17
19355.0	5.2147476545317536e+17
19356.0	5.2136515458826234e+17
19357.0	5.2139073830475066e+17
19358.0	5.213411315023871e+17
19359.0	5.2121996456099834e+17
19360.0	5.211096145199104e+17
19361.0	5.2096532570876576e+17
19362.0	5.208492258361342e+17
19363.0	5.2072989655913805e+17
19364.0	5.206106948588883e+17
19365.0	5.204115881022804e+17
19366.0	5.2027979006825805e+17
19367.0	5.201576850008746e+17
19368.0	5.200361374263978e+17
19369.0	5.1992067725503136e+17
19370.0	5.1978939449125536e+17
19371.0	5.196794259221162e+17
19372.0	5.1955546242853536e+17
19373.0	5.1963397944989e+17
19374.0	5.195397230231551e+17
19375.0	5.194098192067241e+17
19376.0	5.1927961766461434e+17
19377.0	5.1913934489954976e+17
19378.0	5.189770379875668e+17
19379.0	5.1884166584729594e+17
19380.0	5.1870468015827616e+17
19381.0	5.185656054961493e+17
19382.0	5.1863420976933504e+17
19383.0	5.185853632544768e+17
19384.0	5.1844717303125325e+17
19385.0	5.1830222536485536e+17
19386.0	5.181434436255743e+17
19387.0	5.179648658199893e+17
19388.0	5.179944913775274e+17
19389.0	5.1793440084241056e+17
19390.0	5.1779228146510496e+17
19391.0	5.1415252023814317e+17
19392.0	5.17447566579029e+17
19393.0	5.1749642504765434e+17
19394.0	5.173280412183209e+17
19395.0	5.1712135654277114e+17
19396.0	5.169609467843925e+17
19397.0	5.167470279131135e+17
19398.0	5.165584410301781e+17
19399.0	5.1634609278593683e+17
19400.0	5.161656165684564e+17
19401.0	5.159718845328041e+17
19402.0	5.157873239719934e+17
19403.0	5.1549309263762765e+17
19404.0	5.152681394612906e+17
19405.0	5.150771228180479e+17
19406.0	5.1473777608185165e+17
19407.0	5.1447034194602656e+17
19408.0	5.141301330706432e+17
19409.0	5.139136626644309e+17
19410.0	5.13518684008175e+17
19411.0	5.132154419107155e+17
19412.0	5.128719524604585e+17
19413.0	5.125279689211903e+17
19414.0	5.121633783469396e+17
19415.0	5.116294639998292e+17
19416.0	5.111555545541289e+17
19417.0	5.107254195912702e+17
19418.0	5.104375897434793e+17
19419.0	5.1000614399071584e+17
19420.0	5.0950293369651194e+17
19421.0	5.091031341072383e+17
19422.0	5.084070337839103e+17
19423.0	5.079827048562686e+17
19424.0	5.071051800532309e+17
19425.0	5.0630195070457146e+17
19426.0	5.0545605354018125e+17
19427.0	5.0418257826065e+17
19428.0	5.02784160467081e+17
19429.0	5.0100598808248294e+17
19430.0	4.985602360825172e+17
19431.0	4.96323455912074e+17
19432.0	4.964764395853138e+17
19433.0	4.960439323940184e+17
19434.0	4.951975138776405e+17
19435.0	4.9335075280868704e+17
19436.0	4.9128747694380314e+17
19437.0	4.899162961215488e+17
19438.0	4.827827940272792e+17
19439.0	4.863852183988906e+17
19440.0	4.844195674062849e+17
19441.0	4.817261956519258e+17
19442.0	4.779317148691117e+17
19443.0	4.705040909118125e+17
19444.0	4.6375132354751194e+17
19445.0	4.613776764567551e+17
19446.0	4.550114065164975e+17
19447.0	4.4685506739787174e+17
19448.0	4.3209507897780986e+17
19449.0	4.1510078125179e+17
19450.0	3.7029384398656774e+17
19451.0	3.57217807665288e+17
19452.0	3.9501335727090534e+17
19453.0	4.261364772110337e+17
19454.0	4.3887582262941286e+17
19455.0	4.5116045502272915e+17
19456.0	4.5765134053102906e+17
19457.0	4.6196762691501984e+17
19458.0	4.5870859929955846e+17
19459.0	4.734822659741005e+17
19460.0	4.785564561003856e+17
19461.0	4.8147642261176346e+17
19462.0	4.836748698495663e+17
19463.0	4.854358878803281e+17
19464.0	4.8687425851665056e+17
19465.0	4.8835262058332154e+17
19466.0	4.8978425390912845e+17
19467.0	4.915228167547561e+17
19468.0	4.927985440260086e+17
19469.0	4.930467555267924e+17
19470.0	4.933341981704196e+17
19471.0	4.94021925264861e+17
19472.0	4.961772230410246e+17
19473.0	4.979785658094936e+17
19474.0	4.994360492599982e+17
19475.0	5.0044660452338336e+17
19476.0	5.0128536486980314e+17
19477.0	5.020178321156778e+17
19478.0	5.0266813902793376e+17
19479.0	5.0300034552081056e+17
19480.0	5.0345607070132883e+17
19481.0	5.037867371855871e+17
19482.0	5.039851514626046e+17
19483.0	5.043976532918273e+17
19484.0	5.045080152866815e+17
19485.0	5.0470166811989325e+17
19486.0	5.048875109493417e+17
19487.0	5.052085064870573e+17
19488.0	5.0548763797749754e+17
19489.0	5.0561959910004045e+17
19490.0	5.057264423534589e+17
19491.0	5.0592683193794554e+17
19492.0	5.060481089798143e+17
19493.0	5.062358035944788e+17
19494.0	5.0628202601294483e+17
19495.0	5.0639136977059834e+17
19496.0	5.06411600576512e+17
19497.0	5.065925371887616e+17
19498.0	5.063380956086273e+17
19499.0	5.010157811531707e+17
19500.0	5.0670696122722976e+17
19501.0	5.067051208365396e+17
19502.0	5.067048499544062e+17
19503.0	5.067292999505237e+17
19504.0	5.067132463917738e+17
19505.0	5.067036631760896e+17
19506.0	5.067198236196862e+17
19507.0	5.066999277289472e+17
19508.0	5.0670574159353165e+17
19509.0	5.066843809120255e+17
19510.0	5.0655006657522336e+17
19511.0	4.9940726424097485e+17
19512.0	5.057447663588659e+17
19513.0	5.0472937296581677e+17
19514.0	5.0522471488552845e+17
19515.0	5.060138112472403e+17
19516.0	5.0597930275089056e+17
19517.0	5.059346848634196e+17
19518.0	5.059269691615914e+17
19519.0	5.058766355562494e+17
19520.0	5.0582701526220794e+17
19521.0	5.057734022004736e+17
19522.0	5.054848265355261e+17
19523.0	5.053815777307306e+17
19524.0	5.0532431443613005e+17
19525.0	5.052666845593598e+17
19526.0	5.0520969018955085e+17
19527.0	5.0515486008060576e+17
19528.0	5.0512221532323834e+17
19529.0	5.050598484694356e+17
19530.0	5.0499710119226016e+17
19531.0	5.049325228916735e+17
19532.0	5.048665276153856e+17
19533.0	5.045764408825173e+17
19534.0	5.045082540124841e+17
19535.0	5.044395391494825e+17
19536.0	5.043698329627307e+17
19537.0	5.043021643688617e+17
19538.0	5.0421624747677e+17
19539.0	5.041146049505965e+17
19540.0	5.040699747598334e+17
19541.0	5.03998446567424e+17
19542.0	5.039249840319146e+17
19543.0	5.038506071381332e+17
19544.0	5.0377670797557754e+17
19545.0	5.036867704236713e+17
19546.0	5.0357752607102285e+17
19547.0	5.0355211166460576e+17
19548.0	5.0347557547322016e+17
19549.0	5.0339401534450336e+17
19550.0	5.0332097258891936e+17
19551.0	5.032429687406592e+17
19552.0	5.031643854493012e+17
19553.0	5.0308457078019405e+17
19554.0	5.0300250195230694e+17
19555.0	5.027582790249128e+17
19556.0	5.026819436707838e+17
19557.0	5.0282163300816205e+17
19558.0	5.027420609096362e+17
19559.0	5.026606103221589e+17
19560.0	5.0262860135137274e+17
19561.0	5.025798829025961e+17
19562.0	5.025034923234645e+17
19563.0	5.024404397009577e+17
19564.0	5.023577587843071e+17
19565.0	5.022745158309204e+17
19566.0	5.02190804373777e+17
19567.0	5.021083988131839e+17
19568.0	5.020269719235243e+17
19569.0	5.0194330401723725e+17
19570.0	5.018602107305983e+17
19571.0	5.0177582559832736e+17
19572.0	5.016897591792981e+17
19573.0	5.0160603213332474e+17
19574.0	5.0151734210723834e+17
19575.0	5.014369762366804e+17
19576.0	5.013516208220843e+17
19577.0	5.012638782892713e+17
19578.0	5.011790538735615e+17
19579.0	5.010940872709461e+17
19580.0	5.0100854493020154e+17
19581.0	5.0092308626582176e+17
19582.0	5.0083800424994125e+17
19583.0	5.0075189281204896e+17
19584.0	5.0066414664417274e+17
19585.0	5.0057397952402765e+17
19586.0	5.004847710819668e+17
19587.0	5.00387133207347e+17
19588.0	5.002966487181994e+17
19589.0	5.0022929728361805e+17
19590.0	5.0013968709713914e+17
19591.0	5.0005869494708896e+17
19592.0	4.9997186055099725e+17
19593.0	4.9988399211915936e+17
19594.0	4.997825100251135e+17
19595.0	4.997092291029674e+17
19596.0	4.993368191576744e+17
19597.0	4.9953002851314336e+17
19598.0	4.9943070886242976e+17
19599.0	4.9963655908119904e+17
19600.0	4.9965394202460154e+17
19601.0	4.9956276645396474e+17
19602.0	4.9947534974866765e+17
19603.0	4.9932067947588256e+17
19604.0	4.992970572256596e+17
19605.0	4.9919920152685216e+17
19606.0	4.991249398366208e+17
19607.0	4.990371325717161e+17
19608.0	4.989376971582121e+17
19609.0	4.988439741770409e+17
19610.0	4.9875857199595514e+17
19611.0	4.986695500606121e+17
19612.0	4.98582081905186e+17
19613.0	4.9849296909325645e+17
19614.0	4.9840324412265805e+17
19615.0	4.983158484587861e+17
19616.0	4.981962827628543e+17
19617.0	4.9813854446332576e+17
19618.0	4.9802607343261005e+17
19619.0	4.979257874142548e+17
19620.0	4.978413265048915e+17
19621.0	4.9778352773748045e+17
19622.0	4.976960336472746e+17
19623.0	4.976072915419135e+17
19624.0	4.9751824493008205e+17
19625.0	4.974292561297407e+17
19626.0	4.973405103893162e+17
19627.0	4.9725139827643725e+17
19628.0	4.970918487698093e+17
19629.0	4.970679435438762e+17
19630.0	4.9689170497153696e+17
19631.0	4.9373469883760365e+17
19632.0	4.968060386891092e+17
19633.0	4.9671313436617376e+17
19634.0	4.966296517083135e+17
19635.0	4.9653891465215994e+17
19636.0	4.964503909302271e+17
19637.0	4.9634532850838176e+17
19638.0	4.9627338207395834e+17
19639.0	4.961832143246676e+17
19640.0	4.960917363447125e+17
19641.0	4.9596492610710195e+17
19642.0	4.9591766482943994e+17
19643.0	4.958274974296746e+17
19644.0	4.957370639013203e+17
19645.0	4.9563802890403834e+17
19646.0	4.9556136415723514e+17
19647.0	4.954730983150932e+17
19648.0	4.953840191974058e+17
19649.0	4.9529486444243616e+17
19650.0	4.952060869651114e+17
19651.0	4.951167178812074e+17
19652.0	4.9502758165108045e+17
19653.0	4.9493738132602874e+17
19654.0	4.9484956986682016e+17
19655.0	4.947607078043647e+17
