# Flux units: erg / (cm m2 s)
# Wavelength units: Angstrom
wave	flux
19000.0	4.007871961716053e+17
19001.0	4.007235437636265e+17
19002.0	4.0066439897415674e+17
19003.0	4.0059647823271245e+17
19004.0	4.004885824187049e+17
19005.0	4.0045055657902074e+17
19006.0	4.0038407007982925e+17
19007.0	4.0032760922548896e+17
19008.0	4.002622422559402e+17
19009.0	4.00202677686545e+17
19010.0	4.0007122763994445e+17
19011.0	4.000347815149568e+17
19012.0	3.9993693518342803e+17
19013.0	3.999372083025236e+17
19014.0	3.998309883226793e+17
19015.0	3.997596347531263e+17
19016.0	3.9971015797418656e+17
19017.0	3.996657955897344e+17
19018.0	3.9958716867761485e+17
19019.0	3.995245120673108e+17
19020.0	3.994565748282708e+17
19021.0	3.993905680176469e+17
19022.0	3.99335380554001e+17
19023.0	3.9924170482865485e+17
19024.0	3.9918785360035834e+17
19025.0	3.991194161905664e+17
19026.0	3.990551415575893e+17
19027.0	3.9898528912943776e+17
19028.0	3.989047833089364e+17
19029.0	3.988281495300778e+17
19030.0	3.9875220068106234e+17
19031.0	3.9871039262774605e+17
19032.0	3.986623826668202e+17
19033.0	3.985561255673854e+17
19034.0	3.9851081282355194e+17
19035.0	3.984560314384383e+17
19036.0	3.981692802957309e+17
19037.0	3.983111591996074e+17
19038.0	3.9824562543656954e+17
19039.0	3.9817859179042125e+17
19040.0	3.9810693748927136e+17
19041.0	3.9804560047691085e+17
19042.0	3.975254315630585e+17
19043.0	3.979139986664106e+17
19044.0	3.978665053039274e+17
19045.0	3.977849692924586e+17
19046.0	3.977034223757995e+17
19047.0	3.9764010607138125e+17
19048.0	3.975133890871295e+17
19049.0	3.9656700821285414e+17
19050.0	3.974550592509269e+17
19051.0	3.973004948144126e+17
19052.0	3.973084885985962e+17
19053.0	3.9725308009512954e+17
19054.0	3.971660626875733e+17
19055.0	3.9696271073607674e+17
19056.0	3.9701890105780883e+17
19057.0	3.969943774516565e+17
19058.0	3.964358088458231e+17
19059.0	3.966312550236158e+17
19060.0	3.9678872974786554e+17
19061.0	3.9671151813372576e+17
19062.0	3.966214301461162e+17
19063.0	3.965944848886442e+17
19064.0	3.9651524469937485e+17
19065.0	3.9644203976403616e+17
19066.0	3.962177698398209e+17
19067.0	3.96272974360303e+17
19068.0	3.962651673624576e+17
19069.0	3.961924105185961e+17
19070.0	3.960943771910143e+17
19071.0	3.960385431055019e+17
19072.0	3.958124230038866e+17
19073.0	3.959384184979455e+17
19074.0	3.958288242005331e+17
19075.0	3.9579407704828576e+17
19076.0	3.9571518407748256e+17
19077.0	3.9565417540922016e+17
19078.0	3.955850920766122e+17
19079.0	3.955110521951574e+17
19080.0	3.954592824601259e+17
19081.0	3.953967365095423e+17
19082.0	3.953355834174122e+17
19083.0	3.952506165351765e+17
19084.0	3.951836157444096e+17
19085.0	3.95125046902784e+17
19086.0	3.947826323827369e+17
19087.0	3.9460521611973914e+17
19088.0	3.9468599303208915e+17
19089.0	3.9484897173176314e+17
19090.0	3.9480143139307514e+17
19091.0	3.9470404853213894e+17
19092.0	3.942921026579125e+17
19093.0	3.9459419216063136e+17
19094.0	3.9453560395530234e+17
19095.0	3.9444864198246394e+17
19096.0	3.94400255442944e+17
19097.0	3.943328035547818e+17
19098.0	3.940910168189607e+17
19099.0	3.939722599246509e+17
19100.0	3.941412821969578e+17
19101.0	3.940671791213227e+17
19102.0	3.939940057131689e+17
19103.0	3.9392344144172365e+17
19104.0	3.938834071595691e+17
19105.0	3.9338630971392134e+17
19106.0	3.937407384682495e+17
19107.0	3.9357166901002214e+17
19108.0	3.934412674695168e+17
19109.0	3.935241938228563e+17
19110.0	3.9346452041127245e+17
19111.0	3.932548085667154e+17
19112.0	3.9318186885119974e+17
19113.0	3.932786328425813e+17
19114.0	3.931148741421737e+17
19115.0	3.93118998261487e+17
19116.0	3.930343263087274e+17
19117.0	3.9295113075097594e+17
19118.0	3.927097186364074e+17
19119.0	3.919862792104615e+17
19120.0	3.926587796531882e+17
19121.0	3.926869023216981e+17
19122.0	3.926784974258176e+17
19123.0	3.9262832040782496e+17
19124.0	3.9255844833634976e+17
19125.0	3.924948018003968e+17
19126.0	3.924239962166613e+17
19127.0	3.921753016019624e+17
19128.0	3.9228185943299405e+17
19129.0	3.922338621947903e+17
19130.0	3.9217396082278394e+17
19131.0	3.9210547294153376e+17
19132.0	3.9202609119450445e+17
19133.0	3.9197496878039034e+17
19134.0	3.9190624496954016e+17
19135.0	3.918510412879189e+17
19136.0	3.9176820958603936e+17
19137.0	3.916737707769855e+17
19138.0	3.916445296973142e+17
19139.0	3.915913252306944e+17
19140.0	3.915273657297578e+17
19141.0	3.9145729764447565e+17
19142.0	3.91381142016273e+17
19143.0	3.913088970173098e+17
19144.0	3.9123744830696096e+17
19145.0	3.911819501152938e+17
19146.0	3.9107669391660365e+17
19147.0	3.9104041493463034e+17
19148.0	3.9084203246441837e+17
19149.0	3.907248723416406e+17
19150.0	3.908683108275542e+17
19151.0	3.9079083189643936e+17
19152.0	3.9074074142091936e+17
19153.0	3.903370885245604e+17
19154.0	3.905674892629332e+17
19155.0	3.905461496927574e+17
19156.0	3.904705175835989e+17
19157.0	3.9029963380927174e+17
19158.0	3.901026754450776e+17
19159.0	3.902450375327744e+17
19160.0	3.901924859794774e+17
19161.0	3.901406951331157e+17
19162.0	3.900580902032723e+17
19163.0	3.9001094189219834e+17
19164.0	3.899436398804991e+17
19165.0	3.89504919247257e+17
19166.0	3.897791701756586e+17
19167.0	3.8975564600224416e+17
19168.0	3.8968216242530976e+17
19169.0	3.8961812414136314e+17
19170.0	3.895570777942698e+17
19171.0	3.894726849025365e+17
19172.0	3.8942296883855354e+17
19173.0	3.8937070102992205e+17
19174.0	3.892896022047403e+17
19175.0	3.8922358141310285e+17
19176.0	3.8917011375390714e+17
19177.0	3.890902452578986e+17
19178.0	3.8902995500400634e+17
19179.0	3.8896118330818566e+17
19180.0	3.8890515306905594e+17
19181.0	3.888253993571668e+17
19182.0	3.8875779941007354e+17
19183.0	3.887089706511018e+17
19184.0	3.8864870122891936e+17
19185.0	3.8857677157171194e+17
19186.0	3.8851352034891085e+17
19187.0	3.8845087163787936e+17
19188.0	3.8839273425032525e+17
19189.0	3.883307919998974e+17
19190.0	3.8826107525748045e+17
19191.0	3.881963464512853e+17
19192.0	3.881360715765076e+17
19193.0	3.880190599320918e+17
19194.0	3.879382719048363e+17
19195.0	3.879462303170559e+17
19196.0	3.878744450138111e+17
19197.0	3.8779197604932256e+17
19198.0	3.8771797706233165e+17
19199.0	3.8744853881815034e+17
19200.0	3.8746692350115846e+17
19201.0	3.875449599950848e+17
19202.0	3.874866834964478e+17
19203.0	3.8741745427196576e+17
19204.0	3.873675565946197e+17
19205.0	3.872915205739861e+17
19206.0	3.872291348458154e+17
19207.0	3.8711889798103034e+17
19208.0	3.8706824749602125e+17
19209.0	3.870329760557738e+17
19210.0	3.869524700954623e+17
19211.0	3.869009623646208e+17
19212.0	3.868363105938089e+17
19213.0	3.867671457518933e+17
19214.0	3.8670176305370464e+17
19215.0	3.866451124071082e+17
19216.0	3.865821908566016e+17
19217.0	3.8653032996536314e+17
19218.0	3.863723071853907e+17
19219.0	3.8636935453518496e+17
19220.0	3.8632951717560314e+17
19221.0	3.8622797195728205e+17
19222.0	3.8617417721227936e+17
19223.0	3.86122067878434e+17
19224.0	3.860514027339776e+17
19225.0	3.8599363004115616e+17
19226.0	3.859474290136404e+17
19227.0	3.858740254780075e+17
19228.0	3.8581462903029754e+17
19229.0	3.85700637913907e+17
19230.0	3.8567326714429434e+17
19231.0	3.8563265348894714e+17
19232.0	3.855658756953429e+17
19233.0	3.854839852651861e+17
19234.0	3.8541782116816205e+17
19235.0	3.853592705717589e+17
19236.0	3.853000798546602e+17
19237.0	3.852120665096192e+17
19238.0	3.851518488171861e+17
19239.0	3.851054288470016e+17
19240.0	3.8502137087044256e+17
19241.0	3.8498308351590394e+17
19242.0	3.8488029552530765e+17
19243.0	3.8484231540353696e+17
19244.0	3.8477775996190714e+17
19245.0	3.847216908555606e+17
19246.0	3.84662256029969e+17
19247.0	3.846021276762112e+17
19248.0	3.845280039785813e+17
19249.0	3.844389993097898e+17
19250.0	3.8432404154613766e+17
19251.0	3.842703882190846e+17
19252.0	3.842606435926015e+17
19253.0	3.8420301245754016e+17
19254.0	3.8414772831518714e+17
19255.0	3.840623313769812e+17
19256.0	3.8399782927291725e+17
19257.0	3.8394824973352954e+17
19258.0	3.838778316335787e+17
19259.0	3.8383217278976006e+17
19260.0	3.8374641206558714e+17
19261.0	3.8370068890910714e+17
19262.0	3.8362944124573e+17
19263.0	3.835489285745322e+17
19264.0	3.834451580682238e+17
19265.0	3.834031572866388e+17
19266.0	3.8333277337026554e+17
19267.0	3.833148123818666e+17
19268.0	3.832298956215637e+17
19269.0	3.8317919459519136e+17
19270.0	3.831144527167487e+17
19271.0	3.830015420530689e+17
19272.0	3.8299244425816736e+17
19273.0	3.8292597824116045e+17
19274.0	3.828416698646526e+17
19275.0	3.8280777995823776e+17
19276.0	3.827425552454998e+17
19277.0	3.8268429426578765e+17
19278.0	3.8261063292026874e+17
19279.0	3.825534067452586e+17
19280.0	3.82488788668689e+17
19281.0	3.824264819332436e+17
19282.0	3.8236501783347194e+17
19283.0	3.8228819894599674e+17
19284.0	3.8223985344075085e+17
19285.0	3.821467003955882e+17
19286.0	3.8209084778523296e+17
19287.0	3.8202133530542074e+17
19288.0	3.8194414473270605e+17
19289.0	3.817547190588753e+17
19290.0	3.8184950452715514e+17
19291.0	3.8176717670099635e+17
19292.0	3.8171950920499194e+17
19293.0	3.8165346911955616e+17
19294.0	3.815997317666133e+17
19295.0	3.815197634461696e+17
19296.0	3.812591420484272e+17
19297.0	3.8136785407399264e+17
19298.0	3.8132684971922765e+17
19299.0	3.81056224906445e+17
19300.0	3.812207008328363e+17
19301.0	3.8114715427143674e+17
19302.0	3.8108749442143565e+17
19303.0	3.810003675425451e+17
19304.0	3.80946311212783e+17
19305.0	3.8088037815200416e+17
19306.0	3.808275915079679e+17
19307.0	3.807552759747925e+17
19308.0	3.8069112290672634e+17
19309.0	3.806118495824553e+17
19310.0	3.805385332883455e+17
19311.0	3.804643673680554e+17
19312.0	3.8036916952978765e+17
19313.0	3.8020230816290125e+17
19314.0	3.78744578297037e+17
19315.0	3.787115064896173e+17
19316.0	3.797554248548356e+17
19317.0	3.800652018876415e+17
19318.0	3.8003995196784634e+17
19319.0	3.7996541387298125e+17
19320.0	3.7986482984932666e+17
19321.0	3.7969420073915725e+17
19322.0	3.798104888661332e+17
19323.0	3.797620943574357e+17
19324.0	3.796930936526164e+17
19325.0	3.796299113562111e+17
19326.0	3.7956385435374925e+17
19327.0	3.795133261327019e+17
19328.0	3.790571250384899e+17
19329.0	3.793862668233385e+17
19330.0	3.7932533560989e+17
19331.0	3.79263735894289e+17
19332.0	3.791940033533268e+17
19333.0	3.791465157230591e+17
19334.0	3.7903602915737594e+17
19335.0	3.782272778676917e+17
19336.0	3.789317335242069e+17
19337.0	3.788786556556629e+17
19338.0	3.788007779860479e+17
19339.0	3.787368698653354e+17
19340.0	3.786286013874174e+17
19341.0	3.7834784013025344e+17
19342.0	3.78456028007629e+17
19343.0	3.7850637028119885e+17
19344.0	3.781601809574576e+17
19345.0	3.780129335541756e+17
19346.0	3.782538514399234e+17
19347.0	3.77892613862195e+17
19348.0	3.7819676696248314e+17
19349.0	3.781271094296576e+17
19350.0	3.7791772502043315e+17
19351.0	3.7799832619144525e+17
19352.0	3.775526946035022e+17
19353.0	3.778725841032532e+17
19354.0	3.7782137605543245e+17
19355.0	3.777495964844032e+17
19356.0	3.7768407250807456e+17
19357.0	3.776300151297366e+17
19358.0	3.775652080997717e+17
19359.0	3.77421538228087e+17
19360.0	3.771306040360959e+17
19361.0	3.773733941892437e+17
19362.0	3.773129161703423e+17
19363.0	3.77251551056145e+17
19364.0	3.771936100319231e+17
19365.0	3.771247030697983e+17
19366.0	3.77029463847731e+17
19367.0	3.769937903135402e+17
19368.0	3.769386064849578e+17
19369.0	3.768829946276522e+17
19370.0	3.7682444459048954e+17
19371.0	3.76735816290577e+17
19372.0	3.7668573364442445e+17
19373.0	3.766084726773076e+17
19374.0	3.7654072208479565e+17
19375.0	3.764991384966485e+17
19376.0	3.7644134874699085e+17
19377.0	3.76381475197201e+17
19378.0	3.763199172149248e+17
19379.0	3.762571327482538e+17
19380.0	3.7615461871561376e+17
19381.0	3.761003171588778e+17
19382.0	3.7605356975336096e+17
19383.0	3.7598274718269434e+17
19384.0	3.7589552467367245e+17
19385.0	3.758706495848448e+17
19386.0	3.758084012201302e+17
19387.0	3.757381962607274e+17
19388.0	3.75673469411874e+17
19389.0	3.756211521104555e+17
19390.0	3.755554457518079e+17
19391.0	3.752738674442236e+17
19392.0	3.754238942030506e+17
19393.0	3.7536445490353485e+17
19394.0	3.753077754560512e+17
19395.0	3.751371535461037e+17
19396.0	3.751559508088149e+17
19397.0	3.751097012671829e+17
19398.0	3.7495797616476166e+17
19399.0	3.747681172892328e+17
19400.0	3.748454704611329e+17
19401.0	3.748583861212501e+17
19402.0	3.7480880895863456e+17
19403.0	3.7474696604330656e+17
19404.0	3.746631137274538e+17
19405.0	3.745942078139051e+17
19406.0	3.7455148749946874e+17
19407.0	3.7434757407047654e+17
19408.0	3.7434649214976026e+17
19409.0	3.743618990866432e+17
19410.0	3.74299277918208e+17
19411.0	3.742314210000895e+17
19412.0	3.7416367075710285e+17
19413.0	3.739672992459434e+17
19414.0	3.740444510912512e+17
19415.0	3.739764289874602e+17
19416.0	3.738891948042922e+17
19417.0	3.738502957804202e+17
19418.0	3.73787935637504e+17
19419.0	3.7372085494524576e+17
19420.0	3.736535689418068e+17
19421.0	3.735847251039572e+17
19422.0	3.7350698039377914e+17
19423.0	3.734631994796714e+17
19424.0	3.7339651298208416e+17
19425.0	3.7331746894643194e+17
19426.0	3.7326568956450125e+17
19427.0	3.731990965299882e+17
19428.0	3.731033262391295e+17
19429.0	3.7306573241275725e+17
19430.0	3.72978707595264e+17
19431.0	3.728197491359746e+17
19432.0	3.728368105160704e+17
19433.0	3.7275825036328954e+17
19434.0	3.727016148860928e+17
19435.0	3.726061774831615e+17
19436.0	3.7248399733773645e+17
19437.0	3.724652330702166e+17
19438.0	3.719055434667346e+17
19439.0	3.7232892329328634e+17
19440.0	3.722399518294015e+17
19441.0	3.7215624945991674e+17
19442.0	3.7207111886001485e+17
19443.0	3.719852456585898e+17
19444.0	3.718853844533247e+17
19445.0	3.718015296907946e+17
19446.0	3.717010669524308e+17
19447.0	3.716061314678783e+17
19448.0	3.7149770933862394e+17
19449.0	3.714269122134015e+17
19450.0	3.713300281950208e+17
19451.0	3.712932820374868e+17
19452.0	3.7123429677137914e+17
19453.0	3.7119559641770656e+17
19454.0	3.7112148949729274e+17
19455.0	3.710640356414806e+17
19456.0	3.709344189950634e+17
19457.0	3.7052850348141235e+17
19458.0	3.663945929850897e+17
19459.0	3.691923727799643e+17
19460.0	3.706379945989461e+17
19461.0	3.708171689044651e+17
19462.0	3.708318082138112e+17
19463.0	3.7081571236249594e+17
19464.0	3.7077542942801914e+17
19465.0	3.7074102271344634e+17
19466.0	3.707027209584638e+17
19467.0	3.706579342502569e+17
19468.0	3.7061620120507725e+17
19469.0	3.702695549119142e+17
19470.0	3.7051498216379725e+17
19471.0	3.704594754437119e+17
19472.0	3.704149251544404e+17
19473.0	3.7035834993541114e+17
19474.0	3.700067620530853e+17
19475.0	3.701265976524798e+17
19476.0	3.7018910242897914e+17
19477.0	3.7012554152673274e+17
19478.0	3.700834458839722e+17
19479.0	3.6975143659328806e+17
19480.0	3.699712127401983e+17
19481.0	3.6987992007857485e+17
19482.0	3.698282030519636e+17
19483.0	3.697935140607317e+17
19484.0	3.6971643128162976e+17
19485.0	3.69672999473425e+17
19486.0	3.6931065984232205e+17
19487.0	3.6954334829390496e+17
19488.0	3.694972229735765e+17
19489.0	3.6944758471393274e+17
19490.0	3.692083316872529e+17
19491.0	3.6930960085046605e+17
19492.0	3.692583087068501e+17
19493.0	3.6918511810205e+17
19494.0	3.6912922655457274e+17
19495.0	3.6908998471625376e+17
19496.0	3.689588233076735e+17
19497.0	3.6897305716763296e+17
19498.0	3.6891520331502925e+17
19499.0	3.6849777569518886e+17
19500.0	3.6878805145135776e+17
19501.0	3.687501382287359e+17
19502.0	3.686857003674282e+17
19503.0	3.6862541885166925e+17
19504.0	3.6855669252423674e+17
19505.0	3.68482029928448e+17
19506.0	3.684351191547903e+17
19507.0	3.6837164989808634e+17
19508.0	3.682918893355008e+17
19509.0	3.6819711568117754e+17
19510.0	3.678841367166974e+17
19511.0	3.662383693518162e+17
19512.0	3.67701748106308e+17
19513.0	3.677875947438076e+17
19514.0	3.678420117138089e+17
19515.0	3.678349731124568e+17
19516.0	3.6778003597885434e+17
19517.0	3.6775829515359565e+17
19518.0	3.676315702001661e+17
19519.0	3.6756986870278816e+17
19520.0	3.6732139128313126e+17
19521.0	3.675455493592405e+17
19522.0	3.674326472938836e+17
19523.0	3.673694835223213e+17
19524.0	3.67151187125863e+17
19525.0	3.672991736354133e+17
19526.0	3.672224972843689e+17
19527.0	3.671749267466922e+17
19528.0	3.670845061507754e+17
19529.0	3.670190207620437e+17
19530.0	3.669930443887957e+17
19531.0	3.669275962594644e+17
19532.0	3.6686244753353376e+17
19533.0	3.667867319577257e+17
19534.0	3.667533406841515e+17
19535.0	3.66697005519121e+17
19536.0	3.6662118585466874e+17
19537.0	3.6657165503911245e+17
19538.0	3.6626158566331776e+17
19539.0	3.6639635263542656e+17
19540.0	3.663985607267669e+17
19541.0	3.6627019090711885e+17
19542.0	3.6623943827019085e+17
19543.0	3.6594306057065824e+17
19544.0	3.6612245109254816e+17
19545.0	3.660640574330193e+17
19546.0	3.6591794787450886e+17
19547.0	3.659808423717546e+17
19548.0	3.6591629895379616e+17
19549.0	3.6583705974319776e+17
19550.0	3.657633867934378e+17
19551.0	3.6573573137039354e+17
19552.0	3.6565494145570125e+17
19553.0	3.656109350278485e+17
19554.0	3.655293226101418e+17
19555.0	3.654349735591936e+17
19556.0	3.6539471893626874e+17
19557.0	3.6536476678225914e+17
19558.0	3.6530619605319674e+17
19559.0	3.6524309372818765e+17
19560.0	3.650864509441363e+17
19561.0	3.651233926960468e+17
19562.0	3.649866044189353e+17
19563.0	3.650102988810922e+17
19564.0	3.6490543918394016e+17
19565.0	3.6487314521019725e+17
19566.0	3.647933466891605e+17
19567.0	3.647684797093205e+17
19568.0	3.647048944102058e+17
19569.0	3.646489272953514e+17
19570.0	3.645908523330218e+17
19571.0	3.6452345112603296e+17
19572.0	3.644634005067093e+17
19573.0	3.643798766747647e+17
19574.0	3.643298166778537e+17
19575.0	3.642907621851135e+17
19576.0	3.6422122181317965e+17
19577.0	3.641340930468523e+17
19578.0	3.6410554046218234e+17
19579.0	3.6405586934715725e+17
19580.0	3.6397640685977594e+17
19581.0	3.6389804132270074e+17
19582.0	3.6386630868664314e+17
19583.0	3.638207068154538e+17
19584.0	3.6374152653482656e+17
19585.0	3.6368691984247456e+17
19586.0	3.636289686820181e+17
19587.0	3.6358023275697485e+17
19588.0	3.634644703860053e+17
19589.0	3.6345971390545914e+17
19590.0	3.633831737294847e+17
19591.0	3.633334099902464e+17
19592.0	3.632703603037525e+17
19593.0	3.631928576049151e+17
19594.0	3.6311740403329696e+17
19595.0	3.630940934897664e+17
19596.0	3.630142814770516e+17
19597.0	3.6297916732320416e+17
19598.0	3.628131978750634e+17
19599.0	3.628526590754815e+17
19600.0	3.627797083149653e+17
19601.0	3.627267114663936e+17
19602.0	3.626688120356863e+17
19603.0	3.625659318403071e+17
19604.0	3.625588394819584e+17
19605.0	3.62459382677504e+17
19606.0	3.624190114529279e+17
19607.0	3.6237945042807456e+17
19608.0	3.622777206603774e+17
19609.0	3.6225103160497485e+17
19610.0	3.6207552361048774e+17
19611.0	3.6193305820310195e+17
19612.0	3.6208074321210016e+17
19613.0	3.6199178656808954e+17
19614.0	3.619540727147178e+17
19615.0	3.6190728070976845e+17
19616.0	3.6172493725805254e+17
19617.0	3.615957383643136e+17
19618.0	3.616537593599316e+17
19619.0	3.615572927447037e+17
19620.0	3.614658850892454e+17
19621.0	3.612295617140051e+17
19622.0	3.614854470434815e+17
19623.0	3.6142194514111136e+17
19624.0	3.61341498879727e+17
19625.0	3.613116684304384e+17
19626.0	3.612333032428885e+17
19627.0	3.611921553730218e+17
19628.0	3.611304749869738e+17
19629.0	3.604201533865979e+17
19630.0	3.6101594874729805e+17
19631.0	3.6080362413096954e+17
19632.0	3.608944333291519e+17
19633.0	3.6083679436472314e+17
19634.0	3.6077277020159994e+17
19635.0	3.606819507273726e+17
19636.0	3.6032343860838355e+17
19637.0	3.602525259999911e+17
19638.0	3.605052861535571e+17
19639.0	3.6046112062177274e+17
19640.0	3.604074408706048e+17
19641.0	3.6016158419189856e+17
19642.0	3.60291466477568e+17
19643.0	3.6022954813467296e+17
19644.0	3.601777626010965e+17
19645.0	3.601051066302463e+17
19646.0	3.597265596492454e+17
19647.0	3.59962896446259e+17
19648.0	3.5995082139456845e+17
19649.0	3.598791892533247e+17
19650.0	3.5982508902318074e+17
19651.0	3.5976840489205754e+17
19652.0	3.5971641132100256e+17
19653.0	3.5964422909678925e+17
19654.0	3.5960032591871994e+17
19655.0	3.5951987888837965e+17
