# Flux units: erg / (cm m2 s)
# Wavelength units: Angstrom
wave	flux
19000.0	6.383237314816682e+17
19001.0	6.382037348210003e+17
19002.0	6.380858757174612e+17
19003.0	6.37966911414818e+17
19004.0	6.378479479510356e+17
19005.0	6.377290256613373e+17
19006.0	6.376100675103401e+17
19007.0	6.374910992930132e+17
19008.0	6.373715026291369e+17
19009.0	6.372523096670208e+17
19010.0	6.371289893000531e+17
19011.0	6.370148925571071e+17
19012.0	6.368954210233002e+17
19013.0	6.36777318650129e+17
19014.0	6.366583534387197e+17
19015.0	6.365393850815827e+17
19016.0	6.364197913537193e+17
19017.0	6.363014058650282e+17
19018.0	6.361824621144746e+17
19019.0	6.360635427607892e+17
19020.0	6.35944563778082e+17
19021.0	6.358256170915156e+17
19022.0	6.357066857141588e+17
19023.0	6.355877307088896e+17
19024.0	6.354686599408298e+17
19025.0	6.353498275490474e+17
19026.0	6.352305734199978e+17
19027.0	6.351111624239785e+17
19028.0	6.349930693481812e+17
19029.0	6.348741449613311e+17
19030.0	6.347552419654314e+17
19031.0	6.34636336243234e+17
19032.0	6.345174319890432e+17
19033.0	6.343975487842985e+17
19034.0	6.342796046062932e+17
19035.0	6.341604135316138e+17
19036.0	6.339858209439744e+17
19037.0	6.339227693700435e+17
19038.0	6.338041448759295e+17
19039.0	6.336853328964265e+17
19040.0	6.335664942830931e+17
19041.0	6.334476667147604e+17
19042.0	6.333279686186324e+17
19043.0	6.332100466005332e+17
19044.0	6.330912201506815e+17
19045.0	6.329724440324777e+17
19046.0	6.328531117495635e+17
19047.0	6.327347074564095e+17
19048.0	6.326138834692778e+17
19049.0	6.324973483677011e+17
19050.0	6.323785695231999e+17
19051.0	6.322514268170921e+17
19052.0	6.321397099222358e+17
19053.0	6.320224286539775e+17
19054.0	6.319037494241961e+17
19055.0	6.317823172629844e+17
19056.0	6.316663918034943e+17
19057.0	6.315477270440616e+17
19058.0	6.314290727703891e+17
19059.0	6.313104064730452e+17
19060.0	6.311915516417364e+17
19061.0	6.310731767087103e+17
19062.0	6.30954518520354e+17
19063.0	6.308359385557673e+17
19064.0	6.307161986564095e+17
19065.0	6.305974258237439e+17
19066.0	6.304802636038143e+17
19067.0	6.303617178228052e+17
19068.0	6.302431832965119e+17
19069.0	6.301246758234793e+17
19070.0	6.300060716717395e+17
19071.0	6.298876816392191e+17
19072.0	6.297692010097321e+17
19073.0	6.296506820023636e+17
19074.0	6.295322881949696e+17
19075.0	6.294138490890922e+17
19076.0	6.292952051613695e+17
19077.0	6.291768555339776e+17
19078.0	6.290583253417983e+17
19079.0	6.289402409342291e+17
19080.0	6.288218695663615e+17
19081.0	6.287035076356778e+17
19082.0	6.285847064215551e+17
19083.0	6.284666813633875e+17
19084.0	6.283461116209833e+17
19085.0	6.282302220227924e+17
19086.0	6.281085271583401e+17
19087.0	6.279923245252607e+17
19088.0	6.278751719522304e+17
19089.0	6.277546682002089e+17
19090.0	6.276388652143956e+17
19091.0	6.275206374315348e+17
19092.0	6.274022148931583e+17
19093.0	6.272843592149674e+17
19094.0	6.271661550600191e+17
19095.0	6.270479938966867e+17
19096.0	6.269297448626857e+17
19097.0	6.268117787344895e+17
19098.0	6.26693701247522e+17
19099.0	6.265756076124842e+17
19100.0	6.264575328518143e+17
19101.0	6.263394388672512e+17
19102.0	6.262202709311488e+17
19103.0	6.261033882615807e+17
19104.0	6.259853709628756e+17
19105.0	6.258673551321769e+17
19106.0	6.257491191005183e+17
19107.0	6.256312266522623e+17
19108.0	6.255133857939455e+17
19109.0	6.253915612555946e+17
19110.0	6.252772824099497e+17
19111.0	6.251596481211049e+17
19112.0	6.250417675567104e+17
19113.0	6.249238905574739e+17
19114.0	6.248060188011178e+17
19115.0	6.246878286970879e+17
19116.0	6.245703158333439e+17
19117.0	6.244524242239487e+17
19118.0	6.243340557221887e+17
19119.0	6.241595956046505e+17
19120.0	6.24098565825058e+17
19121.0	6.239809903263743e+17
19122.0	6.238636125192191e+17
19123.0	6.237458805030912e+17
19124.0	6.2362815575709e+17
19125.0	6.235104305916585e+17
19126.0	6.233925749833727e+17
19127.0	6.232563018366975e+17
19128.0	6.231571843514367e+17
19129.0	6.230388596801535e+17
19130.0	6.229220944510975e+17
19131.0	6.228045115424768e+17
19132.0	6.226868871102463e+17
19133.0	6.225689497829376e+17
19134.0	6.224517716246527e+17
19135.0	6.223341971046399e+17
19136.0	6.222166495679828e+17
19137.0	6.220974219329535e+17
19138.0	6.219814469806761e+17
19139.0	6.218640999317504e+17
19140.0	6.217466227195903e+17
19141.0	6.216291511697407e+17
19142.0	6.215116531957759e+17
19143.0	6.213936479207423e+17
19144.0	6.212766857691136e+17
19145.0	6.211593551478783e+17
19146.0	6.210355339111082e+17
19147.0	6.209236328863059e+17
19148.0	6.208071393083391e+17
19149.0	6.206897721966591e+17
19150.0	6.205723484618751e+17
19151.0	6.204550794969087e+17
19152.0	6.203377371316223e+17
19153.0	6.202204130115583e+17
19154.0	6.201017765636777e+17
19155.0	6.199857810593108e+17
19156.0	6.198684582674432e+17
19157.0	6.197510141902847e+17
19158.0	6.196314101863763e+17
19159.0	6.19516399784209e+17
19160.0	6.19399386042641e+17
19161.0	6.192821379792895e+17
19162.0	6.191588262106452e+17
19163.0	6.19047383273745e+17
19164.0	6.189305858184531e+17
19165.0	6.188132877729791e+17
19166.0	6.186948521623551e+17
19167.0	6.185784943400275e+17
19168.0	6.184618164923049e+17
19169.0	6.183445975793664e+17
19170.0	6.18227626409984e+17
19171.0	6.181101663944703e+17
19172.0	6.179933747412992e+17
19173.0	6.178762857119743e+17
19174.0	6.177585964777471e+17
19175.0	6.176421162516479e+17
19176.0	6.175250369391274e+17
19177.0	6.17406324154914e+17
19178.0	6.172906744010067e+17
19179.0	6.171733338532521e+17
19180.0	6.170567052886015e+17
19181.0	6.169383630012415e+17
19182.0	6.168225184918185e+17
19183.0	6.167056545568083e+17
19184.0	6.165885469327359e+17
19185.0	6.164715443060736e+17
19186.0	6.163545649577983e+17
19187.0	6.162375203880959e+17
19188.0	6.161205326512127e+17
19189.0	6.160035889545215e+17
19190.0	6.158865640980479e+17
19191.0	6.157695246314153e+17
19192.0	6.156526019761494e+17
19193.0	6.155355989999613e+17
19194.0	6.154186049716224e+17
19195.0	6.153015807442943e+17
19196.0	6.151844294295551e+17
19197.0	6.150673313824768e+17
19198.0	6.149497124028415e+17
19199.0	6.147956012307795e+17
19200.0	6.146889825823401e+17
19201.0	6.145989417107455e+17
19202.0	6.144826045104125e+17
19203.0	6.143657942624937e+17
19204.0	6.142486094632275e+17
19205.0	6.141319393749674e+17
19206.0	6.140148692899156e+17
19207.0	6.138886365380607e+17
19208.0	6.137497235663529e+17
19209.0	6.13635203408418e+17
19210.0	6.135182536998912e+17
19211.0	6.134012928065536e+17
19212.0	6.132843182817279e+17
19213.0	6.131663018917887e+17
19214.0	6.13048975814383e+17
19215.0	6.129332228106921e+17
19216.0	6.128163818045437e+17
19217.0	6.126993231839231e+17
19218.0	6.125738475039402e+17
19219.0	6.124636743226707e+17
19220.0	6.123483511652351e+17
19221.0	6.122280027422719e+17
19222.0	6.121141590556671e+17
19223.0	6.1199721955328e+17
19224.0	6.118801625404756e+17
19225.0	6.117616417155753e+17
19226.0	6.116460348833791e+17
19227.0	6.115289653575679e+17
19228.0	6.114118530498559e+17
19229.0	6.112947121509715e+17
19230.0	6.111775333635412e+17
19231.0	6.110604233626963e+17
19232.0	6.109431464285524e+17
19233.0	6.108257986805759e+17
19234.0	6.10708567953681e+17
19235.0	6.105915843411967e+17
19236.0	6.104743126499327e+17
19237.0	6.103568723476479e+17
19238.0	6.102392969887744e+17
19239.0	6.101224334032895e+17
19240.0	6.100049387847677e+17
19241.0	6.098876574466047e+17
19242.0	6.097702992128682e+17
19243.0	6.096511690954067e+17
19244.0	6.0953542524928e+17
19245.0	6.094179339862015e+17
19246.0	6.093002590126077e+17
19247.0	6.091828560396287e+17
19248.0	6.09065279422464e+17
19249.0	6.089476398907391e+17
19250.0	6.088299252110676e+17
19251.0	6.087111829269161e+17
19252.0	6.085914816151551e+17
19253.0	6.084766667374591e+17
19254.0	6.083556080091135e+17
19255.0	6.082209767227392e+17
19256.0	6.081048441345363e+17
19257.0	6.079872071892991e+17
19258.0	6.078692160350889e+17
19259.0	6.077503997214719e+17
19260.0	6.07631973757747e+17
19261.0	6.075149671464959e+17
19262.0	6.073967804678144e+17
19263.0	6.072781131218943e+17
19264.0	6.071546290372607e+17
19265.0	6.070397044785152e+17
19266.0	6.069209997333843e+17
19267.0	6.06804972212497e+17
19268.0	6.066864225867092e+17
19269.0	6.065677987217407e+17
19270.0	6.06449041477905e+17
19271.0	6.063267559855444e+17
19272.0	6.062110956060671e+17
19273.0	6.060861477792425e+17
19274.0	6.059676264650067e+17
19275.0	6.058545000742911e+17
19276.0	6.057353590516393e+17
19277.0	6.056161144296788e+17
19278.0	6.054967691444223e+17
19279.0	6.053773112421034e+17
19280.0	6.052569770797738e+17
19281.0	6.051381171453951e+17
19282.0	6.050183933941076e+17
19283.0	6.048980781061459e+17
19284.0	6.047282310239571e+17
19285.0	6.045953338725716e+17
19286.0	6.04476790608145e+17
19287.0	6.043565028627795e+17
19288.0	6.042213731532799e+17
19289.0	6.040782160352595e+17
19290.0	6.039949267348138e+17
19291.0	6.038714838941695e+17
19292.0	6.037533070721023e+17
19293.0	6.036321655761578e+17
19294.0	6.035110226122067e+17
19295.0	6.033896521072639e+17
19296.0	6.0326812319744e+17
19297.0	6.031464093188095e+17
19298.0	6.030163659718655e+17
19299.0	6.028852581105663e+17
19300.0	6.027629991821311e+17
19301.0	6.026405164176724e+17
19302.0	6.02517954241058e+17
19303.0	6.023947731948884e+17
19304.0	6.022717801933482e+17
19305.0	6.021489065896618e+17
19306.0	6.020254992607913e+17
19307.0	6.019015989613908e+17
19308.0	6.017779041828863e+17
19309.0	6.016524503132841e+17
19310.0	6.015274184605695e+17
19311.0	6.014042513255082e+17
19312.0	6.012799471146324e+17
19313.0	6.011547096711168e+17
19314.0	6.009633224611155e+17
19315.0	6.008433183206058e+17
19316.0	6.007773703001428e+17
19317.0	6.006512638667433e+17
19318.0	6.005246255955967e+17
19319.0	6.003976639436115e+17
19320.0	6.002703295578112e+17
19321.0	6.001032382032554e+17
19322.0	5.999231770820605e+17
19323.0	5.997950730414761e+17
19324.0	5.9966675236509e+17
19325.0	5.995364742769321e+17
19326.0	5.994079682123092e+17
19327.0	5.992778498572287e+17
19328.0	5.99147547721728e+17
19329.0	5.990166287439188e+17
19330.0	5.988848153307817e+17
19331.0	5.987532297382569e+17
19332.0	5.986209281081343e+17
19333.0	5.984880017364308e+17
19334.0	5.983545229049855e+17
19335.0	5.982205461397503e+17
19336.0	5.980859905605631e+17
19337.0	5.979507921343828e+17
19338.0	5.978128098787327e+17
19339.0	5.97627312659934e+17
19340.0	5.97413578547746e+17
19341.0	5.97276525470242e+17
19342.0	5.971346030155092e+17
19343.0	5.969989294445908e+17
19344.0	5.968587415442774e+17
19345.0	5.966963192190292e+17
19346.0	5.965673414350163e+17
19347.0	5.964326231867391e+17
19348.0	5.962897826687657e+17
19349.0	5.96145252405521e+17
19350.0	5.95973439802573e+17
19351.0	5.956835447493971e+17
19352.0	5.955356519825408e+17
19353.0	5.953870254221994e+17
19354.0	5.952370994664788e+17
19355.0	5.950850553173331e+17
19356.0	5.949335622997331e+17
19357.0	5.947799272510804e+17
19358.0	5.945602027640148e+17
19359.0	5.942488622344874e+17
19360.0	5.940543299256319e+17
19361.0	5.938926289507668e+17
19362.0	5.937319917213012e+17
19363.0	5.935693294818643e+17
19364.0	5.93290658595908e+17
19365.0	5.929631371405993e+17
19366.0	5.927948799093418e+17
19367.0	5.926247389462527e+17
19368.0	5.924526444161705e+17
19369.0	5.92060241761621e+17
19370.0	5.917635009751722e+17
19371.0	5.915850601835178e+17
19372.0	5.914038264048297e+17
19373.0	5.909054935968428e+17
19374.0	5.906273989383508e+17
19375.0	5.904380637216767e+17
19376.0	5.900988921675776e+17
19377.0	5.897391887963476e+17
19378.0	5.895405104179881e+17
19379.0	5.893393872497321e+17
19380.0	5.891353318435498e+17
19381.0	5.889282380835497e+17
19382.0	5.887170073417044e+17
19383.0	5.885023687278591e+17
19384.0	5.882859143998121e+17
19385.0	5.8800382410752e+17
19386.0	5.87724826415377e+17
19387.0	5.874951440913748e+17
19388.0	5.872619178601129e+17
19389.0	5.870250510428841e+17
19390.0	5.867843997051561e+17
19391.0	5.863302993281023e+17
19392.0	5.861178797806931e+17
19393.0	5.858629081803433e+17
19394.0	5.85603965063441e+17
19395.0	5.851227846519468e+17
19396.0	5.848330505202346e+17
19397.0	5.845515913308842e+17
19398.0	5.840147534140755e+17
19399.0	5.836493994065919e+17
19400.0	5.832222438675794e+17
19401.0	5.826379051084458e+17
19402.0	5.821519361998844e+17
19403.0	5.814697418118484e+17
19404.0	5.807488320405507e+17
19405.0	5.799845137394348e+17
19406.0	5.789950570135551e+17
19407.0	5.777506897843539e+17
19408.0	5.768034487282349e+17
19409.0	5.761931968599381e+17
19410.0	5.7562966373608096e+17
19411.0	5.750547321716735e+17
19412.0	5.744695398017705e+17
19413.0	5.738754839587498e+17
19414.0	5.732665247050411e+17
19415.0	5.726117543542783e+17
19416.0	5.7193090871459834e+17
19417.0	5.712328767045632e+17
19418.0	5.705078377108822e+17
19419.0	5.6977150387595936e+17
19420.0	5.690169390792703e+17
19421.0	5.6824366426139296e+17
19422.0	5.674516880206506e+17
19423.0	5.6663857039059616e+17
19424.0	5.658062890554709e+17
19425.0	5.649592828471979e+17
19426.0	5.640886847275006e+17
19427.0	5.631747665078953e+17
19428.0	5.622668711690239e+17
19429.0	5.6133199869597e+17
19430.0	5.602873997350228e+17
19431.0	5.5925510902906874e+17
19432.0	5.581209571338921e+17
19433.0	5.5686818137374726e+17
19434.0	5.554811931284822e+17
19435.0	5.537075089287846e+17
19436.0	5.5147454781194266e+17
19437.0	5.483736781728428e+17
19438.0	5.4389033888208294e+17
19439.0	5.403783706181632e+17
19440.0	5.3763231120534176e+17
19441.0	5.3472692297618765e+17
19442.0	5.315600020668417e+17
19443.0	5.2794430482022406e+17
19444.0	5.2349358980464614e+17
19445.0	5.1748666518186675e+17
19446.0	5.091876075995142e+17
19447.0	4.9865943430813e+17
19448.0	4.8683884866437184e+17
19449.0	4.6817616047636454e+17
19450.0	4.301694521311275e+17
19451.0	4.1005138966828634e+17
19452.0	4.525253762656936e+17
19453.0	4.787530182426628e+17
19454.0	4.928773731734864e+17
19455.0	5.034788323502759e+17
19456.0	5.129070253703169e+17
19457.0	5.197234786970278e+17
19458.0	5.2448937741298374e+17
19459.0	5.283758234839724e+17
19460.0	5.315396963926013e+17
19461.0	5.343450795518634e+17
19462.0	5.369817784997205e+17
19463.0	5.395858229734057e+17
19464.0	5.4393730369235616e+17
19465.0	5.4735987211414144e+17
19466.0	5.497743785765541e+17
19467.0	5.515172304475476e+17
19468.0	5.5284440854691846e+17
19469.0	5.539459717485906e+17
19470.0	5.5490702772360506e+17
19471.0	5.5580177070380365e+17
19472.0	5.5661895345329485e+17
19473.0	5.5739362714146125e+17
19474.0	5.581058734380374e+17
19475.0	5.587942821767849e+17
19476.0	5.5948774183621965e+17
19477.0	5.601304799870975e+17
19478.0	5.607576778222249e+17
19479.0	5.6136708635579725e+17
19480.0	5.619543302995968e+17
19481.0	5.62521820050227e+17
19482.0	5.6306974449117856e+17
19483.0	5.6359866789614925e+17
19484.0	5.6411208481942176e+17
19485.0	5.646070145089535e+17
19486.0	5.650782606415188e+17
19487.0	5.655297110573055e+17
19488.0	5.659422411281749e+17
19489.0	5.6632132477037216e+17
19490.0	5.666798911356926e+17
19491.0	5.6705458578827936e+17
19492.0	5.674044642121045e+17
19493.0	5.6774248128402765e+17
19494.0	5.683689150567764e+17
19495.0	5.692363042542925e+17
19496.0	5.700256879258278e+17
19497.0	5.7065694451903136e+17
19498.0	5.7132982328797914e+17
19499.0	5.7154579911584403e+17
19500.0	5.7211389564245325e+17
19501.0	5.72288768199885e+17
19502.0	5.726959006908414e+17
19503.0	5.7278286210443936e+17
19504.0	5.730492241761621e+17
19505.0	5.732190067359743e+17
19506.0	5.7327878039142394e+17
19507.0	5.734403523215357e+17
19508.0	5.735951657598975e+17
19509.0	5.7363384297499296e+17
19510.0	5.7366742578845e+17
19511.0	5.736513370674518e+17
19512.0	5.738727301185534e+17
19513.0	5.738793152457385e+17
19514.0	5.739044199727103e+17
19515.0	5.7392794190916256e+17
19516.0	5.7394195598759245e+17
19517.0	5.74017154265907e+17
19518.0	5.740553763990185e+17
19519.0	5.740523603449172e+17
19520.0	5.740456013638313e+17
19521.0	5.7403551853663565e+17
19522.0	5.7402214108364794e+17
19523.0	5.7400576763931296e+17
19524.0	5.7398666328364365e+17
19525.0	5.739650589130751e+17
19526.0	5.741558582913705e+17
19527.0	5.7420541986515616e+17
19528.0	5.74174440526097e+17
19529.0	5.743224214432426e+17
19530.0	5.7448637238258336e+17
19531.0	5.74447285244177e+17
19532.0	5.74405997634082e+17
19533.0	5.7451596781103795e+17
19534.0	5.7463284139294714e+17
19535.0	5.7458469420837536e+17
19536.0	5.745345775184554e+17
19537.0	5.7448278080006816e+17
19538.0	5.7456535916598605e+17
19539.0	5.746240358012243e+17
19540.0	5.745724875953492e+17
19541.0	5.7451355322013e+17
19542.0	5.7445308177230496e+17
19543.0	5.743912675180543e+17
19544.0	5.744272935834965e+17
19545.0	5.744964932381353e+17
19546.0	5.744255058313215e+17
19547.0	5.743676669384021e+17
19548.0	5.7429901422100474e+17
19549.0	5.742281745935017e+17
19550.0	5.741582934343679e+17
19551.0	5.7408635140396365e+17
19552.0	5.7402034305542816e+17
19553.0	5.7409436951511034e+17
19554.0	5.740190815485951e+17
19555.0	5.739434978836479e+17
19556.0	5.7386661594180256e+17
19557.0	5.737888493513385e+17
19558.0	5.7371033890106003e+17
19559.0	5.736310539026431e+17
19560.0	5.7355100092716365e+17
19561.0	5.7347019507411616e+17
19562.0	5.7338870519999136e+17
19563.0	5.733065418604543e+17
19564.0	5.7322373113009485e+17
19565.0	5.732323412672511e+17
19566.0	5.731702841627988e+17
19567.0	5.730857346837162e+17
19568.0	5.7300051614324045e+17
19569.0	5.729146637735253e+17
19570.0	5.7282848823268685e+17
19571.0	5.72741718708497e+17
19572.0	5.7265445264861856e+17
19573.0	5.725665540876969e+17
19574.0	5.724779277451264e+17
19575.0	5.723899680871764e+17
19576.0	5.723009409788585e+17
19577.0	5.7221148213684896e+17
19578.0	5.7212125231185914e+17
19579.0	5.7203147358426445e+17
19580.0	5.719408760586239e+17
19581.0	5.71849791714099e+17
19582.0	5.717587086278655e+17
19583.0	5.716671055178409e+17
19584.0	5.7157515826517325e+17
19585.0	5.714821026676735e+17
19586.0	5.714604265745066e+17
19587.0	5.713771746732713e+17
19588.0	5.712793679080106e+17
19589.0	5.711907467384147e+17
19590.0	5.710963419731284e+17
19591.0	5.7100314474796365e+17
19592.0	5.7090891439581856e+17
19593.0	5.708144978165758e+17
19594.0	5.707203171669333e+17
19595.0	5.7063310032022176e+17
19596.0	5.7053679462645754e+17
19597.0	5.7044270604178765e+17
19598.0	5.703434593020586e+17
19599.0	5.7025142480786765e+17
19600.0	5.70155500516147e+17
19601.0	5.7005896231813114e+17
19602.0	5.699624967514794e+17
19603.0	5.698618112955732e+17
19604.0	5.697697603736917e+17
19605.0	5.696700745602389e+17
19606.0	5.695761827583316e+17
19607.0	5.694791083884542e+17
19608.0	5.6938180256290125e+17
19609.0	5.6928418489084576e+17
19610.0	5.6918689703089485e+17
19611.0	5.690891501043711e+17
19612.0	5.689914233105066e+17
19613.0	5.68893481558562e+17
19614.0	5.6879542187677005e+17
19615.0	5.6869722839668045e+17
19616.0	5.6859850594495136e+17
19617.0	5.6850050036968096e+17
19618.0	5.6839588415187616e+17
19619.0	5.682956142116863e+17
19620.0	5.6819754998606496e+17
19621.0	5.6810581853033805e+17
19622.0	5.680069492779689e+17
19623.0	5.679079506313215e+17
19624.0	5.67808854467106e+17
19625.0	5.677096702225066e+17
19626.0	5.6761039139635194e+17
19627.0	5.6751099617826125e+17
19628.0	5.6741065220860576e+17
19629.0	5.67310967513634e+17
19630.0	5.6720889164595194e+17
19631.0	5.670717739761664e+17
19632.0	5.670127379589802e+17
19633.0	5.669132533323092e+17
19634.0	5.6681348230458016e+17
19635.0	5.6671359719178234e+17
19636.0	5.666136315483477e+17
19637.0	5.6650981679213216e+17
19638.0	5.6646166436468045e+17
19639.0	5.663649364443134e+17
19640.0	5.662642476329642e+17
19641.0	5.661661548860756e+17
19642.0	5.6607832182620154e+17
19643.0	5.659779225616384e+17
19644.0	5.658771133737641e+17
19645.0	5.6577406295954765e+17
19646.0	5.6567646870568954e+17
19647.0	5.655759125741567e+17
19648.0	5.6547530422353914e+17
19649.0	5.653746243600383e+17
19650.0	5.6527396337090554e+17
19651.0	5.651732369506303e+17
19652.0	5.650724765564926e+17
19653.0	5.649716622655487e+17
19654.0	5.648708542660607e+17
19655.0	5.647699444847955e+17
19656.0	5.646690342841002e+17
19657.0	5.645681861591038e+17
19658.0	5.6446724142530554e+17
19659.0	5.643662548882773e+17
19660.0	5.6426527044840096e+17
19661.0	5.641642457432064e+17
19662.0	5.640631946138964e+17
