# Flux units: erg / (cm m2 s)
# Wavelength units: Angstrom
wave	flux
19000.0	6.298790707331071e+17
19001.0	6.297604788846592e+17
19002.0	6.296439556669437e+17
19003.0	6.295263635308543e+17
19004.0	6.294087820902399e+17
19005.0	6.292912402857983e+17
19006.0	6.291736663949311e+17
19007.0	6.290560864223232e+17
19008.0	6.289378849237674e+17
19009.0	6.288201412334934e+17
19010.0	6.286982672023551e+17
19011.0	6.285854444093437e+17
19012.0	6.284673651048445e+17
19013.0	6.283506432868351e+17
19014.0	6.282330756874239e+17
19015.0	6.281155068297215e+17
19016.0	6.279973160965459e+17
19017.0	6.278803228371625e+17
19018.0	6.277627832696832e+17
19019.0	6.276452683087871e+17
19020.0	6.275276837224447e+17
19021.0	6.274101431762943e+17
19022.0	6.272926361845759e+17
19023.0	6.271750917936468e+17
19024.0	6.270574400285353e+17
19025.0	6.269400231444479e+17
19026.0	6.268221860610045e+17
19027.0	6.267042049032191e+17
19028.0	6.265875084607487e+17
19029.0	6.264700039856127e+17
19030.0	6.263525171265536e+17
19031.0	6.26235032993792e+17
19032.0	6.261175564107775e+17
19033.0	6.259991480631295e+17
19034.0	6.258826013573119e+17
19035.0	6.257650049570131e+17
19036.0	6.255922899495594e+17
19037.0	6.255301701402623e+17
19038.0	6.254128512630781e+17
19039.0	6.252954468220927e+17
19040.0	6.251780474142719e+17
19041.0	6.250606497540777e+17
19042.0	6.249424176371027e+17
19043.0	6.248258930212863e+17
19044.0	6.247085020020735e+17
19045.0	6.245911650893823e+17
19046.0	6.244732820783103e+17
19047.0	6.243563431351638e+17
19048.0	6.242369626876585e+17
19049.0	6.241218413461503e+17
19050.0	6.240045245661183e+17
19051.0	6.238789936611327e+17
19052.0	6.237686945808383e+17
19053.0	6.23652702851345e+17
19054.0	6.23535453250082e+17
19055.0	6.234155773853695e+17
19056.0	6.233009898389503e+17
19057.0	6.231837730930687e+17
19058.0	6.230665669028522e+17
19059.0	6.229493612718761e+17
19060.0	6.228319471839914e+17
19061.0	6.227150262763519e+17
19062.0	6.225978219735721e+17
19063.0	6.224807030248788e+17
19064.0	6.223624279162879e+17
19065.0	6.222451646136319e+17
19066.0	6.221293898694655e+17
19067.0	6.220123019586217e+17
19068.0	6.218952193605631e+17
19069.0	6.217781732529492e+17
19070.0	6.216610282995711e+17
19071.0	6.215441013800959e+17
19072.0	6.214270819762175e+17
19073.0	6.213100258721791e+17
19074.0	6.211930903543807e+17
19075.0	6.210761145712639e+17
19076.0	6.209589423549098e+17
19077.0	6.208420705206272e+17
19078.0	6.207249961014612e+17
19079.0	6.206083645308928e+17
19080.0	6.204914634063871e+17
19081.0	6.203745773813759e+17
19082.0	6.202572432648874e+17
19083.0	6.201406964192596e+17
19084.0	6.200216860491776e+17
19085.0	6.199071712739327e+17
19086.0	6.197871099510783e+17
19087.0	6.196721365286911e+17
19088.0	6.195566081998847e+17
19089.0	6.194375670016682e+17
19090.0	6.193232064370004e+17
19091.0	6.192064367340201e+17
19092.0	6.190894619295744e+17
19093.0	6.18973101171234e+17
19094.0	6.18856337969425e+17
19095.0	6.187396446027775e+17
19096.0	6.186229097125204e+17
19097.0	6.185064216570537e+17
19098.0	6.183898207049044e+17
19099.0	6.182732086378495e+17
19100.0	6.18156611670289e+17
19101.0	6.18040009040418e+17
19102.0	6.179223458807805e+17
19103.0	6.178069155588778e+17
19104.0	6.176903810864468e+17
19105.0	6.17573855002624e+17
19106.0	6.17457087746321e+17
19107.0	6.173407070650367e+17
19108.0	6.172243672782164e+17
19109.0	6.171038741517652e+17
19110.0	6.169913214719316e+17
19111.0	6.16875068367394e+17
19112.0	6.167586683224063e+17
19113.0	6.166422768058367e+17
19114.0	6.165258953555967e+17
19115.0	6.164092031773353e+17
19116.0	6.162931758661631e+17
19117.0	6.161767968626004e+17
19118.0	6.160599787853139e+17
19119.0	6.158888983680339e+17
19120.0	6.158274537018708e+17
19121.0	6.157113324382889e+17
19122.0	6.155954280202239e+17
19123.0	6.154791895258451e+17
19124.0	6.153629663406761e+17
19125.0	6.152467454623744e+17
19126.0	6.151304572654932e+17
19127.0	6.149960336670719e+17
19128.0	6.148980873013929e+17
19129.0	6.147812135097683e+17
19130.0	6.146658767907497e+17
19131.0	6.145497974702079e+17
19132.0	6.14433677255202e+17
19133.0	6.143171243977386e+17
19134.0	6.142015643320319e+17
19135.0	6.140854927709524e+17
19136.0	6.139694606363305e+17
19137.0	6.138517495218176e+17
19138.0	6.137372596327764e+17
19139.0	6.136214130961066e+17
19140.0	6.135054394720255e+17
19141.0	6.133894715102548e+17
19142.0	6.132734899169961e+17
19143.0	6.131569982963711e+17
19144.0	6.130415422494035e+17
19145.0	6.129257257020074e+17
19146.0	6.128036911688361e+17
19147.0	6.126929999211178e+17
19148.0	6.125780360058196e+17
19149.0	6.124621832475988e+17
19150.0	6.123462646388051e+17
19151.0	6.122305196042922e+17
19152.0	6.121146886564521e+17
19153.0	6.119988908436137e+17
19154.0	6.118815872057344e+17
19155.0	6.11649764528401e+17
19156.0	6.115332225062227e+17
19157.0	6.114174142775295e+17
19158.0	6.112991490255529e+17
19159.0	6.11185918616098e+17
19160.0	6.110704239815338e+17
19161.0	6.109547849231018e+17
19162.0	6.108328277748393e+17
19163.0	6.107232973007529e+17
19164.0	6.106079163318271e+17
19165.0	6.104921742333267e+17
19166.0	6.1037534000797e+17
19167.0	6.102605275769513e+17
19168.0	6.101454104297471e+17
19169.0	6.10029762842897e+17
19170.0	6.099144015872e+17
19171.0	6.097984816502099e+17
19172.0	6.096833103964842e+17
19173.0	6.095677926932479e+17
19174.0	6.094516917720403e+17
19175.0	6.093367839206057e+17
19176.0	6.092212871888895e+17
19177.0	6.091042232554835e+17
19178.0	6.089901226677587e+17
19179.0	6.088743033241599e+17
19180.0	6.087592911743657e+17
19181.0	6.086425936833196e+17
19182.0	6.085282831706793e+17
19183.0	6.084130117429929e+17
19184.0	6.08297471250705e+17
19185.0	6.081820946857983e+17
19186.0	6.080667061671252e+17
19187.0	6.079512538950314e+17
19188.0	6.078358683123712e+17
19189.0	6.077205211075924e+17
19190.0	6.076050960285695e+17
19191.0	6.074896534033748e+17
19192.0	6.07374340591889e+17
19193.0	6.072589450128042e+17
19194.0	6.071435649526442e+17
19195.0	6.07028172099857e+17
19196.0	6.069126632745642e+17
19197.0	6.067972433685161e+17
19198.0	6.066816055683753e+17
19199.0	6.065285722625363e+17
19200.0	6.064247348570793e+17
19201.0	6.063356072951807e+17
19202.0	6.062205771797844e+17
19203.0	6.061053040743763e+17
19204.0	6.05989706539554e+17
19205.0	6.058746397239977e+17
19206.0	6.057591891995305e+17
19207.0	6.056436956834473e+17
19208.0	6.055262761429673e+17
19209.0	6.054132736240297e+17
19210.0	6.05297930473745e+17
19211.0	6.051825848767827e+17
19212.0	6.050672191471615e+17
19213.0	6.049508618840746e+17
19214.0	6.048351185272832e+17
19215.0	6.047209899775316e+17
19216.0	6.046057606326953e+17
19217.0	6.044903630263638e+17
19218.0	6.043666163782995e+17
19219.0	6.042580487066963e+17
19220.0	6.041442268304724e+17
19221.0	6.040255260699306e+17
19222.0	6.039133392732159e+17
19223.0	6.037979706774867e+17
19224.0	6.036825545463124e+17
19225.0	6.035656771196244e+17
19226.0	6.034516895683923e+17
19227.0	6.033362539337043e+17
19228.0	6.032207845348692e+17
19229.0	6.031052896206847e+17
19230.0	6.02989753672226e+17
19231.0	6.028742972058282e+17
19232.0	6.027586738061312e+17
19233.0	6.026429937134248e+17
19234.0	6.025274128160083e+17
19235.0	6.024120878410409e+17
19236.0	6.022964850633386e+17
19237.0	6.021807140940457e+17
19238.0	6.020648150586708e+17
19239.0	6.019496157730131e+17
19240.0	6.018337284117844e+17
19241.0	6.017181746375337e+17
19242.0	6.0160251789312e+17
19243.0	6.014851586807124e+17
19244.0	6.013710219520682e+17
19245.0	6.012552259567615e+17
19246.0	6.01139239330338e+17
19247.0	6.010235411322195e+17
19248.0	6.00907671806498e+17
19249.0	6.007917429216595e+17
19250.0	6.006757416151721e+17
19251.0	6.005586788002474e+17
19252.0	6.004409312651946e+17
19253.0	6.003276395489961e+17
19254.0	6.002116529225727e+17
19255.0	6.000936448513363e+17
19256.0	5.999790670916265e+17
19257.0	5.998631886782463e+17
19258.0	5.997469290026324e+17
19259.0	5.996298966663167e+17
19260.0	5.995131887594153e+17
19261.0	5.993979062867284e+17
19262.0	5.992814626209791e+17
19263.0	5.991646135757482e+17
19264.0	5.990429570192724e+17
19265.0	5.989297510066857e+17
19266.0	5.988128208715775e+17
19267.0	5.986984727500116e+17
19268.0	5.985817040956073e+17
19269.0	5.984648684721492e+17
19270.0	5.983479261036544e+17
19271.0	5.981241010552831e+17
19272.0	5.979626461462527e+17
19273.0	5.978378603593727e+17
19274.0	5.977222708636329e+17
19275.0	5.97611512996386e+17
19276.0	5.974942046748672e+17
19277.0	5.973768090419199e+17
19278.0	5.972593137942527e+17
19279.0	5.971417203998719e+17
19280.0	5.970232640274431e+17
19281.0	5.969062720962559e+17
19282.0	5.967884396265471e+17
19283.0	5.966699641700351e+17
19284.0	5.965522948587519e+17
19285.0	5.964325701287936e+17
19286.0	5.963159807808852e+17
19287.0	5.961976081547263e+17
19288.0	5.960644971637417e+17
19289.0	5.95923861381666e+17
19290.0	5.958417824874496e+17
19291.0	5.957203448736425e+17
19292.0	5.956039840453974e+17
19293.0	5.954847945785343e+17
19294.0	5.953656139197097e+17
19295.0	5.952462157163178e+17
19296.0	5.951266679859881e+17
19297.0	5.950069514349225e+17
19298.0	5.948871111518889e+17
19299.0	5.947670965256191e+17
19300.0	5.946468912682326e+17
19301.0	5.945264695847593e+17
19302.0	5.944059907189418e+17
19303.0	5.942849070344874e+17
19304.0	5.941640097169407e+17
19305.0	5.940432526289578e+17
19306.0	5.93785727885858e+17
19307.0	5.936069077893119e+17
19308.0	5.934853201592319e+17
19309.0	5.933619407224831e+17
19310.0	5.93239293890833e+17
19311.0	5.931184478137002e+17
19312.0	5.929958738930346e+17
19313.0	5.928728244082004e+17
19314.0	5.926868019926356e+17
19315.0	5.925683198252374e+17
19316.0	5.925021595030868e+17
19317.0	5.923782455022932e+17
19318.0	5.922538617394516e+17
19319.0	5.921291815092223e+17
19320.0	5.920041623792297e+17
19321.0	5.918788234335571e+17
19322.0	5.917363207667711e+17
19323.0	5.915849382690815e+17
19324.0	5.914335582879744e+17
19325.0	5.910886304011603e+17
19326.0	5.909623701766143e+17
19327.0	5.908343892388521e+17
19328.0	5.907062639471274e+17
19329.0	5.905775635464192e+17
19330.0	5.904479924082004e+17
19331.0	5.903186661474303e+17
19332.0	5.901886423039999e+17
19333.0	5.900580446797823e+17
19334.0	5.899269134701908e+17
19335.0	5.897952811111763e+17
19336.0	5.89631824260847e+17
19337.0	5.892326683574272e+17
19338.0	5.890968190451712e+17
19339.0	5.889645904658431e+17
19340.0	5.888284278390783e+17
19341.0	5.886935046990506e+17
19342.0	5.885538256377172e+17
19343.0	5.884203746983935e+17
19344.0	5.882825364471805e+17
19345.0	5.879565779992573e+17
19346.0	5.876373237967529e+17
19347.0	5.875040153239551e+17
19348.0	5.873629790557524e+17
19349.0	5.872203555930112e+17
19350.0	5.87076808614434e+17
19351.0	5.869323269352105e+17
19352.0	5.865898260824064e+17
19353.0	5.864270232638804e+17
19354.0	5.862789458078377e+17
19355.0	5.861288796924586e+17
19356.0	5.859793767322963e+17
19357.0	5.858279796244479e+17
19358.0	5.856754429242025e+17
19359.0	5.855212967996074e+17
19360.0	5.853663344634538e+17
19361.0	5.851490282023596e+17
19362.0	5.849790970942804e+17
19363.0	5.848192602079232e+17
19364.0	5.846578856198143e+17
19365.0	5.844949265634644e+17
19366.0	5.843303369714346e+17
19367.0	5.841640637857791e+17
19368.0	5.839960396879188e+17
19369.0	5.838257754122922e+17
19370.0	5.83653736456738e+17
19371.0	5.834807676938921e+17
19372.0	5.833050726334463e+17
19373.0	5.831272955904e+17
19374.0	5.82947376865826e+17
19375.0	5.827158143052458e+17
19376.0	5.824663859669673e+17
19377.0	5.822786093536596e+17
19378.0	5.820886737223679e+17
19379.0	5.81896133288482e+17
19380.0	5.817009231801001e+17
19381.0	5.815029421047807e+17
19382.0	5.813013242882729e+17
19383.0	5.81052296995362e+17
19384.0	5.807265122615293e+17
19385.0	5.805137403226794e+17
19386.0	5.802976583789225e+17
19387.0	5.800780435729065e+17
19388.0	5.798548459225087e+17
19389.0	5.794394747699196e+17
19390.0	5.791698533744639e+17
19391.0	5.788823483755177e+17
19392.0	5.78685325349137e+17
19393.0	5.781893679852202e+17
19394.0	5.778883144056832e+17
19395.0	5.776242382296404e+17
19396.0	5.770755783174828e+17
19397.0	5.767067015839743e+17
19398.0	5.762942632984576e+17
19399.0	5.75659527110656e+17
19400.0	5.752402438608213e+17
19401.0	5.74481394442786e+17
19402.0	5.738367842342228e+17
19403.0	5.7312125225970323e+17
19404.0	5.720103070291283e+17
19405.0	5.7129144240046086e+17
19406.0	5.70667650130466e+17
19407.0	5.701868966991188e+17
19408.0	5.6968171689956685e+17
19409.0	5.691731444673194e+17
19410.0	5.686387794422442e+17
19411.0	5.680845124446889e+17
19412.0	5.6750976501022714e+17
19413.0	5.6691376049356794e+17
19414.0	5.662893909475326e+17
19415.0	5.656351330708138e+17
19416.0	5.649641415289515e+17
19417.0	5.6427435090684576e+17
19418.0	5.6357681340525216e+17
19419.0	5.6287413955898016e+17
19420.0	5.6216422718286496e+17
19421.0	5.614463473068715e+17
19422.0	5.60685814854451e+17
19423.0	5.598985386808659e+17
19424.0	5.590950709559296e+17
19425.0	5.5827729415318176e+17
19426.0	5.5741680255849805e+17
19427.0	5.565488800552277e+17
19428.0	5.556831518719998e+17
19429.0	5.5476643898763936e+17
19430.0	5.5379940431189325e+17
19431.0	5.52787978101282e+17
19432.0	5.5170771350541645e+17
19433.0	5.504452904266409e+17
19434.0	5.4896232259474765e+17
19435.0	5.469667214753786e+17
19436.0	5.4416083066552435e+17
19437.0	5.400806972282203e+17
19438.0	5.3628161655220883e+17
19439.0	5.338173612403371e+17
19440.0	5.3108387823834445e+17
19441.0	5.28170412618547e+17
19442.0	5.249962909280938e+17
19443.0	5.2144712764620794e+17
19444.0	5.169383021565264e+17
19445.0	5.098372221020846e+17
19446.0	4.999483565801477e+17
19447.0	4.915245792712017e+17
19448.0	4.797241153115486e+17
19449.0	4.597061889906004e+17
19450.0	4.1818021652944826e+17
19451.0	3.996730920708775e+17
19452.0	4.42417089504872e+17
19453.0	4.711976690603353e+17
19454.0	4.859501733041488e+17
19455.0	4.953093073185449e+17
19456.0	5.0407233573355405e+17
19457.0	5.128875898044414e+17
19458.0	5.1801875808255994e+17
19459.0	5.218613852110849e+17
19460.0	5.2499354302982803e+17
19461.0	5.278140216289962e+17
19462.0	5.304536181418667e+17
19463.0	5.3287718863503334e+17
19464.0	5.3551856367260915e+17
19465.0	5.3967554878286637e+17
19466.0	5.428406264354119e+17
19467.0	5.4493028726865965e+17
19468.0	5.464543103462059e+17
19469.0	5.4756595518668794e+17
19470.0	5.485057322691242e+17
19471.0	5.4939140387853645e+17
19472.0	5.5011603148090003e+17
19473.0	5.5088551842283514e+17
19474.0	5.5154966500037965e+17
19475.0	5.521936910123007e+17
19476.0	5.528720101430613e+17
19477.0	5.5349331819670176e+17
19478.0	5.5409378167794336e+17
19479.0	5.546779380547583e+17
19480.0	5.552439146403157e+17
19481.0	5.55766106956322e+17
19482.0	5.562661463567017e+17
19483.0	5.567596292210688e+17
19484.0	5.5724385267002016e+17
19485.0	5.5772614100691616e+17
19486.0	5.581899712604843e+17
19487.0	5.5863666519572474e+17
19488.0	5.590620466839551e+17
19489.0	5.594524961210367e+17
19490.0	5.598084790048084e+17
19491.0	5.601694673709737e+17
19492.0	5.604968402780158e+17
19493.0	5.608046124335103e+17
19494.0	5.610942565274964e+17
19495.0	5.6136622121069216e+17
19496.0	5.616175321623209e+17
19497.0	5.6220793812200096e+17
19498.0	5.628535224576685e+17
19499.0	5.632869314243239e+17
19500.0	5.6410317982269434e+17
19501.0	5.6436360136185216e+17
19502.0	5.648549262568105e+17
19503.0	5.6503075623403475e+17
19504.0	5.654602866578772e+17
19505.0	5.655313922042537e+17
19506.0	5.6582572105618784e+17
19507.0	5.659931376091135e+17
19508.0	5.6603897561961805e+17
19509.0	5.6621256297239904e+17
19510.0	5.6638351315653965e+17
19511.0	5.662998871233876e+17
19512.0	5.6642120939383456e+17
19513.0	5.665164307202046e+17
19514.0	5.666537954344958e+17
19515.0	5.666698735998292e+17
19516.0	5.6667653492353696e+17
19517.0	5.666743282302974e+17
19518.0	5.666699820924926e+17
19519.0	5.667879192100863e+17
19520.0	5.6680090603356154e+17
19521.0	5.6678437404453536e+17
19522.0	5.6676482194691405e+17
19523.0	5.6674254816542714e+17
19524.0	5.6671764161931936e+17
19525.0	5.666901767574868e+17
19526.0	5.6666084361284256e+17
19527.0	5.666552075168424e+17
19528.0	5.667004464409258e+17
19529.0	5.666631350310228e+17
19530.0	5.6662371773098656e+17
19531.0	5.665822668226558e+17
19532.0	5.665388557762558e+17
19533.0	5.664935331059028e+17
19534.0	5.664463817190057e+17
19535.0	5.663974555123712e+17
19536.0	5.6634675357723296e+17
19537.0	5.6629453959550285e+17
19538.0	5.662397226986154e+17
19539.0	5.661795484871338e+17
19540.0	5.6612836329826976e+17
19541.0	5.6607008561124685e+17
19542.0	5.6601039318548474e+17
19543.0	5.659843405458089e+17
19544.0	5.659532622910804e+17
19545.0	5.658845983189674e+17
19546.0	5.6581502439260154e+17
19547.0	5.657582228209663e+17
19548.0	5.656910169986389e+17
19549.0	5.6562179623266976e+17
19550.0	5.655534737468074e+17
19551.0	5.655665894053202e+17
19552.0	5.6560771672309754e+17
19553.0	5.655347420550483e+17
19554.0	5.6546094956762445e+17
19555.0	5.653868880155988e+17
19556.0	5.6531159228962125e+17
19557.0	5.652354484054698e+17
19558.0	5.652718748172291e+17
19559.0	5.654087865466879e+17
19560.0	5.653296859578368e+17
19561.0	5.652498807259135e+17
19562.0	5.651694336955732e+17
19563.0	5.6508834339880954e+17
19564.0	5.650066484931242e+17
19565.0	5.6492435373206176e+17
19566.0	5.648412853316266e+17
19567.0	5.647580695014058e+17
19568.0	5.64883101983266e+17
19569.0	5.6485875327959034e+17
19570.0	5.647733837441706e+17
19571.0	5.6468745398954656e+17
19572.0	5.64601061253666e+17
19573.0	5.64514035807027e+17
19574.0	5.644263833119402e+17
19575.0	5.6433930921137485e+17
19576.0	5.642512374956031e+17
19577.0	5.64162686161169e+17
19578.0	5.6407351721547085e+17
19579.0	5.639847454703615e+17
19580.0	5.638951777162579e+17
19581.0	5.638051470508031e+17
19582.0	5.639198007274153e+17
19583.0	5.6384087832657914e+17
19584.0	5.6374970534242976e+17
19585.0	5.636575041246549e+17
19586.0	5.635651505837396e+17
19587.0	5.634743322978985e+17
19588.0	5.633775457271806e+17
19589.0	5.632897548899669e+17
19590.0	5.631962931440298e+17
19591.0	5.631040303398911e+17
19592.0	5.630107697108308e+17
19593.0	5.6291734019112954e+17
19594.0	5.6282716524161696e+17
19595.0	5.62765792997103e+17
19596.0	5.6267015888131405e+17
19597.0	5.6257736997164365e+17
19598.0	5.624792601679188e+17
19599.0	5.623880963413332e+17
19600.0	5.6229317735437645e+17
19601.0	5.6220260932867405e+17
19602.0	5.6210982076852896e+17
19603.0	5.620101743116288e+17
19604.0	5.61948707205939e+17
19605.0	5.61989662417442e+17
19606.0	5.6189653684497043e+17
19607.0	5.618003571900415e+17
19608.0	5.617039500640255e+17
19609.0	5.6160725793505274e+17
19610.0	5.615109084807167e+17
19611.0	5.614141062512639e+17
19612.0	5.613173266710526e+17
19613.0	5.612203518459903e+17
19614.0	5.611232635650047e+17
19615.0	5.6102604945489914e+17
19616.0	5.609283267155285e+17
19617.0	5.608313284722687e+17
19618.0	5.6072790099012256e+17
19619.0	5.606287634421076e+17
19620.0	5.605315737288702e+17
19621.0	5.604407201409706e+17
19622.0	5.6034286038766925e+17
19623.0	5.602448949379071e+17
19624.0	5.601468489575081e+17
19625.0	5.600487201396052e+17
19626.0	5.5995050827448294e+17
19627.0	5.5985220581239456e+17
19628.0	5.5975294096725325e+17
19629.0	5.596544612958207e+17
19630.0	5.595543835945641e+17
19631.0	5.5941663076734285e+17
19632.0	5.593595820113919e+17
19633.0	5.592610354408105e+17
19634.0	5.59162338714146e+17
19635.0	5.5906355635377485e+17
19636.0	5.5896470310966605e+17
19637.0	5.588621745367722e+17
19638.0	5.587667352464042e+17
19639.0	5.5866781720029856e+17
19640.0	5.585682717562196e+17
19641.0	5.5845974560822605e+17
19642.0	5.583704828499284e+17
19643.0	5.582712799406762e+17
19644.0	5.5817170289950714e+17
19645.0	5.5806988735829325e+17
19646.0	5.579734344444586e+17
19647.0	5.578740811694079e+17
19648.0	5.577746838541652e+17
19649.0	5.576752202689193e+17
19650.0	5.575757810106367e+17
19651.0	5.574762794669396e+17
19652.0	5.5737674394938016e+17
19653.0	5.5727716054685005e+17
19654.0	5.5717758679121914e+17
19655.0	5.570779204812799e+17
19656.0	5.5697824270690976e+17
19657.0	5.5687864147858765e+17
19658.0	5.56778939027729e+17
19659.0	5.5667919777955834e+17
19660.0	5.565794672268628e+17
19661.0	5.564796949408426e+17
19662.0	5.563918757221718e+17
