# Flux units: erg / (cm m2 s)
# Wavelength units: Angstrom
wave	flux
19000.0	5.612608793083903e+17
19001.0	5.6114780751353165e+17
19002.0	5.6105277989410125e+17
19003.0	5.609483341747541e+17
19004.0	5.6084427691786234e+17
19005.0	5.60739676918033e+17
19006.0	5.60640299246114e+17
19007.0	5.605336092246016e+17
19008.0	5.604266460140884e+17
19009.0	5.603180107442857e+17
19010.0	5.6018094361586323e+17
19011.0	5.601159298067113e+17
19012.0	5.5999806189513363e+17
19013.0	5.5991082400699725e+17
19014.0	5.5980202949345274e+17
19015.0	5.596993578248873e+17
19016.0	5.5959374175491405e+17
19017.0	5.5949493394909856e+17
19018.0	5.593896646082558e+17
19019.0	5.5928623516876794e+17
19020.0	5.591807438793385e+17
19021.0	5.5907853148706125e+17
19022.0	5.589743614033919e+17
19023.0	5.5886751717130234e+17
19024.0	5.587651939794942e+17
19025.0	5.5866247148994554e+17
19026.0	5.585557823072938e+17
19027.0	5.584447518102868e+17
19028.0	5.583511601108309e+17
19029.0	5.5824626210570234e+17
19030.0	5.5814440979442336e+17
19031.0	5.580405636508329e+17
19032.0	5.579362102760788e+17
19033.0	5.57824579154739e+17
19034.0	5.577277918849705e+17
19035.0	5.576213372338175e+17
19036.0	5.566977923175764e+17
19037.0	5.5741631643866445e+17
19038.0	5.5731157145572685e+17
19039.0	5.5720995856930125e+17
19040.0	5.571061986885631e+17
19041.0	5.570015361936042e+17
19042.0	5.568891494683988e+17
19043.0	5.567950008352767e+17
19044.0	5.5669013582533965e+17
19045.0	5.565871804820137e+17
19046.0	5.56479033778722e+17
19047.0	5.563779867738111e+17
19048.0	5.5625664982330016e+17
19049.0	5.561642077825705e+17
19050.0	5.560647623726419e+17
19051.0	5.558511473786877e+17
19052.0	5.558377818794666e+17
19053.0	5.557577411373738e+17
19054.0	5.55654652694801e+17
19055.0	5.5552784378538656e+17
19056.0	5.5544495168552954e+17
19057.0	5.55343424922146e+17
19058.0	5.552383457230846e+17
19059.0	5.551361071164073e+17
19060.0	5.5503139324122445e+17
19061.0	5.5493019258497683e+17
19062.0	5.54826256823091e+17
19063.0	5.547229760017749e+17
19064.0	5.546078056568149e+17
19065.0	5.5450094401836365e+17
19066.0	5.5440750604014925e+17
19067.0	5.543087386394623e+17
19068.0	5.542060632659284e+17
19069.0	5.541028287916713e+17
19070.0	5.5399731862787405e+17
19071.0	5.5389589763085645e+17
19072.0	5.5379226350933325e+17
19073.0	5.5368914207156896e+17
19074.0	5.535863534518271e+17
19075.0	5.5348308668142925e+17
19076.0	5.533779858817023e+17
19077.0	5.5327503724926285e+17
19078.0	5.531701548329641e+17
19079.0	5.5306992662609914e+17
19080.0	5.529654035218431e+17
19081.0	5.528601669664767e+17
19082.0	5.5275666902002336e+17
19083.0	5.526485138582185e+17
19084.0	5.5253465465268896e+17
19085.0	5.524512361676799e+17
19086.0	5.523153968518485e+17
19087.0	5.5222192881445536e+17
19088.0	5.521338442361515e+17
19089.0	5.520127567768235e+17
19090.0	5.5193351798565536e+17
19091.0	5.5183021633262925e+17
19092.0	5.517203243794431e+17
19093.0	5.516269846178475e+17
19094.0	5.5152375210093216e+17
19095.0	5.5142073957526176e+17
19096.0	5.51316599410961e+17
19097.0	5.512149338860202e+17
19098.0	5.511117637244245e+17
19099.0	5.510087724498943e+17
19100.0	5.509045047088468e+17
19101.0	5.508032538607615e+17
19102.0	5.5069054564215456e+17
19103.0	5.5059781692074643e+17
19104.0	5.504953372813994e+17
19105.0	5.5039125814422176e+17
19106.0	5.502858613664426e+17
19107.0	5.5018531327399245e+17
19108.0	5.5008375435427834e+17
19109.0	5.4992348258850125e+17
19110.0	5.498768975724542e+17
19111.0	5.497757964610217e+17
19112.0	5.496730866242901e+17
19113.0	5.4957058957858125e+17
19114.0	5.494680210199892e+17
19115.0	5.4936010004015776e+17
19116.0	5.492610449801215e+17
19117.0	5.4915839812785485e+17
19118.0	5.4904715225333754e+17
19119.0	5.483829303181304e+17
19120.0	5.488454464962558e+17
19121.0	5.4874531643610445e+17
19122.0	5.4864774979474765e+17
19123.0	5.4854520807970125e+17
19124.0	5.4843938019737594e+17
19125.0	5.483396898400938e+17
19126.0	5.482373379872084e+17
19127.0	5.479697642509652e+17
19128.0	5.4801737701130234e+17
19129.0	5.4792386045979296e+17
19130.0	5.4782622055792634e+17
19131.0	5.4772552888046925e+17
19132.0	5.476231078914729e+17
19133.0	5.475077305576106e+17
19134.0	5.474110178066431e+17
19135.0	5.4731588484027725e+17
19136.0	5.4721434402597536e+17
19137.0	5.4709712483341645e+17
19138.0	5.4700777888808954e+17
19139.0	5.4690746134254925e+17
19140.0	5.468053917663231e+17
19141.0	5.4670314477103776e+17
19142.0	5.4659878755150496e+17
19143.0	5.4649389982242125e+17
19144.0	5.463932326117375e+17
19145.0	5.4629449275364685e+17
19146.0	5.461398098979498e+17
19147.0	5.460797390061566e+17
19148.0	5.4598737204346874e+17
19149.0	5.458847121888596e+17
19150.0	5.4578320513870496e+17
19151.0	5.456819452029609e+17
19152.0	5.455786399148713e+17
19153.0	5.4547528031054496e+17
19154.0	5.4536396669801805e+17
19155.0	5.452739037364223e+17
19156.0	5.451716498205353e+17
19157.0	5.4506878094977696e+17
19158.0	5.4492728603443194e+17
19159.0	5.44864224813602e+17
19160.0	5.447623771160575e+17
19161.0	5.44660586111522e+17
19162.0	5.44465934684433e+17
19163.0	5.444055758536703e+17
19164.0	5.44306546029363e+17
19165.0	5.4420109388677114e+17
19166.0	5.440893653876735e+17
19167.0	5.4399260230505805e+17
19168.0	5.4389729967909536e+17
19169.0	5.437944473059328e+17
19170.0	5.436956450226175e+17
19171.0	5.4358818632499194e+17
19172.0	5.4349181114559136e+17
19173.0	5.4339021356837536e+17
19174.0	5.432834328799915e+17
19175.0	5.431868968490324e+17
19176.0	5.430855165367637e+17
19177.0	5.4297006181799245e+17
19178.0	5.4287975265075194e+17
19179.0	5.427723577764521e+17
19180.0	5.4267679880861005e+17
19181.0	5.425656166875135e+17
19182.0	5.424728696509781e+17
19183.0	5.423737300757161e+17
19184.0	5.4227050713579514e+17
19185.0	5.4217006991278074e+17
19186.0	5.4206884877434874e+17
19187.0	5.419615384851798e+17
19188.0	5.4186551863323296e+17
19189.0	5.417638419234815e+17
19190.0	5.4166181009599136e+17
19191.0	5.415578336493567e+17
19192.0	5.414597258728788e+17
19193.0	5.4135773137469434e+17
19194.0	5.412555345712468e+17
19195.0	5.411550731610793e+17
19196.0	5.410520391745536e+17
19197.0	5.4095117741806925e+17
19198.0	5.40849713778961e+17
19199.0	5.402237387931646e+17
19200.0	5.402831056011265e+17
19201.0	5.4054556627107834e+17
19202.0	5.4044484481406285e+17
19203.0	5.403421196681214e+17
19204.0	5.4023979843365536e+17
19205.0	5.4013966159271245e+17
19206.0	5.4003785101475834e+17
19207.0	5.3992701848890003e+17
19208.0	5.3981647173495456e+17
19209.0	5.3973413943487136e+17
19210.0	5.3963308669774496e+17
19211.0	5.3953248435896314e+17
19212.0	5.3943112089381536e+17
19213.0	5.3931893780206925e+17
19214.0	5.3921329118358176e+17
19215.0	5.39124875534882e+17
19216.0	5.390253978288126e+17
19217.0	5.389242326144341e+17
19218.0	5.387469463748606e+17
19219.0	5.387085496887977e+17
19220.0	5.38617830318626e+17
19221.0	5.384891612353877e+17
19222.0	5.3841630323889485e+17
19223.0	5.38314094481681e+17
19224.0	5.3821036661746323e+17
19225.0	5.380993417128617e+17
19226.0	5.380100415553536e+17
19227.0	5.379085395383636e+17
19228.0	5.378093328542377e+17
19229.0	5.377079344365568e+17
19230.0	5.3760623060363936e+17
19231.0	5.375041025168725e+17
19232.0	5.374028118228991e+17
19233.0	5.372962787382613e+17
19234.0	5.3719890936900256e+17
19235.0	5.3709714933241165e+17
19236.0	5.369982870006441e+17
19237.0	5.368954319011839e+17
19238.0	5.367866245251071e+17
19239.0	5.366941645886804e+17
19240.0	5.365892924484265e+17
19241.0	5.3648833058788685e+17
19242.0	5.363881940265641e+17
19243.0	5.362745199296511e+17
19244.0	5.3618710748856314e+17
19245.0	5.360852326678528e+17
19246.0	5.359825506533375e+17
19247.0	5.3588267609620474e+17
19248.0	5.3578129284792314e+17
19249.0	5.356791885987839e+17
19250.0	5.3557627687621965e+17
19251.0	5.3546466777497594e+17
19252.0	5.35352072802577e+17
19253.0	5.3527131029067085e+17
19254.0	5.3517147718724256e+17
19255.0	5.3505530370457594e+17
19256.0	5.349645349814272e+17
19257.0	5.3486718721283405e+17
19258.0	5.3476546142972576e+17
19259.0	5.3465795575589536e+17
19260.0	5.345451253432319e+17
19261.0	5.3445912484468045e+17
19262.0	5.3435344837672954e+17
19263.0	5.342504164174505e+17
19264.0	5.341040291960147e+17
19265.0	5.340340426899456e+17
19266.0	5.339288639460692e+17
19267.0	5.338494344538794e+17
19268.0	5.337473219559423e+17
19269.0	5.3364525685364045e+17
19270.0	5.3354326997510816e+17
19271.0	5.3340981295404365e+17
19272.0	5.333361624438101e+17
19273.0	5.3311773378696506e+17
19274.0	5.3305360343804563e+17
19275.0	5.330329286650538e+17
19276.0	5.329288988109481e+17
19277.0	5.3282710626850125e+17
19278.0	5.327249367280298e+17
19279.0	5.326213325258751e+17
19280.0	5.325131146592255e+17
19281.0	5.3241714954294605e+17
19282.0	5.323163200826026e+17
19283.0	5.3220532635566074e+17
19284.0	5.321045541475668e+17
19285.0	5.319916050361002e+17
19286.0	5.319023746438485e+17
19287.0	5.318027115495423e+17
19288.0	5.3145216343517824e+17
19289.0	5.310791543335587e+17
19290.0	5.3149396911172256e+17
19291.0	5.313683834710698e+17
19292.0	5.3128773371603616e+17
19293.0	5.311838686980778e+17
19294.0	5.310803180432041e+17
19295.0	5.3097783903300256e+17
19296.0	5.3087324546443936e+17
19297.0	5.3076919652625056e+17
19298.0	5.306647631101951e+17
19299.0	5.305627698003967e+17
19300.0	5.304589368688639e+17
19301.0	5.3035500809748474e+17
19302.0	5.302497444189525e+17
19303.0	5.301406211418793e+17
19304.0	5.3003952576266234e+17
19305.0	5.2993676825067514e+17
19306.0	5.298330380795903e+17
19307.0	5.297244617397589e+17
19308.0	5.2962149213579936e+17
19309.0	5.294988124487679e+17
19310.0	5.2938734602376525e+17
19311.0	5.2930424938168314e+17
19312.0	5.2920314659252896e+17
19313.0	5.290984132138324e+17
19314.0	5.2797044127607546e+17
19315.0	5.279247562178567e+17
19316.0	5.2877922367351456e+17
19317.0	5.2867486582483616e+17
19318.0	5.2856831833975456e+17
19319.0	5.284634304009556e+17
19320.0	5.2835649934677325e+17
19321.0	5.282496779736405e+17
19322.0	5.2813487490990074e+17
19323.0	5.280273804208809e+17
19324.0	5.279282527294804e+17
19325.0	5.2780250148372474e+17
19326.0	5.277131790265002e+17
19327.0	5.2760383568827725e+17
19328.0	5.274958329195178e+17
19329.0	5.2738859176645965e+17
19330.0	5.2727632080404474e+17
19331.0	5.2716672105403725e+17
19332.0	5.2706099656130554e+17
19333.0	5.269512115628715e+17
19334.0	5.268417823113215e+17
19335.0	5.267297549680639e+17
19336.0	5.2662111242813434e+17
19337.0	5.2651005313024e+17
19338.0	5.2638034043426125e+17
19339.0	5.262876204509866e+17
19340.0	5.2616426988503046e+17
19341.0	5.260587190364842e+17
19342.0	5.259156117607764e+17
19343.0	5.258379239533226e+17
19344.0	5.257239731721556e+17
19345.0	5.2543249910333395e+17
19346.0	5.2540799038696083e+17
19347.0	5.253750819476821e+17
19348.0	5.252677772509183e+17
19349.0	5.251489170369194e+17
19350.0	5.2503311880465056e+17
19351.0	5.2491622502017696e+17
19352.0	5.2479456902294176e+17
19353.0	5.2468489664157e+17
19354.0	5.245669776293887e+17
19355.0	5.244394766598143e+17
19356.0	5.2432863714344954e+17
19357.0	5.242088033615871e+17
19358.0	5.240870655055189e+17
19359.0	5.239593111300778e+17
19360.0	5.238400028246016e+17
19361.0	5.237187206097578e+17
19362.0	5.235988041302015e+17
19363.0	5.2347440750482765e+17
19364.0	5.233491561502036e+17
19365.0	5.2322351116014925e+17
19366.0	5.2309674964637e+17
19367.0	5.229691800300202e+17
19368.0	5.2284076078749005e+17
19369.0	5.2270541737820154e+17
19370.0	5.225677315899391e+17
19371.0	5.2244479877666125e+17
19372.0	5.223170060233386e+17
19373.0	5.221816694647465e+17
19374.0	5.2204850066227194e+17
19375.0	5.219130864391508e+17
19376.0	5.217764616699903e+17
19377.0	5.216372888611498e+17
19378.0	5.2149814415414605e+17
19379.0	5.2135795681307296e+17
19380.0	5.212156536553471e+17
19381.0	5.210714353784149e+17
19382.0	5.2092038688713376e+17
19383.0	5.207205650715989e+17
19384.0	5.205535804620798e+17
19385.0	5.204038240960511e+17
19386.0	5.2025233030949536e+17
19387.0	5.20098748178978e+17
19388.0	5.199435890600619e+17
19389.0	5.19786496926242e+17
19390.0	5.1962730051010554e+17
19391.0	5.187335991153995e+17
19392.0	5.192814149238782e+17
19393.0	5.191374127934121e+17
19394.0	5.1896857702782285e+17
19395.0	5.187972255186943e+17
19396.0	5.1862485290625696e+17
19397.0	5.184508919108947e+17
19398.0	5.182701601204906e+17
19399.0	5.1800460356485094e+17
19400.0	5.1778354284243616e+17
19401.0	5.176036051735892e+17
19402.0	5.1741407701893114e+17
19403.0	5.17218090614784e+17
19404.0	5.1702165667839994e+17
19405.0	5.1681826942484474e+17
19406.0	5.1661306135401805e+17
19407.0	5.1625782260968115e+17
19408.0	5.159520376455168e+17
19409.0	5.1580052351658656e+17
19410.0	5.155745948849493e+17
19411.0	5.152232733409279e+17
19412.0	5.148857187609258e+17
19413.0	5.1463357740701e+17
19414.0	5.14225226330931e+17
19415.0	5.138386448110932e+17
19416.0	5.134440325272915e+17
19417.0	5.1293067110864205e+17
19418.0	5.124360243948198e+17
19419.0	5.118821840977918e+17
19420.0	5.111034393482581e+17
19421.0	5.1027928000320896e+17
19422.0	5.0927509721579475e+17
19423.0	5.0799605770267226e+17
19424.0	5.0707778859171834e+17
19425.0	5.0649930696840525e+17
19426.0	5.058838267603625e+17
19427.0	5.052277066126677e+17
19428.0	5.045342199698772e+17
19429.0	5.0379361682281805e+17
19430.0	5.029907948109824e+17
19431.0	5.0197210350660275e+17
19432.0	5.012183905031508e+17
19433.0	5.002595493303637e+17
19434.0	4.9918422800138234e+17
19435.0	4.9799687660284563e+17
19436.0	4.966321641663145e+17
19437.0	4.9499576967277254e+17
19438.0	4.9148966183021286e+17
19439.0	4.889606162655924e+17
19440.0	4.841047170831707e+17
19441.0	4.8118781213409254e+17
19442.0	4.780714741115562e+17
19443.0	4.746476650146474e+17
19444.0	4.708988246207143e+17
19445.0	4.6682256581154176e+17
19446.0	4.6073424869239424e+17
19447.0	4.489793534689278e+17
19448.0	4.388156339475799e+17
19449.0	4.2013368964000237e+17
19450.0	3.695612735258616e+17
19451.0	3.504105284348564e+17
19452.0	3.992264119069376e+17
19453.0	4.318785956391608e+17
19454.0	4.437117934851408e+17
19455.0	4.5458777594047315e+17
19456.0	4.6356916611317856e+17
19457.0	4.680021632002729e+17
19458.0	4.691393043759132e+17
19459.0	4.749497931748702e+17
19460.0	4.781884842879657e+17
19461.0	4.8096993006496416e+17
19462.0	4.845529618623152e+17
19463.0	4.890743560732661e+17
19464.0	4.917226628972545e+17
19465.0	4.9343492689756154e+17
19466.0	4.9471638344826874e+17
19467.0	4.9579038280253446e+17
19468.0	4.9668421498961914e+17
19469.0	4.9751345664273056e+17
19470.0	4.9826109489588896e+17
19471.0	4.9896937233230496e+17
19472.0	4.9962572687168845e+17
19473.0	5.001961532642645e+17
19474.0	5.0072830642312525e+17
19475.0	5.011366744162303e+17
19476.0	5.0165111866436256e+17
19477.0	5.020630314734932e+17
19478.0	5.025654171675304e+17
19479.0	5.035083811520515e+17
19480.0	5.0446301264172326e+17
19481.0	5.0520461452246976e+17
19482.0	5.0575357614489555e+17
19483.0	5.061653280325632e+17
19484.0	5.0666578238941875e+17
19485.0	5.0683010333627686e+17
19486.0	5.0719381457469434e+17
19487.0	5.0728514764144634e+17
19488.0	5.0758594264214176e+17
19489.0	5.07669248090658e+17
19490.0	5.076108874962259e+17
19491.0	5.0794822774729376e+17
19492.0	5.080370074615807e+17
19493.0	5.08072488477218e+17
19494.0	5.081019581464575e+17
19495.0	5.081747702852266e+17
19496.0	5.0825943762425165e+17
19497.0	5.083101215937876e+17
19498.0	5.0820178356032845e+17
19499.0	5.071610270711805e+17
19500.0	5.0833003426174285e+17
19501.0	5.083283413707434e+17
19502.0	5.083229349827925e+17
19503.0	5.083900478313813e+17
19504.0	5.0841596695237965e+17
19505.0	5.084017048507732e+17
19506.0	5.083857937585492e+17
19507.0	5.0836465530525005e+17
19508.0	5.0834517604870816e+17
19509.0	5.0832109501153274e+17
19510.0	5.082753644451155e+17
19511.0	5.0644735603944045e+17
19512.0	5.080332807525715e+17
19513.0	5.07854304418201e+17
19514.0	5.079159827070973e+17
19515.0	5.0808228644126726e+17
19516.0	5.0809031916257274e+17
19517.0	5.080463521611774e+17
19518.0	5.080105169365674e+17
19519.0	5.0796627989189965e+17
19520.0	5.079189746439509e+17
19521.0	5.07885017698577e+17
19522.0	5.078976947027968e+17
19523.0	5.078507621886634e+17
19524.0	5.0779936316020045e+17
19525.0	5.077462039920639e+17
19526.0	5.0769389493944314e+17
19527.0	5.076386702163966e+17
19528.0	5.0758215008255994e+17
19529.0	5.075252623878826e+17
19530.0	5.0746791080318285e+17
19531.0	5.074086053019647e+17
19532.0	5.073483948796587e+17
19533.0	5.0728725332186445e+17
19534.0	5.072248165629951e+17
19535.0	5.071611607995732e+17
19536.0	5.070944656337579e+17
19537.0	5.0703337720381434e+17
19538.0	5.0695461963912525e+17
19539.0	5.068516817021611e+17
19540.0	5.068315447787518e+17
19541.0	5.0676572566323194e+17
19542.0	5.066967659227817e+17
19543.0	5.0662678172357965e+17
19544.0	5.065574873475753e+17
19545.0	5.064389212241919e+17
19546.0	5.0633447816123725e+17
19547.0	5.0634400363533645e+17
19548.0	5.0627109216146765e+17
19549.0	5.061902115099988e+17
19550.0	5.061247264008874e+17
19551.0	5.060508048687103e+17
19552.0	5.0597603902313805e+17
19553.0	5.058985039582549e+17
19554.0	5.058218175408811e+17
19555.0	5.057479859765247e+17
19556.0	5.0567288311862605e+17
19557.0	5.055955787404628e+17
19558.0	5.0551842053379405e+17
19559.0	5.0544061081190406e+17
19560.0	5.0536013414181536e+17
19561.0	5.052817963570517e+17
19562.0	5.0520528707911674e+17
19563.0	5.0512643227647994e+17
19564.0	5.050469539905534e+17
19565.0	5.049671510654975e+17
19566.0	5.048842391126015e+17
19567.0	5.0480644588830726e+17
19568.0	5.0472357860474874e+17
19569.0	5.046428740441428e+17
19570.0	5.045636022577834e+17
19571.0	5.0448154300689056e+17
19572.0	5.043977840143017e+17
19573.0	5.0431601228294816e+17
19574.0	5.042282875759274e+17
19575.0	5.041533417947135e+17
19576.0	5.040703920231764e+17
19577.0	5.039846034767871e+17
19578.0	5.0390047014256634e+17
19579.0	5.0381873574051834e+17
19580.0	5.037351069111635e+17
19581.0	5.036524689162239e+17
19582.0	5.0357008195037856e+17
19583.0	5.03485988741666e+17
19584.0	5.0340083507309216e+17
19585.0	5.033076923039742e+17
19586.0	5.032200558171477e+17
19587.0	5.0314444754561696e+17
19588.0	5.030190767931392e+17
19589.0	5.0297583261013325e+17
19590.0	5.0288280462513485e+17
19591.0	5.028066675217748e+17
19592.0	5.027217378290346e+17
19593.0	5.0263460682574496e+17
19594.0	5.025304509328042e+17
19595.0	5.024603437006847e+17
19596.0	5.0234331751601485e+17
19597.0	5.022899742878378e+17
19598.0	5.021666350465023e+17
19599.0	5.021199332190889e+17
19600.0	5.020343172683093e+17
19601.0	5.0194166593181005e+17
19602.0	5.0185597832833696e+17
19603.0	5.017295558541311e+17
19604.0	5.0168212967041696e+17
19605.0	5.015745410192726e+17
19606.0	5.0151349173616634e+17
19607.0	5.0142730955434656e+17
19608.0	5.013384923709439e+17
19609.0	5.012509812938068e+17
19610.0	5.011697705506132e+17
19611.0	5.010816941512021e+17
19612.0	5.0099559284954445e+17
19613.0	5.0090723983578445e+17
19614.0	5.008171944203605e+17
19615.0	5.0073292980442445e+17
19616.0	5.0063892804184736e+17
19617.0	5.005565562454015e+17
19618.0	5.004150453917012e+17
19619.0	5.0031621794256205e+17
19620.0	5.0023159233686176e+17
19621.0	5.002061087244287e+17
19622.0	5.0011899261091834e+17
19623.0	5.000310500098047e+17
19624.0	4.999422146510848e+17
19625.0	4.998549748056064e+17
19626.0	4.997669229428734e+17
19627.0	4.996786930319359e+17
19628.0	4.995774427430911e+17
19629.0	4.994924326595241e+17
19630.0	4.993706563556692e+17
19631.0	4.987379057513813e+17
19632.0	4.992369842367146e+17
19633.0	4.991453407215615e+17
19634.0	4.990608504520704e+17
19635.0	4.989691463292244e+17
19636.0	4.988826794240681e+17
19637.0	4.987642731036672e+17
19638.0	4.987061422871893e+17
19639.0	4.986172766595753e+17
19640.0	4.985165854714538e+17
19641.0	4.9834939492160864e+17
19642.0	4.983522859155454e+17
19643.0	4.9826330403580576e+17
19644.0	4.981699509223423e+17
19645.0	4.980613290743124e+17
19646.0	4.9799775062589434e+17
19647.0	4.9790999089643514e+17
19648.0	4.978213824495615e+17
19649.0	4.977324398564693e+17
19650.0	4.976439812161535e+17
19651.0	4.975547493558953e+17
19652.0	4.9746626268364806e+17
19653.0	4.973775913222143e+17
19654.0	4.97288293331763e+17
19655.0	4.9719915227818656e+17
