# Flux units: erg / (cm m2 s)
# Wavelength units: Angstrom
wave	flux
19000.0	5.272511677027669e+17
19001.0	5.2714229825099085e+17
19002.0	5.2705643630428154e+17
19003.0	5.269587696986794e+17
19004.0	5.268612168286207e+17
19005.0	5.267629995808085e+17
19006.0	5.2666669892020896e+17
19007.0	5.265685666070526e+17
19008.0	5.264639499698175e+17
19009.0	5.2636155736227834e+17
19010.0	5.26219220300595e+17
19011.0	5.2617513697716896e+17
19012.0	5.260685195171157e+17
19013.0	5.259835387936766e+17
19014.0	5.258803169722366e+17
19015.0	5.2578407992524794e+17
19016.0	5.2568450246464845e+17
19017.0	5.2559409263411194e+17
19018.0	5.2549577507252896e+17
19019.0	5.253988105235113e+17
19020.0	5.252998478779732e+17
19021.0	5.252046206795775e+17
19022.0	5.251068432045396e+17
19023.0	5.2500598976675834e+17
19024.0	5.249103764826794e+17
19025.0	5.248153412435967e+17
19026.0	5.2471491485586765e+17
19027.0	5.2461627293477536e+17
19028.0	5.24523584688401e+17
19029.0	5.2442444979677856e+17
19030.0	5.2433037365521056e+17
19031.0	5.24233155490611e+17
19032.0	5.2413512230283936e+17
19033.0	5.240281474880851e+17
19034.0	5.2394000397981005e+17
19035.0	5.23840054764066e+17
19036.0	5.2330539131426125e+17
19037.0	5.2364851089681043e+17
19038.0	5.2354996782148256e+17
19039.0	5.234550798723753e+17
19040.0	5.2335842311536634e+17
19041.0	5.232602176815104e+17
19042.0	5.231514740588543e+17
19043.0	5.230670579586389e+17
19044.0	5.2296861603594234e+17
19045.0	5.2287284986948256e+17
19046.0	5.227685738097321e+17
19047.0	5.226759746923178e+17
19048.0	5.225550581508777e+17
19049.0	5.224726681092094e+17
19050.0	5.2238181647865165e+17
19051.0	5.2222622849215123e+17
19052.0	5.221814837968894e+17
19053.0	5.2209653844541434e+17
19054.0	5.219994002522111e+17
19055.0	5.218725777812139e+17
19056.0	5.218019927479637e+17
19057.0	5.217077734408191e+17
19058.0	5.2160836074646176e+17
19059.0	5.215133359931391e+17
19060.0	5.2141501388772685e+17
19061.0	5.213210693074943e+17
19062.0	5.212235626446847e+17
19063.0	5.2112693301084154e+17
19064.0	5.210151724253183e+17
19065.0	5.209141519843326e+17
19066.0	5.208296963178494e+17
19067.0	5.207382448319146e+17
19068.0	5.2064295401990816e+17
19069.0	5.205463392758441e+17
19070.0	5.204461126068906e+17
19071.0	5.2035225247197856e+17
19072.0	5.2025527974406816e+17
19073.0	5.201588066975743e+17
19074.0	5.200627242106879e+17
19075.0	5.1996602264453114e+17
19076.0	5.1986692675993594e+17
19077.0	5.197705974382591e+17
19078.0	5.196717024608255e+17
19079.0	5.195790804145493e+17
19080.0	5.1948082800448845e+17
19081.0	5.193812980094292e+17
19082.0	5.1928439581573114e+17
19083.0	5.1918211708354554e+17
19084.0	5.190720665157632e+17
19085.0	5.189981647667198e+17
19086.0	5.1886278507670176e+17
19087.0	5.1879338178860365e+17
19088.0	5.187005305236138e+17
19089.0	5.1858908010687136e+17
19090.0	5.1851428727794336e+17
19091.0	5.184174049372841e+17
19092.0	5.1831573067421005e+17
19093.0	5.182278745456639e+17
19094.0	5.181312916084053e+17
19095.0	5.18034846454033e+17
19096.0	5.1793667282698214e+17
19097.0	5.178419004309504e+17
19098.0	5.17744877511202e+17
19099.0	5.176477811911338e+17
19100.0	5.1755094386933754e+17
19101.0	5.174563323248639e+17
19102.0	5.173462186328062e+17
19103.0	5.172639126170283e+17
19104.0	5.1716803781809485e+17
19105.0	5.1706971585249274e+17
19106.0	5.169735092142079e+17
19107.0	5.168764821001557e+17
19108.0	5.167822662183594e+17
19109.0	5.1665835221756576e+17
19110.0	5.165898507747327e+17
19111.0	5.1649389467620685e+17
19112.0	5.163976566505472e+17
19113.0	5.163017631869609e+17
19114.0	5.162054196745557e+17
19115.0	5.1610403943219194e+17
19116.0	5.160114115837951e+17
19117.0	5.159153391632383e+17
19118.0	5.1581114069811194e+17
19119.0	5.1480602341976614e+17
19120.0	5.1562493366326605e+17
19121.0	5.155308777242624e+17
19122.0	5.1543757627064314e+17
19123.0	5.1534154495426554e+17
19124.0	5.15243871637777e+17
19125.0	5.151493396452692e+17
19126.0	5.150530833743871e+17
19127.0	5.147414215611733e+17
19128.0	5.148563180879871e+17
19129.0	5.1475731958114976e+17
19130.0	5.146675934920703e+17
19131.0	5.1457364863221754e+17
19132.0	5.1447768169840634e+17
19133.0	5.1437139160378016e+17
19134.0	5.14283985384243e+17
19135.0	5.1419003101730125e+17
19136.0	5.1409494313970336e+17
19137.0	5.139796704537257e+17
19138.0	5.1390140641880736e+17
19139.0	5.138074665222143e+17
19140.0	5.1371187686604794e+17
19141.0	5.1361610035363834e+17
19142.0	5.1351751037201056e+17
19143.0	5.1341781232517114e+17
19144.0	5.1332445354939725e+17
19145.0	5.132332484788224e+17
19146.0	5.130684876193792e+17
19147.0	5.130287474278398e+17
19148.0	5.12945415205683e+17
19149.0	5.128489516662783e+17
19150.0	5.127540490371071e+17
19151.0	5.1265881666573645e+17
19152.0	5.1256286084683085e+17
19153.0	5.1246455097480525e+17
19154.0	5.1235739664383994e+17
19155.0	5.122771757563903e+17
19156.0	5.121813161967615e+17
19157.0	5.120850818760704e+17
19158.0	5.119696128267605e+17
19159.0	5.1189278548077216e+17
19160.0	5.1179813646718285e+17
19161.0	5.1170384075380045e+17
19162.0	5.115634081158485e+17
19163.0	5.115120039144106e+17
19164.0	5.1141767835156474e+17
19165.0	5.1131859015652685e+17
19166.0	5.1121053572792314e+17
19167.0	5.111273252104874e+17
19168.0	5.110346307425619e+17
19169.0	5.10938618859793e+17
19170.0	5.1084521772154874e+17
19171.0	5.10747026268706e+17
19172.0	5.106546504280745e+17
19173.0	5.1055923854049274e+17
19174.0	5.104568972432724e+17
19175.0	5.103682700618411e+17
19176.0	5.1027285810435405e+17
19177.0	5.101604210475007e+17
19178.0	5.1008166257404595e+17
19179.0	5.099833190077781e+17
19180.0	5.0989085438771194e+17
19181.0	5.0978067680242336e+17
19182.0	5.0969871926340256e+17
19183.0	5.0960643723537056e+17
19184.0	5.095096942155093e+17
19185.0	5.09414689804561e+17
19186.0	5.093205143977983e+17
19187.0	5.0921837163096736e+17
19188.0	5.0912990047764474e+17
19189.0	5.0903540840093e+17
19190.0	5.089400575404713e+17
19191.0	5.088413615128575e+17
19192.0	5.087496678757717e+17
19193.0	5.08653592449297e+17
19194.0	5.085577324003327e+17
19195.0	5.0846415677904205e+17
19196.0	5.083670887705258e+17
19197.0	5.0827289868369914e+17
19198.0	5.081783141225813e+17
19199.0	5.078226007228415e+17
19200.0	5.078110106025984e+17
19201.0	5.078931807928319e+17
19202.0	5.0779854953512954e+17
19203.0	5.077028108413611e+17
19204.0	5.0760530970105165e+17
19205.0	5.0751204424854176e+17
19206.0	5.0741646556747085e+17
19207.0	5.073093397577728e+17
19208.0	5.072005250416638e+17
19209.0	5.0713184527100576e+17
19210.0	5.070366581282132e+17
19211.0	5.06943082926353e+17
19212.0	5.068481244430334e+17
19213.0	5.067425535317332e+17
19214.0	5.066432503087104e+17
19215.0	5.065619616213674e+17
19216.0	5.0646774944453965e+17
19217.0	5.0637214245191674e+17
19218.0	5.061804950552574e+17
19219.0	5.0616672662323194e+17
19220.0	5.060849390234281e+17
19221.0	5.059542289219584e+17
19222.0	5.058964682528086e+17
19223.0	5.058000865722366e+17
19224.0	5.0570225261390496e+17
19225.0	5.0559456539661626e+17
19226.0	5.055149762412543e+17
19227.0	5.0541982621805216e+17
19228.0	5.053274027021653e+17
19229.0	5.052322635142483e+17
19230.0	5.0513677871568205e+17
19231.0	5.0504076312794445e+17
19232.0	5.049459895435264e+17
19233.0	5.04844203921681e+17
19234.0	5.047540944033108e+17
19235.0	5.046585918488575e+17
19236.0	5.0456665032840525e+17
19237.0	5.0446967459457696e+17
19238.0	5.043655852512596e+17
19239.0	5.0428145338504525e+17
19240.0	5.041836711564628e+17
19241.0	5.040880094980777e+17
19242.0	5.039939801229993e+17
19243.0	5.0388343483706016e+17
19244.0	5.038057521326762e+17
19245.0	5.0371000595906554e+17
19246.0	5.0361325566907725e+17
19247.0	5.035191334600704e+17
19248.0	5.0342496756039674e+17
19249.0	5.0332933826805754e+17
19250.0	5.032318034335061e+17
19251.0	5.031238718281044e+17
19252.0	5.0301458084877645e+17
19253.0	5.0294544620584954e+17
19254.0	5.0285275572251296e+17
19255.0	5.027384765273427e+17
19256.0	5.0265742719494816e+17
19257.0	5.025670367281151e+17
19258.0	5.0247152501609805e+17
19259.0	5.023686660019541e+17
19260.0	5.0226963289210874e+17
19261.0	5.021834110741161e+17
19262.0	5.020830479504724e+17
19263.0	5.019859517003093e+17
19264.0	5.0183109191488826e+17
19265.0	5.017775328897706e+17
19266.0	5.0167318818324474e+17
19267.0	5.016114202760534e+17
19268.0	5.015148871811072e+17
19269.0	5.0141943300096e+17
19270.0	5.013238058057727e+17
19271.0	5.0118663298088966e+17
19272.0	5.0112814047559674e+17
19273.0	5.009336568905727e+17
19274.0	5.0086280398110694e+17
19275.0	5.0084433688002554e+17
19276.0	5.007459487842303e+17
19277.0	5.006504929962666e+17
19278.0	5.0055455465362765e+17
19279.0	5.0045679640248314e+17
19280.0	5.003522036028756e+17
19281.0	5.002650058402474e+17
19282.0	5.0017076269547514e+17
19283.0	5.000700947857407e+17
19284.0	4.9997444983466656e+17
19285.0	4.998605474977107e+17
19286.0	4.997803050095956e+17
19287.0	4.996876331909119e+17
19288.0	4.994608294177449e+17
19289.0	4.992122203668475e+17
19290.0	4.993971730251775e+17
19291.0	4.992718763720704e+17
19292.0	4.9920306538960205e+17
19293.0	4.99105039192337e+17
19294.0	4.990074645118975e+17
19295.0	4.9891126479421446e+17
19296.0	4.988122386049706e+17
19297.0	4.9871398668424525e+17
19298.0	4.986151313429845e+17
19299.0	4.985198178817364e+17
19300.0	4.9842197986891085e+17
19301.0	4.983241965917524e+17
19302.0	4.9822470015112525e+17
19303.0	4.9811996942882125e+17
19304.0	4.9802594935111674e+17
19305.0	4.9792936627404794e+17
19306.0	4.978319143469055e+17
19307.0	4.9772843080089594e+17
19308.0	4.9763185135889056e+17
19309.0	4.9752504746202445e+17
19310.0	4.974214501105662e+17
19311.0	4.97333009715473e+17
19312.0	4.9723687780570445e+17
19313.0	4.971384549670911e+17
19314.0	4.963367845713242e+17
19315.0	4.9628282499017434e+17
19316.0	4.9683654351257594e+17
19317.0	4.9673717255154336e+17
19318.0	4.9663625682834765e+17
19319.0	4.9653743902610765e+17
19320.0	4.964360097103871e+17
19321.0	4.963345715866281e+17
19322.0	4.9622487851335674e+17
19323.0	4.961277018723668e+17
19324.0	4.9602986861308576e+17
19325.0	4.9591914318178976e+17
19326.0	4.958259111439019e+17
19327.0	4.9572139265338016e+17
19328.0	4.9561848645331616e+17
19329.0	4.955172350459903e+17
19330.0	4.9540915111744845e+17
19331.0	4.9530465905104205e+17
19332.0	4.952051939977898e+17
19333.0	4.9509984433602554e+17
19334.0	4.9499621909244576e+17
19335.0	4.948878047925589e+17
19336.0	4.9478533298257914e+17
19337.0	4.9467910028001274e+17
19338.0	4.945490737102847e+17
19339.0	4.9446623746457594e+17
19340.0	4.943398539274921e+17
19341.0	4.942437813671253e+17
19342.0	4.940980253884415e+17
19343.0	4.9403467147509754e+17
19344.0	4.939243264671743e+17
19345.0	4.9357716224737235e+17
19346.0	4.93593430274867e+17
19347.0	4.935861765756245e+17
19348.0	4.9348524959771296e+17
19349.0	4.933693572033194e+17
19350.0	4.9325713531426125e+17
19351.0	4.9314356411760634e+17
19352.0	4.9302366266763936e+17
19353.0	4.929196753857194e+17
19354.0	4.928048546359977e+17
19355.0	4.926778173467307e+17
19356.0	4.9257198582934176e+17
19357.0	4.924547527256745e+17
19358.0	4.923356035241299e+17
19359.0	4.9220972043741856e+17
19360.0	4.920906526752768e+17
19361.0	4.919715625435134e+17
19362.0	4.918540638704981e+17
19363.0	4.9173079425460896e+17
19364.0	4.916063591814485e+17
19365.0	4.9148129587145376e+17
19366.0	4.9135476644249594e+17
19367.0	4.9122712566278816e+17
19368.0	4.910983083808085e+17
19369.0	4.9096164334632954e+17
19370.0	4.908253992801621e+17
19371.0	4.906972791614121e+17
19372.0	4.905685064089598e+17
19373.0	4.9043003572660896e+17
19374.0	4.902939066542762e+17
19375.0	4.901547348241066e+17
19376.0	4.9001390218936314e+17
19377.0	4.8986955186176e+17
19378.0	4.89724957425664e+17
19379.0	4.8957850449346554e+17
19380.0	4.8942961425121274e+17
19381.0	4.8927800358338554e+17
19382.0	4.8911719417774086e+17
19383.0	4.889561640118955e+17
19384.0	4.888098474644821e+17
19385.0	4.8864964189880314e+17
19386.0	4.884865586211498e+17
19387.0	4.8832011990029645e+17
19388.0	4.881507592175615e+17
19389.0	4.879782671373653e+17
19390.0	4.878026691750569e+17
19391.0	4.872297907923621e+17
19392.0	4.874326332058282e+17
19393.0	4.872558275635881e+17
19394.0	4.8706544188347725e+17
19395.0	4.868723743653887e+17
19396.0	4.866768248679082e+17
19397.0	4.864770924609536e+17
19398.0	4.862692862984192e+17
19399.0	4.85973613032243e+17
19400.0	4.858401493002921e+17
19401.0	4.856307427311615e+17
19402.0	4.854093050107221e+17
19403.0	4.851794479240534e+17
19404.0	4.8494885047282336e+17
19405.0	4.847093862629374e+17
19406.0	4.844688241240747e+17
19407.0	4.842225090778453e+17
19408.0	4.838752924991489e+17
19409.0	4.837117251988138e+17
19410.0	4.834512659109204e+17
19411.0	4.83182936850432e+17
19412.0	4.829083385637546e+17
19413.0	4.8262869893338445e+17
19414.0	4.823393027227647e+17
19415.0	4.8205180646195194e+17
19416.0	4.817125058630995e+17
19417.0	4.814160490310313e+17
19418.0	4.811145055567872e+17
19419.0	4.8080170443079674e+17
19420.0	4.8048322526576634e+17
19421.0	4.8015731980588365e+17
19422.0	4.7981909958983674e+17
19423.0	4.794782992476842e+17
19424.0	4.790762625564672e+17
19425.0	4.786962309316607e+17
19426.0	4.7833395253739514e+17
19427.0	4.7793571882161485e+17
19428.0	4.7746378251632634e+17
19429.0	4.7703762850720403e+17
19430.0	4.764546473044651e+17
19431.0	4.757764051391829e+17
19432.0	4.75110810268467e+17
19433.0	4.74132163662097e+17
19434.0	4.7278497705492506e+17
19435.0	4.7068834591757715e+17
19436.0	4.678530382867122e+17
19437.0	4.6624458449879034e+17
19438.0	4.64079633182447e+17
19439.0	4.631507061353131e+17
19440.0	4.614008824223061e+17
19441.0	4.5952522665328614e+17
19442.0	4.574242236530688e+17
19443.0	4.5506504054975123e+17
19444.0	4.514611241243973e+17
19445.0	4.4360447571612954e+17
19446.0	4.3692768809888416e+17
19447.0	4.305803064377342e+17
19448.0	4.2221327372779686e+17
19449.0	4.030379095403181e+17
19450.0	3.555459414185307e+17
19451.0	3.343043186567839e+17
19452.0	3.8534046981379706e+17
19453.0	4.1365654187540506e+17
19454.0	4.267745645079206e+17
19455.0	4.3329265706816826e+17
19456.0	4.391771291254786e+17
19457.0	4.472886196699119e+17
19458.0	4.5043025843323104e+17
19459.0	4.54941051401012e+17
19460.0	4.5706304885009056e+17
19461.0	4.5887844631183354e+17
19462.0	4.6052274511107424e+17
19463.0	4.620520284749823e+17
19464.0	4.6340341945248416e+17
19465.0	4.646067257038164e+17
19466.0	4.668334585588397e+17
19467.0	4.6917277219553274e+17
19468.0	4.706680366781777e+17
19469.0	4.715452678100308e+17
19470.0	4.7226295936177517e+17
19471.0	4.727819442935125e+17
19472.0	4.7314831311284896e+17
19473.0	4.7349287686417056e+17
19474.0	4.737458940586668e+17
19475.0	4.739272807896403e+17
19476.0	4.7421473112282445e+17
19477.0	4.7440638166521165e+17
19478.0	4.7464421596856314e+17
19479.0	4.7483156308514125e+17
19480.0	4.7499263414545056e+17
19481.0	4.7514412031235405e+17
19482.0	4.752924244006228e+17
19483.0	4.7543415727281485e+17
19484.0	4.7556565883944954e+17
19485.0	4.7568528626155514e+17
19486.0	4.7582219379671034e+17
19487.0	4.7596162280762016e+17
19488.0	4.7607308475869856e+17
19489.0	4.7616123854301856e+17
19490.0	4.761012407020201e+17
19491.0	4.7636367075355296e+17
19492.0	4.7645480060627616e+17
19493.0	4.7653578989021856e+17
19494.0	4.7661048128689485e+17
19495.0	4.766800321445887e+17
19496.0	4.766917197124948e+17
19497.0	4.768017776203092e+17
19498.0	4.768050420471126e+17
19499.0	4.762808959543976e+17
19500.0	4.7695596282183674e+17
19501.0	4.769961664140628e+17
19502.0	4.7703146274051405e+17
19503.0	4.7706354056779085e+17
19504.0	4.770903060993364e+17
19505.0	4.771123440910336e+17
19506.0	4.7713155596069536e+17
19507.0	4.771430939317589e+17
19508.0	4.7715673891143674e+17
19509.0	4.771639940087808e+17
19510.0	4.7714342514196474e+17
19511.0	4.759907618258939e+17
19512.0	4.770613893092691e+17
19513.0	4.769454213474983e+17
19514.0	4.770131011261778e+17
19515.0	4.770815605560662e+17
19516.0	4.7712052459165005e+17
19517.0	4.770970397048832e+17
19518.0	4.770847385103019e+17
19519.0	4.770610910942548e+17
19520.0	4.7703224085381114e+17
19521.0	4.770092736140628e+17
19522.0	4.769754500475562e+17
19523.0	4.769471176638464e+17
19524.0	4.769125943476223e+17
19525.0	4.7687616157450234e+17
19526.0	4.7683995983762765e+17
19527.0	4.7679977546929485e+17
19528.0	4.767581310637396e+17
19529.0	4.767151370709674e+17
19530.0	4.766725118973268e+17
19531.0	4.76626700940083e+17
19532.0	4.765794469325482e+17
19533.0	4.765308184515924e+17
19534.0	4.76480492745523e+17
19535.0	4.7642795244694176e+17
19536.0	4.763724601273002e+17
19537.0	4.7632358620965536e+17
19538.0	4.762526710147755e+17
19539.0	4.7614666326671366e+17
19540.0	4.761530498635093e+17
19541.0	4.760979082575871e+17
19542.0	4.7603876954985805e+17
19543.0	4.7597811418180256e+17
19544.0	4.759187415018153e+17
19545.0	4.757960842543102e+17
19546.0	4.756878117918037e+17
19547.0	4.7573282890711034e+17
19548.0	4.756687324621482e+17
19549.0	4.7559388308002125e+17
19550.0	4.7553943234587296e+17
19551.0	4.754739863835989e+17
19552.0	4.754074622754815e+17
19553.0	4.7533745088320845e+17
19554.0	4.752681532915711e+17
19555.0	4.752030823000745e+17
19556.0	4.7513612995351885e+17
19557.0	4.750663817538219e+17
19558.0	4.74996572946432e+17
19559.0	4.7492642481984845e+17
19560.0	4.7485277277170336e+17
19561.0	4.7478184471429114e+17
19562.0	4.7471263352531616e+17
19563.0	4.7464161997400736e+17
19564.0	4.745692629871274e+17
19565.0	4.7449651781741216e+17
19566.0	4.7441979176386554e+17
19567.0	4.743497560446293e+17
19568.0	4.7427334945723725e+17
19569.0	4.74199321879074e+17
19570.0	4.741274172478805e+17
19571.0	4.7405179282827936e+17
19572.0	4.739738159633749e+17
19573.0	4.7389941159690234e+17
19574.0	4.738167521411071e+17
19575.0	4.7375045396616525e+17
19576.0	4.736739367889577e+17
19577.0	4.735943576300202e+17
19578.0	4.7351594511674016e+17
19579.0	4.7344116759702176e+17
19580.0	4.733639775835475e+17
19581.0	4.7329213125317965e+17
19582.0	4.732170739733844e+17
19583.0	4.7313930227985056e+17
19584.0	4.730603954678442e+17
19585.0	4.7297079989152416e+17
19586.0	4.7288894371485005e+17
19587.0	4.728245129838591e+17
19588.0	4.7269040249023155e+17
19589.0	4.726662223276713e+17
19590.0	4.725759294483113e+17
19591.0	4.7250965525080736e+17
19592.0	4.7243082260807674e+17
19593.0	4.723495149065557e+17
19594.0	4.722451825732266e+17
19595.0	4.7218707496523085e+17
19596.0	4.7209964246138874e+17
19597.0	4.720305703135913e+17
19598.0	4.71893716046097e+17
19599.0	4.7187152545163936e+17
19600.0	4.717921434249898e+17
19601.0	4.71703787475217e+17
19602.0	4.716247291789311e+17
19603.0	4.7149784512157e+17
19604.0	4.714638161739776e+17
19605.0	4.713546985592149e+17
19606.0	4.713070933486249e+17
19607.0	4.7122702716108794e+17
19608.0	4.711437113666217e+17
19609.0	4.71058540012066e+17
19610.0	4.7098265260960416e+17
19611.0	4.7089972220177056e+17
19612.0	4.7082065642564256e+17
19613.0	4.707379856452266e+17
19614.0	4.7065318394866336e+17
19615.0	4.705758927825577e+17
19616.0	4.7049022559136416e+17
19617.0	4.704100881705642e+17
19618.0	4.702582474451624e+17
19619.0	4.701610562639187e+17
19620.0	4.700834655546025e+17
19621.0	4.700835369975807e+17
19622.0	4.7000289926621856e+17
19623.0	4.6992081149405856e+17
19624.0	4.6983761495763616e+17
19625.0	4.697564618861225e+17
19626.0	4.696737134411775e+17
19627.0	4.695918671910228e+17
19628.0	4.695029852056233e+17
19629.0	4.6941388777280845e+17
19630.0	4.6932602682081274e+17
19631.0	4.6896572632050336e+17
19632.0	4.691792997209428e+17
19633.0	4.6909299863060474e+17
19634.0	4.6901464239090336e+17
19635.0	4.689279492729513e+17
19636.0	4.688472907098794e+17
19637.0	4.687279329815211e+17
19638.0	4.686827212505087e+17
19639.0	4.685997815453013e+17
19640.0	4.6850152522055686e+17
19641.0	4.682955161774765e+17
19642.0	4.683521588548948e+17
19643.0	4.682688901065387e+17
19644.0	4.681799530359466e+17
19645.0	4.6807049554274976e+17
19646.0	4.6802031384111763e+17
19647.0	4.6793888254743885e+17
19648.0	4.6785605664767994e+17
19649.0	4.6777222474410656e+17
19650.0	4.6768999429570554e+17
19651.0	4.676065426756948e+17
19652.0	4.6752324051271674e+17
19653.0	4.674409670027946e+17
19654.0	4.673572959507796e+17
19655.0	4.672737774316202e+17
