# Flux units: erg / (cm m2 s)
# Wavelength units: Angstrom
wave	flux
19000.0	7.561030882994854e+17
19001.0	7.559284517415593e+17
19002.0	7.55824639362116e+17
19003.0	7.556834813192872e+17
19004.0	7.55544036929263e+17
19005.0	7.554023896907775e+17
19006.0	7.552619680279208e+17
19007.0	7.551153759846399e+17
19008.0	7.549593309588138e+17
19009.0	7.548122529355092e+17
19010.0	7.545413269017938e+17
19011.0	7.545498613317632e+17
19012.0	7.543813869054633e+17
19013.0	7.542775745260202e+17
19014.0	7.541149596822185e+17
19015.0	7.539840579709612e+17
19016.0	7.538401767063551e+17
19017.0	7.537005898498047e+17
19018.0	7.535710378655744e+17
19019.0	7.534303466487808e+17
19020.0	7.532805105909756e+17
19021.0	7.531491701555197e+17
19022.0	7.530113833544362e+17
19023.0	7.528563593620138e+17
19024.0	7.527240240376488e+17
19025.0	7.525892968415232e+17
19026.0	7.524396566577151e+17
19027.0	7.522969911820288e+17
19028.0	7.521664378776234e+17
19029.0	7.520200664547327e+17
19030.0	7.518885290267987e+17
19031.0	7.517497330761728e+17
19032.0	7.516079586104659e+17
19033.0	7.51433834316868e+17
19034.0	7.513194697676115e+17
19035.0	7.511711612753236e+17
19036.0	7.49961974469973e+17
19037.0	7.508976017779369e+17
19038.0	7.507526727761919e+17
19039.0	7.506187815048531e+17
19040.0	7.504796413416787e+17
19041.0	7.503354457838932e+17
19042.0	7.501638958142802e+17
19043.0	7.500565684682751e+17
19044.0	7.49910494561348e+17
19045.0	7.497732983182675e+17
19046.0	7.49609616163908e+17
19047.0	7.494851946523305e+17
19048.0	7.492748108802726e+17
19049.0	7.491828014120957e+17
19050.0	7.490487037810003e+17
19051.0	7.487382222449318e+17
19052.0	7.487545396254036e+17
19053.0	7.486406158974973e+17
19054.0	7.485004807056041e+17
19055.0	7.482673235405485e+17
19056.0	7.482088692034217e+17
19057.0	7.480744358881961e+17
19058.0	7.479289918259197e+17
19059.0	7.477933546056361e+17
19060.0	7.476448794596692e+17
19061.0	7.475127085520212e+17
19062.0	7.473686307143676e+17
19063.0	7.472288537160361e+17
19064.0	7.470388446145196e+17
19065.0	7.46879072530159e+17
19066.0	7.467821705461757e+17
19067.0	7.466581290385405e+17
19068.0	7.465214598796627e+17
19069.0	7.463801107163817e+17
19070.0	7.462279886230867e+17
19071.0	7.460952795862355e+17
19072.0	7.459565064246611e+17
19073.0	7.458117601547602e+17
19074.0	7.456737840507561e+17
19075.0	7.455322977337341e+17
19076.0	7.453831407337471e+17
19077.0	7.452449427510611e+17
19078.0	7.450913931963049e+17
19079.0	7.449646076351828e+17
19080.0	7.448181349897555e+17
19081.0	7.446672176403796e+17
19082.0	7.445238799575722e+17
19083.0	7.443555050760874e+17
19084.0	7.441676233255593e+17
19085.0	7.441114628532906e+17
19086.0	7.438306428758698e+17
19087.0	7.437978161556138e+17
19088.0	7.43661127143697e+17
19089.0	7.434652437796182e+17
19090.0	7.433974313910271e+17
19091.0	7.43256374710545e+17
19092.0	7.430978198132051e+17
19093.0	7.429825950121983e+17
19094.0	7.428411823751168e+17
19095.0	7.427002206257151e+17
19096.0	7.425538180251647e+17
19097.0	7.424174842707965e+17
19098.0	7.422752243843071e+17
19099.0	7.421330563530752e+17
19100.0	7.41990698739302e+17
19101.0	7.418515143961257e+17
19102.0	7.4167752865437e+17
19103.0	7.415664555152723e+17
19104.0	7.414276645978111e+17
19105.0	7.412847011867305e+17
19106.0	7.411381501078182e+17
19107.0	7.409955836177066e+17
19108.0	7.408608869001897e+17
19109.0	7.40614914598502e+17
19110.0	7.405743783280637e+17
19111.0	7.404365509820415e+17
19112.0	7.402951177928703e+17
19113.0	7.401528724466348e+17
19114.0	7.40009783206434e+17
19115.0	7.398519790895101e+17
19116.0	7.397200338354173e+17
19117.0	7.395774472126463e+17
19118.0	7.394124750301866e+17
19119.0	7.383043071978141e+17
19120.0	7.391468422081193e+17
19121.0	7.39013519684403e+17
19122.0	7.38879350190899e+17
19123.0	7.38735737221939e+17
19124.0	7.385898027057151e+17
19125.0	7.38452290212113e+17
19126.0	7.383104131257684e+17
19127.0	7.375654689439741e+17
19128.0	7.379692350166355e+17
19129.0	7.378559864318633e+17
19130.0	7.377384645503658e+17
19131.0	7.376017277233833e+17
19132.0	7.374610440563369e+17
19133.0	7.372217335676928e+17
19134.0	7.371517987214676e+17
19135.0	7.37035877945617e+17
19136.0	7.368967720359251e+17
19137.0	7.366977572044799e+17
19138.0	7.366057260657321e+17
19139.0	7.364710827556864e+17
19140.0	7.36330390839842e+17
19141.0	7.361887182957224e+17
19142.0	7.360380809860436e+17
19143.0	7.358845947652778e+17
19144.0	7.357487917301757e+17
19145.0	7.356199956993366e+17
19146.0	7.352676422866263e+17
19147.0	7.353037544052051e+17
19148.0	7.351952340593324e+17
19149.0	7.350523520177492e+17
19150.0	7.349093034622973e+17
19151.0	7.347694326513663e+17
19152.0	7.346259010519039e+17
19153.0	7.344809161261055e+17
19154.0	7.343005056892925e+17
19155.0	7.342046805229568e+17
19156.0	7.340617713582079e+17
19157.0	7.339165825892352e+17
19158.0	7.337064486578858e+17
19159.0	7.336297971930451e+17
19160.0	7.334880715210752e+17
19161.0	7.333463932447402e+17
19162.0	7.33046813683439e+17
19163.0	7.330635372123476e+17
19164.0	7.329281169773906e+17
19165.0	7.327804984481108e+17
19166.0	7.326048225416531e+17
19167.0	7.324873227501568e+17
19168.0	7.323381945510569e+17
19169.0	7.322036650464596e+17
19170.0	7.320763145125888e+17
19171.0	7.319241831918249e+17
19172.0	7.317900754943997e+17
19173.0	7.316506866089981e+17
19174.0	7.31487724896256e+17
19175.0	7.313666898657279e+17
19176.0	7.312229853211306e+17
19177.0	7.310283996747092e+17
19178.0	7.309364564765356e+17
19179.0	7.307851795354964e+17
19180.0	7.306474552295423e+17
19181.0	7.3047884197178e+17
19182.0	7.30359212871953e+17
19183.0	7.302286219586217e+17
19184.0	7.30067404796723e+17
19185.0	7.299389605281791e+17
19186.0	7.298021398151165e+17
19187.0	7.296308683472896e+17
19188.0	7.29516329734417e+17
19189.0	7.293737366803795e+17
19190.0	7.29230607454481e+17
19191.0	7.290782947999743e+17
19192.0	7.289478537631059e+17
19193.0	7.288002728427517e+17
19194.0	7.286559206976169e+17
19195.0	7.285186091111764e+17
19196.0	7.28370262171102e+17
19197.0	7.282297627738111e+17
19198.0	7.280837659022675e+17
19199.0	7.269741472601427e+17
19200.0	7.271264642487639e+17
19201.0	7.276569879205203e+17
19202.0	7.275199862931455e+17
19203.0	7.273763280257023e+17
19204.0	7.272268526780415e+17
19205.0	7.270879054528511e+17
19206.0	7.269423819784191e+17
19207.0	7.26769088017203e+17
19208.0	7.265946978047316e+17
19209.0	7.265148786617002e+17
19210.0	7.263726877016063e+17
19211.0	7.262343933897386e+17
19212.0	7.260905385492479e+17
19213.0	7.259138951566675e+17
19214.0	7.25759209644578e+17
19215.0	7.256575956396713e+17
19216.0	7.255147755339775e+17
19217.0	7.253716100972543e+17
19218.0	7.24938744502681e+17
19219.0	7.250269171613693e+17
19220.0	7.249335730656595e+17
19221.0	7.246818995863552e+17
19222.0	7.246528253700777e+17
19223.0	7.245018035825322e+17
19224.0	7.243453061311144e+17
19225.0	7.241672558291625e+17
19226.0	7.240683607119187e+17
19227.0	7.239236478566399e+17
19228.0	7.237895197469353e+17
19229.0	7.236458591027199e+17
19230.0	7.23494760279791e+17
19231.0	7.233493887789738e+17
19232.0	7.232050039182676e+17
19233.0	7.230404873770323e+17
19234.0	7.229120368170323e+17
19235.0	7.227625669219667e+17
19236.0	7.22631705755648e+17
19237.0	7.224796889393833e+17
19238.0	7.223083562347178e+17
19239.0	7.221965415426729e+17
19240.0	7.220107133233833e+17
19241.0	7.218835294431913e+17
19242.0	7.217493064024063e+17
19243.0	7.214813106492755e+17
19244.0	7.214017837094228e+17
19245.0	7.212537709155667e+17
19246.0	7.211029026395476e+17
19247.0	7.209592053650772e+17
19248.0	7.208172385206271e+17
19249.0	7.20669609365777e+17
19250.0	7.205163071351466e+17
19251.0	7.203283083635369e+17
19252.0	7.201236263283369e+17
19253.0	7.200745717060947e+17
19254.0	7.199293769252863e+17
19255.0	7.197196934621864e+17
19256.0	7.196246375312041e+17
19257.0	7.194917315018752e+17
19258.0	7.193443664483668e+17
19259.0	7.191701354796372e+17
19260.0	7.190239205042857e+17
19261.0	7.188945129439232e+17
19262.0	7.187295957068457e+17
19263.0	7.18581906154018e+17
19264.0	7.182690138718203e+17
19265.0	7.1823890869562e+17
19266.0	7.18102853722658e+17
19267.0	7.180059827765247e+17
19268.0	7.178534355206144e+17
19269.0	7.1770379911168e+17
19270.0	7.175551378784255e+17
19271.0	7.172877338017795e+17
19272.0	7.172398042316799e+17
19273.0	7.159920096968692e+17
19274.0	7.163102709678071e+17
19275.0	7.168003686793215e+17
19276.0	7.166421469495293e+17
19277.0	7.164916624523263e+17
19278.0	7.163405070062931e+17
19279.0	7.16179298652433e+17
19280.0	7.160049765274964e+17
19281.0	7.158800504411476e+17
19282.0	7.157327288685908e+17
19283.0	7.155645659392684e+17
19284.0	7.153961884013908e+17
19285.0	7.151958863380477e+17
19286.0	7.151025969081002e+17
19287.0	7.149619747575123e+17
19288.0	7.145013511192571e+17
19289.0	7.139618456251037e+17
19290.0	7.144958027541161e+17
19291.0	7.142428400855724e+17
19292.0	7.141829381543251e+17
19293.0	7.140230083641343e+17
19294.0	7.13864189645073e+17
19295.0	7.137106083534163e+17
19296.0	7.135499138017961e+17
19297.0	7.133839562375165e+17
19298.0	7.132229599756288e+17
19299.0	7.130741854961663e+17
19300.0	7.129137378492415e+17
19301.0	7.127510985386665e+17
19302.0	7.125863090880511e+17
19303.0	7.124019481761108e+17
19304.0	7.122520612274175e+17
19305.0	7.120983261446143e+17
19306.0	7.119383889444863e+17
19307.0	7.117143135660714e+17
19308.0	7.115080439868074e+17
19309.0	7.113181728778921e+17
19310.0	7.111334376942249e+17
19311.0	7.110080435235497e+17
19312.0	7.108503544703658e+17
19313.0	7.106801700263251e+17
19314.0	7.099502004884822e+17
19315.0	7.098065980052827e+17
19316.0	7.101797320971604e+17
19317.0	7.10008958493218e+17
19318.0	7.09835943453218e+17
19319.0	7.09669559607842e+17
19320.0	7.094960515973119e+17
19321.0	7.093238635342505e+17
19322.0	7.091138998916436e+17
19323.0	7.089568845834922e+17
19324.0	7.087962823065599e+17
19325.0	7.085940282141353e+17
19326.0	7.084418556493823e+17
19327.0	7.082597055550804e+17
19328.0	7.080874267552425e+17
19329.0	7.079105017850536e+17
19330.0	7.077147393567402e+17
19331.0	7.075263696688468e+17
19332.0	7.072315931448659e+17
19333.0	7.070412317218131e+17
19334.0	7.068569848949417e+17
19335.0	7.066715626842794e+17
19336.0	7.064823609862825e+17
19337.0	7.06289979166993e+17
19338.0	7.06024995902805e+17
19339.0	7.059050126639101e+17
19340.0	7.056897426675027e+17
19341.0	7.055076455612415e+17
19342.0	7.051781295745704e+17
19343.0	7.051146427716948e+17
19344.0	7.049098888740863e+17
19345.0	7.040654241344159e+17
19346.0	7.040621866909692e+17
19347.0	7.041082349060096e+17
19348.0	7.039228688990207e+17
19349.0	7.036997756168872e+17
19350.0	7.034892762218495e+17
19351.0	7.032702858777939e+17
19352.0	7.030396833234943e+17
19353.0	7.028480321519615e+17
19354.0	7.026041549750273e+17
19355.0	7.021537272004607e+17
19356.0	7.019466769214121e+17
19357.0	7.017054449522003e+17
19358.0	7.014616999657471e+17
19359.0	7.011798640579923e+17
19360.0	7.009839457413802e+17
19361.0	7.00652179091183e+17
19362.0	7.002517190388393e+17
19363.0	7.000028633628671e+17
19364.0	6.997503826198525e+17
19365.0	6.994933674147839e+17
19366.0	6.991836115632123e+17
19367.0	6.986546051809279e+17
19368.0	6.983866011090941e+17
19369.0	6.980785783439359e+17
19370.0	6.977142360025772e+17
19371.0	6.971616235181398e+17
19372.0	6.968889665650687e+17
19373.0	6.96587285168128e+17
19374.0	6.960677210030081e+17
19375.0	6.955497869541375e+17
19376.0	6.952391864396457e+17
19377.0	6.947793349727571e+17
19378.0	6.943406318157823e+17
19379.0	6.940104963304106e+17
19380.0	6.93673439334673e+17
19381.0	6.933278112787113e+17
19382.0	6.92952108245538e+17
19383.0	6.925338060434089e+17
19384.0	6.922024905605119e+17
19385.0	6.918286260305919e+17
19386.0	6.914481839931391e+17
19387.0	6.910568539619327e+17
19388.0	6.90657855414818e+17
19389.0	6.902506475661993e+17
19390.0	6.898338909650943e+17
19391.0	6.885472561965724e+17
19392.0	6.889556197856595e+17
19393.0	6.884525120421885e+17
19394.0	6.879764479825236e+17
19395.0	6.875065150865407e+17
19396.0	6.870253167094441e+17
19397.0	6.865333484781568e+17
19398.0	6.860184960543402e+17
19399.0	6.851655311381842e+17
19400.0	6.848106030519635e+17
19401.0	6.842751035375615e+17
19402.0	6.837081517763241e+17
19403.0	6.829387877974015e+17
19404.0	6.823266058502143e+17
19405.0	6.816909831962624e+17
19406.0	6.808119055919785e+17
19407.0	6.801462601798995e+17
19408.0	6.790342361743366e+17
19409.0	6.784271607223635e+17
19410.0	6.774059327029247e+17
19411.0	6.76460864016657e+17
19412.0	6.752894478974975e+17
19413.0	6.739961294356474e+17
19414.0	6.725976216043523e+17
19415.0	6.710299212120063e+17
19416.0	6.692147636644515e+17
19417.0	6.675523328890194e+17
19418.0	6.663191729799168e+17
19419.0	6.651167129294164e+17
19420.0	6.638690829511338e+17
19421.0	6.62565160100386e+17
19422.0	6.611866568622079e+17
19423.0	6.597623656655529e+17
19424.0	6.582460111738198e+17
19425.0	6.567194350933331e+17
19426.0	6.551373201364307e+17
19427.0	6.534032923820031e+17
19428.0	6.516851214035625e+17
19429.0	6.497132787094866e+17
19430.0	6.476462752967338e+17
19431.0	6.452756548157441e+17
19432.0	6.429229423351126e+17
19433.0	6.40017648407893e+17
19434.0	6.366104826587822e+17
19435.0	6.322980913151997e+17
19436.0	6.278701204023981e+17
19437.0	6.244848912127316e+17
19438.0	6.200313220431872e+17
19439.0	6.167977371456855e+17
19440.0	6.123696876595882e+17
19441.0	6.073216514654202e+17
19442.0	6.01455797084706e+17
19443.0	5.943536806177452e+17
19444.0	5.861390715715578e+17
19445.0	5.780269779561134e+17
19446.0	5.6834379152534176e+17
19447.0	5.565947606379173e+17
19448.0	5.425245729761969e+17
19449.0	5.2510538463532365e+17
19450.0	5.0073688069897715e+17
19451.0	4.926345812727125e+17
19452.0	5.133487934450348e+17
19453.0	5.3435270493634624e+17
19454.0	5.494773209803427e+17
19455.0	5.6216792565022726e+17
19456.0	5.725666472711513e+17
19457.0	5.810891275283109e+17
19458.0	5.883677995171846e+17
19459.0	5.965137965307228e+17
19460.0	6.026905104242003e+17
19461.0	6.078668160543402e+17
19462.0	6.123537056137217e+17
19463.0	6.163187711169874e+17
19464.0	6.19915071595042e+17
19465.0	6.231492083930454e+17
19466.0	6.266597394786984e+17
19467.0	6.311013345394682e+17
19468.0	6.346134733018455e+17
19469.0	6.373427904512003e+17
19470.0	6.398675462914049e+17
19471.0	6.42012703358976e+17
19472.0	6.43916474945809e+17
19473.0	6.456271014199293e+17
19474.0	6.472335646610772e+17
19475.0	6.485195429511164e+17
19476.0	6.500828886073343e+17
19477.0	6.513959588855808e+17
19478.0	6.526649045265065e+17
19479.0	6.538827471869267e+17
19480.0	6.550220657655807e+17
19481.0	6.561035336373588e+17
19482.0	6.571220046009684e+17
19483.0	6.580950174881108e+17
19484.0	6.590149227970559e+17
19485.0	6.601818995949568e+17
19486.0	6.617264436543483e+17
19487.0	6.631581589088941e+17
19488.0	6.643930240821937e+17
19489.0	6.654192442321574e+17
19490.0	6.659425915895807e+17
19491.0	6.671385938100223e+17
19492.0	6.679167288475649e+17
19493.0	6.684814553208147e+17
19494.0	6.691670579303767e+17
19495.0	6.696274555655508e+17
19496.0	6.700341735893674e+17
19497.0	6.706236917547007e+17
19498.0	6.708871621334356e+17
19499.0	6.700921737532753e+17
19500.0	6.718194116984831e+17
19501.0	6.721182582352554e+17
19502.0	6.724007147601919e+17
19503.0	6.727309105736362e+17
19504.0	6.730468780496212e+17
19505.0	6.732857790343849e+17
19506.0	6.735151900568233e+17
19507.0	6.737213621185194e+17
19508.0	6.739290738393087e+17
19509.0	6.741583206547455e+17
19510.0	6.743194385514495e+17
19511.0	6.733133270133412e+17
19512.0	6.744837706831186e+17
19513.0	6.743681012858874e+17
19514.0	6.746973528915964e+17
19515.0	6.749765229696343e+17
19516.0	6.752432714066602e+17
19517.0	6.753443391733759e+17
19518.0	6.754689606833491e+17
19519.0	6.755658257574569e+17
19520.0	6.756953097240575e+17
19521.0	6.757902533875028e+17
19522.0	6.758537185897129e+17
19523.0	6.759379093858985e+17
19524.0	6.760018765064873e+17
19525.0	6.762341071497896e+17
19526.0	6.763490193353385e+17
19527.0	6.76391955796241e+17
19528.0	6.767369165384364e+17
19529.0	6.768779289690111e+17
19530.0	6.769089391362047e+17
19531.0	6.769916499722243e+17
19532.0	6.773031600914432e+17
19533.0	6.773147555244714e+17
19534.0	6.773195610084691e+17
19535.0	6.773159739697833e+17
19536.0	6.775591836931416e+17
19537.0	6.776111465758719e+17
19538.0	6.775678952625494e+17
19539.0	6.774125746629294e+17
19540.0	6.775616181370879e+17
19541.0	6.776523295380822e+17
19542.0	6.777701437625684e+17
19543.0	6.777422304597331e+17
19544.0	6.777141781856255e+17
19545.0	6.775260835042641e+17
19546.0	6.773568967453354e+17
19547.0	6.776103113501353e+17
19548.0	6.776248701987497e+17
19549.0	6.777031889693352e+17
19550.0	6.777018469318655e+17
19551.0	6.776554944899753e+17
19552.0	6.776055726953812e+17
19553.0	6.775459328382292e+17
19554.0	6.774865168870057e+17
19555.0	6.774396370812927e+17
19556.0	6.773866011557887e+17
19557.0	6.773267311012521e+17
19558.0	6.77322855424546e+17
19559.0	6.773531231999316e+17
19560.0	6.772821087398569e+17
19561.0	6.772158705434623e+17
19562.0	6.771559317722452e+17
19563.0	6.770891652333567e+17
19564.0	6.770180248742568e+17
19565.0	6.769451626834601e+17
19566.0	6.768625409064959e+17
19567.0	6.76798324154914e+17
19568.0	6.767114676688212e+17
19569.0	6.766373442508116e+17
19570.0	6.765668795241812e+17
19571.0	6.764866912124927e+17
19572.0	6.76394745008401e+17
19573.0	6.763180453090644e+17
19574.0	6.763090990683474e+17
19575.0	6.762732953010175e+17
19576.0	6.761887163919017e+17
19577.0	6.760919894502057e+17
19578.0	6.760018068111359e+17
19579.0	6.759192802448723e+17
19580.0	6.758314408935423e+17
19581.0	6.75747275542801e+17
19582.0	6.75663008689903e+17
19583.0	6.755722677190655e+17
19584.0	6.754786159012521e+17
19585.0	6.753486231655763e+17
19586.0	6.75244275662848e+17
19587.0	6.751937646384468e+17
19588.0	6.749456958139052e+17
19589.0	6.750027890993834e+17
19590.0	6.748886095888383e+17
19591.0	6.748173201921363e+17
19592.0	6.747226086135123e+17
19593.0	6.746176846736041e+17
19594.0	6.744422697926653e+17
19595.0	6.744132982669311e+17
19596.0	6.741950235410432e+17
19597.0	6.742206584979455e+17
19598.0	6.740277549072381e+17
19599.0	6.740260753681066e+17
19600.0	6.739271347426643e+17
19601.0	6.738016306812244e+17
19602.0	6.737060728318634e+17
19603.0	6.734722153578493e+17
19604.0	6.735337234978134e+17
19605.0	6.733870337971542e+17
19606.0	6.733881784227156e+17
19607.0	6.732859045139795e+17
19608.0	6.731759016214527e+17
19609.0	6.730569849940649e+17
19610.0	6.729710727157076e+17
19611.0	6.728622748467199e+17
19612.0	6.727596325382825e+17
19613.0	6.72648715637009e+17
19614.0	6.725305360187391e+17
19615.0	6.724377870947667e+17
19616.0	6.723230593187837e+17
19617.0	6.722218622975999e+17
19618.0	6.719231645188092e+17
19619.0	6.717726177361915e+17
19620.0	6.716692946223101e+17
19621.0	6.717855376605183e+17
19622.0	6.716779080450047e+17
19623.0	6.715690956357631e+17
19624.0	6.714554394345472e+17
19625.0	6.713488850288639e+17
19626.0	6.712343362098516e+17
19627.0	6.711274776472233e+17
19628.0	6.70990858260753e+17
19629.0	6.708723240140797e+17
19630.0	6.707328260068691e+17
19631.0	6.696500105052159e+17
19632.0	6.705672401278291e+17
19633.0	6.704418800708265e+17
19634.0	6.703461150228479e+17
19635.0	6.702186116765012e+17
19636.0	6.701170998028969e+17
19637.0	6.698613951780182e+17
19638.0	6.698916249949524e+17
19639.0	6.697760008262996e+17
19640.0	6.69636079054575e+17
19641.0	6.69341770754731e+17
19642.0	6.694375123845119e+17
19643.0	6.69320643486242e+17
19644.0	6.691913937016148e+17
19645.0	6.690060230808914e+17
19646.0	6.689857035654484e+17
19647.0	6.688713159475197e+17
19648.0	6.687549867862697e+17
19649.0	6.68639222178338e+17
19650.0	6.685271225532415e+17
19651.0	6.684097519463081e+17
19652.0	6.68293411180817e+17
19653.0	6.681810386463401e+17
19654.0	6.680625122290346e+17
19655.0	6.679448804567722e+17
19656.0	6.678321576280063e+17
19657.0	6.677162255275348e+17
19658.0	6.676025575123626e+17
19659.0	6.674862204518399e+17
19660.0	6.673717324502356e+17
19661.0	6.672545837918889e+17
19662.0	6.671392987327146e+17
19663.0	6.670057757911721e+17
19664.0	6.669000717806252e+17
19665.0	6.667899940197716e+17
