# Flux units: erg / (cm m2 s)
# Wavelength units: Angstrom
wave	flux
19000.0	6.548037302222847e+17
19001.0	6.546765089428822e+17
19002.0	6.545595997792938e+17
19003.0	6.544373911126016e+17
19004.0	6.543152074719232e+17
19005.0	6.541932435428691e+17
19006.0	6.540711130999465e+17
19007.0	6.539419948766547e+17
19008.0	6.538236168678058e+17
19009.0	6.537006276411391e+17
19010.0	6.535582201850536e+17
19011.0	6.534581337456637e+17
19012.0	6.533191459755348e+17
19013.0	6.532154264300201e+17
19014.0	6.53090338513442e+17
19015.0	6.529693094248447e+17
19016.0	6.528464551848617e+17
19017.0	6.527261954714282e+17
19018.0	6.526034403568297e+17
19019.0	6.524822918004735e+17
19020.0	6.523587293522602e+17
19021.0	6.522377732445523e+17
19022.0	6.521166771869012e+17
19023.0	6.519923434760874e+17
19024.0	6.518708193198079e+17
19025.0	6.517485175395668e+17
19026.0	6.516247481024511e+17
19027.0	6.514905675639465e+17
19028.0	6.513832226717695e+17
19029.0	6.512608830029823e+17
19030.0	6.511396091068415e+17
19031.0	6.510174942527487e+17
19032.0	6.508953743654911e+17
19033.0	6.50768571118387e+17
19034.0	6.506503927584084e+17
19035.0	6.505267707510783e+17
19036.0	6.493509895498408e+17
19037.0	6.502845984888148e+17
19038.0	6.501614859496105e+17
19039.0	6.500407312383999e+17
19040.0	6.499186790891519e+17
19041.0	6.497965968807251e+17
19042.0	6.496697931442857e+17
19043.0	6.495525926862847e+17
19044.0	6.494303594829139e+17
19045.0	6.493079566199466e+17
19046.0	6.491838619844607e+17
19047.0	6.490638365928105e+17
19048.0	6.489317691446611e+17
19049.0	6.488172263374848e+17
19050.0	6.486963151088297e+17
19051.0	6.48418001507669e+17
19052.0	6.484300069339136e+17
19053.0	6.483308954604884e+17
19054.0	6.482106971237034e+17
19055.0	6.480755439261012e+17
19056.0	6.479657508186793e+17
19057.0	6.478443598315519e+17
19058.0	6.477208198927699e+17
19059.0	6.476011632503465e+17
19060.0	6.474780851044351e+17
19061.0	6.473574850232319e+17
19062.0	6.47235380445184e+17
19063.0	6.471136502087679e+17
19064.0	6.469859098143402e+17
19065.0	6.468609672303956e+17
19066.0	6.467451996864511e+17
19067.0	6.466264465670143e+17
19068.0	6.465047249988265e+17
19069.0	6.46383002591778e+17
19070.0	6.462599730298879e+17
19071.0	6.461390371247444e+17
19072.0	6.460176333449897e+17
19073.0	6.458957990199295e+17
19074.0	6.457743936323583e+17
19075.0	6.456527032418301e+17
19076.0	6.45529915621376e+17
19077.0	6.454086891907753e+17
19078.0	6.45286219358754e+17
19079.0	6.451659829237076e+17
19080.0	6.450435697846953e+17
19081.0	6.449206487154687e+17
19082.0	6.44798841233954e+17
19083.0	6.446739622636201e+17
19084.0	6.445459304349695e+17
19085.0	6.444364923753812e+17
19086.0	6.442946702344191e+17
19087.0	6.44162367066385e+17
19088.0	6.440673878911657e+17
19089.0	6.439247835824127e+17
19090.0	6.438271877207379e+17
19091.0	6.437059601716564e+17
19092.0	6.435762565633364e+17
19093.0	6.434645479871828e+17
19094.0	6.43342567350818e+17
19095.0	6.432210036282708e+17
19096.0	6.43099214881314e+17
19097.0	6.429788017262591e+17
19098.0	6.428576263962623e+17
19099.0	6.427362491105279e+17
19100.0	6.426130422693887e+17
19101.0	6.424929327120383e+17
19102.0	6.423671583277056e+17
19103.0	6.422510095215272e+17
19104.0	6.421297237415252e+17
19105.0	6.420084048265215e+17
19106.0	6.418815235653631e+17
19107.0	6.417651142230015e+17
19108.0	6.416445902684159e+17
19109.0	6.414327884720809e+17
19110.0	6.414004162745684e+17
19111.0	6.412811032854527e+17
19112.0	6.411599778676736e+17
19113.0	6.410388375601151e+17
19114.0	6.409176009932799e+17
19115.0	6.407921436983295e+17
19116.0	6.406742801907711e+17
19117.0	6.405532338356223e+17
19118.0	6.404240763955882e+17
19119.0	6.40106865518182e+17
19120.0	6.401818627495251e+17
19121.0	6.400638194461353e+17
19122.0	6.39949116416546e+17
19123.0	6.398280051195903e+17
19124.0	6.397018330453332e+17
19125.0	6.395853273737898e+17
19126.0	6.394644237647871e+17
19127.0	6.392541132532393e+17
19128.0	6.391805308305407e+17
19129.0	6.390980258649427e+17
19130.0	6.389803670394195e+17
19131.0	6.388589829728938e+17
19132.0	6.387393905033215e+17
19133.0	6.386020752119123e+17
19134.0	6.384784159451817e+17
19135.0	6.383764179517439e+17
19136.0	6.382562407262889e+17
19137.0	6.381269704594772e+17
19138.0	6.38011838562304e+17
19139.0	6.378937167555242e+17
19140.0	6.377730620085588e+17
19141.0	6.376522986291199e+17
19142.0	6.37530263396898e+17
19143.0	6.374079968488105e+17
19144.0	6.372881485266943e+17
19145.0	6.371690435750569e+17
19146.0	6.370173488114346e+17
19147.0	6.369228142324393e+17
19148.0	6.36806710305314e+17
19149.0	6.366862039668052e+17
19150.0	6.365654229013844e+17
19151.0	6.364452880383999e+17
19152.0	6.363232720999764e+17
19153.0	6.362029915548329e+17
19154.0	6.360767904000682e+17
19155.0	6.359628167599444e+17
19156.0	6.358420089208831e+17
19157.0	6.357202972792148e+17
19158.0	6.35539076363059e+17
19159.0	6.354791723346602e+17
19160.0	6.353584345404755e+17
19161.0	6.352353896693759e+17
19162.0	6.349786450668202e+17
19163.0	6.349956001213097e+17
19164.0	6.348778006467924e+17
19165.0	6.347545938755583e+17
19166.0	6.346276745860436e+17
19167.0	6.345030857217363e+17
19168.0	6.343933499364691e+17
19169.0	6.342714656991914e+17
19170.0	6.341548411191295e+17
19171.0	6.340259796571476e+17
19172.0	6.339133721018367e+17
19173.0	6.337932124924585e+17
19174.0	6.336704001955156e+17
19175.0	6.335530011372202e+17
19176.0	6.334325828091903e+17
19177.0	6.333043442013524e+17
19178.0	6.331886287366826e+17
19179.0	6.330593908359168e+17
19180.0	6.329470064874835e+17
19181.0	6.32824658010658e+17
19182.0	6.327086678190761e+17
19183.0	6.325892875812863e+17
19184.0	6.32466729738786e+17
19185.0	6.323487267706196e+17
19186.0	6.322286302156116e+17
19187.0	6.321045408230057e+17
19188.0	6.319873969182035e+17
19189.0	6.318657290371072e+17
19190.0	6.317448261970601e+17
19191.0	6.316237799817215e+17
19192.0	6.315063865857363e+17
19193.0	6.313843710667434e+17
19194.0	6.312644015292415e+17
19195.0	6.311451322307923e+17
19196.0	6.310243791973033e+17
19197.0	6.309037028496724e+17
19198.0	6.307819974295552e+17
19199.0	6.298407745705298e+17
19200.0	6.299875315198637e+17
19201.0	6.304213315354623e+17
19202.0	6.30302612459793e+17
19203.0	6.301806223163391e+17
19204.0	6.300611110065491e+17
19205.0	6.299415315393193e+17
19206.0	6.298211073392637e+17
19207.0	6.296963980285268e+17
19208.0	6.295703380819968e+17
19209.0	6.29460144558353e+17
19210.0	6.293404614219091e+17
19211.0	6.292200338664105e+17
19212.0	6.290996696449023e+17
19213.0	6.2896897799837e+17
19214.0	6.288439757854035e+17
19215.0	6.287351877031252e+17
19216.0	6.286176911971667e+17
19217.0	6.284975773057023e+17
19218.0	6.283343910578856e+17
19219.0	6.282486090126676e+17
19220.0	6.281344674605738e+17
19221.0	6.279985737586004e+17
19222.0	6.278949522898941e+17
19223.0	6.277740138681684e+17
19224.0	6.276513046811988e+17
19225.0	6.275259746833748e+17
19226.0	6.274117925164372e+17
19227.0	6.272910450054484e+17
19228.0	6.27171893846562e+17
19229.0	6.270512384005459e+17
19230.0	6.269288443456169e+17
19231.0	6.268080902635519e+17
19232.0	6.266884250228052e+17
19233.0	6.265648450284202e+17
19234.0	6.264465288855551e+17
19235.0	6.263258631634944e+17
19236.0	6.262062153990143e+17
19237.0	6.260845732429824e+17
19238.0	6.259586803695615e+17
19239.0	6.258437736366079e+17
19240.0	6.257183337480191e+17
19241.0	6.255993621752489e+17
19242.0	6.254800412868607e+17
19243.0	6.25351227220514e+17
19244.0	6.252389283659775e+17
19245.0	6.251179178721279e+17
19246.0	6.249959781302271e+17
19247.0	6.248755943353001e+17
19248.0	6.247545218356563e+17
19249.0	6.246327713267711e+17
19250.0	6.245109597907625e+17
19251.0	6.243843463359145e+17
19252.0	6.242547310176937e+17
19253.0	6.241466839990271e+17
19254.0	6.240211929399295e+17
19255.0	6.23847255782195e+17
19256.0	6.237321353494528e+17
19257.0	6.236134933790719e+17
19258.0	6.234919076364287e+17
19259.0	6.233665261884756e+17
19260.0	6.232297929965567e+17
19261.0	6.231263736933034e+17
19262.0	6.230021672097108e+17
19263.0	6.22879688499746e+17
19264.0	6.227331502134611e+17
19265.0	6.226285890808489e+17
19266.0	6.22506790756898e+17
19267.0	6.223941618106365e+17
19268.0	6.222718266856788e+17
19269.0	6.221494145952425e+17
19270.0	6.220268418629631e+17
19271.0	6.218871690231808e+17
19272.0	6.217798073537876e+17
19273.0	6.21526021063748e+17
19274.0	6.214578751580841e+17
19275.0	6.214130879605418e+17
19276.0	6.212890445654697e+17
19277.0	6.211661259429204e+17
19278.0	6.210430789746687e+17
19279.0	6.209183207303849e+17
19280.0	6.207923123038889e+17
19281.0	6.206723151538858e+17
19282.0	6.205494923012778e+17
19283.0	6.20412827476514e+17
19284.0	6.202891276648447e+17
19285.0	6.20170169094417e+17
19286.0	6.200545849114623e+17
19287.0	6.199320374149119e+17
19288.0	6.195171366535164e+17
19289.0	6.189975249529501e+17
19290.0	6.195581967226195e+17
19291.0	6.194199231725568e+17
19292.0	6.193082833829887e+17
19293.0	6.191826195185664e+17
19294.0	6.190570487676927e+17
19295.0	6.189320687845376e+17
19296.0	6.188062761549823e+17
19297.0	6.186792271216637e+17
19298.0	6.185532816097279e+17
19299.0	6.184279063134207e+17
19300.0	6.183012790173695e+17
19301.0	6.181742400503807e+17
19302.0	6.180468057702399e+17
19303.0	6.179162937098239e+17
19304.0	6.177907409245524e+17
19305.0	6.176642867134464e+17
19306.0	6.175365521910441e+17
19307.0	6.174056999725738e+17
19308.0	6.172785499963391e+17
19309.0	6.171221799818579e+17
19310.0	6.169838865088511e+17
19311.0	6.168891975095636e+17
19312.0	6.167638844287657e+17
19313.0	6.166339894902784e+17
19314.0	6.156969391248728e+17
19315.0	6.156167638854324e+17
19316.0	6.162414232578729e+17
19317.0	6.161124123388585e+17
19318.0	6.159806335986346e+17
19319.0	6.158498516347561e+17
19320.0	6.157175051255808e+17
19321.0	6.155852378887508e+17
19322.0	6.154460916438356e+17
19323.0	6.153058579557034e+17
19324.0	6.151845732941823e+17
19325.0	6.150239601819647e+17
19326.0	6.149162069742932e+17
19327.0	6.147806828604074e+17
19328.0	6.146459903371946e+17
19329.0	6.145100346294271e+17
19330.0	6.14371461046818e+17
19331.0	6.142341540741119e+17
19332.0	6.140986619068415e+17
19333.0	6.139602360336381e+17
19334.0	6.138216585363455e+17
19335.0	6.136826568551082e+17
19336.0	6.135425552176467e+17
19337.0	6.134017395698345e+17
19338.0	6.132499119865855e+17
19339.0	6.131186436232531e+17
19340.0	6.129721875453268e+17
19341.0	6.128316412417363e+17
19342.0	6.126677211305299e+17
19343.0	6.125435744856746e+17
19344.0	6.123979598550356e+17
19345.0	6.121516689260541e+17
19346.0	6.120613522090666e+17
19347.0	6.119524647217833e+17
19348.0	6.118070148573865e+17
19349.0	6.116554753529172e+17
19350.0	6.115040186859519e+17
19351.0	6.113520826100393e+17
19352.0	6.111963492210006e+17
19353.0	6.110458350840489e+17
19354.0	6.108904020770815e+17
19355.0	6.107287222135465e+17
19356.0	6.105756533260287e+17
19357.0	6.104164855010643e+17
19358.0	6.102547982275923e+17
19359.0	6.100868771698004e+17
19360.0	6.099286143358292e+17
19361.0	6.097640271205716e+17
19362.0	6.095998672349865e+17
19363.0	6.09431921570611e+17
19364.0	6.092622912640339e+17
19365.0	6.090912334959956e+17
19366.0	6.089184533370195e+17
19367.0	6.087439256911871e+17
19368.0	6.085601672211113e+17
19369.0	6.083071547102548e+17
19370.0	6.081159394667177e+17
19371.0	6.079453476858537e+17
19372.0	6.077630611368618e+17
19373.0	6.075748244783103e+17
19374.0	6.073861725137578e+17
19375.0	6.071939128186195e+17
19376.0	6.069993862419796e+17
19377.0	6.068018724820308e+17
19378.0	6.066019486750038e+17
19379.0	6.063989976989695e+17
19380.0	6.061930628950697e+17
19381.0	6.059840186438996e+17
19382.0	6.05767711466018e+17
19383.0	6.05550350049826e+17
19384.0	6.053375067379028e+17
19385.0	6.051152676956842e+17
19386.0	6.048785567667539e+17
19387.0	6.045442039087101e+17
19388.0	6.043094090776575e+17
19389.0	6.040702999855103e+17
19390.0	6.038264200822783e+17
19391.0	6.02653819491668e+17
19392.0	6.033121637389652e+17
19393.0	6.03067024286242e+17
19394.0	6.028029252512425e+17
19395.0	6.024506945918294e+17
19396.0	6.020970498228223e+17
19397.0	6.018168325668864e+17
19398.0	6.015270097256447e+17
19399.0	6.011969033207808e+17
19400.0	6.008845410587988e+17
19401.0	6.004110891417599e+17
19402.0	6.00089945195588e+17
19403.0	5.997588975190015e+17
19404.0	5.993020735706452e+17
19405.0	5.988067738036906e+17
19406.0	5.98443286471202e+17
19407.0	5.978647545162409e+17
19408.0	5.973170618105857e+17
19409.0	5.967859365358245e+17
19410.0	5.961361426568531e+17
19411.0	5.954276207624195e+17
19412.0	5.947265998214488e+17
19413.0	5.937557499368788e+17
19414.0	5.927745413797208e+17
19415.0	5.916755046869667e+17
19416.0	5.905355915657217e+17
19417.0	5.897311860643155e+17
19418.0	5.890649455504042e+17
19419.0	5.883517391077376e+17
19420.0	5.876078561547603e+17
19421.0	5.868269146385066e+17
19422.0	5.860086683533312e+17
19423.0	5.851553094522195e+17
19424.0	5.842294966758057e+17
19425.0	5.832468134013609e+17
19426.0	5.822613308484265e+17
19427.0	5.812215847671124e+17
19428.0	5.800193470147241e+17
19429.0	5.788734729486335e+17
19430.0	5.77480460005103e+17
19431.0	5.7589969379655686e+17
19432.0	5.7444448428796576e+17
19433.0	5.7251566040296096e+17
19434.0	5.701617589769558e+17
19435.0	5.6703992075386944e+17
19436.0	5.6281735763066816e+17
19437.0	5.5945627050530125e+17
19438.0	5.554685168233133e+17
19439.0	5.5365945639567366e+17
19440.0	5.5042269354393594e+17
19441.0	5.468335072346108e+17
19442.0	5.428645638875818e+17
19443.0	5.3802934052672896e+17
19444.0	5.310512386539526e+17
19445.0	5.218844700311551e+17
19446.0	5.1394330583804563e+17
19447.0	5.039316031329614e+17
19448.0	4.8882984989054374e+17
19449.0	4.682803697068718e+17
19450.0	4.282486295101427e+17
19451.0	4.166268225585132e+17
19452.0	4.498784501366793e+17
19453.0	4.799128926158857e+17
19454.0	4.967187118817269e+17
19455.0	5.088215087535445e+17
19456.0	5.172452309772973e+17
19457.0	5.253696821308067e+17
19458.0	5.322232466593132e+17
19459.0	5.391295262490632e+17
19460.0	5.4323329179320294e+17
19461.0	5.4680090707667616e+17
19462.0	5.499878695589207e+17
19463.0	5.5292807743187616e+17
19464.0	5.555750404707668e+17
19465.0	5.581580170952699e+17
19466.0	5.621860145648981e+17
19467.0	5.655275923046399e+17
19468.0	5.6799588260686464e+17
19469.0	5.6981327984285005e+17
19470.0	5.713994896288422e+17
19471.0	5.727251190513662e+17
19472.0	5.738622507898196e+17
19473.0	5.749007412363263e+17
19474.0	5.758527153547945e+17
19475.0	5.767143280170324e+17
19476.0	5.775379543359487e+17
19477.0	5.782836049783465e+17
19478.0	5.790459688736083e+17
19479.0	5.796974628438015e+17
19480.0	5.803073281370794e+17
19481.0	5.808831315574783e+17
19482.0	5.814220487305898e+17
19483.0	5.81927086203426e+17
19484.0	5.823977633786537e+17
19485.0	5.828351037363542e+17
19486.0	5.835916218204161e+17
19487.0	5.845810238106284e+17
19488.0	5.85388668153583e+17
19489.0	5.860349639131128e+17
19490.0	5.865298393563135e+17
19491.0	5.872109661541716e+17
19492.0	5.874856619584168e+17
19493.0	5.880435978534911e+17
19494.0	5.882198732658003e+17
19495.0	5.886159629232808e+17
19496.0	5.888141476320595e+17
19497.0	5.889651341175465e+17
19498.0	5.892152190042113e+17
19499.0	5.879646848898381e+17
19500.0	5.895480723286698e+17
19501.0	5.8965466546176e+17
19502.0	5.899200843743231e+17
19503.0	5.899942702874623e+17
19504.0	5.900597035270143e+17
19505.0	5.901200743814484e+17
19506.0	5.901740186533887e+17
19507.0	5.903045437860522e+17
19508.0	5.904136967727786e+17
19509.0	5.904486902704809e+17
19510.0	5.904681814108841e+17
19511.0	5.888662553580878e+17
19512.0	5.902945495285755e+17
19513.0	5.90123029618141e+17
19514.0	5.902479852743333e+17
19515.0	5.905199886150314e+17
19516.0	5.906078037093034e+17
19517.0	5.906618178164051e+17
19518.0	5.906592629260287e+17
19519.0	5.906492998462122e+17
19520.0	5.906361584626345e+17
19521.0	5.906221439647744e+17
19522.0	5.90601748672239e+17
19523.0	5.905817006680746e+17
19524.0	5.905570255077375e+17
19525.0	5.905283791803731e+17
19526.0	5.904991703968425e+17
19527.0	5.904663047394644e+17
19528.0	5.90430750323507e+17
19529.0	5.903933692881578e+17
19530.0	5.903536713192788e+17
19531.0	5.903114645274623e+17
19532.0	5.902671053586431e+17
19533.0	5.902206939867818e+17
19534.0	5.901721187734867e+17
19535.0	5.90121342738978e+17
19536.0	5.900723775952212e+17
19537.0	5.900877245535571e+17
19538.0	5.900270497518931e+17
19539.0	5.899469030337194e+17
19540.0	5.899143490830335e+17
19541.0	5.898552230980265e+17
19542.0	5.897931302720852e+17
19543.0	5.897299278430207e+17
19544.0	5.896652814548991e+17
19545.0	5.895758414872575e+17
19546.0	5.894868570210303e+17
19547.0	5.894637255043754e+17
19548.0	5.893940043579391e+17
19549.0	5.89318269837858e+17
19550.0	5.892513849496916e+17
19551.0	5.891785412138324e+17
19552.0	5.89104484065826e+17
19553.0	5.890283238238889e+17
19554.0	5.88951665578257e+17
19555.0	5.888759936232106e+17
19556.0	5.887990283545257e+17
19557.0	5.887201915873961e+17
19558.0	5.886408544397994e+17
19559.0	5.885602987070804e+17
19560.0	5.884782411339092e+17
19561.0	5.883964819854676e+17
19562.0	5.883155788245673e+17
19563.0	5.882324147240959e+17
19564.0	5.88148656710178e+17
19565.0	5.880642220152148e+17
19566.0	5.879775488901119e+17
19567.0	5.878933917182633e+17
19568.0	5.878058366708394e+17
19569.0	5.877199311033684e+17
19570.0	5.876329977217023e+17
19571.0	5.875448577785855e+17
19572.0	5.874551157511507e+17
19573.0	5.87366585667857e+17
19574.0	5.872735732017833e+17
19575.0	5.871884344229887e+17
19576.0	5.870981668492627e+17
19577.0	5.87006136689186e+17
19578.0	5.86914008801826e+17
19579.0	5.86823131865634e+17
19580.0	5.867312216626516e+17
19581.0	5.866394793716393e+17
19582.0	5.865476229955583e+17
19583.0	5.864545370592596e+17
19584.0	5.863608131693225e+17
19585.0	5.862616633180159e+17
19586.0	5.861656062066687e+17
19587.0	5.860734227447808e+17
19588.0	5.859599081013248e+17
19589.0	5.858876104638464e+17
19590.0	5.857890297096874e+17
19591.0	5.856981331301716e+17
19592.0	5.856022785338025e+17
19593.0	5.855051822137344e+17
19594.0	5.853970544547155e+17
19595.0	5.853112313053183e+17
19596.0	5.851215705407488e+17
19597.0	5.851163570208767e+17
19598.0	5.850045841320618e+17
19599.0	5.849242843916969e+17
19600.0	5.848270075767466e+17
19601.0	5.847255554020692e+17
19602.0	5.84628463276305e+17
19603.0	5.844991354077181e+17
19604.0	5.844302710177791e+17
19605.0	5.843201434845183e+17
19606.0	5.842363941388287e+17
19607.0	5.841376344276992e+17
19608.0	5.840379269436756e+17
19609.0	5.839363014044329e+17
19610.0	5.838396062695423e+17
19611.0	5.837396267149993e+17
19612.0	5.836401653667156e+17
19613.0	5.835396270609748e+17
19614.0	5.83438034866449e+17
19615.0	5.833397523972096e+17
19616.0	5.832315750055936e+17
19617.0	5.831389289119744e+17
19618.0	5.830099024740351e+17
19619.0	5.829023743606783e+17
19620.0	5.828030985404415e+17
19621.0	5.827361853407231e+17
19622.0	5.826351718203391e+17
19623.0	5.825340517646335e+17
19624.0	5.824323082256383e+17
19625.0	5.823313892868095e+17
19626.0	5.822300265906176e+17
19627.0	5.821284260773887e+17
19628.0	5.820070992631124e+17
19629.0	5.819204134152874e+17
19630.0	5.817810571755519e+17
19631.0	5.808226989069652e+17
19632.0	5.816188537230676e+17
19633.0	5.815148800726356e+17
19634.0	5.814155083426473e+17
19635.0	5.813113961403734e+17
19636.0	5.812112383279103e+17
19637.0	5.810896775413759e+17
19638.0	5.81006153359906e+17
19639.0	5.809033492212394e+17
19640.0	5.807967729352704e+17
19641.0	5.806595302053206e+17
19642.0	5.805965105081001e+17
19643.0	5.804931261573801e+17
19644.0	5.803879658684415e+17
19645.0	5.802743536375124e+17
19646.0	5.801856610249386e+17
19647.0	5.800828078828202e+17
19648.0	5.799799048284842e+17
19649.0	5.798768140790441e+17
19650.0	5.797739634535082e+17
19651.0	5.796709257620137e+17
19652.0	5.795678513703593e+17
19653.0	5.794646345820842e+17
19654.0	5.793615767579305e+17
19655.0	5.792581441727145e+17
19656.0	5.791547971513001e+17
19657.0	5.79051892838673e+17
19658.0	5.789485992247295e+17
19659.0	5.788451876809386e+17
19660.0	5.787419149686099e+17
19661.0	5.786385215302314e+17
19662.0	5.785351119437823e+17
19663.0	5.784291354432852e+17
19664.0	5.78324828066065e+17
