# Flux units: erg / (cm m2 s)
# Wavelength units: Angstrom
wave	flux
19000.0	4.602124193933993e+17
19001.0	4.601295492437334e+17
19002.0	4.6005009095065594e+17
19003.0	4.599690472106666e+17
19004.0	4.5988795733333325e+17
19005.0	4.5980657944712525e+17
19006.0	4.5972372076189005e+17
19007.0	4.5964477200684365e+17
19008.0	4.5956282446424723e+17
19009.0	4.594816681771006e+17
19010.0	4.59392677978658e+17
19011.0	4.593202588461738e+17
19012.0	4.5923688733736954e+17
19013.0	4.5915889418458445e+17
19014.0	4.5907718229196794e+17
19015.0	4.589964952775338e+17
19016.0	4.589148939747328e+17
19017.0	4.5883532425297914e+17
19018.0	4.5875419865415674e+17
19019.0	4.586733167443968e+17
19020.0	4.5859283371294714e+17
19021.0	4.585120354795519e+17
19022.0	4.5843125612052474e+17
19023.0	4.583500779530921e+17
19024.0	4.582686523217238e+17
19025.0	4.58188955512559e+17
19026.0	4.5810781215784954e+17
19027.0	4.580262070102699e+17
19028.0	4.579469462689109e+17
19029.0	4.5786628882432e+17
19030.0	4.5778565088324256e+17
19031.0	4.5770502706298874e+17
19032.0	4.576241981412692e+17
19033.0	4.5754251064552083e+17
19034.0	4.5746326018020685e+17
19035.0	4.573822604804095e+17
19036.0	4.5720986605759123e+17
19037.0	4.572216513527807e+17
19038.0	4.571407649690964e+17
19039.0	4.5706056330554016e+17
19040.0	4.569800425952596e+17
19041.0	4.568995437652649e+17
19042.0	4.567811330408447e+17
19043.0	4.5673889905595725e+17
19044.0	4.5665850739042976e+17
19045.0	4.565779450167295e+17
19046.0	4.5649688331113805e+17
19047.0	4.5641737056201376e+17
19048.0	4.5632837071667194e+17
19049.0	4.561792590151678e+17
19050.0	4.5617541612393805e+17
19051.0	4.560800333867689e+17
19052.0	4.560149594592596e+17
19053.0	4.559356938944511e+17
19054.0	4.558554682534569e+17
19055.0	4.5576040274548045e+17
19056.0	4.556912475504639e+17
19057.0	4.5561489367149216e+17
19058.0	4.5549542542322336e+17
19059.0	4.554391812046847e+17
19060.0	4.553741012653397e+17
19061.0	4.5529437139107834e+17
19062.0	4.552142851407872e+17
19063.0	4.5513421336084474e+17
19064.0	4.5505253215655245e+17
19065.0	4.549717836955647e+17
19066.0	4.54878691397905e+17
19067.0	4.548141019824128e+17
19068.0	4.5473411744399354e+17
19069.0	4.546541511507966e+17
19070.0	4.5457420135519565e+17
19071.0	4.54494266589184e+17
19072.0	4.543991480232618e+17
19073.0	4.5433445312102406e+17
19074.0	4.5425457239162874e+17
19075.0	4.541747061325824e+17
19076.0	4.5409367742218234e+17
19077.0	4.540147551611562e+17
19078.0	4.53934748672546e+17
19079.0	4.5385541956403194e+17
19080.0	4.537756025880575e+17
19081.0	4.536951212343295e+17
19082.0	4.5361541247139834e+17
19083.0	4.5353557053931514e+17
19084.0	4.534539883905023e+17
19085.0	4.533769510496938e+17
19086.0	4.5327398165544954e+17
19087.0	4.531832875210068e+17
19088.0	4.531184633643006e+17
19089.0	4.5305501465968634e+17
19090.0	4.5297879052451834e+17
19091.0	4.528966067027968e+17
19092.0	4.527888957177856e+17
19093.0	4.5274006772776954e+17
19094.0	4.5266052799528954e+17
19095.0	4.5258100315258874e+17
19096.0	4.52501201485824e+17
19097.0	4.524219933130752e+17
19098.0	4.5232682476503034e+17
19099.0	4.522441523068927e+17
19100.0	4.5218313406163616e+17
19101.0	4.521040349407915e+17
19102.0	4.5202249452530336e+17
19103.0	4.5194543439544314e+17
19104.0	4.518660639730345e+17
19105.0	4.517524948735317e+17
19106.0	4.517067008333141e+17
19107.0	4.516198523163989e+17
19108.0	4.515360151000405e+17
19109.0	4.514647237459966e+17
19110.0	4.5139019348049914e+17
19111.0	4.513015508500479e+17
19112.0	4.5121933410303994e+17
19113.0	4.511524520110762e+17
19114.0	4.5106697216546125e+17
19115.0	4.509922232369151e+17
19116.0	4.509145041119913e+17
19117.0	4.508356523152725e+17
19118.0	4.5075566777685325e+17
19119.0	4.504407832701605e+17
19120.0	4.505976237457406e+17
19121.0	4.505188407356074e+17
19122.0	4.504403117604864e+17
19123.0	4.503612656276822e+17
19124.0	4.5028184088903674e+17
19125.0	4.50203206357265e+17
19126.0	4.501242293605717e+17
19127.0	4.5001541142882976e+17
19128.0	4.4996628151883085e+17
19129.0	4.4988632682987514e+17
19130.0	4.498083677907625e+17
19131.0	4.497294927156564e+17
19132.0	4.496505983467519e+17
19133.0	4.495712494551038e+17
19134.0	4.494928554666665e+17
19135.0	4.4941401457513805e+17
19136.0	4.493351850781353e+17
19137.0	4.4925369876916896e+17
19138.0	4.4917757760416416e+17
19139.0	4.490988013748223e+17
19140.0	4.4902004059450016e+17
19141.0	4.4894129973712205e+17
19142.0	4.4886223535909536e+17
19143.0	4.4878283718437536e+17
19144.0	4.4870508338653856e+17
19145.0	4.486264913570474e+17
19146.0	4.4853884864866976e+17
19147.0	4.4846644049128096e+17
19148.0	4.4837773788228256e+17
19149.0	4.482969261572095e+17
19150.0	4.482333624587604e+17
19151.0	4.481547858782891e+17
19152.0	4.480762044044628e+17
19153.0	4.479703748444159e+17
19154.0	4.4791483121445536e+17
19155.0	4.478406504742911e+17
19156.0	4.4776215882847565e+17
19157.0	4.4767501629085e+17
19158.0	4.475830726732459e+17
19159.0	4.475258903986174e+17
19160.0	4.474483514190506e+17
19161.0	4.473699403038719e+17
19162.0	4.472842380203349e+17
19163.0	4.4721317406747296e+17
19164.0	4.4713471157207034e+17
19165.0	4.470273750685012e+17
19166.0	4.469758500711081e+17
19167.0	4.468983416400555e+17
19168.0	4.468215678413482e+17
19169.0	4.4674328409320096e+17
19170.0	4.4666503026442234e+17
19171.0	4.4658620642973005e+17
19172.0	4.4650856517905056e+17
19173.0	4.4643035622932474e+17
19174.0	4.463511739913557e+17
19175.0	4.4627399138781856e+17
19176.0	4.461958336086015e+17
19177.0	4.461155121976661e+17
19178.0	4.46038630465536e+17
19179.0	4.4595939426085536e+17
19180.0	4.4588337026389325e+17
19181.0	4.458020684343978e+17
19182.0	4.457267450959189e+17
19183.0	4.456491488641023e+17
19184.0	4.4557076955572896e+17
19185.0	4.454931631177727e+17
19186.0	4.454151741592916e+17
19187.0	4.453366761521151e+17
19188.0	4.452590139299157e+17
19189.0	4.4518129844005536e+17
19190.0	4.4510337372433056e+17
19191.0	4.4502546410810016e+17
19192.0	4.449475718982314e+17
19193.0	4.448665516463446e+17
19194.0	4.447867308954965e+17
19195.0	4.447139945338197e+17
19196.0	4.446361694328149e+17
19197.0	4.445583619478868e+17
19198.0	4.444805691430229e+17
19199.0	4.443477611905022e+17
19200.0	4.442907307496789e+17
19201.0	4.4424700191484576e+17
19202.0	4.441695645772459e+17
19203.0	4.440918551691263e+17
19204.0	4.4401370724652365e+17
19205.0	4.43936480882415e+17
19206.0	4.438588208272725e+17
19207.0	4.437800769639765e+17
19208.0	4.436987607340372e+17
19209.0	4.4362594530973005e+17
19210.0	4.435483504760149e+17
19211.0	4.434707681553066e+17
19212.0	4.433932075051689e+17
19213.0	4.4331416123255456e+17
19214.0	4.4323638087079245e+17
19215.0	4.431604381734229e+17
19216.0	4.430831254066517e+17
19217.0	4.4300564521724576e+17
19218.0	4.4291549137906336e+17
19219.0	4.4284894035749536e+17
19220.0	4.42772993675537e+17
19221.0	4.426907716157439e+17
19222.0	4.426184919438677e+17
19223.0	4.4254111542367565e+17
19224.0	4.424633152787797e+17
19225.0	4.4238420042929485e+17
19226.0	4.423090692598442e+17
19227.0	4.4223175271819936e+17
19228.0	4.421544560994987e+17
19229.0	4.420771719238997e+17
19230.0	4.419999053643776e+17
19231.0	4.4192265767922336e+17
19232.0	4.4184534589112314e+17
19233.0	4.4176724298738336e+17
19234.0	4.416905699218772e+17
19235.0	4.4161380493120845e+17
19236.0	4.4153663567953914e+17
19237.0	4.4145920533244576e+17
19238.0	4.413807381534038e+17
19239.0	4.4130522816839674e+17
19240.0	4.41228124557585e+17
19241.0	4.4115103709484365e+17
19242.0	4.4107396501121696e+17
19243.0	4.4099494991626234e+17
19244.0	4.409198720144725e+17
19245.0	4.4084285187031034e+17
19246.0	4.4076584493820576e+17
19247.0	4.406888558318934e+17
19248.0	4.4061187881915725e+17
19249.0	4.4053440499111245e+17
19250.0	4.4045278893834234e+17
19251.0	4.4037474468495354e+17
19252.0	4.403002494418944e+17
19253.0	4.4022698809316685e+17
19254.0	4.401503875891199e+17
19255.0	4.400709074856618e+17
19256.0	4.3999645865956685e+17
19257.0	4.3991984578232314e+17
19258.0	4.398430328367787e+17
19259.0	4.3976525016814925e+17
19260.0	4.3968635747696634e+17
19261.0	4.396126917274282e+17
19262.0	4.395352274763775e+17
19263.0	4.394581209994581e+17
19264.0	4.393731082594985e+17
19265.0	4.393020811466068e+17
19266.0	4.3922200041881594e+17
19267.0	4.3915244529691296e+17
19268.0	4.39075795369984e+17
19269.0	4.389991590745428e+17
19270.0	4.3892253745916576e+17
19271.0	4.388400722695508e+17
19272.0	4.387687970635776e+17
19273.0	4.386892844542634e+17
19274.0	4.3861044405207034e+17
19275.0	4.385396793627989e+17
19276.0	4.384628518070953e+17
19277.0	4.3838664584724474e+17
19278.0	4.383096559719765e+17
19279.0	4.3823367734340256e+17
19280.0	4.3815611802146125e+17
19281.0	4.380807718240255e+17
19282.0	4.380043422378666e+17
19283.0	4.379273109787989e+17
19284.0	4.3785135353146016e+17
19285.0	4.377727547211776e+17
19286.0	4.376983196663808e+17
19287.0	4.37622432333824e+17
19288.0	4.375257718718463e+17
19289.0	4.374033595716948e+17
19290.0	4.3739347786137594e+17
19291.0	4.373138666859178e+17
19292.0	4.3724091711378765e+17
19293.0	4.371646610320042e+17
19294.0	4.370882348711936e+17
19295.0	4.370121948659711e+17
19296.0	4.369198173476181e+17
19297.0	4.368571445193387e+17
19298.0	4.367833427345408e+17
19299.0	4.366891385268906e+17
19300.0	4.3663078156752205e+17
19301.0	4.3655516882206714e+17
19302.0	4.3647890337300474e+17
19303.0	4.3640174642462714e+17
19304.0	4.363263525519359e+17
19305.0	4.3625079447224314e+17
19306.0	4.361747399966719e+17
19307.0	4.360976985314644e+17
19308.0	4.360222816600064e+17
19309.0	4.3594470556084915e+17
19310.0	4.358682970161151e+17
19311.0	4.3579403721332045e+17
19312.0	4.357187231722153e+17
19313.0	4.356427745329151e+17
19314.0	4.3518802033377197e+17
19315.0	4.351373298630663e+17
19316.0	4.353940709703679e+17
19317.0	4.353389527826432e+17
19318.0	4.3526307782328314e+17
19319.0	4.3518721768379725e+17
19320.0	4.3510494193691296e+17
19321.0	4.350210377515006e+17
19322.0	4.3495869641304736e+17
19323.0	4.348831985216171e+17
19324.0	4.348081420806825e+17
19325.0	4.347305144614911e+17
19326.0	4.346566169067518e+17
19327.0	4.345804519112704e+17
19328.0	4.344741789433855e+17
19329.0	4.3442943557631994e+17
19330.0	4.343530895966207e+17
19331.0	4.342774595846144e+17
19332.0	4.342023646958933e+17
19333.0	4.3412672266021536e+17
19334.0	4.3405035354193914e+17
19335.0	4.3391246607755955e+17
19336.0	4.338994065528148e+17
19337.0	4.3382423924244474e+17
19338.0	4.337455301918719e+17
19339.0	4.3367307736514554e+17
19340.0	4.33591442018577e+17
19341.0	4.33498503512064e+17
19342.0	4.33434304376559e+17
19343.0	4.3337092431871994e+17
19344.0	4.3327254209495034e+17
19345.0	4.331705995362302e+17
19346.0	4.3313351552750925e+17
19347.0	4.330395051666091e+17
19348.0	4.329935109881855e+17
19349.0	4.329177485759828e+17
19350.0	4.328320057475072e+17
19351.0	4.3276655286463123e+17
19352.0	4.3266004976926694e+17
19353.0	4.3261635518791674e+17
19354.0	4.3254103408639994e+17
19355.0	4.324643866061482e+17
19356.0	4.323903035233621e+17
19357.0	4.3231495166361594e+17
19358.0	4.3223961371497805e+17
19359.0	4.321572568083113e+17
19360.0	4.32064826441728e+17
19361.0	4.3201297561681914e+17
19362.0	4.319383625837226e+17
19363.0	4.3186307300939085e+17
19364.0	4.317877811281919e+17
19365.0	4.31712514412817e+17
19366.0	4.316371575199059e+17
19367.0	4.315620149559296e+17
19368.0	4.314867704004607e+17
19369.0	4.3141102944911354e+17
19370.0	4.313361557400234e+17
19371.0	4.312602989559808e+17
19372.0	4.3118586215355725e+17
19373.0	4.3111065143214086e+17
19374.0	4.310354442059774e+17
19375.0	4.3096024327127034e+17
19376.0	4.3088504590172166e+17
19377.0	4.3080985188761594e+17
19378.0	4.307346585026559e+17
19379.0	4.306594677041834e+17
19380.0	4.3058428068058445e+17
19381.0	4.3050892903055354e+17
19382.0	4.304328477813419e+17
19383.0	4.303570483194538e+17
19384.0	4.302831656544938e+17
19385.0	4.302083182297087e+17
19386.0	4.3013311477841914e+17
19387.0	4.3005790503567354e+17
19388.0	4.299826867645098e+17
19389.0	4.2990746241160525e+17
19390.0	4.298322231689215e+17
19391.0	4.296702799730003e+17
19392.0	4.296815927798442e+17
19393.0	4.29606424281088e+17
19394.0	4.2953112247336954e+17
19395.0	4.29446768029423e+17
19396.0	4.293782821055146e+17
19397.0	4.293050666844159e+17
19398.0	4.2922174788403194e+17
19399.0	4.2912974561607674e+17
19400.0	4.2907166268456954e+17
19401.0	4.290031984312319e+17
19402.0	4.2892764685271034e+17
19403.0	4.288520197767167e+17
19404.0	4.287763362873343e+17
19405.0	4.287004697165823e+17
19406.0	4.286247603623253e+17
19407.0	4.285377919582207e+17
19408.0	4.28458472706321e+17
19409.0	4.283967681331199e+17
19410.0	4.283205575595349e+17
19411.0	4.2824422514141843e+17
19412.0	4.281676718232917e+17
19413.0	4.2807961793331194e+17
19414.0	4.280137093393067e+17
19415.0	4.279373009343828e+17
19416.0	4.278573458959018e+17
19417.0	4.2778186890608614e+17
19418.0	4.2770457571273376e+17
19419.0	4.276265055944704e+17
19420.0	4.275480661677396e+17
19421.0	4.274692154195968e+17
19422.0	4.2738922396057594e+17
19423.0	4.273100126420991e+17
19424.0	4.272295035360597e+17
19425.0	4.2714817528244896e+17
19426.0	4.270661314805759e+17
19427.0	4.269830813253631e+17
19428.0	4.268988042663253e+17
19429.0	4.268131244223146e+17
19430.0	4.2672522215642445e+17
19431.0	4.266174173588138e+17
19432.0	4.265445362237438e+17
19433.0	4.264496626051755e+17
19434.0	4.2635102403952634e+17
19435.0	4.262458826249557e+17
19436.0	4.2612839793295354e+17
19437.0	4.260209767044436e+17
19438.0	4.2569125212105376e+17
19439.0	4.2575127358996474e+17
19440.0	4.255917886756181e+17
19441.0	4.2540565713824416e+17
19442.0	4.2517787140860576e+17
19443.0	4.248884726114986e+17
19444.0	4.245072114264746e+17
19445.0	4.2396590517780474e+17
19446.0	4.231331570865493e+17
19447.0	4.217153547578025e+17
19448.0	4.189212890890241e+17
19449.0	4.118967188018519e+17
19450.0	3.910902808750753e+17
19451.0	3.746732568827222e+17
19452.0	3.9796141590227654e+17
19453.0	4.1417956109844506e+17
19454.0	4.194056561229822e+17
19455.0	4.215626418967893e+17
19456.0	4.2263639266863776e+17
19457.0	4.232243667708585e+17
19458.0	4.220946795025775e+17
19459.0	4.237360938090498e+17
19460.0	4.2389869907585696e+17
19461.0	4.2396771187425274e+17
19462.0	4.239987488150868e+17
19463.0	4.2400597685917005e+17
19464.0	4.23995587358447e+17
19465.0	4.2397268310316365e+17
19466.0	4.2393957214890656e+17
19467.0	4.2390021287007565e+17
19468.0	4.238548379107327e+17
19469.0	4.237778838268586e+17
19470.0	4.23751377293585e+17
19471.0	4.2369505282402976e+17
19472.0	4.236354990200149e+17
19473.0	4.235747280289791e+17
19474.0	4.234906207693481e+17
19475.0	4.234329909624832e+17
19476.0	4.2338445818156365e+17
19477.0	4.2331913748916896e+17
19478.0	4.232533554233343e+17
19479.0	4.2316429371200845e+17
19480.0	4.231180254358186e+17
19481.0	4.230487244887381e+17
19482.0	4.2298151831688525e+17
19483.0	4.2291240541443405e+17
19484.0	4.2284275843727354e+17
19485.0	4.227720599481002e+17
19486.0	4.226791876416853e+17
19487.0	4.226327590731774e+17
19488.0	4.2256236543999994e+17
19489.0	4.224913885888511e+17
19490.0	4.223926538338302e+17
19491.0	4.2234928640819194e+17
19492.0	4.222786958524415e+17
19493.0	4.22207447629824e+17
19494.0	4.221360716906495e+17
19495.0	4.220644510138367e+17
19496.0	4.219843775561727e+17
19497.0	4.21920907530513e+17
19498.0	4.2184731182585165e+17
19499.0	4.216313708107091e+17
19500.0	4.2170615832685216e+17
19501.0	4.216500468580351e+17
19502.0	4.2158719451354445e+17
19503.0	4.2151429674106874e+17
19504.0	4.2144141469723296e+17
19505.0	4.213681627157845e+17
19506.0	4.212956863310506e+17
19507.0	4.2122243022520314e+17
19508.0	4.21150036258543e+17
19509.0	4.21077233696768e+17
19510.0	4.20998888362257e+17
19511.0	4.203553074358947e+17
19512.0	4.208427497335465e+17
19513.0	4.2073974874221216e+17
19514.0	4.206849351308628e+17
19515.0	4.20631633985536e+17
19516.0	4.2056513147808416e+17
19517.0	4.2049334330873165e+17
19518.0	4.204164166276436e+17
19519.0	4.203436444046676e+17
19520.0	4.202560774034772e+17
19521.0	4.2020468844134394e+17
19522.0	4.2012932336954016e+17
19523.0	4.200544643405141e+17
19524.0	4.199707907719168e+17
19525.0	4.1991405218474656e+17
19526.0	4.198418817045844e+17
19527.0	4.1976906075777696e+17
19528.0	4.196953934004223e+17
19529.0	4.196220794131796e+17
19530.0	4.195518570474154e+17
19531.0	4.194793890512896e+17
19532.0	4.1940693468665165e+17
19533.0	4.193343632310272e+17
19534.0	4.1926207426177696e+17
19535.0	4.1918966701315405e+17
19536.0	4.191167979716608e+17
19537.0	4.190446952295082e+17
19538.0	4.1895183138160634e+17
19539.0	4.188893162591574e+17
19540.0	4.188275122809514e+17
19541.0	4.187513562333183e+17
19542.0	4.186814922708308e+17
19543.0	4.185897990531754e+17
19544.0	4.1853752551232845e+17
19545.0	4.1845993948665146e+17
19546.0	4.1837676182459725e+17
19547.0	4.183219742179328e+17
19548.0	4.1824976312292685e+17
19549.0	4.1817627066804896e+17
19550.0	4.1810528962259616e+17
19551.0	4.1803321645028685e+17
19552.0	4.179610849771519e+17
19553.0	4.178888865349632e+17
19554.0	4.1781594318438394e+17
19555.0	4.17742529232896e+17
19556.0	4.17671161192994e+17
19557.0	4.176003639978665e+17
19558.0	4.175284769128447e+17
19559.0	4.174564801467733e+17
19560.0	4.173767685177344e+17
19561.0	4.1731244767750803e+17
19562.0	4.172331234623487e+17
19563.0	4.171684663088468e+17
19564.0	4.1709635776457376e+17
19565.0	4.170245498819925e+17
19566.0	4.169522514056533e+17
19567.0	4.1688069678912845e+17
19568.0	4.168087930667008e+17
19569.0	4.1673690185728e+17
19570.0	4.1666464071024634e+17
19571.0	4.165927848028842e+17
19572.0	4.165206585027242e+17
19573.0	4.16446779822353e+17
19574.0	4.1637530294026234e+17
19575.0	4.1630562066104314e+17
19576.0	4.1623267311615994e+17
19577.0	4.161587552889515e+17
19578.0	4.1608959548020045e+17
19579.0	4.1601824645447674e+17
19580.0	4.15946588028928e+17
19581.0	4.1587481880384845e+17
19582.0	4.158034568456874e+17
19583.0	4.1573178094387194e+17
19584.0	4.1566010182642336e+17
19585.0	4.1558680811165e+17
19586.0	4.155149554898261e+17
19587.0	4.1544486265815034e+17
19588.0	4.153655094323881e+17
19589.0	4.153018739414357e+17
19590.0	4.152279922551466e+17
19591.0	4.151588767662079e+17
19592.0	4.1508732068167674e+17
19593.0	4.150140366837076e+17
19594.0	4.149390472817321e+17
19595.0	4.148724527792127e+17
19596.0	4.148012280446976e+17
19597.0	4.147298888056832e+17
19598.0	4.146468170498047e+17
19599.0	4.145870008221695e+17
19600.0	4.145155818913792e+17
19601.0	4.144431310219946e+17
19602.0	4.143721915700565e+17
19603.0	4.142935710892032e+17
19604.0	4.142295609070933e+17
19605.0	4.141543477389994e+17
19606.0	4.1408736610222074e+17
19607.0	4.1401605685248e+17
19608.0	4.139447534048596e+17
19609.0	4.138727719479978e+17
19610.0	4.137918826283008e+17
19611.0	4.1371566751088634e+17
19612.0	4.1365970584862714e+17
19613.0	4.1358848237240314e+17
19614.0	4.135167429967872e+17
19615.0	4.1344607191039994e+17
19616.0	4.1336399693086714e+17
19617.0	4.1328799027036154e+17
19618.0	4.1322256269311994e+17
19619.0	4.131455479316479e+17
19620.0	4.1307298591320736e+17
19621.0	4.129974069318997e+17
19622.0	4.129481289629696e+17
19623.0	4.128761041649663e+17
19624.0	4.128032941932543e+17
19625.0	4.127349341683712e+17
19626.0	4.1266391872962554e+17
19627.0	4.125929020325888e+17
19628.0	4.1252059873279994e+17
19629.0	4.1239701447420576e+17
19630.0	4.123794743842133e+17
19631.0	4.1225864116961274e+17
19632.0	4.122380497234603e+17
19633.0	4.1216677535634765e+17
19634.0	4.1209621213347834e+17
19635.0	4.120224536199167e+17
19636.0	4.119294872911872e+17
19637.0	4.1185532766235296e+17
19638.0	4.1181078275577165e+17
19639.0	4.1174176932823034e+17
19640.0	4.116701855612927e+17
19641.0	4.1156838372147206e+17
19642.0	4.1152793238568954e+17
19643.0	4.114572166299647e+17
19644.0	4.113870316634112e+17
19645.0	4.1131224638423034e+17
19646.0	4.1121980623093734e+17
19647.0	4.1117517967523834e+17
19648.0	4.111050242785279e+17
19649.0	4.11034338931507e+17
19650.0	4.1096366365081594e+17
19651.0	4.1089300787363834e+17
19652.0	4.108223639104171e+17
19653.0	4.1075173553602554e+17
19654.0	4.1068112037369165e+17
19655.0	4.1061052261771936e+17
