# Flux units: erg / (cm m2 s)
# Wavelength units: Angstrom
wave	flux
19000.0	6.58358299332881e+17
19001.0	6.582270975890771e+17
19002.0	6.581134995488765e+17
19003.0	6.579908506200746e+17
19004.0	6.578682403487743e+17
19005.0	6.577453526941695e+17
19006.0	6.57623464751923e+17
19007.0	6.574975594354004e+17
19008.0	6.573729789597012e+17
19009.0	6.572488208504148e+17
19010.0	6.570907939460435e+17
19011.0	6.570070408254804e+17
19012.0	6.568644892251476e+17
19013.0	6.567642938037588e+17
19014.0	6.566368191184893e+17
19015.0	6.565189779106474e+17
19016.0	6.564009785076393e+17
19017.0	6.562830444658687e+17
19018.0	6.561586490987859e+17
19019.0	6.56037003727121e+17
19020.0	6.559127892743508e+17
19021.0	6.55791915794432e+17
19022.0	6.55669617299729e+17
19023.0	6.555431765103955e+17
19024.0	6.55422257312563e+17
19025.0	6.553000695474857e+17
19026.0	6.551746904063997e+17
19027.0	6.550396010321236e+17
19028.0	6.54932980216627e+17
19029.0	6.548099447827113e+17
19030.0	6.546886594221395e+17
19031.0	6.545659275859284e+17
19032.0	6.544428322433706e+17
19033.0	6.543123574423551e+17
19034.0	6.541961757108906e+17
19035.0	6.540692465647615e+17
19036.0	6.528008868681041e+17
19037.0	6.538266624218452e+17
19038.0	6.537043794460671e+17
19039.0	6.535840575171242e+17
19040.0	6.534614194935123e+17
19041.0	6.533379688235007e+17
19042.0	6.532062316767913e+17
19043.0	6.530934005650772e+17
19044.0	6.529695426980521e+17
19045.0	6.528473399033855e+17
19046.0	6.527207515444563e+17
19047.0	6.526013628481535e+17
19048.0	6.524609581722281e+17
19049.0	6.523478751226538e+17
19050.0	6.522303838595753e+17
19051.0	6.519324930648744e+17
19052.0	6.519611839217663e+17
19053.0	6.518654954897407e+17
19054.0	6.517438076157951e+17
19055.0	6.515981743904084e+17
19056.0	6.514957831809705e+17
19057.0	6.513751993876479e+17
19058.0	6.512500558965417e+17
19059.0	6.51129999397137e+17
19060.0	6.510060117863082e+17
19061.0	6.508855143257428e+17
19062.0	6.507624690352127e+17
19063.0	6.506400459696809e+17
19064.0	6.505066428454228e+17
19065.0	6.503795584401407e+17
19066.0	6.502666480560808e+17
19067.0	6.501498527678463e+17
19068.0	6.500273491716778e+17
19069.0	6.499048856311124e+17
19070.0	6.497801722658815e+17
19071.0	6.496592903973546e+17
19072.0	6.495365252863316e+17
19073.0	6.494143452108116e+17
19074.0	6.492923192060585e+17
19075.0	6.491698223906815e+17
19076.0	6.490454719026515e+17
19077.0	6.489236420515156e+17
19078.0	6.487993449010516e+17
19079.0	6.486797710961321e+17
19080.0	6.485560485653161e+17
19081.0	6.484312241908393e+17
19082.0	6.483086067892223e+17
19083.0	6.481807648227327e+17
19084.0	6.480474524352511e+17
19085.0	6.479451976805034e+17
19086.0	6.477880233383252e+17
19087.0	6.476675648847871e+17
19088.0	6.475687117105833e+17
19089.0	6.474232209517225e+17
19090.0	6.473300503603882e+17
19091.0	6.472082974747305e+17
19092.0	6.470759845199871e+17
19093.0	6.469663484892499e+17
19094.0	6.468440533499904e+17
19095.0	6.467217473754452e+17
19096.0	6.465981638159017e+17
19097.0	6.464772119724031e+17
19098.0	6.463544538518867e+17
19099.0	6.462320784616106e+17
19100.0	6.461083277590528e+17
19101.0	6.459876570038272e+17
19102.0	6.458570954506239e+17
19103.0	6.457440679056724e+17
19104.0	6.456218530873343e+17
19105.0	6.454979194432169e+17
19106.0	6.453716335635113e+17
19107.0	6.452533201469439e+17
19108.0	6.451319566325076e+17
19109.0	6.449205038022653e+17
19110.0	6.448851980386303e+17
19111.0	6.447661234257919e+17
19112.0	6.446441060892671e+17
19113.0	6.445226239459327e+17
19114.0	6.444003849404415e+17
19115.0	6.442722125327018e+17
19116.0	6.441543913876137e+17
19117.0	6.440323805522601e+17
19118.0	6.439001209350826e+17
19119.0	6.433772954189816e+17
19120.0	6.436572684965203e+17
19121.0	6.435391157917012e+17
19122.0	6.434242753986559e+17
19123.0	6.433022640040617e+17
19124.0	6.431744739770365e+17
19125.0	6.430576707196244e+17
19126.0	6.429355557956265e+17
19127.0	6.426595993933139e+17
19128.0	6.426720728339796e+17
19129.0	6.4256322582173e+17
19130.0	6.424470098367827e+17
19131.0	6.423264990243497e+17
19132.0	6.422044912648191e+17
19133.0	6.420712258535423e+17
19134.0	6.41951195079202e+17
19135.0	6.418384544246442e+17
19136.0	6.417174120540841e+17
19137.0	6.415812607519401e+17
19138.0	6.414720020687529e+17
19139.0	6.413518351892479e+17
19140.0	6.412301676576767e+17
19141.0	6.411083629723647e+17
19142.0	6.409843469800788e+17
19143.0	6.408599345561599e+17
19144.0	6.40739727970577e+17
19145.0	6.406210620926633e+17
19146.0	6.404468971143168e+17
19147.0	6.403690901886291e+17
19148.0	6.402547984105471e+17
19149.0	6.401331302498304e+17
19150.0	6.40011654607667e+17
19151.0	6.39890679276066e+17
19152.0	6.397674447525204e+17
19153.0	6.396442720949588e+17
19154.0	6.395141241001299e+17
19155.0	6.394036892641962e+17
19156.0	6.392815565144063e+17
19157.0	6.391570298656086e+17
19158.0	6.389780349364905e+17
19159.0	6.389140438384637e+17
19160.0	6.387928221614079e+17
19161.0	6.386708092988074e+17
19162.0	6.384116456314198e+17
19163.0	6.384249410857641e+17
19164.0	6.383082985401002e+17
19165.0	6.381828427131561e+17
19166.0	6.380517361800531e+17
19167.0	6.379303564476415e+17
19168.0	6.378202447129258e+17
19169.0	6.376969239964329e+17
19170.0	6.375785759768576e+17
19171.0	6.374488322430292e+17
19172.0	6.373345588499796e+17
19173.0	6.372135810017961e+17
19174.0	6.370874886193151e+17
19175.0	6.369710073446397e+17
19176.0	6.368493962264575e+17
19177.0	6.367143037763583e+17
19178.0	6.366021727638868e+17
19179.0	6.364725459113299e+17
19180.0	6.363607316387156e+17
19181.0	6.362306388688895e+17
19182.0	6.361180246026921e+17
19183.0	6.359979742549332e+17
19184.0	6.358751824401748e+17
19185.0	6.357543339862697e+17
19186.0	6.356330335961087e+17
19187.0	6.355052767040852e+17
19188.0	6.353896159750826e+17
19189.0	6.352676283482111e+17
19190.0	6.351452183549268e+17
19191.0	6.35020782932241e+17
19192.0	6.3490326790144e+17
19193.0	6.346061697602902e+17
19194.0	6.344033240612863e+17
19195.0	6.342827265665705e+17
19196.0	6.341595879527764e+17
19197.0	6.340366137556991e+17
19198.0	6.339087215274665e+17
19199.0	6.329587240446632e+17
19200.0	6.330922953605123e+17
19201.0	6.335451612140884e+17
19202.0	6.33429694681361e+17
19203.0	6.333073475327316e+17
19204.0	6.331862066659327e+17
19205.0	6.330660851548159e+17
19206.0	6.32944431604258e+17
19207.0	6.32814612582673e+17
19208.0	6.326832506863615e+17
19209.0	6.325797031772159e+17
19210.0	6.324583797882879e+17
19211.0	6.32337446609442e+17
19212.0	6.322156304596992e+17
19213.0	6.320804462242472e+17
19214.0	6.319545958531072e+17
19215.0	6.31846878646545e+17
19216.0	6.317283304887635e+17
19217.0	6.316064893829119e+17
19218.0	6.31412812362547e+17
19219.0	6.313492514603005e+17
19220.0	6.312385989399892e+17
19221.0	6.310909630742527e+17
19222.0	6.309965290187433e+17
19223.0	6.308732165510484e+17
19224.0	6.307490061527721e+17
19225.0	6.306179397451775e+17
19226.0	6.30507034308335e+17
19227.0	6.303847528005631e+17
19228.0	6.302650419817129e+17
19229.0	6.301428180058111e+17
19230.0	6.30019562930176e+17
19231.0	6.298972326985727e+17
19232.0	6.297753592266752e+17
19233.0	6.296476661579775e+17
19234.0	6.295294222270464e+17
19235.0	6.294071997191508e+17
19236.0	6.292867054043135e+17
19237.0	6.29162865922321e+17
19238.0	6.290326731882496e+17
19239.0	6.28919393985058e+17
19240.0	6.287942511930025e+17
19241.0	6.28671471821346e+17
19242.0	6.285500264480767e+17
19243.0	6.284143026154153e+17
19244.0	6.283061441680724e+17
19245.0	6.281827947905023e+17
19246.0	6.280588225587881e+17
19247.0	6.279374554092884e+17
19248.0	6.278145579679741e+17
19249.0	6.276437234068137e+17
19250.0	6.274156198887423e+17
19251.0	6.272840593921363e+17
19252.0	6.271464026843818e+17
19253.0	6.270456626326185e+17
19254.0	6.26924140433681e+17
19255.0	6.267848654236329e+17
19256.0	6.266746294676138e+17
19257.0	6.265541543067647e+17
19258.0	6.264304742782291e+17
19259.0	6.263004808435027e+17
19260.0	6.261607464872618e+17
19261.0	6.260579566092287e+17
19262.0	6.259300301275135e+17
19263.0	6.25805794353698e+17
19264.0	6.256396117650089e+17
19265.0	6.25545484313122e+17
19266.0	6.254202709169491e+17
19267.0	6.253141988562259e+17
19268.0	6.251897028258474e+17
19269.0	6.250650846713172e+17
19270.0	6.24940105596928e+17
19271.0	6.247388148662271e+17
19272.0	6.245733955010559e+17
19273.0	6.243624083783679e+17
19274.0	6.242607856353277e+17
19275.0	6.242006682566655e+17
19276.0	6.240734720032767e+17
19277.0	6.239482323927037e+17
19278.0	6.23822682263825e+17
19279.0	6.236958346270035e+17
19280.0	6.235640117766825e+17
19281.0	6.234437611509076e+17
19282.0	6.233187015458815e+17
19283.0	6.231803104854015e+17
19284.0	6.230570061965994e+17
19285.0	6.229222915134804e+17
19286.0	6.228083616339284e+17
19287.0	6.226839996115625e+17
19288.0	6.222462297571323e+17
19289.0	6.216783896423068e+17
19290.0	6.223012597945684e+17
19291.0	6.221513795567616e+17
19292.0	6.220458597460649e+17
19293.0	6.219168820319572e+17
19294.0	6.217880221777919e+17
19295.0	6.216602632585215e+17
19296.0	6.215304610840576e+17
19297.0	6.214002115870719e+17
19298.0	6.212700916940799e+17
19299.0	6.211419403976704e+17
19300.0	6.210124005769215e+17
19301.0	6.208819747094527e+17
19302.0	6.207507028508671e+17
19303.0	6.206145500807167e+17
19304.0	6.204869501255679e+17
19305.0	6.203570181373951e+17
19306.0	6.202258989514751e+17
19307.0	6.20089772675345e+17
19308.0	6.199593428232874e+17
19309.0	6.197995410991785e+17
19310.0	6.196556267694761e+17
19311.0	6.195576959926271e+17
19312.0	6.194293592380756e+17
19313.0	6.1929618945693e+17
19314.0	6.180638661017601e+17
19315.0	6.180083595913912e+17
19316.0	6.188883691700224e+17
19317.0	6.187563921790292e+17
19318.0	6.185941849516712e+17
19319.0	6.183268075088553e+17
19320.0	6.181891246566057e+17
19321.0	6.180511138097833e+17
19322.0	6.179051260258985e+17
19323.0	6.177621382878548e+17
19324.0	6.176342011805695e+17
19325.0	6.174688215214762e+17
19326.0	6.173547089799849e+17
19327.0	6.17213435384081e+17
19328.0	6.170721519315625e+17
19329.0	6.169316996502867e+17
19330.0	6.167857104683007e+17
19331.0	6.166419818763603e+17
19332.0	6.16501906243584e+17
19333.0	6.163570006600362e+17
19334.0	6.16212365119761e+17
19335.0	6.160640364249087e+17
19336.0	6.159199639000406e+17
19337.0	6.157723905294335e+17
19338.0	6.156064914756947e+17
19339.0	6.152870465022633e+17
19340.0	6.151030571357524e+17
19341.0	6.149566472650751e+17
19342.0	6.147732109175465e+17
19343.0	6.146532551513427e+17
19344.0	6.144975586721791e+17
19345.0	6.141711699585702e+17
19346.0	6.141141685283497e+17
19347.0	6.140218507089236e+17
19348.0	6.138706224218112e+17
19349.0	6.13707857142306e+17
19350.0	6.135470936642899e+17
19351.0	6.131320505062738e+17
19352.0	6.129378789075625e+17
19353.0	6.127785605769898e+17
19354.0	6.126100948888233e+17
19355.0	6.124316559147008e+17
19356.0	6.122682619090259e+17
19357.0	6.120955838114473e+17
19358.0	6.119205069215059e+17
19359.0	6.114780924346364e+17
19360.0	6.11213758238993e+17
19361.0	6.1103206825984e+17
19362.0	6.108504354630314e+17
19363.0	6.106633232274772e+17
19364.0	6.104740691006804e+17
19365.0	6.099754575112873e+17
19366.0	6.096606178836479e+17
19367.0	6.094591936342697e+17
19368.0	6.092551998843561e+17
19369.0	6.090359887801004e+17
19370.0	6.083192113070077e+17
19371.0	6.081037556427434e+17
19372.0	6.078847318840659e+17
19373.0	6.075155085612369e+17
19374.0	6.068221262168064e+17
19375.0	6.06577208922385e+17
19376.0	6.062997327140183e+17
19377.0	6.057254872678399e+17
19378.0	6.054623121681066e+17
19379.0	6.051909151839572e+17
19380.0	6.049130419847168e+17
19381.0	6.046334040320682e+17
19382.0	6.043430272630783e+17
19383.0	6.040496484210003e+17
19384.0	6.03762118955281e+17
19385.0	6.034595758385834e+17
19386.0	6.031507741911721e+17
19387.0	6.028348768299689e+17
19388.0	6.025119728839338e+17
19389.0	6.021817416286207e+17
19390.0	6.018433572754774e+17
19391.0	6.00549963176344e+17
19392.0	6.011360880798377e+17
19393.0	6.007926470038868e+17
19394.0	6.004261784300201e+17
19395.0	6.000503140559529e+17
19396.0	5.996666524707497e+17
19397.0	5.992760033847977e+17
19398.0	5.988715009321641e+17
19399.0	5.984034344315561e+17
19400.0	5.98034488631842e+17
19401.0	5.976068970949289e+17
19402.0	5.971650853994495e+17
19403.0	5.967096585737556e+17
19404.0	5.962389852433065e+17
19405.0	5.957547630526463e+17
19406.0	5.952657302050131e+17
19407.0	5.947692843444905e+17
19408.0	5.942067345752065e+17
19409.0	5.937572890367316e+17
19410.0	5.932330289987583e+17
19411.0	5.926973109611178e+17
19412.0	5.921749073220948e+17
19413.0	5.916412156925268e+17
19414.0	5.910797361698131e+17
19415.0	5.905109210191187e+17
19416.0	5.899158502943402e+17
19417.0	5.892934033473536e+17
19418.0	5.886690167444819e+17
19419.0	5.880538841044308e+17
19420.0	5.874277309306195e+17
19421.0	5.866777547724115e+17
19422.0	5.860021498456746e+17
19423.0	5.85222802374656e+17
19424.0	5.844415310462976e+17
19425.0	5.834824109522947e+17
19426.0	5.824944269164545e+17
19427.0	5.813253627532623e+17
19428.0	5.799113909425491e+17
19429.0	5.780559774438735e+17
19430.0	5.7560602310082726e+17
19431.0	5.7211842213533037e+17
19432.0	5.700104168843945e+17
19433.0	5.6831370410502835e+17
19434.0	5.6654937446154234e+17
19435.0	5.6459925560579386e+17
19436.0	5.625210896820906e+17
19437.0	5.604470091502933e+17
19438.0	5.567795653771267e+17
19439.0	5.556510418883927e+17
19440.0	5.528709207425023e+17
19441.0	5.493192833804971e+17
19442.0	5.443628598733483e+17
19443.0	5.3684804213800826e+17
19444.0	5.308724794447186e+17
19445.0	5.2495316425550534e+17
19446.0	5.177500330797738e+17
19447.0	5.0739788263369325e+17
19448.0	4.923238789764446e+17
19449.0	4.7209501754217786e+17
19450.0	4.315578503615837e+17
19451.0	4.15349876772041e+17
19452.0	4.546010337858903e+17
19453.0	4.8342196674013926e+17
19454.0	5.001000458212688e+17
19455.0	5.125542763648334e+17
19456.0	5.207872540857687e+17
19457.0	5.269828388519933e+17
19458.0	5.3026748129171046e+17
19459.0	5.393460956408496e+17
19460.0	5.45466253329476e+17
19461.0	5.493124217787729e+17
19462.0	5.522435289907203e+17
19463.0	5.546401409444521e+17
19464.0	5.5677428453867514e+17
19465.0	5.5879302206805325e+17
19466.0	5.606419599807828e+17
19467.0	5.6241689492193274e+17
19468.0	5.640460813642411e+17
19469.0	5.655301103550462e+17
19470.0	5.671024787980284e+17
19471.0	5.6996791886807155e+17
19472.0	5.726794182645074e+17
19473.0	5.744942856361304e+17
19474.0	5.7585561977050445e+17
19475.0	5.768857834749951e+17
19476.0	5.778239751105193e+17
19477.0	5.785348449064276e+17
19478.0	5.791312115313321e+17
19479.0	5.797686921920511e+17
19480.0	5.802240314266964e+17
19481.0	5.807293487295146e+17
19482.0	5.81191139852288e+17
19483.0	5.815934528083284e+17
19484.0	5.819808846533971e+17
19485.0	5.824192180125693e+17
19486.0	5.827833052703402e+17
19487.0	5.831396508215978e+17
19488.0	5.834832266745172e+17
19489.0	5.838004327284736e+17
19490.0	5.839985401921533e+17
19491.0	5.844031081458346e+17
19492.0	5.847268527002964e+17
19493.0	5.850134832567635e+17
19494.0	5.852938978547028e+17
19495.0	5.855676632225108e+17
19496.0	5.858029036983635e+17
19497.0	5.860915317222057e+17
19498.0	5.86248166047744e+17
19499.0	5.850653300271776e+17
19500.0	5.868012971578708e+17
19501.0	5.87012235067392e+17
19502.0	5.872111826501631e+17
19503.0	5.874020413079551e+17
19504.0	5.875811657711615e+17
19505.0	5.877512965980159e+17
19506.0	5.879117898929492e+17
19507.0	5.880612054018729e+17
19508.0	5.882053290972499e+17
19509.0	5.883387954156884e+17
19510.0	5.884466374726996e+17
19511.0	5.865973282242547e+17
19512.0	5.884635774276943e+17
19513.0	5.88359514578397e+17
19514.0	5.885882016639653e+17
19515.0	5.889412349034496e+17
19516.0	5.89072631472674e+17
19517.0	5.891463290290173e+17
19518.0	5.892228931824297e+17
19519.0	5.892869956392276e+17
19520.0	5.893436021757268e+17
19521.0	5.894004112971092e+17
19522.0	5.894458393843027e+17
19523.0	5.894909529686015e+17
19524.0	5.89528022786594e+17
19525.0	5.896269768338089e+17
19526.0	5.899215224613545e+17
19527.0	5.89939680092706e+17
19528.0	5.89953647194931e+17
19529.0	5.905000325360297e+17
19530.0	5.905233476233897e+17
19531.0	5.905174084889258e+17
19532.0	5.905201553386152e+17
19533.0	5.909690616993108e+17
19534.0	5.909467338113023e+17
19535.0	5.909212428588372e+17
19536.0	5.908915336948393e+17
19537.0	5.909067232968701e+17
19538.0	5.912159659054422e+17
19539.0	5.911388152485206e+17
19540.0	5.911424011687252e+17
19541.0	5.911013952760489e+17
19542.0	5.910559925643946e+17
19543.0	5.910082857118377e+17
19544.0	5.911888707715071e+17
19545.0	5.911873552995667e+17
19546.0	5.910949844921002e+17
19547.0	5.911160847772328e+17
19548.0	5.910583438213119e+17
19549.0	5.909909536593236e+17
19550.0	5.909387311491753e+17
19551.0	5.908771097630036e+17
19552.0	5.908139094310912e+17
19553.0	5.909807764602876e+17
19554.0	5.909308593493331e+17
19555.0	5.908643046927016e+17
19556.0	5.907958926584489e+17
19557.0	5.907247639734954e+17
19558.0	5.906531663653545e+17
19559.0	5.90580475232256e+17
19560.0	5.905041878330026e+17
19561.0	5.90429932364322e+17
19562.0	5.903566615085055e+17
19563.0	5.902807701214548e+17
19564.0	5.90203674759441e+17
19565.0	5.901257745104895e+17
19566.0	5.90143706907716e+17
19567.0	5.90159593742882e+17
19568.0	5.900762461416106e+17
19569.0	5.899951464775679e+17
19570.0	5.899140663170388e+17
19571.0	5.898305796046845e+17
19572.0	5.897445629580627e+17
19573.0	5.896610448583338e+17
19574.0	5.895699182212436e+17
19575.0	5.894924648054783e+17
19576.0	5.89406489612561e+17
19577.0	5.893183706409642e+17
19578.0	5.892292770529279e+17
19579.0	5.891427591869779e+17
19580.0	5.890548452469418e+17
19581.0	5.889672891509418e+17
19582.0	5.888798165215913e+17
19583.0	5.887904066131284e+17
19584.0	5.887001700073471e+17
19585.0	5.886006434376361e+17
19586.0	5.885071623279956e+17
19587.0	5.884234059218944e+17
19588.0	5.882968242039468e+17
19589.0	5.882431190772393e+17
19590.0	5.8814441731741e+17
19591.0	5.881505119207423e+17
19592.0	5.881077381289299e+17
19593.0	5.880124535384745e+17
19594.0	5.878996564705279e+17
19595.0	5.878229358695764e+17
19596.0	5.876859298381823e+17
19597.0	5.876345354234537e+17
19598.0	5.875090046582781e+17
19599.0	5.87445592653824e+17
19600.0	5.873507334356991e+17
19601.0	5.872488869265407e+17
19602.0	5.871543238961834e+17
19603.0	5.870143898211667e+17
19604.0	5.869601135001599e+17
19605.0	5.868426641102164e+17
19606.0	5.867712035859114e+17
19607.0	5.866746991520426e+17
19608.0	5.865756036169727e+17
19609.0	5.864748458792276e+17
19610.0	5.86381148623121e+17
19611.0	5.862823437533183e+17
19612.0	5.86185419399714e+17
19613.0	5.860860740239359e+17
19614.0	5.859848282090154e+17
19615.0	5.858893954897235e+17
19616.0	5.857813008657065e+17
19617.0	5.856902023304531e+17
19618.0	5.855427042476031e+17
19619.0	5.854378156796585e+17
19620.0	5.853446842351615e+17
19621.0	5.853025312003412e+17
19622.0	5.852037845614591e+17
19623.0	5.851037989251754e+17
19624.0	5.85002803929634e+17
19625.0	5.849033289498623e+17
19626.0	5.848028789342207e+17
19627.0	5.84701993549824e+17
19628.0	5.845812510020948e+17
19629.0	5.844891496786601e+17
19630.0	5.843451247591425e+17
19631.0	5.833877785761107e+17
19632.0	5.841946304752298e+17
19633.0	5.840921151143936e+17
19634.0	5.839954324226048e+17
19635.0	5.838907920176468e+17
19636.0	5.83791863206161e+17
19637.0	5.836586702165334e+17
19638.0	5.835889267703805e+17
19639.0	5.834868521609897e+17
19640.0	5.833781061615615e+17
19641.0	5.832084917933398e+17
19642.0	5.831816012016297e+17
19643.0	5.830792928296959e+17
19644.0	5.829727289169236e+17
19645.0	5.828519849011882e+17
19646.0	5.827726536256169e+17
19647.0	5.826715400710826e+17
19648.0	5.825691988437673e+17
19649.0	5.824664983743146e+17
19650.0	5.823642118826666e+17
19651.0	5.822610758347434e+17
19652.0	5.821587446737577e+17
19653.0	5.820560987302569e+17
19654.0	5.819527523379882e+17
19655.0	5.818502829047808e+17
19656.0	5.817472069752148e+17
19657.0	5.816449025878697e+17
19658.0	5.815419329839103e+17
19659.0	5.814387716303529e+17
19660.0	5.813358548047188e+17
19661.0	5.812327405671763e+17
19662.0	5.811295684482388e+17
19663.0	5.810221516936531e+17
19664.0	5.809192322116265e+17
19665.0	5.808198638370815e+17
