# Flux units: erg / (cm m2 s)
# Wavelength units: Angstrom
wave	flux
19000.0	8.391957613117437e+17
19001.0	8.389812166503081e+17
19002.0	8.388914645565437e+17
19003.0	8.387350985266515e+17
19004.0	8.385814944459434e+17
19005.0	8.384254720693587e+17
19006.0	8.38271821152256e+17
19007.0	8.38100419940625e+17
19008.0	8.379228442940756e+17
19009.0	8.377779787661311e+17
19010.0	8.373678032377164e+17
19011.0	8.374844253011965e+17
19012.0	8.37275683459345e+17
19013.0	8.371875080044543e+17
19014.0	8.369915168467624e+17
19015.0	8.368559026951508e+17
19016.0	8.366973958924969e+17
19017.0	8.36506519548723e+17
19018.0	8.364068340847955e+17
19019.0	8.362518929997821e+17
19020.0	8.36071949808435e+17
19021.0	8.359346110988285e+17
19022.0	8.35792083475934e+17
19023.0	8.356093109469181e+17
19024.0	8.35470266553685e+17
19025.0	8.353229714052434e+17
19026.0	8.351545888342015e+17
19027.0	8.34999021959031e+17
19028.0	8.348589748475219e+17
19029.0	8.346923935902376e+17
19030.0	8.345547647746048e+17
19031.0	8.344029216025258e+17
19032.0	8.342448519861587e+17
19033.0	8.340290716827647e+17
19034.0	8.339214963135828e+17
19035.0	8.3375156129082e+17
19036.0	8.31857397805874e+17
19037.0	8.334557840059049e+17
19038.0	8.33292697023283e+17
19039.0	8.331484856669524e+17
19040.0	8.329961082803539e+17
19041.0	8.328355546573481e+17
19042.0	8.326248069595133e+17
19043.0	8.325250036356434e+17
19044.0	8.323632124133375e+17
19045.0	8.322139499965097e+17
19046.0	8.320178156732415e+17
19047.0	8.318961675752787e+17
19048.0	8.316121843935913e+17
19049.0	8.315391159828479e+17
19050.0	8.313974796495528e+17
19051.0	8.30949091215496e+17
19052.0	8.310793868498259e+17
19053.0	8.309530072973311e+17
19054.0	8.307966892223145e+17
19055.0	8.304793547527514e+17
19056.0	8.304708077398697e+17
19057.0	8.303249413111804e+17
19058.0	8.301574412217002e+17
19059.0	8.300133407348054e+17
19060.0	8.298447585148927e+17
19061.0	8.2970318747293e+17
19062.0	8.295420207824896e+17
19063.0	8.293877218454185e+17
19064.0	8.291462669489491e+17
19065.0	8.289505390537385e+17
19066.0	8.288727021387773e+17
19067.0	8.287493830301011e+17
19068.0	8.285997915002195e+17
19069.0	8.284433418638675e+17
19070.0	8.282674331735382e+17
19071.0	8.281252061424298e+17
19072.0	8.279715039150079e+17
19073.0	8.278085775742292e+17
19074.0	8.276573476093952e+17
19075.0	8.275003181804202e+17
19076.0	8.273286674077012e+17
19077.0	8.271783462087336e+17
19078.0	8.269920747913212e+17
19079.0	8.26867222245103e+17
19080.0	8.267005203316736e+17
19081.0	8.265209964309161e+17
19082.0	8.263611510860456e+17
19083.0	8.261536180426067e+17
19084.0	8.259113104441344e+17
19085.0	8.259118951301117e+17
19086.0	8.254964019232767e+17
19087.0	8.255504010706943e+17
19088.0	8.253908347868498e+17
19089.0	8.251351504344408e+17
19090.0	8.251061921207636e+17
19091.0	8.249531156834988e+17
19092.0	8.247619302195199e+17
19093.0	8.246536221054292e+17
19094.0	8.244945377471145e+17
19095.0	8.243394288899412e+17
19096.0	8.241720500158463e+17
19097.0	8.240242016387071e+17
19098.0	8.238634152318292e+17
19099.0	8.237033645058732e+17
19100.0	8.235458711868756e+17
19101.0	8.233911437317459e+17
19102.0	8.231800947430739e+17
19103.0	8.230707709083648e+17
19104.0	8.229175402605224e+17
19105.0	8.227547608601939e+17
19106.0	8.225891593923241e+17
19107.0	8.224281298556242e+17
19108.0	8.222822459506688e+17
19109.0	8.219321496327505e+17
19110.0	8.219590219792384e+17
19111.0	8.218072295582376e+17
19112.0	8.216497675567103e+17
19113.0	8.214895163430228e+17
19114.0	8.213291426556588e+17
19115.0	8.211417229776212e+17
19116.0	8.209994022737236e+17
19117.0	8.208412707214676e+17
19118.0	8.206390466882217e+17
19119.0	8.192543811086999e+17
19120.0	8.203530467453608e+17
19121.0	8.202104041985363e+17
19122.0	8.200632153057961e+17
19123.0	8.198980030693375e+17
19124.0	8.197320954172755e+17
19125.0	8.195820007107242e+17
19126.0	8.194226214928381e+17
19127.0	8.182461757041312e+17
19128.0	8.189674402436434e+17
19129.0	8.188885393735675e+17
19130.0	8.187801682051072e+17
19131.0	8.186265799229439e+17
19132.0	8.184690519310335e+17
19133.0	8.180607867682816e+17
19134.0	8.180860912839337e+17
19135.0	8.179921907438931e+17
19136.0	8.178372769218557e+17
19137.0	8.175783900785321e+17
19138.0	8.175035300009302e+17
19139.0	8.1735831257088e+17
19140.0	8.171999968886784e+17
19141.0	8.170407941111807e+17
19142.0	8.168650078945279e+17
19143.0	8.166857661306199e+17
19144.0	8.165357980920489e+17
19145.0	8.164006235034964e+17
19146.0	8.158698172754606e+17
19147.0	8.160301945978876e+17
19148.0	8.159225329658536e+17
19149.0	8.157609714515965e+17
19150.0	8.155990299333972e+17
19151.0	8.154424501338111e+17
19152.0	8.15278329814494e+17
19153.0	8.151126232094036e+17
19154.0	8.148871607746557e+17
19155.0	8.148067639361535e+17
19156.0	8.146443315445756e+17
19157.0	8.144754947304106e+17
19158.0	8.141974347448319e+17
19159.0	8.141518641911123e+17
19160.0	8.139906158515539e+17
19161.0	8.138286276367702e+17
19162.0	8.133834039448918e+17
19163.0	8.135146528047101e+17
19164.0	8.133669937304915e+17
19165.0	8.131974059961002e+17
19166.0	8.129821523574781e+17
19167.0	8.128573789437951e+17
19168.0	8.126642098536447e+17
19169.0	8.125277213294591e+17
19170.0	8.124044928177491e+17
19171.0	8.122279337306794e+17
19172.0	8.120790788603905e+17
19173.0	8.119239743373312e+17
19174.0	8.117276016377855e+17
19175.0	8.11602071991091e+17
19176.0	8.114384419859113e+17
19177.0	8.11185568096802e+17
19178.0	8.111121593881939e+17
19179.0	8.10937560998434e+17
19180.0	8.107767392195923e+17
19181.0	8.105764181420713e+17
19182.0	8.104451803272532e+17
19183.0	8.103126611525631e+17
19184.0	8.100984995708927e+17
19185.0	8.099795038109693e+17
19186.0	8.09829728990003e+17
19187.0	8.095707744785748e+17
19188.0	8.09459584877636e+17
19189.0	8.092951863361535e+17
19190.0	8.091330028066131e+17
19191.0	8.089536424837119e+17
19192.0	8.088142391978666e+17
19193.0	8.086361222064809e+17
19194.0	8.084722940903424e+17
19195.0	8.083244865377619e+17
19196.0	8.081512566095872e+17
19197.0	8.079911428292608e+17
19198.0	8.078107755937791e+17
19199.0	8.058848409550843e+17
19200.0	8.06259295413863e+17
19201.0	8.073284650270717e+17
19202.0	8.07185596547072e+17
19203.0	8.0702398805661e+17
19204.0	8.068486990047913e+17
19205.0	8.066946644486826e+17
19206.0	8.065286353016147e+17
19207.0	8.063175815593983e+17
19208.0	8.060935625244671e+17
19209.0	8.060398004950356e+17
19210.0	8.05878483089271e+17
19211.0	8.057231277468328e+17
19212.0	8.055596613195092e+17
19213.0	8.053322908958719e+17
19214.0	8.051558418393772e+17
19215.0	8.05062639511142e+17
19216.0	8.048950344242518e+17
19217.0	8.047343183418708e+17
19218.0	8.040742295437303e+17
19219.0	8.043000243071654e+17
19220.0	8.04229393486097e+17
19221.0	8.03876825604642e+17
19222.0	8.039130441187328e+17
19223.0	8.037344119270057e+17
19224.0	8.035396512382973e+17
19225.0	8.033228440294738e+17
19226.0	8.032352385804969e+17
19227.0	8.030681730209106e+17
19228.0	8.029215341412351e+17
19229.0	8.02755333447134e+17
19230.0	8.025766780469247e+17
19231.0	8.024092189218131e+17
19232.0	8.022390060963156e+17
19233.0	8.020416842257748e+17
19234.0	8.019054330991956e+17
19235.0	8.017292907861331e+17
19236.0	8.015883772712276e+17
19237.0	8.014083808122196e+17
19238.0	8.011945466658816e+17
19239.0	8.010858482018982e+17
19240.0	8.008020639700306e+17
19241.0	8.006973949739007e+17
19242.0	8.005642783905108e+17
19243.0	8.00287826920516e+17
19244.0	8.002407362112169e+17
19245.0	8.000679321447081e+17
19246.0	7.998908364663462e+17
19247.0	7.997227447003817e+17
19248.0	7.995172298162175e+17
19249.0	7.993310158607698e+17
19250.0	7.991482279526399e+17
19251.0	7.98917328861047e+17
19252.0	7.986097260156242e+17
19253.0	7.986331967815679e+17
19254.0	7.984579632343721e+17
19255.0	7.981712039826769e+17
19256.0	7.981108567561556e+17
19257.0	7.97956406963951e+17
19258.0	7.977843318674772e+17
19259.0	7.975590556598272e+17
19260.0	7.974017671626751e+17
19261.0	7.972547765207037e+17
19262.0	7.970492603782484e+17
19263.0	7.968827003721044e+17
19264.0	7.964285398766926e+17
19265.0	7.964520504885244e+17
19266.0	7.963128717377536e+17
19267.0	7.962025921609727e+17
19268.0	7.96006087061231e+17
19269.0	7.958288108879871e+17
19270.0	7.956520128653992e+17
19271.0	7.95278621243256e+17
19272.0	7.952715113387348e+17
19273.0	7.922399181799392e+17
19274.0	7.933962851363478e+17
19275.0	7.947583167135744e+17
19276.0	7.94559538720495e+17
19277.0	7.943095594603859e+17
19278.0	7.941316607126185e+17
19279.0	7.939255879860221e+17
19280.0	7.937118947682986e+17
19281.0	7.935806477260115e+17
19282.0	7.934062496841725e+17
19283.0	7.931989885714428e+17
19284.0	7.929691938400936e+17
19285.0	7.927209768867155e+17
19286.0	7.92642646861414e+17
19287.0	7.924826252159658e+17
19288.0	7.918533746185551e+17
19289.0	7.909485884473322e+17
19290.0	7.919206154633215e+17
19291.0	7.915588475158533e+17
19292.0	7.915406312341503e+17
19293.0	7.91346103329314e+17
19294.0	7.911230042450602e+17
19295.0	7.908674309018964e+17
19296.0	7.906705692863145e+17
19297.0	7.904609339179007e+17
19298.0	7.902660076939945e+17
19299.0	7.900891972283049e+17
19300.0	7.898937506310825e+17
19301.0	7.8969143572125e+17
19302.0	7.89488681807599e+17
19303.0	7.892432814691667e+17
19304.0	7.890644457138858e+17
19305.0	7.888836120717992e+17
19306.0	7.886869646453416e+17
19307.0	7.883511394467839e+17
19308.0	7.881403270168573e+17
19309.0	7.87893389046579e+17
19310.0	7.876490941868713e+17
19311.0	7.875149140677972e+17
19312.0	7.873208451596285e+17
19313.0	7.87093990076143e+17
19314.0	7.862655261168977e+17
19315.0	7.860846954108256e+17
19316.0	7.86428712784145e+17
19317.0	7.861133487986003e+17
19318.0	7.858845044965375e+17
19319.0	7.856442021948072e+17
19320.0	7.85418166538513e+17
19321.0	7.85207225762884e+17
19322.0	7.8492028923194e+17
19323.0	7.847352864516778e+17
19324.0	7.844660528196264e+17
19325.0	7.841804496579242e+17
19326.0	7.839888813938003e+17
19327.0	7.837522356862972e+17
19328.0	7.835305310683136e+17
19329.0	7.832955093953193e+17
19330.0	7.830341772727638e+17
19331.0	7.827931267072e+17
19332.0	7.825769712932179e+17
19333.0	7.823204620610216e+17
19334.0	7.820723203254953e+17
19335.0	7.818345388004694e+17
19336.0	7.815841336786943e+17
19337.0	7.813295390064639e+17
19338.0	7.809518093555027e+17
19339.0	7.807866487089833e+17
19340.0	7.804670723839315e+17
19341.0	7.802265476442793e+17
19342.0	7.797316144594939e+17
19343.0	7.796962704577875e+17
19344.0	7.794148311214762e+17
19345.0	7.78040587688343e+17
19346.0	7.784887609546066e+17
19347.0	7.785550400454655e+17
19348.0	7.783088627821224e+17
19349.0	7.779994235305983e+17
19350.0	7.77714141372962e+17
19351.0	7.773667923241641e+17
19352.0	7.769959550331561e+17
19353.0	7.767411042287615e+17
19354.0	7.764326867096914e+17
19355.0	7.760620215249581e+17
19356.0	7.758043229279574e+17
19357.0	7.754812670083072e+17
19358.0	7.751287372950186e+17
19359.0	7.746440526124372e+17
19360.0	7.743395560685567e+17
19361.0	7.739999909489321e+17
19362.0	7.736813006006953e+17
19363.0	7.733291967490728e+17
19364.0	7.7297072748189e+17
19365.0	7.725729799558484e+17
19366.0	7.72069980984661e+17
19367.0	7.716934121772374e+17
19368.0	7.713099461165055e+17
19369.0	7.708458865044138e+17
19370.0	7.701086260079272e+17
19371.0	7.698758966618793e+17
19372.0	7.694948705675945e+17
19373.0	7.690580171685888e+17
19374.0	7.6847641554234e+17
19375.0	7.679452101563732e+17
19376.0	7.67496435147298e+17
19377.0	7.669130867332433e+17
19378.0	7.6626182289053e+17
19379.0	7.657828017766399e+17
19380.0	7.650566004015105e+17
19381.0	7.644078153924607e+17
19382.0	7.637651210720595e+17
19383.0	7.628927774228479e+17
19384.0	7.623960135641768e+17
19385.0	7.616198000072022e+17
19386.0	7.610542322264745e+17
19387.0	7.604722630393855e+17
19388.0	7.598768818662058e+17
19389.0	7.59270015570193e+17
19390.0	7.586471970777769e+17
19391.0	7.567389839327212e+17
19392.0	7.573088041784658e+17
19393.0	7.566320814697132e+17
19394.0	7.559403290318163e+17
19395.0	7.552342122212009e+17
19396.0	7.545116323479548e+17
19397.0	7.537761842102271e+17
19398.0	7.529939569999872e+17
19399.0	7.518411567398907e+17
19400.0	7.51341324328414e+17
19401.0	7.505413816363688e+17
19402.0	7.497034553273e+17
19403.0	7.487352217796607e+17
19404.0	7.478299770312019e+17
19405.0	7.468899904432809e+17
19406.0	7.458284699822765e+17
19407.0	7.448078934780585e+17
19408.0	7.434321055623858e+17
19409.0	7.425072686607017e+17
19410.0	7.413825646450004e+17
19411.0	7.400636781953023e+17
19412.0	7.387152719544317e+17
19413.0	7.373072812911277e+17
19414.0	7.357106908124502e+17
19415.0	7.340170811888984e+17
19416.0	7.321092288937981e+17
19417.0	7.300947691350694e+17
19418.0	7.280032411374931e+17
19419.0	7.2620293764765e+17
19420.0	7.245444645475667e+17
19421.0	7.228220780838911e+17
19422.0	7.21047555023394e+17
19423.0	7.191854255352488e+17
19424.0	7.171820499238911e+17
19425.0	7.151377904741033e+17
19426.0	7.129036439770451e+17
19427.0	7.105819946516479e+17
19428.0	7.081429991860905e+17
19429.0	7.054915026638163e+17
19430.0	7.026132209631232e+17
19431.0	6.993979634264748e+17
19432.0	6.962959971865939e+17
19433.0	6.926156810245462e+17
19434.0	6.885853373311656e+17
19435.0	6.845026032156671e+17
19436.0	6.805951852751529e+17
19437.0	6.765772209302186e+17
19438.0	6.714048610216616e+17
19439.0	6.673289222378839e+17
19440.0	6.619843519665491e+17
19441.0	6.562116722316627e+17
19442.0	6.498675273848151e+17
19443.0	6.430330999275517e+17
19444.0	6.358845400722086e+17
19445.0	6.279910851783342e+17
19446.0	6.193262802326868e+17
19447.0	6.098561521418235e+17
19448.0	5.994260996991662e+17
19449.0	5.871125779185663e+17
19450.0	5.668140572038437e+17
19451.0	5.566249963967843e+17
19452.0	5.78202664418236e+17
19453.0	5.934401832965464e+17
19454.0	6.042922199810043e+17
19455.0	6.139731699389779e+17
19456.0	6.227880854596269e+17
19457.0	6.30805159704439e+17
19458.0	6.377922036236292e+17
19459.0	6.44757842751215e+17
19460.0	6.511508835358034e+17
19461.0	6.569320202458452e+17
19462.0	6.622253774361942e+17
19463.0	6.67066236753237e+17
19464.0	6.713984588360361e+17
19465.0	6.753590009921536e+17
19466.0	6.790345882861564e+17
19467.0	6.826791494047062e+17
19468.0	6.865657682111149e+17
19469.0	6.899138059479721e+17
19470.0	6.933256805722792e+17
19471.0	6.962211711527594e+17
19472.0	6.988890980220925e+17
19473.0	7.013384171378004e+17
19474.0	7.03626855125265e+17
19475.0	7.055046516670458e+17
19476.0	7.076949997038249e+17
19477.0	7.095603378345302e+17
19478.0	7.113019189712212e+17
19479.0	7.129613977255935e+17
19480.0	7.144803530353322e+17
19481.0	7.159389949526015e+17
19482.0	7.173591507752275e+17
19483.0	7.187714972232362e+17
19484.0	7.20497423399868e+17
19485.0	7.222746274594815e+17
19486.0	7.239155686484649e+17
19487.0	7.254019776970755e+17
19488.0	7.267201094516736e+17
19489.0	7.278815147458561e+17
19490.0	7.28529180155357e+17
19491.0	7.300142913465002e+17
19492.0	7.310203073243817e+17
19493.0	7.318639427802454e+17
19494.0	7.327420563936595e+17
19495.0	7.33449466028578e+17
19496.0	7.340923400050002e+17
19497.0	7.349178950746111e+17
19498.0	7.354705594985132e+17
19499.0	7.342679311865156e+17
19500.0	7.368093388330323e+17
19501.0	7.373473401099603e+17
19502.0	7.378638447400274e+17
19503.0	7.383811549560832e+17
19504.0	7.388996945226408e+17
19505.0	7.393581097200298e+17
19506.0	7.398015841075199e+17
19507.0	7.402102831011158e+17
19508.0	7.406243214437034e+17
19509.0	7.410084632068096e+17
19510.0	7.413166268306772e+17
19511.0	7.402246550235808e+17
19512.0	7.418237422316195e+17
19513.0	7.416965323467423e+17
19514.0	7.42320718322073e+17
19515.0	7.427872248911196e+17
19516.0	7.433034574506666e+17
19517.0	7.436401128417962e+17
19518.0	7.440544287074985e+17
19519.0	7.44403413255236e+17
19520.0	7.448971120563539e+17
19521.0	7.451254638073174e+17
19522.0	7.455969471976786e+17
19523.0	7.458758919017811e+17
19524.0	7.460626414698496e+17
19525.0	7.464892716722857e+17
19526.0	7.46662597370402e+17
19527.0	7.468069268662953e+17
19528.0	7.471324242903037e+17
19529.0	7.473163190752595e+17
19530.0	7.474420142571519e+17
19531.0	7.475596526004906e+17
19532.0	7.478332260788905e+17
19533.0	7.47959221433139e+17
19534.0	7.480485199828308e+17
19535.0	7.48118902501103e+17
19536.0	7.481927063131476e+17
19537.0	7.484339832313172e+17
19538.0	7.484635182617944e+17
19539.0	7.482562655376736e+17
19540.0	7.48591905907234e+17
19541.0	7.486566714135892e+17
19542.0	7.486947424119466e+17
19543.0	7.488164713201663e+17
19544.0	7.488806447306067e+17
19545.0	7.48686811402512e+17
19546.0	7.484341798043648e+17
19547.0	7.489488018909866e+17
19548.0	7.489660018928297e+17
19549.0	7.489087202831016e+17
19550.0	7.489802203037693e+17
19551.0	7.490017193274025e+17
19552.0	7.490653086111059e+17
19553.0	7.490482131872425e+17
19554.0	7.490266214694913e+17
19555.0	7.490279998575956e+17
19556.0	7.490194062879402e+17
19557.0	7.48998751158272e+17
19558.0	7.489751327528275e+17
19559.0	7.489404026574164e+17
19560.0	7.489044384579581e+17
19561.0	7.488733174213289e+17
19562.0	7.48851861459217e+17
19563.0	7.488187165310975e+17
19564.0	7.488034418546002e+17
19565.0	7.487950026353321e+17
19566.0	7.487346137453906e+17
19567.0	7.487065549701117e+17
19568.0	7.486364319394472e+17
19569.0	7.485924594155519e+17
19570.0	7.4855333508765e+17
19571.0	7.48497785725474e+17
19572.0	7.484168587269459e+17
19573.0	7.483719750604115e+17
19574.0	7.482576057576104e+17
19575.0	7.482563982174889e+17
19576.0	7.481974581799593e+17
19577.0	7.48109785342498e+17
19578.0	7.480396720985427e+17
19579.0	7.480159365322067e+17
19580.0	7.479879834533887e+17
19581.0	7.479227653816319e+17
19582.0	7.478582167207935e+17
19583.0	7.477817594522281e+17
19584.0	7.477030154491219e+17
19585.0	7.475548485844991e+17
19586.0	7.47455118381329e+17
19587.0	7.475282455123283e+17
19588.0	7.472760083185665e+17
19589.0	7.474506075471871e+17
19590.0	7.473368829089108e+17
19591.0	7.472919599557289e+17
19592.0	7.472087301444947e+17
19593.0	7.471066322567165e+17
19594.0	7.468764428413606e+17
19595.0	7.469209835536381e+17
19596.0	7.465226914671276e+17
19597.0	7.467733345457494e+17
19598.0	7.466190844024147e+17
19599.0	7.466703681574228e+17
19600.0	7.4657938028189e+17
19601.0	7.46441966354432e+17
19602.0	7.463594128048127e+17
19603.0	7.460344821710844e+17
19604.0	7.461544375877632e+17
19605.0	7.45895623445709e+17
19606.0	7.459802196213757e+17
19607.0	7.458814440417962e+17
19608.0	7.457735536803839e+17
19609.0	7.456445592589651e+17
19610.0	7.455770091541844e+17
19611.0	7.455030105866237e+17
19612.0	7.454549995072169e+17
19613.0	7.453411739260246e+17
19614.0	7.452149276125862e+17
19615.0	7.451344294117375e+17
19616.0	7.450151140458493e+17
19617.0	7.44918285042756e+17
19618.0	7.445053837759825e+17
19619.0	7.443073273430007e+17
19620.0	7.44210727209096e+17
19621.0	7.444733209782952e+17
19622.0	7.443686329679872e+17
19623.0	7.442588590844586e+17
19624.0	7.441400548644182e+17
19625.0	7.440341939869012e+17
19626.0	7.439129025445887e+17
19627.0	7.438070855674538e+17
19628.0	7.436440979898368e+17
19629.0	7.435194318105257e+17
19630.0	7.43380393848559e+17
19631.0	7.414900650759505e+17
19632.0	7.432528214360063e+17
19633.0	7.43149910692113e+17
19634.0	7.430656791412736e+17
19635.0	7.429216014434301e+17
19636.0	7.428253992091647e+17
19637.0	7.424401012162563e+17
19638.0	7.425896400377172e+17
19639.0	7.424692032547497e+17
19640.0	7.423153033357994e+17
19641.0	7.41929466934068e+17
19642.0	7.421141611533654e+17
19643.0	7.419866062170796e+17
19644.0	7.41844096070451e+17
19645.0	7.416060476478802e+17
19646.0	7.416430025419434e+17
19647.0	7.415232836840106e+17
19648.0	7.413991071197866e+17
19649.0	7.412760830104915e+17
19650.0	7.411589964977491e+17
19651.0	7.410330486789459e+17
19652.0	7.409079506261331e+17
19653.0	7.407913970696192e+17
19654.0	7.406622442433193e+17
19655.0	7.405355457839101e+17
19656.0	7.40419189219874e+17
19657.0	7.402948810943145e+17
19658.0	7.401756012402003e+17
19659.0	7.40054787109683e+17
19660.0	7.399504918260393e+17
19661.0	7.398230913799508e+17
19662.0	7.397019129042259e+17
19663.0	7.395481467835732e+17
19664.0	7.394401932279807e+17
19665.0	7.393277414211583e+17
19666.0	7.391923081838591e+17
