# Flux units: erg / (cm m2 s)
# Wavelength units: Angstrom
wave	flux
19000.0	5.633509207747241e+17
19001.0	5.632318214853972e+17
19002.0	5.631412563258026e+17
19003.0	5.630350497677311e+17
19004.0	5.6292981929410554e+17
19005.0	5.628251874175657e+17
19006.0	5.6272082775135565e+17
19007.0	5.626113775981909e+17
19008.0	5.6250339440285005e+17
19009.0	5.623958128121172e+17
19010.0	5.622306513267368e+17
19011.0	5.6219141577987405e+17
19012.0	5.620044803342334e+17
19013.0	5.619875565972138e+17
19014.0	5.618760854885715e+17
19015.0	5.617726840111103e+17
19016.0	5.616658047565823e+17
19017.0	5.615692655099903e+17
19018.0	5.614598445072383e+17
19019.0	5.613589336773973e+17
19020.0	5.6125310712326816e+17
19021.0	5.611509614903294e+17
19022.0	5.6104583999870285e+17
19023.0	5.6093621368477005e+17
19024.0	5.608319611131221e+17
19025.0	5.607258433344852e+17
19026.0	5.6061663253626874e+17
19027.0	5.6045554490845843e+17
19028.0	5.6041917938401274e+17
19029.0	5.6031161170438816e+17
19030.0	5.602111040869717e+17
19031.0	5.601076602470398e+17
19032.0	5.6000215686403405e+17
19033.0	5.598854555282089e+17
19034.0	5.597901583548415e+17
19035.0	5.5967105361291936e+17
19036.0	5.547752544359746e+17
19037.0	5.5946931472083616e+17
19038.0	5.593722628603903e+17
19039.0	5.59271899177506e+17
19040.0	5.5916864764641274e+17
19041.0	5.590634123493374e+17
19042.0	5.5889375820513254e+17
19043.0	5.588569698249385e+17
19044.0	5.587510426774185e+17
19045.0	5.5864565009394336e+17
19046.0	5.585356946669568e+17
19047.0	5.584384471422292e+17
19048.0	5.582953162386089e+17
19049.0	5.581114693386238e+17
19050.0	5.581185760275113e+17
19051.0	5.573034508637512e+17
19052.0	5.578176584133291e+17
19053.0	5.578138920681471e+17
19054.0	5.5771226652890445e+17
19055.0	5.5755853214515206e+17
19056.0	5.5749506715265696e+17
19057.0	5.573998791710037e+17
19058.0	5.5723683559942803e+17
19059.0	5.571707630780415e+17
19060.0	5.570853808198996e+17
19061.0	5.569856694910975e+17
19062.0	5.5688114960247456e+17
19063.0	5.567776858395988e+17
19064.0	5.566566149477717e+17
19065.0	5.565473482954069e+17
19066.0	5.564384970888533e+17
19067.0	5.5636136698402125e+17
19068.0	5.5625934752972794e+17
19069.0	5.5615590746466976e+17
19070.0	5.560480851907924e+17
19071.0	5.55945068400913e+17
19072.0	5.5582299772682234e+17
19073.0	5.557408085224106e+17
19074.0	5.5563798970368e+17
19075.0	5.555344479966547e+17
19076.0	5.554279936251221e+17
19077.0	5.55325253169971e+17
19078.0	5.552177790233258e+17
19079.0	5.5512005146050554e+17
19080.0	5.5501507914629114e+17
19081.0	5.549074895863806e+17
19082.0	5.5480398164350285e+17
19083.0	5.5469410618791245e+17
19084.0	5.5457443388675405e+17
19085.0	5.544974827388926e+17
19086.0	5.543141479634262e+17
19087.0	5.541262627875499e+17
19088.0	5.541427643678719e+17
19089.0	5.5399972643799034e+17
19090.0	5.539770371407871e+17
19091.0	5.538708498765141e+17
19092.0	5.5369884650263904e+17
19093.0	5.5367346886628685e+17
19094.0	5.5357088094399136e+17
19095.0	5.534678375202815e+17
19096.0	5.533622768850262e+17
19097.0	5.532613777992362e+17
19098.0	5.5313439216981325e+17
19099.0	5.530263893311487e+17
19100.0	5.529435445570217e+17
19101.0	5.5284641251546445e+17
19102.0	5.527291996143615e+17
19103.0	5.526430637796009e+17
19104.0	5.525405178702506e+17
19105.0	5.523846957017771e+17
19106.0	5.523112435122174e+17
19107.0	5.5221470643268256e+17
19108.0	5.5210712637986125e+17
19109.0	5.5170388515444e+17
19110.0	5.5191134193145165e+17
19111.0	5.518030156420435e+17
19112.0	5.516993739707732e+17
19113.0	5.516141504670377e+17
19114.0	5.515015784235007e+17
19115.0	5.5139047774180685e+17
19116.0	5.513036908811604e+17
19117.0	5.5120026332910925e+17
19118.0	5.5106964410422605e+17
19119.0	5.499253691864387e+17
19120.0	5.508539920766292e+17
19121.0	5.5076517412427085e+17
19122.0	5.506907976499199e+17
19123.0	5.5058831975819936e+17
19124.0	5.504637561995262e+17
19125.0	5.5038139705589754e+17
19126.0	5.502792267464703e+17
19127.0	5.4992551382002323e+17
19128.0	5.5003627790882125e+17
19129.0	5.4996240684810234e+17
19130.0	5.4986871099009696e+17
19131.0	5.4976739296324256e+17
19132.0	5.4966553051572896e+17
19133.0	5.495497707312469e+17
19134.0	5.4944319794053114e+17
19135.0	5.4935708622301856e+17
19136.0	5.4925676448317434e+17
19137.0	5.4913153570788685e+17
19138.0	5.490494073907881e+17
19139.0	5.4894988669310285e+17
19140.0	5.488478753477972e+17
19141.0	5.487456710645076e+17
19142.0	5.486387696500734e+17
19143.0	5.4853276700508154e+17
19144.0	5.484341077475328e+17
19145.0	5.483367715132757e+17
19146.0	5.481502180289195e+17
19147.0	5.4811899849605114e+17
19148.0	5.4800983705081165e+17
19149.0	5.4790461860085754e+17
19150.0	5.478253951888041e+17
19151.0	5.4772369030731085e+17
19152.0	5.4761733576021325e+17
19153.0	5.474796996744532e+17
19154.0	5.473960763675988e+17
19155.0	5.473147119730687e+17
19156.0	5.4721326021782176e+17
19157.0	5.4709034285356365e+17
19158.0	5.467744105398269e+17
19159.0	5.469021416368809e+17
19160.0	5.467999085527038e+17
19161.0	5.466983545263445e+17
19162.0	5.46105638693547e+17
19163.0	5.464838238459221e+17
19164.0	5.4639767906331296e+17
19165.0	5.462437977391102e+17
19166.0	5.461643916651177e+17
19167.0	5.4604656590629536e+17
19168.0	5.459900055071402e+17
19169.0	5.4588029397893114e+17
19170.0	5.4578846346772474e+17
19171.0	5.4565581902315514e+17
19172.0	5.4558188330024954e+17
19173.0	5.454824358630741e+17
19174.0	5.45374493282577e+17
19175.0	5.4528123831582726e+17
19176.0	5.451794729664511e+17
19177.0	5.450573881016319e+17
19178.0	5.449635717971967e+17
19179.0	5.448303810445312e+17
19180.0	5.4477048764170234e+17
19181.0	5.446522517498538e+17
19182.0	5.4456756253054285e+17
19183.0	5.444696136482814e+17
19184.0	5.4436743711730336e+17
19185.0	5.442654438075051e+17
19186.0	5.4416531822127776e+17
19187.0	5.4405426696246605e+17
19188.0	5.4396127868354554e+17
19189.0	5.438599246555817e+17
19190.0	5.437564623607124e+17
19191.0	5.4364869964595194e+17
19192.0	5.435570940193449e+17
19193.0	5.4344878744316576e+17
19194.0	5.433434187672235e+17
19195.0	5.432514513119915e+17
19196.0	5.4314587970164045e+17
19197.0	5.430408893519188e+17
19198.0	5.4291842532201805e+17
19199.0	5.3990760515283546e+17
19200.0	5.4072243035395514e+17
19201.0	5.426183902593023e+17
19202.0	5.4253718552794445e+17
19203.0	5.424317097574398e+17
19204.0	5.423362480974505e+17
19205.0	5.4224002377318394e+17
19206.0	5.421387310519637e+17
19207.0	5.420255539800745e+17
19208.0	5.419050393927678e+17
19209.0	5.4183716527800314e+17
19210.0	5.417361100242943e+17
19211.0	5.416370210603007e+17
19212.0	5.415353803516585e+17
19213.0	5.4139827009181005e+17
19214.0	5.412848251437056e+17
19215.0	5.41221263053073e+17
19216.0	5.411322782373205e+17
19217.0	5.410301831457449e+17
19218.0	5.4081534418397843e+17
19219.0	5.4080992619178656e+17
19220.0	5.407242766166698e+17
19221.0	5.405831055714986e+17
19222.0	5.405264216500905e+17
19223.0	5.404239954182143e+17
19224.0	5.4032015675446605e+17
19225.0	5.4020479549876896e+17
19226.0	5.401217222748842e+17
19227.0	5.400209639079936e+17
19228.0	5.3992354378765645e+17
19229.0	5.398227142574079e+17
19230.0	5.3971957744052896e+17
19231.0	5.3961864053609805e+17
19232.0	5.3951919372806816e+17
19233.0	5.394099143529813e+17
19234.0	5.393159611744255e+17
19235.0	5.3921411452545696e+17
19236.0	5.39117930746129e+17
19237.0	5.390151205956267e+17
19238.0	5.3889946853485216e+17
19239.0	5.3881631694738765e+17
19240.0	5.3871415153131514e+17
19241.0	5.386119143227391e+17
19242.0	5.3851244731214496e+17
19243.0	5.383924542166355e+17
19244.0	5.382976439320574e+17
19245.0	5.3818404365489485e+17
19246.0	5.380818091027113e+17
19247.0	5.379825487314943e+17
19248.0	5.378822834050388e+17
19249.0	5.377790267009706e+17
19250.0	5.376710354665471e+17
19251.0	5.37558247416354e+17
19252.0	5.374438829370026e+17
19253.0	5.373770686529535e+17
19254.0	5.3727965943780685e+17
19255.0	5.3715487882390176e+17
19256.0	5.3707444528523936e+17
19257.0	5.369788134064128e+17
19258.0	5.368783087949142e+17
19259.0	5.367680936006996e+17
19260.0	5.365726610543955e+17
19261.0	5.36574909411055e+17
19262.0	5.364678797208234e+17
19263.0	5.3636667983353165e+17
19264.0	5.361964748374014e+17
19265.0	5.36145658257954e+17
19266.0	5.360339127719253e+17
19267.0	5.3597422929401165e+17
19268.0	5.3587281934199456e+17
19269.0	5.3577276785513805e+17
19270.0	5.356723560775679e+17
19271.0	5.3552295063497395e+17
19272.0	5.35466818544162e+17
19273.0	5.352961557397502e+17
19274.0	5.351988204841641e+17
19275.0	5.351702992868692e+17
19276.0	5.350670817296383e+17
19277.0	5.3496735292456954e+17
19278.0	5.348659710743892e+17
19279.0	5.347622647409322e+17
19280.0	5.3465424316770976e+17
19281.0	5.345644238951764e+17
19282.0	5.344653828161535e+17
19283.0	5.343228579894613e+17
19284.0	5.3424850269634554e+17
19285.0	5.341399495649962e+17
19286.0	5.3405775574685e+17
19287.0	5.339595670203049e+17
19288.0	5.325968658923508e+17
19289.0	5.305291426671216e+17
19290.0	5.336568671065428e+17
19291.0	5.335257226149888e+17
19292.0	5.334595369172992e+17
19293.0	5.3335805615144954e+17
19294.0	5.332564803846142e+17
19295.0	5.3315769487851514e+17
19296.0	5.3303135838754125e+17
19297.0	5.3291945470634656e+17
19298.0	5.328210287919103e+17
19299.0	5.3269570068152314e+17
19300.0	5.326214994591743e+17
19301.0	5.325213981999103e+17
19302.0	5.324193545584639e+17
19303.0	5.323079750254591e+17
19304.0	5.322141263549781e+17
19305.0	5.3211478706094074e+17
19306.0	5.3201254551825056e+17
19307.0	5.3190364209261216e+17
19308.0	5.318058301543764e+17
19309.0	5.31600045716275e+17
19310.0	5.314629585950035e+17
19311.0	5.3149111439851514e+17
19312.0	5.314041925511851e+17
19313.0	5.31301309419793e+17
19314.0	5.239190781078192e+17
19315.0	5.2439097820229306e+17
19316.0	5.309150784039594e+17
19317.0	5.3085877476611405e+17
19318.0	5.307576667340799e+17
19319.0	5.306585961551188e+17
19320.0	5.30545588183586e+17
19321.0	5.304320569726291e+17
19322.0	5.3033620643075405e+17
19323.0	5.3020308348600314e+17
19324.0	5.3014123644627616e+17
19325.0	5.2993959898644474e+17
19326.0	5.299391913000959e+17
19327.0	5.298366663622655e+17
19328.0	5.296909266015574e+17
19329.0	5.2963427938030925e+17
19330.0	5.2952569199547725e+17
19331.0	5.294217189042857e+17
19332.0	5.2932330452418554e+17
19333.0	5.2921741023204685e+17
19334.0	5.29115636494063e+17
19335.0	5.2892121288758624e+17
19336.0	5.2890628347221325e+17
19337.0	5.2880495202358605e+17
19338.0	5.286725522467497e+17
19339.0	5.2859536356147194e+17
19340.0	5.284214220696234e+17
19341.0	5.282997319587156e+17
19342.0	5.281641171779582e+17
19343.0	5.281282418278399e+17
19344.0	5.279886557402453e+17
19345.0	5.276032777759396e+17
19346.0	5.276945297528147e+17
19347.0	5.2765277916146336e+17
19348.0	5.275992331386878e+17
19349.0	5.274868297760766e+17
19350.0	5.2736447976133965e+17
19351.0	5.272729801108138e+17
19352.0	5.271142721213779e+17
19353.0	5.2705753486240403e+17
19354.0	5.2689451519836154e+17
19355.0	5.2677267507118074e+17
19356.0	5.266766854182228e+17
19357.0	5.2656774375451296e+17
19358.0	5.2645605908589216e+17
19359.0	5.263298505910953e+17
19360.0	5.261962481674921e+17
19361.0	5.2612016670856525e+17
19362.0	5.2601241608738125e+17
19363.0	5.258269850686804e+17
19364.0	5.2571431977178445e+17
19365.0	5.256013511568042e+17
19366.0	5.2548768398049274e+17
19367.0	5.253728908432725e+17
19368.0	5.25258868269602e+17
19369.0	5.25076413738735e+17
19370.0	5.249189785807529e+17
19371.0	5.2480455656953165e+17
19372.0	5.246940681863166e+17
19373.0	5.2457206552985594e+17
19374.0	5.244553512615935e+17
19375.0	5.2433485708656634e+17
19376.0	5.242147217342464e+17
19377.0	5.240910328277674e+17
19378.0	5.2396836104000845e+17
19379.0	5.238444606707028e+17
19380.0	5.237191792569002e+17
19381.0	5.235918730428415e+17
19382.0	5.234546187785557e+17
19383.0	5.2332023278906016e+17
19384.0	5.232036495228926e+17
19385.0	5.230628234592256e+17
19386.0	5.228572641154388e+17
19387.0	5.2272089338129056e+17
19388.0	5.2258375103501645e+17
19389.0	5.2244344038140576e+17
19390.0	5.22297119290163e+17
19391.0	5.177571389297938e+17
19392.0	5.21956879726455e+17
19393.0	5.218644531347455e+17
19394.0	5.216207748377258e+17
19395.0	5.214216062850389e+17
19396.0	5.212751634890752e+17
19397.0	5.21128050303522e+17
19398.0	5.209467132051456e+17
19399.0	5.205939534342827e+17
19400.0	5.2044579146301434e+17
19401.0	5.202891144953856e+17
19402.0	5.2011083644272634e+17
19403.0	5.197652956981932e+17
19404.0	5.1952253581393914e+17
19405.0	5.193239218181462e+17
19406.0	5.1887099710450355e+17
19407.0	5.18624994464017e+17
19408.0	5.180924680121003e+17
19409.0	5.178342863710889e+17
19410.0	5.1727660947428685e+17
19411.0	5.1684251837399046e+17
19412.0	5.161857263686996e+17
19413.0	5.153931567737513e+17
19414.0	5.147976661991423e+17
19415.0	5.143791972035242e+17
19416.0	5.1400351898664954e+17
19417.0	5.1363663811269965e+17
19418.0	5.133194542186494e+17
19419.0	5.128911130897065e+17
19420.0	5.1249569116542285e+17
19421.0	5.1208162311318176e+17
19422.0	5.116452987557204e+17
19423.0	5.111031032446974e+17
19424.0	5.106302233608191e+17
19425.0	5.100710014921387e+17
19426.0	5.0949707250619725e+17
19427.0	5.088130447878826e+17
19428.0	5.0808227623512755e+17
19429.0	5.0718505882528454e+17
19430.0	5.060135867121671e+17
19431.0	5.0377305487660544e+17
19432.0	5.023524698368671e+17
19433.0	4.993863829684231e+17
19434.0	4.976705191368021e+17
19435.0	4.960284517771945e+17
19436.0	4.941495168314021e+17
19437.0	4.928278969537876e+17
19438.0	4.8393036140380256e+17
19439.0	4.8897629855853274e+17
19440.0	4.871587833227947e+17
19441.0	4.8521351168436883e+17
19442.0	4.831266606852777e+17
19443.0	4.8079777157174637e+17
19444.0	4.774141364273145e+17
19445.0	4.701596735416983e+17
19446.0	4.624088527361364e+17
19447.0	4.559621861670907e+17
19448.0	4.4735006300788166e+17
19449.0	4.2882953977528237e+17
19450.0	3.8810204353768877e+17
19451.0	3.666171964424237e+17
19452.0	4.133052795409762e+17
19453.0	4.394314294274734e+17
19454.0	4.518886287693141e+17
19455.0	4.5874908404995405e+17
19456.0	4.6494694226875834e+17
19457.0	4.736648526954497e+17
19458.0	4.598340956193073e+17
19459.0	4.8027910149243354e+17
19460.0	4.826621390706004e+17
19461.0	4.8451237623889914e+17
19462.0	4.863060129524394e+17
19463.0	4.8806153525657594e+17
19464.0	4.8972692867863885e+17
19465.0	4.912430556293802e+17
19466.0	4.926796570383699e+17
19467.0	4.941020645730985e+17
19468.0	4.953987107258368e+17
19469.0	4.9762602001804e+17
19470.0	5.0015975544367763e+17
19471.0	5.017475551505062e+17
19472.0	5.028244809405778e+17
19473.0	5.036410925656747e+17
19474.0	5.042615892312064e+17
19475.0	5.046577592795134e+17
19476.0	5.0515192525619194e+17
19477.0	5.056064739344384e+17
19478.0	5.0589627265843194e+17
19479.0	5.0618370257933645e+17
19480.0	5.0650877386205856e+17
19481.0	5.067393279721472e+17
19482.0	5.069582219171155e+17
19483.0	5.071751971777194e+17
19484.0	5.07391942730274e+17
19485.0	5.075527210980692e+17
19486.0	5.076746946041174e+17
19487.0	5.0785259481989114e+17
19488.0	5.082278929629183e+17
19489.0	5.087266911289342e+17
19490.0	5.089462268024143e+17
19491.0	5.0956529237142176e+17
19492.0	5.0990396011970554e+17
19493.0	5.1006859501021856e+17
19494.0	5.1038097845343584e+17
19495.0	5.1046321372528634e+17
19496.0	5.1054781339620704e+17
19497.0	5.1074088664651085e+17
19498.0	5.103592941114715e+17
19499.0	5.03965212021004e+17
19500.0	5.109344713222826e+17
19501.0	5.109267875670698e+17
19502.0	5.109073868139178e+17
19503.0	5.110122939067049e+17
19504.0	5.110191163615915e+17
19505.0	5.10987702702353e+17
19506.0	5.109565258115754e+17
19507.0	5.1091659037518496e+17
19508.0	5.109141549525674e+17
19509.0	5.1094982016805536e+17
19510.0	5.1086281625217696e+17
19511.0	4.980013376645708e+17
19512.0	5.0977905283781715e+17
19513.0	5.0878227446496934e+17
19514.0	5.0929041257703904e+17
19515.0	5.105363746204332e+17
19516.0	5.1059003130292896e+17
19517.0	5.1056783791226874e+17
19518.0	5.105478588345002e+17
19519.0	5.1048286732506445e+17
19520.0	5.103967100993535e+17
19521.0	5.1037125983163725e+17
19522.0	5.1029674019170976e+17
19523.0	5.1023071835149645e+17
19524.0	5.10147971444463e+17
19525.0	5.1010284765402445e+17
19526.0	5.100361961089706e+17
19527.0	5.099650679133525e+17
19528.0	5.098909955260415e+17
19529.0	5.098170786075988e+17
19530.0	5.097506941698047e+17
19531.0	5.0967727399676576e+17
19532.0	5.096031174437546e+17
19533.0	5.0952827141707085e+17
19534.0	5.094891591827455e+17
19535.0	5.094169887724885e+17
19536.0	5.093803992023039e+17
19537.0	5.093124832144042e+17
19538.0	5.091903338272085e+17
19539.0	5.090731730053805e+17
19540.0	5.0907341054279674e+17
19541.0	5.0903972874376525e+17
19542.0	5.0898325859205114e+17
19543.0	5.088725164534443e+17
19544.0	5.088231809526443e+17
19545.0	5.086778594339496e+17
19546.0	5.085297946307242e+17
19547.0	5.085814332937556e+17
19548.0	5.084992242363051e+17
19549.0	5.084032366804991e+17
19550.0	5.083334439512745e+17
19551.0	5.0827411642996045e+17
19552.0	5.082222803550207e+17
19553.0	5.081352398787925e+17
19554.0	5.0804831425658874e+17
19555.0	5.07963769950481e+17
19556.0	5.078823285904724e+17
19557.0	5.0779922118301005e+17
19558.0	5.077144391996756e+17
19559.0	5.076294691717119e+17
19560.0	5.075284698420564e+17
19561.0	5.0745468378589856e+17
19562.0	5.073594069549054e+17
19563.0	5.0728659118107296e+17
19564.0	5.072003184022867e+17
19565.0	5.07113860305169e+17
19566.0	5.070244878658217e+17
19567.0	5.0694322742012576e+17
19568.0	5.068941943985492e+17
19569.0	5.068091420923221e+17
19570.0	5.0672459519972685e+17
19571.0	5.066367162122238e+17
19572.0	5.065454938051925e+17
19573.0	5.0645560665483936e+17
19574.0	5.0636102929394336e+17
19575.0	5.062870458258772e+17
19576.0	5.061962631217151e+17
19577.0	5.0610138286216525e+17
19578.0	5.060169992678058e+17
19579.0	5.059308878299136e+17
19580.0	5.058428247124649e+17
19581.0	5.0575548595131725e+17
19582.0	5.056695730438142e+17
19583.0	5.0558100926627834e+17
19584.0	5.0549028675037856e+17
19585.0	5.053882268210517e+17
19586.0	5.052946904864085e+17
19587.0	5.052069720009387e+17
19588.0	5.0506989431685126e+17
19589.0	5.0504480399032314e+17
19590.0	5.0494041727085216e+17
19591.0	5.0486846405563725e+17
19592.0	5.047802958009686e+17
19593.0	5.0468550753648634e+17
19594.0	5.0456460784216723e+17
19595.0	5.045086524713642e+17
19596.0	5.043434276519936e+17
19597.0	5.043313670706518e+17
19598.0	5.041758519951359e+17
19599.0	5.0415440812660045e+17
19600.0	5.040661951326889e+17
19601.0	5.03967269327121e+17
19602.0	5.0388013685582496e+17
19603.0	5.0368992181398163e+17
19604.0	5.0369695685017594e+17
19605.0	5.036012747795115e+17
19606.0	5.035591755715923e+17
19607.0	5.0347065611386874e+17
19608.0	5.033784538475179e+17
19609.0	5.032836517418326e+17
19610.0	5.0318457186549754e+17
19611.0	5.0308651148465485e+17
19612.0	5.0302160728664736e+17
19613.0	5.02930277994769e+17
19614.0	5.028364905611264e+17
19615.0	5.027510273529173e+17
19616.0	5.0260557252526074e+17
19617.0	5.025466065529514e+17
19618.0	5.023970408879444e+17
19619.0	5.0228241880842214e+17
19620.0	5.021942874636285e+17
19621.0	5.021780573945855e+17
19622.0	5.0212186490579616e+17
19623.0	5.020299456151551e+17
19624.0	5.019351165261141e+17
19625.0	5.018513507527338e+17
19626.0	5.017604217372671e+17
19627.0	5.016694813971796e+17
19628.0	5.015038115621547e+17
19629.0	5.013907496239103e+17
19630.0	5.0122104885302624e+17
19631.0	4.980413300735996e+17
19632.0	5.012060943417342e+17
19633.0	5.011150999650304e+17
19634.0	5.0103949358093645e+17
19635.0	5.009405240847017e+17
19636.0	5.0082227232440314e+17
19637.0	5.0069025513799674e+17
19638.0	5.006755013940564e+17
19639.0	5.005885659851433e+17
19640.0	5.004878243255637e+17
19641.0	5.00238134122906e+17
19642.0	5.003164470913706e+17
19643.0	5.002251338776575e+17
19644.0	5.001314897494015e+17
19645.0	5.000102135463934e+17
19646.0	4.9992016652315296e+17
19647.0	4.9986911135771296e+17
19648.0	4.9977968376326816e+17
19649.0	4.9968915208820045e+17
19650.0	4.995999113499988e+17
19651.0	4.9950925021074765e+17
19652.0	4.994189405541717e+17
19653.0	4.993279760269311e+17
19654.0	4.992388725123755e+17
19655.0	4.991483102188885e+17
19656.0	4.990588614432085e+17
