# Flux units: erg / (cm m2 s)
# Wavelength units: Angstrom
wave	flux
19000.0	8.345570578006015e+17
19001.0	8.344025031507967e+17
19002.0	8.342521569258153e+17
19003.0	8.340994895730004e+17
19004.0	8.339467096730281e+17
19005.0	8.33793936204322e+17
19006.0	8.336410301956095e+17
19007.0	8.33469774106897e+17
19008.0	8.333334850917715e+17
19009.0	8.331805899882493e+17
19010.0	8.330186372852392e+17
19011.0	8.328737309327357e+17
19012.0	8.326974868378962e+17
19013.0	8.325677688990378e+17
19014.0	8.324128276742143e+17
19015.0	8.32260279719253e+17
19016.0	8.321052027387903e+17
19017.0	8.319504020231508e+17
19018.0	8.317968302385833e+17
19019.0	8.316442669045076e+17
19020.0	8.314895260276051e+17
19021.0	8.313353874527572e+17
19022.0	8.311815795288745e+17
19023.0	8.310271646892031e+17
19024.0	8.30872357262677e+17
19025.0	8.307160355525969e+17
19026.0	8.305605815042047e+17
19027.0	8.303860228205224e+17
19028.0	8.302540758887081e+17
19029.0	8.300992976825e+17
19030.0	8.299444355902121e+17
19031.0	8.297894929672873e+17
19032.0	8.296344749867008e+17
19033.0	8.29477426124117e+17
19034.0	8.293241005451945e+17
19035.0	8.291667969485481e+17
19036.0	8.275206483913379e+17
19037.0	8.28857496248866e+17
19038.0	8.287031261484372e+17
19039.0	8.2854788740765e+17
19040.0	8.283924938970451e+17
19041.0	8.282370237704872e+17
19042.0	8.280797320577024e+17
19043.0	8.279260152900266e+17
19044.0	8.277702623275689e+17
19045.0	8.276137158027948e+17
19046.0	8.274578042956456e+17
19047.0	8.273030334993748e+17
19048.0	8.271430730907647e+17
19049.0	8.269899833715369e+17
19050.0	8.268343805651626e+17
19051.0	8.264392297327269e+17
19052.0	8.264949060425042e+17
19053.0	8.263628798383443e+17
19054.0	8.26211525861922e+17
19055.0	8.260499101013331e+17
19056.0	8.258993407393791e+17
19057.0	8.257428246932137e+17
19058.0	8.255824596740778e+17
19059.0	8.254306768999764e+17
19060.0	8.252738756411391e+17
19061.0	8.251180666148179e+17
19062.0	8.249616122249215e+17
19063.0	8.248052572400298e+17
19064.0	8.246464003528019e+17
19065.0	8.244883118620671e+17
19066.0	8.243344210307753e+17
19067.0	8.241793482446166e+17
19068.0	8.240227634118655e+17
19069.0	8.238661911620268e+17
19070.0	8.237093349578068e+17
19071.0	8.235520798752765e+17
19072.0	8.233960327522986e+17
19073.0	8.232394223342932e+17
19074.0	8.23082788847616e+17
19075.0	8.229260093991594e+17
19076.0	8.227687368403625e+17
19077.0	8.226121585786876e+17
19078.0	8.224547372619092e+17
19079.0	8.22298609328674e+17
19080.0	8.221415835347626e+17
19081.0	8.219837427875837e+17
19082.0	8.218266950434815e+17
19083.0	8.216682847098195e+17
19084.0	8.215078820817577e+17
19085.0	8.21356215210257e+17
19086.0	8.211876817840806e+17
19087.0	8.20997562791799e+17
19088.0	8.208774994416979e+17
19089.0	8.206996541014015e+17
19090.0	8.205685391796905e+17
19091.0	8.20412107718656e+17
19092.0	8.202442084712445e+17
19093.0	8.200987420393471e+17
19094.0	8.199400396423164e+17
19095.0	8.197823310157139e+17
19096.0	8.19626611328068e+17
19097.0	8.194699244339199e+17
19098.0	8.193127936425981e+17
19099.0	8.191554212593663e+17
19100.0	8.189955696230399e+17
19101.0	8.188397169759572e+17
19102.0	8.18681435407428e+17
19103.0	8.185257052340221e+17
19104.0	8.183681299862867e+17
19105.0	8.182102384880297e+17
19106.0	8.180446905674409e+17
19107.0	8.178944459844264e+17
19108.0	8.177365614766761e+17
19109.0	8.174179599078739e+17
19110.0	8.174159223149908e+17
19111.0	8.172639425484115e+17
19112.0	8.17107160163942e+17
19113.0	8.169495956815871e+17
19114.0	8.167918890123263e+17
19115.0	8.166304965285204e+17
19116.0	8.164762918234794e+17
19117.0	8.163176180875261e+17
19118.0	8.161510921950547e+17
19119.0	8.15957833906039e+17
19120.0	8.158318090518525e+17
19121.0	8.156780999737343e+17
19122.0	8.155291145207807e+17
19123.0	8.153709850656765e+17
19124.0	8.152037813736786e+17
19125.0	8.150539936901802e+17
19126.0	8.148960828981245e+17
19127.0	8.14704108625374e+17
19128.0	8.144707761384104e+17
19129.0	8.144208324635304e+17
19130.0	8.142646727933951e+17
19131.0	8.141030118741331e+17
19132.0	8.13948284978244e+17
19133.0	8.137689041032532e+17
19134.0	8.135802876504745e+17
19135.0	8.134730981572608e+17
19136.0	8.133152020452692e+17
19137.0	8.131530249469952e+17
19138.0	8.12992333890628e+17
19139.0	8.128395183390717e+17
19140.0	8.126817061131604e+17
19141.0	8.125233687603881e+17
19142.0	8.123648801330515e+17
19143.0	8.122052431052799e+17
19144.0	8.12047731331345e+17
19145.0	8.118885594518866e+17
19146.0	8.117144604639231e+17
19147.0	8.11570211918097e+17
19148.0	8.114122259081897e+17
19149.0	8.112537515414868e+17
19150.0	8.110952956297215e+17
19151.0	8.109368915875156e+17
19152.0	8.107762381400744e+17
19153.0	8.106191511093245e+17
19154.0	8.104574394389843e+17
19155.0	8.103009136061098e+17
19156.0	8.101410499461117e+17
19157.0	8.099753426419711e+17
19158.0	8.097189398052861e+17
19159.0	8.096604057763839e+17
19160.0	8.095021247670953e+17
19161.0	8.093330996286803e+17
19162.0	8.089372607905793e+17
19163.0	8.090183980635476e+17
19164.0	8.088676476474708e+17
19165.0	8.087050462254422e+17
19166.0	8.085425333032276e+17
19167.0	8.08366220841233e+17
19168.0	8.082277758140417e+17
19169.0	8.080666390429693e+17
19170.0	8.079108964264616e+17
19171.0	8.077400572515666e+17
19172.0	8.075900282557779e+17
19173.0	8.074317752085161e+17
19174.0	8.072716879921151e+17
19175.0	8.071129460288169e+17
19176.0	8.06952879084885e+17
19177.0	8.067892218167293e+17
19178.0	8.066260875782826e+17
19179.0	8.064551656357885e+17
19180.0	8.063010343310676e+17
19181.0	8.061487794181459e+17
19182.0	8.059906362616489e+17
19183.0	8.05830114095923e+17
19184.0	8.056673969111037e+17
19185.0	8.055104312355497e+17
19186.0	8.053500333610323e+17
19187.0	8.051878057913002e+17
19188.0	8.05027381772288e+17
19189.0	8.048625663169876e+17
19190.0	8.047003089676969e+17
19191.0	8.045425715402067e+17
19192.0	8.043826920816637e+17
19193.0	8.04212188311279e+17
19194.0	8.040561850886825e+17
19195.0	8.038981438537728e+17
19196.0	8.037358881822036e+17
19197.0	8.03570142430276e+17
19198.0	8.033902136393727e+17
19199.0	8.017751424980305e+17
19200.0	8.0203883713222e+17
19201.0	8.028567205401939e+17
19202.0	8.027109873505619e+17
19203.0	8.02549786406639e+17
19204.0	8.023914136819028e+17
19205.0	8.022311649847977e+17
19206.0	8.020690786233e+17
19207.0	8.019060414130858e+17
19208.0	8.017408927902376e+17
19209.0	8.01582417724484e+17
19210.0	8.014197315775148e+17
19211.0	8.012568160021161e+17
19212.0	8.010936579959466e+17
19213.0	8.009173273586345e+17
19214.0	8.007458465950377e+17
19215.0	8.005979715141631e+17
19216.0	8.004404906382675e+17
19217.0	8.002774165181778e+17
19218.0	8.000968377499647e+17
19219.0	7.999462528690858e+17
19220.0	7.997854639456255e+17
19221.0	7.996140804898815e+17
19222.0	7.99457554936627e+17
19223.0	7.992931391984982e+17
19224.0	7.991275024984745e+17
19225.0	7.989607551467519e+17
19226.0	7.987990011139412e+17
19227.0	7.986339626614781e+17
19228.0	7.984687442733734e+17
19229.0	7.983033309899432e+17
19230.0	7.981332599319209e+17
19231.0	7.979690692881068e+17
19232.0	7.9780549506717e+17
19233.0	7.976383686901757e+17
19234.0	7.974731561740969e+17
19235.0	7.973072028041216e+17
19236.0	7.971404876087296e+17
19237.0	7.969732477059071e+17
19238.0	7.968022495668905e+17
19239.0	7.966391980960425e+17
19240.0	7.964680738482858e+17
19241.0	7.963028255408127e+17
19242.0	7.961360320517458e+17
19243.0	7.959639570950825e+17
19244.0	7.95799451598848e+17
19245.0	7.956307772440575e+17
19246.0	7.954615316250624e+17
19247.0	7.952926407043753e+17
19248.0	7.951233148343638e+17
19249.0	7.949530850918395e+17
19250.0	7.947835641866922e+17
19251.0	7.946111247450111e+17
19252.0	7.944359598445908e+17
19253.0	7.94272010932497e+17
19254.0	7.940591274950655e+17
19255.0	7.938568388695382e+17
19256.0	7.936858719081811e+17
19257.0	7.935174970266961e+17
19258.0	7.933454185747794e+17
19259.0	7.931711121085782e+17
19260.0	7.929786974339071e+17
19261.0	7.928266550323881e+17
19262.0	7.926526694304425e+17
19263.0	7.924783243766442e+17
19264.0	7.922948458064553e+17
19265.0	7.921263618730666e+17
19266.0	7.919524559628968e+17
19267.0	7.917795659131561e+17
19268.0	7.916037022416896e+17
19269.0	7.914273976090624e+17
19270.0	7.91250646283059e+17
19271.0	7.910670364311551e+17
19272.0	7.908951138675369e+17
19273.0	7.906199564801364e+17
19274.0	7.904848989126653e+17
19275.0	7.903604399319722e+17
19276.0	7.901810972251476e+17
19277.0	7.900011936000684e+17
19278.0	7.898207554808489e+17
19279.0	7.896367241013932e+17
19280.0	7.894517378187261e+17
19281.0	7.891867607061842e+17
19282.0	7.890032625625769e+17
19283.0	7.887848673902591e+17
19284.0	7.885679493119999e+17
19285.0	7.884208148054015e+17
19286.0	7.882393125912575e+17
19287.0	7.880543524530858e+17
19288.0	7.875018760738129e+17
19289.0	7.866983915716588e+17
19290.0	7.87493842723362e+17
19291.0	7.873001645845165e+17
19292.0	7.871171417953622e+17
19293.0	7.869273531744255e+17
19294.0	7.867371291847338e+17
19295.0	7.865459757372756e+17
19296.0	7.863540407511724e+17
19297.0	7.861351221297151e+17
19298.0	7.858544970476202e+17
19299.0	7.856601251708927e+17
19300.0	7.85464852357666e+17
19301.0	7.85268566200593e+17
19302.0	7.850713960240467e+17
19303.0	7.848717440778239e+17
19304.0	7.846734812850857e+17
19305.0	7.844745788609875e+17
19306.0	7.842730487054335e+17
19307.0	7.840686071436628e+17
19308.0	7.838662472149673e+17
19309.0	7.835646487953407e+17
19310.0	7.832492527932756e+17
19311.0	7.831057332174847e+17
19312.0	7.829047499991721e+17
19313.0	7.826950408110079e+17
19314.0	7.81933497111893e+17
19315.0	7.81755303085125e+17
19316.0	7.820570706750122e+17
19317.0	7.818484568992424e+17
19318.0	7.815900126948008e+17
19319.0	7.812474896121855e+17
19320.0	7.810378921323177e+17
19321.0	7.808183180809556e+17
19322.0	7.805912634884093e+17
19323.0	7.803517403485523e+17
19324.0	7.801467581409961e+17
19325.0	7.798750291776854e+17
19326.0	7.795498275919191e+17
19327.0	7.793155358676308e+17
19328.0	7.790847366004736e+17
19329.0	7.788515337175037e+17
19330.0	7.78615485838131e+17
19331.0	7.783781338098344e+17
19332.0	7.781396897245866e+17
19333.0	7.778976083389096e+17
19334.0	7.776543374486186e+17
19335.0	7.774088020535977e+17
19336.0	7.771600936676009e+17
19337.0	7.769102725327528e+17
19338.0	7.766532859887616e+17
19339.0	7.764020032787795e+17
19340.0	7.761434198234451e+17
19341.0	7.758836742662826e+17
19342.0	7.756117891350527e+17
19343.0	7.753548955648e+17
19344.0	7.750210384734889e+17
19345.0	7.747011853243732e+17
19346.0	7.744441683017725e+17
19347.0	7.741777970025812e+17
19348.0	7.738974406355625e+17
19349.0	7.736120866155178e+17
19350.0	7.733230378330794e+17
19351.0	7.730306298325673e+17
19352.0	7.727335067353087e+17
19353.0	7.724350554417834e+17
19354.0	7.721310026552659e+17
19355.0	7.717294946560681e+17
19356.0	7.714038807702185e+17
19357.0	7.710864612960936e+17
19358.0	7.707636072622761e+17
19359.0	7.704333144905046e+17
19360.0	7.701060927881215e+17
19361.0	7.697694983542102e+17
19362.0	7.693938630590464e+17
19363.0	7.689385728977577e+17
19364.0	7.685849609142272e+17
19365.0	7.682255272367444e+17
19366.0	7.678601552636585e+17
19367.0	7.67488589561856e+17
19368.0	7.670100333166591e+17
19369.0	7.665384253554687e+17
19370.0	7.661369414036138e+17
19371.0	7.657468549136381e+17
19372.0	7.653232727119186e+17
19373.0	7.646939786335572e+17
19374.0	7.642691957424127e+17
19375.0	7.638359546178217e+17
19376.0	7.632687158263808e+17
19377.0	7.626597746081791e+17
19378.0	7.621978332594173e+17
19379.0	7.615974720492884e+17
19380.0	7.609075305720489e+17
19381.0	7.604130952511488e+17
19382.0	7.596240478229844e+17
19383.0	7.589916723292842e+17
19384.0	7.58256038104269e+17
19385.0	7.574358184689663e+17
19386.0	7.567721790526802e+17
19387.0	7.560389695548074e+17
19388.0	7.554488491573245e+17
19389.0	7.548446140880212e+17
19390.0	7.542250903612074e+17
19391.0	7.525145732186094e+17
19392.0	7.529345701292713e+17
19393.0	7.52274016182818e+17
19394.0	7.51586474266897e+17
19395.0	7.508400890620586e+17
19396.0	7.501145050884778e+17
19397.0	7.493817892601855e+17
19398.0	7.486279528742911e+17
19399.0	7.478443792924671e+17
19400.0	7.470622277195094e+17
19401.0	7.461868964675583e+17
19402.0	7.453374243580582e+17
19403.0	7.444792122976938e+17
19404.0	7.435964512556372e+17
19405.0	7.42587085566771e+17
19406.0	7.416184599915178e+17
19407.0	7.406425206685696e+17
19408.0	7.394928515962195e+17
19409.0	7.384360797863935e+17
19410.0	7.372531010895873e+17
19411.0	7.360334708867071e+17
19412.0	7.347177823141888e+17
19413.0	7.333958503803561e+17
19414.0	7.318553486513491e+17
19415.0	7.30287708377361e+17
19416.0	7.285411888671404e+17
19417.0	7.266431086013098e+17
19418.0	7.246019086166697e+17
19419.0	7.223112730935302e+17
19420.0	7.203376464221522e+17
19421.0	7.186379768681812e+17
19422.0	7.168437725954047e+17
19423.0	7.150140757027497e+17
19424.0	7.130812380785322e+17
19425.0	7.110124743862953e+17
19426.0	7.088733625690793e+17
19427.0	7.06586705203473e+17
19428.0	7.04195097264128e+17
19429.0	7.016063918495058e+17
19430.0	6.988180210668886e+17
19431.0	6.957010384497327e+17
19432.0	6.926469481627647e+17
19433.0	6.891589413284527e+17
19434.0	6.852570084190889e+17
19435.0	6.809280993471146e+17
19436.0	6.767194485205673e+17
19437.0	6.726951519649791e+17
19438.0	6.676684918314324e+17
19439.0	6.635800134068906e+17
19440.0	6.582924601546068e+17
19441.0	6.525273900056571e+17
19442.0	6.462194515793239e+17
19443.0	6.392463856675497e+17
19444.0	6.319636326907898e+17
19445.0	6.239973583181144e+17
19446.0	6.152202861150205e+17
19447.0	6.056006564620965e+17
19448.0	5.950716048135511e+17
19449.0	5.830027885150207e+17
19450.0	5.6440244872587514e+17
19451.0	5.553236751329974e+17
19452.0	5.7469778795342534e+17
19453.0	5.891252174891695e+17
19454.0	5.999787607676241e+17
19455.0	6.098031941604692e+17
19456.0	6.187589897114967e+17
19457.0	6.268683109619026e+17
19458.0	6.339282840409432e+17
19459.0	6.41098622679996e+17
19460.0	6.475064026682707e+17
19461.0	6.532501671510015e+17
19462.0	6.58532299824606e+17
19463.0	6.632834557018108e+17
19464.0	6.675595493987668e+17
19465.0	6.71501618581777e+17
19466.0	6.752509869686783e+17
19467.0	6.793513335259133e+17
19468.0	6.831881964224513e+17
19469.0	6.865938172695887e+17
19470.0	6.896679518557523e+17
19471.0	6.924768608867667e+17
19472.0	6.950679026685266e+17
19473.0	6.974561251054931e+17
19474.0	6.996697598481748e+17
19475.0	7.017381576572925e+17
19476.0	7.036552528702121e+17
19477.0	7.054973008696662e+17
19478.0	7.072085531339433e+17
19479.0	7.088067342325076e+17
19480.0	7.103390685331455e+17
19481.0	7.118011219574783e+17
19482.0	7.13323542041941e+17
19483.0	7.151976817797805e+17
19484.0	7.170684375531519e+17
19485.0	7.187675762480463e+17
19486.0	7.203190754421416e+17
19487.0	7.216835172062548e+17
19488.0	7.228952990274902e+17
19489.0	7.239947389326675e+17
19490.0	7.250843870953471e+17
19491.0	7.259869213447508e+17
19492.0	7.26991594446302e+17
19493.0	7.277664679231487e+17
19494.0	7.286027109182124e+17
19495.0	7.293539995440467e+17
19496.0	7.300213806989311e+17
19497.0	7.307462384986794e+17
19498.0	7.313127357371732e+17
19499.0	7.30299092137846e+17
19500.0	7.325236366147583e+17
19501.0	7.331074071156051e+17
19502.0	7.336421285866156e+17
19503.0	7.341337846218752e+17
19504.0	7.34604661236258e+17
19505.0	7.350587111418536e+17
19506.0	7.354937019902633e+17
19507.0	7.359369828805289e+17
19508.0	7.363593351725055e+17
19509.0	7.36744899224098e+17
19510.0	7.371066635365033e+17
19511.0	7.361277897386659e+17
19512.0	7.375502121631736e+17
19513.0	7.37628734287598e+17
19514.0	7.380690250585422e+17
19515.0	7.387055283066196e+17
19516.0	7.392251862144339e+17
19517.0	7.395220337459194e+17
19518.0	7.401722539059881e+17
19519.0	7.404192361960787e+17
19520.0	7.409290065914536e+17
19521.0	7.41219169800465e+17
19522.0	7.414380373912234e+17
19523.0	7.41915767218722e+17
19524.0	7.420876068749311e+17
19525.0	7.422502068988585e+17
19526.0	7.42657791046451e+17
19527.0	7.428128172758358e+17
19528.0	7.429472750578345e+17
19529.0	7.431309448882857e+17
19530.0	7.434076132037972e+17
19531.0	7.435166402215935e+17
19532.0	7.436183249704276e+17
19533.0	7.437129669236051e+17
19534.0	7.439221758711122e+17
19535.0	7.440533085487101e+17
19536.0	7.441263783575552e+17
19537.0	7.441949925572605e+17
19538.0	7.442557396407635e+17
19539.0	7.443030020369066e+17
19540.0	7.444761317212157e+17
19541.0	7.445405007260329e+17
19542.0	7.445798244231849e+17
19543.0	7.446142625950377e+17
19544.0	7.446441840607232e+17
19545.0	7.446618887771475e+17
19546.0	7.446732978432681e+17
19547.0	7.44706657100322e+17
19548.0	7.448097139458047e+17
19549.0	7.448217359395497e+17
19550.0	7.448278098509823e+17
19551.0	7.4482791247162e+17
19552.0	7.448242670622036e+17
19553.0	7.448166935472808e+17
19554.0	7.448057648687786e+17
19555.0	7.447925301619369e+17
19556.0	7.4477533687098e+17
19557.0	7.447549403900586e+17
19558.0	7.447316250929833e+17
19559.0	7.447249635595604e+17
19560.0	7.447451912896511e+17
19561.0	7.447174252767914e+17
19562.0	7.446826251365034e+17
19563.0	7.446452225703935e+17
19564.0	7.446055928288595e+17
19565.0	7.445635148720809e+17
19566.0	7.445186699329533e+17
19567.0	7.444723200775508e+17
19568.0	7.444228841930752e+17
19569.0	7.443724391590569e+17
19570.0	7.443194980947284e+17
19571.0	7.442642976986451e+17
19572.0	7.442065302487039e+17
19573.0	7.441477926562474e+17
19574.0	7.440851347876521e+17
19575.0	7.440245157702313e+17
19576.0	7.439600669338281e+17
19577.0	7.439313781740888e+17
19578.0	7.439166452618582e+17
19579.0	7.438484597200212e+17
19580.0	7.438194974916607e+17
19581.0	7.437469160396115e+17
19582.0	7.436730268035753e+17
19583.0	7.435973453414397e+17
19584.0	7.435196032177492e+17
19585.0	7.435551333067433e+17
19586.0	7.435088027451391e+17
19587.0	7.434236292934313e+17
19588.0	7.433399372698963e+17
19589.0	7.432638149864105e+17
19590.0	7.431794467012608e+17
19591.0	7.430957729928532e+17
19592.0	7.430088717675178e+17
19593.0	7.429208685587114e+17
19594.0	7.428244025027241e+17
19595.0	7.428589411980628e+17
19596.0	7.425137162846209e+17
19597.0	7.426786793794217e+17
19598.0	7.425833530556416e+17
19599.0	7.424939521649324e+17
19600.0	7.423989044827476e+17
19601.0	7.423015088291841e+17
19602.0	7.42205104848896e+17
19603.0	7.420773580931071e+17
19604.0	7.420066035400701e+17
19605.0	7.41904198209809e+17
19606.0	7.418103962359123e+17
19607.0	7.41709691556113e+17
19608.0	7.416848094068733e+17
19609.0	7.416030512371028e+17
19610.0	7.415005266487977e+17
19611.0	7.413966754021375e+17
19612.0	7.41292363620898e+17
19613.0	7.411872841422164e+17
19614.0	7.410806316597245e+17
19615.0	7.409750550162088e+17
19616.0	7.408572221969748e+17
19617.0	7.407607266410493e+17
19618.0	7.406423431097002e+17
19619.0	7.405305509270867e+17
19620.0	7.404219517282986e+17
19621.0	7.403249342611453e+17
19622.0	7.402146486725289e+17
19623.0	7.401038504001536e+17
19624.0	7.399925362283859e+17
19625.0	7.398805958470313e+17
19626.0	7.397682674925568e+17
19627.0	7.396719924172116e+17
19628.0	7.395828854074026e+17
19629.0	7.394996527999657e+17
19630.0	7.393176334281386e+17
19631.0	7.377221305324882e+17
19632.0	7.391553099486547e+17
19633.0	7.390437464954195e+17
19634.0	7.389429389153619e+17
19635.0	7.388365140437672e+17
19636.0	7.387212060557311e+17
19637.0	7.385953630945279e+17
19638.0	7.384872754610173e+17
19639.0	7.383690548084735e+17
19640.0	7.382509643191635e+17
19641.0	7.381234218259796e+17
19642.0	7.380156089193811e+17
19643.0	7.378966050504701e+17
19644.0	7.377764388001108e+17
19645.0	7.376530458716841e+17
19646.0	7.375386986588842e+17
19647.0	7.37418750931763e+17
19648.0	7.372985075062102e+17
19649.0	7.371779289557674e+17
19650.0	7.370572043037356e+17
19651.0	7.369361680149161e+17
19652.0	7.368148670655148e+17
19653.0	7.366932818821119e+17
19654.0	7.365715356374356e+17
19655.0	7.364494183366653e+17
19656.0	7.363270984510122e+17
19657.0	7.362047638852947e+17
19658.0	7.360820578440531e+17
19659.0	7.359591130071037e+17
19660.0	7.358359970425514e+17
19661.0	7.357190701929811e+17
19662.0	7.356448480690175e+17
19663.0	7.355195405806249e+17
19664.0	7.353911469233492e+17
19665.0	7.352729705906173e+17
19666.0	7.35148371939601e+17
