# Flux units: erg / (cm m2 s)
# Wavelength units: Angstrom
wave	flux
19000.0	6.228797642768383e+17
19001.0	6.227615528517632e+17
19002.0	6.226443029708799e+17
19003.0	6.225265818599423e+17
19004.0	6.224088760582143e+17
19005.0	6.222912086343679e+17
19006.0	6.221735437271037e+17
19007.0	6.220554384179199e+17
19008.0	6.219378721467049e+17
19009.0	6.2182052083357e+17
19010.0	6.217007203964244e+17
19011.0	6.215853173374976e+17
19012.0	6.214670397123242e+17
19013.0	6.213503448776703e+17
19014.0	6.212325484789759e+17
19015.0	6.211152893706239e+17
19016.0	6.209975261069311e+17
19017.0	6.208783151792127e+17
19018.0	6.207628199854079e+17
19019.0	6.206454150550867e+17
19020.0	6.205276536788308e+17
19021.0	6.204103184438612e+17
19022.0	6.202931913162751e+17
19023.0	6.201758128799744e+17
19024.0	6.200584117944319e+17
19025.0	6.199411312951295e+17
19026.0	6.198236580675583e+17
19027.0	6.197061603033087e+17
19028.0	6.195892465958912e+17
19029.0	6.19471988396305e+17
19030.0	6.193547532653908e+17
19031.0	6.192375372185599e+17
19032.0	6.191203364110335e+17
19033.0	6.190027279171583e+17
19034.0	6.188859768089257e+17
19035.0	6.187688549242195e+17
19036.0	6.186167389126655e+17
19037.0	6.185346366701567e+17
19038.0	6.184175629500415e+17
19039.0	6.183005068460031e+17
19040.0	6.181834675890857e+17
19041.0	6.180664502124543e+17
19042.0	6.179490610107731e+17
19043.0	6.178324804009983e+17
19044.0	6.177155017517737e+17
19045.0	6.17598585807394e+17
19046.0	6.174814194630653e+17
19047.0	6.17364774261009e+17
19048.0	6.172469164856659e+17
19049.0	6.171307376902144e+17
19050.0	6.170142239096831e+17
19051.0	6.168934199853055e+17
19052.0	6.167804034154496e+17
19053.0	6.166638423091881e+17
19054.0	6.165471237068115e+17
19055.0	6.164291680643753e+17
19056.0	6.163136925138943e+17
19057.0	6.16197010891298e+17
19058.0	6.160803516383231e+17
19059.0	6.159637160132607e+17
19060.0	6.158469816123391e+17
19061.0	6.157304991492777e+17
19062.0	6.156139100110845e+17
19063.0	6.154973724628308e+17
19064.0	6.15380298043665e+17
19065.0	6.152634553597951e+17
19066.0	6.151475438114132e+17
19067.0	6.150313971722922e+17
19068.0	6.149149544153087e+17
19069.0	6.147985424864595e+17
19070.0	6.14682093228305e+17
19071.0	6.145657735741439e+17
19072.0	6.144494230918484e+17
19073.0	6.143330690443946e+17
19074.0	6.142167881176406e+17
19075.0	6.141005011091455e+17
19076.0	6.139841280475135e+17
19077.0	6.138679591086761e+17
19078.0	6.137513571079508e+17
19079.0	6.136355892144809e+17
19080.0	6.135194062247252e+17
19081.0	6.134030290386944e+17
19082.0	6.132867188916223e+17
19083.0	6.131705547762346e+17
19084.0	6.130537430603092e+17
19085.0	6.129388798782121e+17
19086.0	6.128209433897641e+17
19087.0	6.127060303653546e+17
19088.0	6.125905286004733e+17
19089.0	6.124736027994794e+17
19090.0	6.123589266134356e+17
19091.0	6.122428606447615e+17
19092.0	6.121266592699731e+17
19093.0	6.120112319539881e+17
19094.0	6.11893665473058e+17
19095.0	6.117773786043732e+17
19096.0	6.116635191891284e+17
19097.0	6.115479295535786e+17
19098.0	6.114321849384959e+17
19099.0	6.113163925083476e+17
19100.0	6.112007156312746e+17
19101.0	6.11085030924834e+17
19102.0	6.109689500663807e+17
19103.0	6.10853707719202e+17
19104.0	6.107380821524479e+17
19105.0	6.106224760892074e+17
19106.0	6.105067416103596e+17
19107.0	6.103912621451946e+17
19108.0	6.102757988281001e+17
19109.0	6.101565723115519e+17
19110.0	6.100447860009641e+17
19111.0	6.099293309326676e+17
19112.0	6.098138864200361e+17
19113.0	6.096984644168361e+17
19114.0	6.095830661114537e+17
19115.0	6.094675319805267e+17
19116.0	6.093523335337299e+17
19117.0	6.092369327117654e+17
19118.0	6.091211077058559e+17
19119.0	6.089949832369492e+17
19120.0	6.088909344385705e+17
19121.0	6.087757712239274e+17
19122.0	6.086606944119466e+17
19123.0	6.085453380496041e+17
19124.0	6.084303001048403e+17
19125.0	6.083151254956714e+17
19126.0	6.081997940195327e+17
19127.0	6.080771021690195e+17
19128.0	6.079675608596479e+17
19129.0	6.078543541480105e+17
19130.0	6.077397645044393e+17
19131.0	6.076247497681578e+17
19132.0	6.07509747405073e+17
19133.0	6.073911514322259e+17
19134.0	6.072786617368576e+17
19135.0	6.07164926333201e+17
19136.0	6.070500356085076e+17
19137.0	6.069343972491263e+17
19138.0	6.068195157519018e+17
19139.0	6.067054607422803e+17
19140.0	6.065906576086356e+17
19141.0	6.064758685259091e+17
19142.0	6.063610955912534e+17
19143.0	6.062460823928831e+17
19144.0	6.061316184386218e+17
19145.0	6.060169372194131e+17
19146.0	6.058995446622889e+17
19147.0	6.057871900934141e+17
19148.0	6.056729434740052e+17
19149.0	6.055583385911295e+17
19150.0	6.054436758268585e+17
19151.0	6.053291995693055e+17
19152.0	6.052144299201875e+17
19153.0	6.051001304525481e+17
19154.0	6.04985022882338e+17
19155.0	6.048711457112063e+17
19156.0	6.047566746266281e+17
19157.0	6.046422159152468e+17
19158.0	6.045252234947241e+17
19159.0	6.044133382684671e+17
19160.0	6.042987659613524e+17
19161.0	6.041843400354473e+17
19162.0	6.040646202687487e+17
19163.0	6.039560567215444e+17
19164.0	6.03841788711185e+17
19165.0	6.037274462519295e+17
19166.0	6.036127278432255e+17
19167.0	6.034985117024255e+17
19168.0	6.033838601928701e+17
19169.0	6.032701147927892e+17
19170.0	6.031564997656575e+17
19171.0	6.030421134060201e+17
19172.0	6.029282433652052e+17
19173.0	6.028141359267839e+17
19174.0	6.026998038833834e+17
19175.0	6.025860105983316e+17
19176.0	6.024719694299133e+17
19177.0	6.023572412345001e+17
19178.0	6.022439091131731e+17
19179.0	6.02129616146705e+17
19180.0	6.020147045203968e+17
19181.0	6.019015966545235e+17
19182.0	6.017870928543743e+17
19183.0	6.016741197654697e+17
19184.0	6.015595003423402e+17
19185.0	6.014464680438442e+17
19186.0	6.013326730111657e+17
19187.0	6.012185276841983e+17
19188.0	6.011050447077375e+17
19189.0	6.009912886820863e+17
19190.0	6.008775098673834e+17
19191.0	6.007637056771411e+17
19192.0	6.006499300081663e+17
19193.0	6.005349774174889e+17
19194.0	6.004220634682708e+17
19195.0	6.003088313810943e+17
19196.0	6.001952781500415e+17
19197.0	6.000816412426237e+17
19198.0	5.999680534085632e+17
19199.0	5.998195713419946e+17
19200.0	5.997188433139028e+17
19201.0	5.996273224122368e+17
19202.0	5.995138018268499e+17
19203.0	5.994002799831721e+17
19204.0	5.992866509750271e+17
19205.0	5.991732824331604e+17
19206.0	5.990597488454314e+17
19207.0	5.98946320744448e+17
19208.0	5.988318269407231e+17
19209.0	5.987194846052352e+17
19210.0	5.986060532187135e+17
19211.0	5.984925845028864e+17
19212.0	5.983793011752959e+17
19213.0	5.982652974759935e+17
19214.0	5.981518288300714e+17
19215.0	5.980391373886804e+17
19216.0	5.979254992928768e+17
19217.0	5.978126173601791e+17
19218.0	5.976955270725631e+17
19219.0	5.975852749684735e+17
19220.0	5.974728166604799e+17
19221.0	5.973580354071209e+17
19222.0	5.972463449363795e+17
19223.0	5.971331049499306e+17
19224.0	5.970192084850003e+17
19225.0	5.969058583281663e+17
19226.0	5.967935476596735e+17
19227.0	5.966803855474687e+17
19228.0	5.965672316141568e+17
19229.0	5.964540889355603e+17
19230.0	5.963409280117418e+17
19231.0	5.962270427316223e+17
19232.0	5.961131608768512e+17
19233.0	5.960003553503913e+17
19234.0	5.958875005408596e+17
19235.0	5.957745488429055e+17
19236.0	5.956614785859583e+17
19237.0	5.955483428978687e+17
19238.0	5.954349060587519e+17
19239.0	5.953223460388863e+17
19240.0	5.952073694707711e+17
19241.0	5.950957680590847e+17
19242.0	5.949831199588351e+17
19243.0	5.948693714829312e+17
19244.0	5.947572162134015e+17
19245.0	5.946442568957951e+17
19246.0	5.945312025772031e+17
19247.0	5.944182053011455e+17
19248.0	5.943053227393023e+17
19249.0	5.941923439181823e+17
19250.0	5.940793485295615e+17
19251.0	5.939660015184553e+17
19252.0	5.938516313068884e+17
19253.0	5.937404454109183e+17
19254.0	5.936272441518761e+17
19255.0	5.935135462872406e+17
19256.0	5.934015479545855e+17
19257.0	5.932886618974889e+17
19258.0	5.931730589799764e+17
19259.0	5.930586475943252e+17
19260.0	5.929457244875433e+17
19261.0	5.928331352473599e+17
19262.0	5.927201767686144e+17
19263.0	5.926071046242303e+17
19264.0	5.924919864983551e+17
19265.0	5.923803844575231e+17
19266.0	5.922676562460671e+17
19267.0	5.921553137008639e+17
19268.0	5.920423216676863e+17
19269.0	5.919293233430527e+17
19270.0	5.918163105480703e+17
19271.0	5.917018037420032e+17
19272.0	5.915901025757865e+17
19273.0	5.914270377530707e+17
19274.0	5.913406202707968e+17
19275.0	5.912511144525824e+17
19276.0	5.911380389527551e+17
19277.0	5.91024943599889e+17
19278.0	5.909118346854399e+17
19279.0	5.90798475371042e+17
19280.0	5.906851905754452e+17
19281.0	5.905723884743337e+17
19282.0	5.904592074178559e+17
19283.0	5.903454406967295e+17
19284.0	5.902317374494036e+17
19285.0	5.901184697805482e+17
19286.0	5.900062385242111e+17
19287.0	5.898930114002944e+17
19288.0	5.897720055201791e+17
19289.0	5.896417509900287e+17
19290.0	5.895529040270676e+17
19291.0	5.89438178627857e+17
19292.0	5.893259939282944e+17
19293.0	5.892124467789823e+17
19294.0	5.890989386366973e+17
19295.0	5.88985352200738e+17
19296.0	5.888717202565802e+17
19297.0	5.887580384002047e+17
19298.0	5.886443238981632e+17
19299.0	5.885305515147263e+17
19300.0	5.884167269122047e+17
19301.0	5.883028150681599e+17
19302.0	5.881888781981012e+17
19303.0	5.880743922936489e+17
19304.0	5.879604977161556e+17
19305.0	5.878467518267391e+17
19306.0	5.87732580634897e+17
19307.0	5.876181892420948e+17
19308.0	5.875039907872767e+17
19309.0	5.873886133136042e+17
19310.0	5.872734603750057e+17
19311.0	5.871603397864106e+17
19312.0	5.870458260597418e+17
19313.0	5.869297519121748e+17
19314.0	5.868052112823636e+17
19315.0	5.866912166008148e+17
19316.0	5.865864501570218e+17
19317.0	5.86471391170833e+17
19318.0	5.863561646221993e+17
19319.0	5.862408364315988e+17
19320.0	5.8612502247069e+17
19321.0	5.860098051495252e+17
19322.0	5.85893282980386e+17
19323.0	5.85777689010722e+17
19324.0	5.856622990939475e+17
19325.0	5.855454610238121e+17
19326.0	5.854299147993087e+17
19327.0	5.853134198232404e+17
19328.0	5.851969147808425e+17
19329.0	5.850801630434644e+17
19330.0	5.849630409490431e+17
19331.0	5.848461003980799e+17
19332.0	5.847288167530495e+17
19333.0	5.846113254899711e+17
19334.0	5.844931679617023e+17
19335.0	5.843756968312831e+17
19336.0	5.842566943604735e+17
19337.0	5.841371790660948e+17
19338.0	5.840175972220927e+17
19339.0	5.838971591109289e+17
19340.0	5.837768557767337e+17
19341.0	5.836576289106601e+17
19342.0	5.835350610717353e+17
19343.0	5.834169687648937e+17
19344.0	5.832966496321536e+17
19345.0	5.831660596974931e+17
19346.0	5.830526415929341e+17
19347.0	5.829332625435305e+17
19348.0	5.828118675019092e+17
19349.0	5.826897293694292e+17
19350.0	5.825671597129727e+17
19351.0	5.824441911782057e+17
19352.0	5.823204336249514e+17
19353.0	5.821968483876863e+17
19354.0	5.820724169495892e+17
19355.0	5.819471212052479e+17
19356.0	5.818220413976575e+17
19357.0	5.81695042695987e+17
19358.0	5.815668300928339e+17
19359.0	5.814373399046826e+17
19360.0	5.813119490195455e+17
19361.0	5.811831514507946e+17
19362.0	5.810541607343444e+17
19363.0	5.809240560107519e+17
19364.0	5.807931073931946e+17
19365.0	5.806614330212351e+17
19366.0	5.8052884575901e+17
19367.0	5.803953134501887e+17
19368.0	5.802608079230292e+17
19369.0	5.801244019567273e+17
19370.0	5.79981782618385e+17
19371.0	5.798498293951145e+17
19372.0	5.797108603595434e+17
19373.0	5.79570613878784e+17
19374.0	5.794290275276116e+17
19375.0	5.792860019010217e+17
19376.0	5.791402411687935e+17
19377.0	5.789930434680148e+17
19378.0	5.788457069357737e+17
19379.0	5.786964155782484e+17
19380.0	5.785446490920276e+17
19381.0	5.783911193204052e+17
19382.0	5.782351214804991e+17
19383.0	5.780764469755903e+17
19384.0	5.779165217292287e+17
19385.0	5.777538121640618e+17
19386.0	5.775884410333865e+17
19387.0	5.774201787689641e+17
19388.0	5.772488692028756e+17
19389.0	5.770742899671039e+17
19390.0	5.768934230502057e+17
19391.0	5.766748176034473e+17
19392.0	5.765204117116244e+17
19393.0	5.763305838739455e+17
19394.0	5.7613612077110605e+17
19395.0	5.7593684687148365e+17
19396.0	5.757323368027475e+17
19397.0	5.7552219308468896e+17
19398.0	5.7530294870562125e+17
19399.0	5.750772847345663e+17
19400.0	5.748511305891839e+17
19401.0	5.7461446041490765e+17
19402.0	5.7436842687638163e+17
19403.0	5.7410524960959136e+17
19404.0	5.738426399020373e+17
19405.0	5.735699181469694e+17
19406.0	5.732840695485782e+17
19407.0	5.729862952157183e+17
19408.0	5.7267484829067936e+17
19409.0	5.723441776121173e+17
19410.0	5.719966433847977e+17
19411.0	5.71640694125363e+17
19412.0	5.712666746159103e+17
19413.0	5.7086691109765114e+17
19414.0	5.704456087797758e+17
19415.0	5.700049507276117e+17
19416.0	5.6953019578013e+17
19417.0	5.690306659177813e+17
19418.0	5.6850099781413536e+17
19419.0	5.679350553422505e+17
19420.0	5.6732663274973856e+17
19421.0	5.6668771078635514e+17
19422.0	5.6599883850711034e+17
19423.0	5.652542415437823e+17
19424.0	5.644231107761492e+17
19425.0	5.6355535213035494e+17
19426.0	5.625880242727592e+17
19427.0	5.615258758545407e+17
19428.0	5.603895393561258e+17
19429.0	5.592465349629268e+17
19430.0	5.579984620661418e+17
19431.0	5.5660810614429005e+17
19432.0	5.55098115879731e+17
19433.0	5.534056391376896e+17
19434.0	5.514716207469909e+17
19435.0	5.492591458691753e+17
19436.0	5.4670876730545485e+17
19437.0	5.442971389744469e+17
19438.0	5.417020633208146e+17
19439.0	5.388663776433494e+17
19440.0	5.355567188366677e+17
19441.0	5.316242092414292e+17
19442.0	5.268372073742339e+17
19443.0	5.2204185066318496e+17
19444.0	5.1692292478948666e+17
19445.0	5.107503402582018e+17
19446.0	5.0304004216149325e+17
19447.0	4.948298440551077e+17
19448.0	4.844561734740655e+17
19449.0	4.7005460720517126e+17
19450.0	4.383640235889989e+17
19451.0	4.275771379373393e+17
19452.0	4.5608556455526445e+17
19453.0	4.7825012294068966e+17
19454.0	4.895742198022135e+17
19455.0	4.9847440713099936e+17
19456.0	5.0625683781932365e+17
19457.0	5.1299701653940864e+17
19458.0	5.1835762331265696e+17
19459.0	5.2295220358458054e+17
19460.0	5.277280609763328e+17
19461.0	5.318442652183209e+17
19462.0	5.35213411069679e+17
19463.0	5.380699461429929e+17
19464.0	5.405588783628287e+17
19465.0	5.427752804373845e+17
19466.0	5.4509906536256826e+17
19467.0	5.4725949857464326e+17
19468.0	5.4911324281023136e+17
19469.0	5.506825494112938e+17
19470.0	5.520695294077608e+17
19471.0	5.533033581685418e+17
19472.0	5.543925769043966e+17
19473.0	5.553657419049641e+17
19474.0	5.5628364695033165e+17
19475.0	5.5716136434182816e+17
19476.0	5.579631220490239e+17
19477.0	5.5865424450245965e+17
19478.0	5.592839333347326e+17
19479.0	5.598499350162089e+17
19480.0	5.603442440885588e+17
19481.0	5.607937833697279e+17
19482.0	5.6119208503323296e+17
19483.0	5.6155874549650765e+17
19484.0	5.6189336336465914e+17
19485.0	5.621836914098175e+17
19486.0	5.624561504616447e+17
19487.0	5.6269199589594445e+17
19488.0	5.62901513404416e+17
19489.0	5.630988928068266e+17
19490.0	5.6325863623010976e+17
19491.0	5.6341349070274554e+17
19492.0	5.635422633153876e+17
19493.0	5.636670145691646e+17
19494.0	5.637735886880767e+17
19495.0	5.6385746008801274e+17
19496.0	5.6393114827707725e+17
19497.0	5.639959313995092e+17
19498.0	5.640456391447892e+17
19499.0	5.640352806819156e+17
19500.0	5.641279661320873e+17
19501.0	5.641554442059775e+17
19502.0	5.6417208063317325e+17
19503.0	5.641817217302528e+17
19504.0	5.6418462467795616e+17
19505.0	5.641828772610046e+17
19506.0	5.641762635426474e+17
19507.0	5.6416222380905805e+17
19508.0	5.641433458758996e+17
19509.0	5.641198202344789e+17
19510.0	5.640911540540756e+17
19511.0	5.6402479233542816e+17
19512.0	5.640185438710442e+17
19513.0	5.6397082066070176e+17
19514.0	5.639406364917758e+17
19515.0	5.639027046045013e+17
19516.0	5.63856972779793e+17
19517.0	5.6380561911971834e+17
19518.0	5.6375226016290125e+17
19519.0	5.636961986063017e+17
19520.0	5.6363779026670925e+17
19521.0	5.635774282203136e+17
19522.0	5.635149138668202e+17
19523.0	5.63450827977523e+17
19524.0	5.6338557446389754e+17
19525.0	5.633174161850367e+17
19526.0	5.6324831251005434e+17
19527.0	5.631774396776447e+17
19528.0	5.631051751751678e+17
19529.0	5.63031524315409e+17
19530.0	5.6295659265501856e+17
19531.0	5.6288049686555296e+17
19532.0	5.6280535444138656e+17
19533.0	5.627270143497556e+17
19534.0	5.6264763386101754e+17
19535.0	5.625672879134036e+17
19536.0	5.6248598342751565e+17
19537.0	5.62403865666082e+17
19538.0	5.6232073358213114e+17
19539.0	5.622344128484692e+17
19540.0	5.6215255925828256e+17
19541.0	5.620673237308756e+17
19542.0	5.619813908305237e+17
19543.0	5.6189480697419085e+17
19544.0	5.61808304766976e+17
19545.0	5.6171924431394125e+17
19546.0	5.616279732529834e+17
19547.0	5.6154336309630285e+17
19548.0	5.614539173265407e+17
19549.0	5.613636052232873e+17
19550.0	5.612739083545258e+17
19551.0	5.611831198482431e+17
19552.0	5.610918934566228e+17
19553.0	5.6100017961697274e+17
19554.0	5.609080634736638e+17
19555.0	5.6081586617057274e+17
19556.0	5.607231216506196e+17
19557.0	5.6063001530204154e+17
19558.0	5.6053662080477856e+17
19559.0	5.6044272655619405e+17
19560.0	5.6034889284539725e+17
19561.0	5.6025458874340685e+17
19562.0	5.6016000606972576e+17
19563.0	5.600650993860607e+17
19564.0	5.599700920390996e+17
19565.0	5.598747678124713e+17
19566.0	5.5977912586731514e+17
19567.0	5.59683371934242e+17
19568.0	5.5958745686999034e+17
19569.0	5.5949123219619834e+17
19570.0	5.593948886138879e+17
19571.0	5.592983197275477e+17
19572.0	5.592015731425279e+17
19573.0	5.591045811907241e+17
19574.0	5.590072253830486e+17
19575.0	5.589102986526719e+17
19576.0	5.588129396992681e+17
19577.0	5.5871467589468154e+17
19578.0	5.58617520644642e+17
19579.0	5.585197886778026e+17
19580.0	5.5842187985114445e+17
19581.0	5.583238317735935e+17
19582.0	5.5822573651012256e+17
19583.0	5.5812744201721165e+17
19584.0	5.5802903455771296e+17
19585.0	5.5793013930065914e+17
19586.0	5.5783102349312e+17
19587.0	5.577326550406484e+17
19588.0	5.5763203382749856e+17
19589.0	5.5753503509490336e+17
19590.0	5.574363218706431e+17
19591.0	5.5733751049966925e+17
19592.0	5.572383709244074e+17
19593.0	5.571391730483199e+17
19594.0	5.5703871688103245e+17
19595.0	5.5694053088078496e+17
19596.0	5.5683278431409485e+17
19597.0	5.567416316723199e+17
19598.0	5.56641169772817e+17
19599.0	5.565425267332436e+17
19600.0	5.5644286783324154e+17
19601.0	5.5634298167186765e+17
19602.0	5.5624321148299936e+17
19603.0	5.5614128248586234e+17
19604.0	5.560434908900009e+17
19605.0	5.559423949515434e+17
19606.0	5.5584377889532576e+17
19607.0	5.557439175502506e+17
19608.0	5.556438719354196e+17
19609.0	5.55543711396659e+17
19610.0	5.554437357567999e+17
19611.0	5.553435766860458e+17
19612.0	5.5524344257140045e+17
19613.0	5.551432126169087e+17
19614.0	5.5504280999690234e+17
19615.0	5.549427628441599e+17
19616.0	5.548422203441152e+17
19617.0	5.547421727719423e+17
19618.0	5.546396004384766e+17
19619.0	5.5453833127526406e+17
19620.0	5.5443820547932154e+17
19621.0	5.543407346778111e+17
19622.0	5.5424032178176e+17
19623.0	5.541398923182078e+17
19624.0	5.540394458677247e+17
19625.0	5.5393897299312634e+17
19626.0	5.5383850368368634e+17
19627.0	5.5373801109585914e+17
19628.0	5.536367361305258e+17
19629.0	5.535365737043284e+17
19630.0	5.534360384045055e+17
19631.0	5.532995341516799e+17
19632.0	5.532353487175679e+17
19633.0	5.5313480495923194e+17
19634.0	5.530342437945343e+17
19635.0	5.5293367654809594e+17
19636.0	5.5283309671874554e+17
19637.0	5.527305539551231e+17
19638.0	5.526318829535231e+17
19639.0	5.525312641171456e+17
19640.0	5.524304961033557e+17
19641.0	5.523274648431274e+17
19642.0	5.52229527565107e+17
19643.0	5.52128805409041e+17
19644.0	5.5202817007506765e+17
19645.0	5.519264962314239e+17
19646.0	5.5182710443868154e+17
19647.0	5.5172649482977274e+17
19648.0	5.516258933997567e+17
19649.0	5.515252760313856e+17
19650.0	5.514246867648511e+17
19651.0	5.5132408617369594e+17
19652.0	5.5122349145456634e+17
19653.0	5.511228839428096e+17
19654.0	5.510223060008958e+17
19655.0	5.509217074369877e+17
19656.0	5.508211088730793e+17
19657.0	5.5072056106024954e+17
19658.0	5.506199986372607e+17
19659.0	5.505194263576575e+17
19660.0	5.5041887483985914e+17
19661.0	5.5031832227348474e+17
