# Flux units: erg / (cm m2 s)
# Wavelength units: Angstrom
wave	flux
19000.0	7.507414738447017e+17
19001.0	7.505890076786687e+17
19002.0	7.504584177440084e+17
19003.0	7.503160850164393e+17
19004.0	7.501740506436948e+17
19005.0	7.500330902923944e+17
19006.0	7.498917012832256e+17
19007.0	7.497009850220544e+17
19008.0	7.496007112370858e+17
19009.0	7.494619329025364e+17
19010.0	7.492747562145106e+17
19011.0	7.491799002120191e+17
19012.0	7.489874473691816e+17
19013.0	7.488998581381802e+17
19014.0	7.487513636984148e+17
19015.0	7.486129376854015e+17
19016.0	7.484705284816893e+17
19017.0	7.483117184308563e+17
19018.0	7.481871724882602e+17
19019.0	7.480496689425068e+17
19020.0	7.479014159548417e+17
19021.0	7.477635640022355e+17
19022.0	7.476258996748288e+17
19023.0	7.474797869006847e+17
19024.0	7.473406689673215e+17
19025.0	7.471957378684242e+17
19026.0	7.470528422652585e+17
19027.0	7.46879427228467e+17
19028.0	7.467768581805395e+17
19029.0	7.466332308111357e+17
19030.0	7.464951374064298e+17
19031.0	7.463543923627347e+17
19032.0	7.462127567284906e+17
19033.0	7.460615509508096e+17
19034.0	7.459276265444691e+17
19035.0	7.457839693955071e+17
19036.0	7.425942132271772e+17
19037.0	7.455041883471872e+17
19038.0	7.453615494354259e+17
19039.0	7.452225654401705e+17
19040.0	7.450818160623615e+17
19041.0	7.449394885077676e+17
19042.0	7.447888440677718e+17
19043.0	7.446580312757587e+17
19044.0	7.445150603149311e+17
19045.0	7.443734256593577e+17
19046.0	7.442266420761939e+17
19047.0	7.44092024910643e+17
19048.0	7.43928221680708e+17
19049.0	7.438023352385535e+17
19050.0	7.436635813707777e+17
19051.0	7.430902187556855e+17
19052.0	7.433404941336575e+17
19053.0	7.432332787755688e+17
19054.0	7.431044174533972e+17
19055.0	7.429348937520468e+17
19056.0	7.428188047846058e+17
19057.0	7.426790112886783e+17
19058.0	7.4252630898333e+17
19059.0	7.423982918347433e+17
19060.0	7.422544520937471e+17
19061.0	7.421166713044991e+17
19062.0	7.419751791154518e+17
19063.0	7.418344012163752e+17
19064.0	7.416788883079168e+17
19065.0	7.415319603008851e+17
19066.0	7.414042346564264e+17
19067.0	7.412689893239466e+17
19068.0	7.411295926091773e+17
19069.0	7.409888243570004e+17
19070.0	7.408442624966655e+17
19071.0	7.407042050392063e+17
19072.0	7.405657405784061e+17
19073.0	7.40424232870434e+17
19074.0	7.402844982345727e+17
19075.0	7.401436714019497e+17
19076.0	7.40000386846993e+17
19077.0	7.398610761154556e+17
19078.0	7.397134367544659e+17
19079.0	7.395801718325245e+17
19080.0	7.394380141472426e+17
19081.0	7.392937127531859e+17
19082.0	7.391512474856105e+17
19083.0	7.390038713871016e+17
19084.0	7.388486162885289e+17
19085.0	7.387347540770815e+17
19086.0	7.385479634048339e+17
19087.0	7.383637329357481e+17
19088.0	7.383031699821908e+17
19089.0	7.381044809083561e+17
19090.0	7.380288392921088e+17
19091.0	7.378891921773908e+17
19092.0	7.377241609950547e+17
19093.0	7.376116454348118e+17
19094.0	7.374698648174591e+17
19095.0	7.373287445233661e+17
19096.0	7.371832013357055e+17
19097.0	7.370485907412308e+17
19098.0	7.369089555103744e+17
19099.0	7.367681236445866e+17
19100.0	7.366235039028566e+17
19101.0	7.364867845521405e+17
19102.0	7.36338696540433e+17
19103.0	7.362072292971859e+17
19104.0	7.360678092341247e+17
19105.0	7.359270239251113e+17
19106.0	7.357699328398676e+17
19107.0	7.356446260505258e+17
19108.0	7.355063580229632e+17
19109.0	7.350259470565371e+17
19110.0	7.352223303816531e+17
19111.0	7.350850345937578e+17
19112.0	7.349461316883796e+17
19113.0	7.348059688140799e+17
19114.0	7.346654662011561e+17
19115.0	7.345151754807977e+17
19116.0	7.343832499399338e+17
19117.0	7.342431056603817e+17
19118.0	7.340809022778025e+17
19119.0	7.337171739126437e+17
19120.0	7.33800818820164e+17
19121.0	7.336700142769491e+17
19122.0	7.335459369779199e+17
19123.0	7.334041051900586e+17
19124.0	7.332492916118867e+17
19125.0	7.331213625436842e+17
19126.0	7.329761827225599e+17
19127.0	7.326654587557203e+17
19128.0	7.324124565209083e+17
19129.0	7.32556495491345e+17
19130.0	7.324251368805718e+17
19131.0	7.322766571208703e+17
19132.0	7.321470051723945e+17
19133.0	7.319061942413996e+17
19134.0	7.317282174795777e+17
19135.0	7.31726742482671e+17
19136.0	7.315886668338516e+17
19137.0	7.314308648140799e+17
19138.0	7.312702844873386e+17
19139.0	7.311687143828136e+17
19140.0	7.310301471615657e+17
19141.0	7.308907146554025e+17
19142.0	7.307472800841727e+17
19143.0	7.306050790577491e+17
19144.0	7.304667657317033e+17
19145.0	7.30330303771443e+17
19146.0	7.30119062543838e+17
19147.0	7.300439222867284e+17
19148.0	7.299119499094697e+17
19149.0	7.297723966073514e+17
19150.0	7.296324687538857e+17
19151.0	7.294950247672489e+17
19152.0	7.293504131345066e+17
19153.0	7.292146212842153e+17
19154.0	7.290636467524948e+17
19155.0	7.289371032027135e+17
19156.0	7.287981428353705e+17
19157.0	7.286540766019581e+17
19158.0	7.282833022255099e+17
19159.0	7.283770474364927e+17
19160.0	7.282327134666751e+17
19161.0	7.280719439768233e+17
19162.0	7.274385217246554e+17
19163.0	7.278177123915092e+17
19164.0	7.276842015435433e+17
19165.0	7.275365001068543e+17
19166.0	7.273852386847402e+17
19167.0	7.272170367483901e+17
19168.0	7.271098644518227e+17
19169.0	7.269720116603561e+17
19170.0	7.268488857692841e+17
19171.0	7.266836616489641e+17
19172.0	7.265686401318911e+17
19173.0	7.264307613357396e+17
19174.0	7.26286698877201e+17
19175.0	7.26154036257314e+17
19176.0	7.260141409796096e+17
19177.0	7.258591789230761e+17
19178.0	7.257283093681492e+17
19179.0	7.255595609139881e+17
19180.0	7.25389733265408e+17
19181.0	7.253069458134356e+17
19182.0	7.25167572586769e+17
19183.0	7.250334267211775e+17
19184.0	7.248817148308136e+17
19185.0	7.247613401235455e+17
19186.0	7.246243421312339e+17
19187.0	7.244751177427626e+17
19188.0	7.243427109754195e+17
19189.0	7.241940504412157e+17
19190.0	7.240526540221097e+17
19191.0	7.239195010880851e+17
19192.0	7.237840022798335e+17
19193.0	7.23594081538321e+17
19194.0	7.234847795139923e+17
19195.0	7.233673975824381e+17
19196.0	7.232314787845462e+17
19197.0	7.230919145772372e+17
19198.0	7.229467367134547e+17
19199.0	7.197940106570401e+17
19200.0	7.206746250543114e+17
19201.0	7.225312946771284e+17
19202.0	7.223988953197225e+17
19203.0	7.222549904272041e+17
19204.0	7.221193000790697e+17
19205.0	7.219832530752851e+17
19206.0	7.218436567116457e+17
19207.0	7.216968620834815e+17
19208.0	7.21545936904738e+17
19209.0	7.214249248030719e+17
19210.0	7.212886395628202e+17
19211.0	7.211506628995753e+17
19212.0	7.210123276233385e+17
19213.0	7.208371286092457e+17
19214.0	7.206811764173481e+17
19215.0	7.205839058938538e+17
19216.0	7.204521611274921e+17
19217.0	7.203159137757866e+17
19218.0	7.200879273487017e+17
19219.0	7.200184218593961e+17
19220.0	7.198929340159316e+17
19221.0	7.197197881136468e+17
19222.0	7.196202077869395e+17
19223.0	7.194785597095935e+17
19224.0	7.193296905786708e+17
19225.0	7.191848123280041e+17
19226.0	7.190608307989162e+17
19227.0	7.1892159444637e+17
19228.0	7.187862533439487e+17
19229.0	7.186470792069117e+17
19230.0	7.18494424297199e+17
19231.0	7.183580562893481e+17
19232.0	7.182221991477247e+17
19233.0	7.180817643427155e+17
19234.0	7.179481201158825e+17
19235.0	7.17807861052211e+17
19236.0	7.176728413732863e+17
19237.0	7.17531445932851e+17
19238.0	7.173797283102717e+17
19239.0	7.17254325051938e+17
19240.0	7.170820751927977e+17
19241.0	7.169639911347539e+17
19242.0	7.168334758587049e+17
19243.0	7.166764941049853e+17
19244.0	7.165578902328659e+17
19245.0	7.164180006873769e+17
19246.0	7.162772609564671e+17
19247.0	7.161379774879059e+17
19248.0	7.159995611217919e+17
19249.0	7.158592925510313e+17
19250.0	7.157185331068927e+17
19251.0	7.155685510873087e+17
19252.0	7.154042836877311e+17
19253.0	7.152990827140435e+17
19254.0	7.1515654600349e+17
19255.0	7.149991396463956e+17
19256.0	7.148704993640447e+17
19257.0	7.147408699250003e+17
19258.0	7.146012731419305e+17
19259.0	7.144528286143827e+17
19260.0	7.142802922842793e+17
19261.0	7.141795368534015e+17
19262.0	7.140340539239081e+17
19263.0	7.138949640923817e+17
19264.0	7.137046471289513e+17
19265.0	7.135998671235753e+17
19266.0	7.134647642576212e+17
19267.0	7.133379040378879e+17
19268.0	7.131958149993812e+17
19269.0	7.130558893828778e+17
19270.0	7.129143435067391e+17
19271.0	7.127386839580672e+17
19272.0	7.126293334196223e+17
19273.0	7.116206142128116e+17
19274.0	7.119085204668408e+17
19275.0	7.122093317554173e+17
19276.0	7.120657661820928e+17
19277.0	7.11923998007842e+17
19278.0	7.117826770862079e+17
19279.0	7.116283542416042e+17
19280.0	7.114903326993066e+17
19281.0	7.113567745955156e+17
19282.0	7.11216193549107e+17
19283.0	7.110237609787391e+17
19284.0	7.108229044284072e+17
19285.0	7.107639999026518e+17
19286.0	7.106367422027092e+17
19287.0	7.104931324493824e+17
19288.0	7.0959183761681e+17
19289.0	7.081633161150426e+17
19290.0	7.100638956268202e+17
19291.0	7.09890650599151e+17
19292.0	7.097769637096106e+17
19293.0	7.096322670723071e+17
19294.0	7.094878447424851e+17
19295.0	7.093450758073002e+17
19296.0	7.092000148247892e+17
19297.0	7.090521876987901e+17
19298.0	7.089079039208105e+17
19299.0	7.08766621446963e+17
19300.0	7.086211803206995e+17
19301.0	7.0847468432698e+17
19302.0	7.08328444465425e+17
19303.0	7.081724759157417e+17
19304.0	7.080306421705385e+17
19305.0	7.078892801447251e+17
19306.0	7.07741183324979e+17
19307.0	7.075876232844628e+17
19308.0	7.074441148934825e+17
19309.0	7.072029635248127e+17
19310.0	7.07005223761783e+17
19311.0	7.069834933523795e+17
19312.0	7.068453743624191e+17
19313.0	7.066847656542207e+17
19314.0	7.054534408230221e+17
19315.0	7.053629295602364e+17
19316.0	7.062445625442301e+17
19317.0	7.061001841147901e+17
19318.0	7.059491203842047e+17
19319.0	7.057999822585855e+17
19320.0	7.056452907346602e+17
19321.0	7.054970571806036e+17
19322.0	7.053244664643583e+17
19323.0	7.051401891588778e+17
19324.0	7.050356854183252e+17
19325.0	7.048047480187561e+17
19326.0	7.047294608211965e+17
19327.0	7.045742809404756e+17
19328.0	7.044232411174228e+17
19329.0	7.042552522517161e+17
19330.0	7.040920629280765e+17
19331.0	7.039345665332564e+17
19332.0	7.037802134896637e+17
19333.0	7.036200169417386e+17
19334.0	7.034594041091412e+17
19335.0	7.033042025578495e+17
19336.0	7.031419375889065e+17
19337.0	7.029811866238975e+17
19338.0	7.027968866691754e+17
19339.0	7.026558635431252e+17
19340.0	7.02487147385105e+17
19341.0	7.023273167902036e+17
19342.0	7.021145393987581e+17
19343.0	7.0199518691328e+17
19344.0	7.018266407643817e+17
19345.0	7.01449548368008e+17
19346.0	7.014185772777472e+17
19347.0	7.013104075057833e+17
19348.0	7.011313290401108e+17
19349.0	7.009491447622313e+17
19350.0	7.007750932398079e+17
19351.0	7.0059931219613e+17
19352.0	7.004183299358719e+17
19353.0	7.002483143824724e+17
19354.0	7.00067753300241e+17
19355.0	6.998755577080489e+17
19356.0	6.997026058622291e+17
19357.0	6.995169480015871e+17
19358.0	6.993210709988691e+17
19359.0	6.990872500153002e+17
19360.0	6.989220201627647e+17
19361.0	6.987287331427667e+17
19362.0	6.985346633258323e+17
19363.0	6.983262460532052e+17
19364.0	6.981265338488147e+17
19365.0	6.979248557042345e+17
19366.0	6.977212930588672e+17
19367.0	6.974997848042153e+17
19368.0	6.972755360612351e+17
19369.0	6.970426919310675e+17
19370.0	6.967421988503551e+17
19371.0	6.96623609029154e+17
19372.0	6.964079158274729e+17
19373.0	6.961565971862867e+17
19374.0	6.959169317896191e+17
19375.0	6.956845229583017e+17
19376.0	6.954481236661588e+17
19377.0	6.952041888874496e+17
19378.0	6.949154602003113e+17
19379.0	6.946440940442966e+17
19380.0	6.94390110621969e+17
19381.0	6.941212061728767e+17
19382.0	6.938310665218729e+17
19383.0	6.935580826927103e+17
19384.0	6.93294290051618e+17
19385.0	6.930116303825577e+17
19386.0	6.927230884118527e+17
19387.0	6.924131850605908e+17
19388.0	6.920876514956627e+17
19389.0	6.917765434703871e+17
19390.0	6.914543807277736e+17
19391.0	6.885326291206103e+17
19392.0	6.907772697662803e+17
19393.0	6.904123851713193e+17
19394.0	6.900376976490493e+17
19395.0	6.8966544324253e+17
19396.0	6.892839557049002e+17
19397.0	6.888693248469673e+17
19398.0	6.884169151938559e+17
19399.0	6.879302957487443e+17
19400.0	6.875364367619412e+17
19401.0	6.870396924067839e+17
19402.0	6.865749910661802e+17
19403.0	6.860145139821226e+17
19404.0	6.854928672052563e+17
19405.0	6.848928121094143e+17
19406.0	6.843138333911721e+17
19407.0	6.836299166821034e+17
19408.0	6.829058206378665e+17
19409.0	6.822339107531434e+17
19410.0	6.814159861011798e+17
19411.0	6.806662780289023e+17
19412.0	6.799453706343764e+17
19413.0	6.792139918103891e+17
19414.0	6.784291370784084e+17
19415.0	6.776040921759744e+17
19416.0	6.767312905786707e+17
19417.0	6.758231142214313e+17
19418.0	6.748813702201343e+17
19419.0	6.738875002475859e+17
19420.0	6.728052040706729e+17
19421.0	6.716817967939583e+17
19422.0	6.70419562598673e+17
19423.0	6.691198481028435e+17
19424.0	6.676940533181098e+17
19425.0	6.661383373105834e+17
19426.0	6.644396936833704e+17
19427.0	6.62538977367381e+17
19428.0	6.604530856755197e+17
19429.0	6.581185864706729e+17
19430.0	6.560362792310102e+17
19431.0	6.535865191541427e+17
19432.0	6.517969175707645e+17
19433.0	6.49403065888495e+17
19434.0	6.467889167772329e+17
19435.0	6.43900668850995e+17
19436.0	6.406010114321066e+17
19437.0	6.372123484356609e+17
19438.0	6.307555782776152e+17
19439.0	6.283483246755844e+17
19440.0	6.239381399186089e+17
19441.0	6.192246992229714e+17
19442.0	6.139389178544129e+17
19443.0	6.079068646670336e+17
19444.0	6.008305304469501e+17
19445.0	5.932804437879468e+17
19446.0	5.850201387084457e+17
19447.0	5.753301856070309e+17
19448.0	5.644546943746053e+17
19449.0	5.506889869688831e+17
19450.0	5.2338999657758336e+17
19451.0	5.123475024904192e+17
19452.0	5.3903312527469274e+17
19453.0	5.580578325091675e+17
19454.0	5.696492371880613e+17
19455.0	5.796578707111935e+17
19456.0	5.883959088338264e+17
19457.0	5.959118890205181e+17
19458.0	6.021684094741179e+17
19459.0	6.093937912927575e+17
19460.0	6.147785392914428e+17
19461.0	6.195252198462804e+17
19462.0	6.237594904603309e+17
19463.0	6.281626051586725e+17
19464.0	6.323692044812285e+17
19465.0	6.35927549164476e+17
19466.0	6.389343354617851e+17
19467.0	6.41754365899571e+17
19468.0	6.442243573415936e+17
19469.0	6.463824469863081e+17
19470.0	6.485323450155008e+17
19471.0	6.504264167150932e+17
19472.0	6.521625753157628e+17
19473.0	6.541063451836415e+17
19474.0	6.561031312637951e+17
19475.0	6.577331199366484e+17
19476.0	6.593307903787009e+17
19477.0	6.606850991237802e+17
19478.0	6.619068828920489e+17
19479.0	6.630291424673791e+17
19480.0	6.640180131091795e+17
19481.0	6.649350326670675e+17
19482.0	6.658023297297065e+17
19483.0	6.665689249087487e+17
19484.0	6.672901769352531e+17
19485.0	6.679628552863741e+17
19486.0	6.68565428572433e+17
19487.0	6.691293750449491e+17
19488.0	6.696877814710271e+17
19489.0	6.701700090604201e+17
19490.0	6.704989135874728e+17
19491.0	6.711094900948991e+17
19492.0	6.716142562661716e+17
19493.0	6.72105789408324e+17
19494.0	6.725815151274666e+17
19495.0	6.729590926650026e+17
19496.0	6.732738268758015e+17
19497.0	6.73659330878942e+17
19498.0	6.737559259796826e+17
19499.0	6.701635104757043e+17
19500.0	6.744652410869076e+17
19501.0	6.746578338796884e+17
19502.0	6.749074620765526e+17
19503.0	6.750714207054506e+17
19504.0	6.752154855407615e+17
19505.0	6.754149771247613e+17
19506.0	6.755517396069033e+17
19507.0	6.756598034027862e+17
19508.0	6.757604369891327e+17
19509.0	6.758710816101716e+17
19510.0	6.759546706635433e+17
19511.0	6.729666248660292e+17
19512.0	6.75530028141771e+17
19513.0	6.749870577330836e+17
19514.0	6.753819718669641e+17
19515.0	6.76162399301359e+17
19516.0	6.76301428105762e+17
19517.0	6.763188393607165e+17
19518.0	6.763423176764074e+17
19519.0	6.763512404989267e+17
19520.0	6.763545104482304e+17
19521.0	6.763716764063059e+17
19522.0	6.763708420893353e+17
19523.0	6.763654149395795e+17
19524.0	6.763553529440937e+17
19525.0	6.763778093875197e+17
19526.0	6.763700883030015e+17
19527.0	6.763420702124714e+17
19528.0	6.763110710203731e+17
19529.0	6.762757542117375e+17
19530.0	6.762679312056319e+17
19531.0	6.762308221009919e+17
19532.0	6.761858377012566e+17
19533.0	6.76137978106129e+17
19534.0	6.760867787964415e+17
19535.0	6.760309090593449e+17
19536.0	6.759878594920447e+17
19537.0	6.759461267264852e+17
19538.0	6.758789727737172e+17
19539.0	6.757642684159319e+17
19540.0	6.75752925340194e+17
19541.0	6.756882762257748e+17
19542.0	6.756180918184617e+17
19543.0	6.755594734141439e+17
19544.0	6.754888962801663e+17
19545.0	6.753902053556221e+17
19546.0	6.752647474315264e+17
19547.0	6.752790644785151e+17
19548.0	6.752008871957844e+17
19549.0	6.751075527469738e+17
19550.0	6.750366397890559e+17
19551.0	6.74952728683042e+17
19552.0	6.748670901529258e+17
19553.0	6.747781922291711e+17
19554.0	6.74687980929024e+17
19555.0	6.746016803979263e+17
19556.0	6.745129875756372e+17
19557.0	6.744209321798314e+17
19558.0	6.74335503364915e+17
19559.0	6.742490171659603e+17
19560.0	6.741549779342675e+17
19561.0	6.740598586692948e+17
19562.0	6.739661011550207e+17
19563.0	6.738693346470569e+17
19564.0	6.73772341436962e+17
19565.0	6.736729358030163e+17
19566.0	6.735712510541823e+17
19567.0	6.734739275426474e+17
19568.0	6.733702045717844e+17
19569.0	6.732700830400511e+17
19570.0	6.73170541580561e+17
19571.0	6.730675608616959e+17
19572.0	6.729602951719594e+17
19573.0	6.728586393638227e+17
19574.0	6.727449772206761e+17
19575.0	6.726506098546004e+17
19576.0	6.725450426482687e+17
19577.0	6.724311259108691e+17
19578.0	6.72328368398882e+17
19579.0	6.722229712016724e+17
19580.0	6.721158816027987e+17
19581.0	6.720094149978794e+17
19582.0	6.719029412626431e+17
19583.0	6.717942219669503e+17
19584.0	6.716955877354153e+17
19585.0	6.715748281308499e+17
19586.0	6.714535553531903e+17
19587.0	6.713387562041343e+17
19588.0	6.712029373005823e+17
19589.0	6.711248999677951e+17
19590.0	6.710247176186538e+17
19591.0	6.70922825671202e+17
19592.0	6.708117779775487e+17
19593.0	6.706967326927529e+17
19594.0	6.705549755635028e+17
19595.0	6.704719611297791e+17
19596.0	6.696701096798895e+17
19597.0	6.702410046461268e+17
19598.0	6.701084856112468e+17
19599.0	6.700216629592063e+17
19600.0	6.699087880170154e+17
19601.0	6.697873346745684e+17
19602.0	6.696758198053545e+17
19603.0	6.694759846379517e+17
19604.0	6.694424924214612e+17
19605.0	6.693025686224896e+17
19606.0	6.692191597144746e+17
19607.0	6.691060765949951e+17
19608.0	6.689880956469247e+17
19609.0	6.688677893767165e+17
19610.0	6.687592261091327e+17
19611.0	6.68642189578513e+17
19612.0	6.685272371975508e+17
19613.0	6.684093761366697e+17
19614.0	6.682898203672575e+17
19615.0	6.681777778546004e+17
19616.0	6.680379122166441e+17
19617.0	6.679439291187197e+17
19618.0	6.677734960223571e+17
19619.0	6.676401417617405e+17
19620.0	6.675256730539347e+17
19621.0	6.674751282653866e+17
19622.0	6.673587563921408e+17
19623.0	6.672412823257087e+17
19624.0	6.671225090736127e+17
19625.0	6.670052993881427e+17
19626.0	6.668869436091049e+17
19627.0	6.667699226673151e+17
19628.0	6.665796535189504e+17
19629.0	6.665234912291498e+17
19630.0	6.663301944923479e+17
19631.0	6.631441590211918e+17
19632.0	6.661761628023465e+17
19633.0	6.660543488196607e+17
19634.0	6.65942064575283e+17
19635.0	6.658189241439572e+17
19636.0	6.657034601278121e+17
19637.0	6.655398596924756e+17
19638.0	6.654668028160682e+17
19639.0	6.653450265821183e+17
19640.0	6.65222167728401e+17
19641.0	6.650524338924204e+17
19642.0	6.649906882849449e+17
19643.0	6.648687326046889e+17
19644.0	6.647470821998591e+17
19645.0	6.646064662009171e+17
19646.0	6.645154795836756e+17
19647.0	6.643962082579795e+17
19648.0	6.642763432285524e+17
19649.0	6.641616703280468e+17
19650.0	6.640465215837524e+17
19651.0	6.639262750823764e+17
19652.0	6.638064940788394e+17
19653.0	6.636865797663402e+17
19654.0	6.635672453163689e+17
19655.0	6.634470076929364e+17
19656.0	6.633278800920575e+17
19657.0	6.632069543930536e+17
19658.0	6.630871134808746e+17
19659.0	6.629679846916095e+17
19660.0	6.628483853014355e+17
19661.0	6.627285833263785e+17
19662.0	6.626087448608767e+17
19663.0	6.624829829895508e+17
19664.0	6.623542089788072e+17
19665.0	6.622491048935423e+17
