# Flux units: erg / (cm m2 s)
# Wavelength units: Angstrom
wave	flux
19000.0	5.739108692044458e+17
19001.0	5.737922036061524e+17
19002.0	5.737010436942505e+17
19003.0	5.7359518798970874e+17
19004.0	5.7349024650362854e+17
19005.0	5.7338362505898656e+17
19006.0	5.732796577699156e+17
19007.0	5.7317510677353805e+17
19008.0	5.7306481559251616e+17
19009.0	5.729484189728767e+17
19010.0	5.728085657780222e+17
19011.0	5.727494277693438e+17
19012.0	5.725839251472382e+17
19013.0	5.7254749985396045e+17
19014.0	5.724374005623466e+17
19015.0	5.723337510617088e+17
19016.0	5.722287497368918e+17
19017.0	5.721293108980393e+17
19018.0	5.720224171032575e+17
19019.0	5.719198151300437e+17
19020.0	5.718145135629652e+17
19021.0	5.7171203392361805e+17
19022.0	5.716069204710741e+17
19023.0	5.7149653282106016e+17
19024.0	5.7139016457256954e+17
19025.0	5.712868271980543e+17
19026.0	5.7117634762287776e+17
19027.0	5.710301600503124e+17
19028.0	5.70978025550643e+17
19029.0	5.708722568779092e+17
19030.0	5.7077125670939296e+17
19031.0	5.706671149372756e+17
19032.0	5.7056048762060794e+17
19033.0	5.7044231925705363e+17
19034.0	5.703365542892885e+17
19035.0	5.701434141398356e+17
19036.0	5.664739603862858e+17
19037.0	5.699617668726783e+17
19038.0	5.6992018545158816e+17
19039.0	5.698277720020308e+17
19040.0	5.6972687948731725e+17
19041.0	5.696233414852606e+17
19042.0	5.6936866257742483e+17
19043.0	5.6941855843723936e+17
19044.0	5.693132374365526e+17
19045.0	5.6920701130506234e+17
19046.0	5.690992446057129e+17
19047.0	5.689975372076372e+17
19048.0	5.6885187161620474e+17
19049.0	5.684884511129597e+17
19050.0	5.686688428851198e+17
19051.0	5.680487865516027e+17
19052.0	5.6831464992058016e+17
19053.0	5.6836982221482656e+17
19054.0	5.682731720288937e+17
19055.0	5.680999121114454e+17
19056.0	5.6805084078189216e+17
19057.0	5.6796385315389434e+17
19058.0	5.677090268162727e+17
19059.0	5.677000174512809e+17
19060.0	5.6765120120531616e+17
19061.0	5.6754973218351776e+17
19062.0	5.674462441635838e+17
19063.0	5.673425636250964e+17
19064.0	5.6722609633143456e+17
19065.0	5.671152880626345e+17
19066.0	5.6697150103005856e+17
19067.0	5.669270558780074e+17
19068.0	5.6682537427490125e+17
19069.0	5.667219639894015e+17
19070.0	5.666150498522453e+17
19071.0	5.6651164320180896e+17
19072.0	5.663551754600446e+17
19073.0	5.663077048167081e+17
19074.0	5.6620477338091514e+17
19075.0	5.661013348537684e+17
19076.0	5.659959706517502e+17
19077.0	5.6589217721658016e+17
19078.0	5.657857902335317e+17
19079.0	5.6568751216831136e+17
19080.0	5.655828307989843e+17
19081.0	5.654750756339711e+17
19082.0	5.653735291573589e+17
19083.0	5.6526243903133005e+17
19084.0	5.651448173253972e+17
19085.0	5.650632753020928e+17
19086.0	5.6483185380993696e+17
19087.0	5.64666956076373e+17
19088.0	5.6464442511414605e+17
19089.0	5.6459419503820794e+17
19090.0	5.645367713114793e+17
19091.0	5.644293529490773e+17
19092.0	5.642065543867052e+17
19093.0	5.6423996761047034e+17
19094.0	5.6413960958989645e+17
19095.0	5.6403722662925645e+17
19096.0	5.639328689902933e+17
19097.0	5.6383121856484685e+17
19098.0	5.6366616787899725e+17
19099.0	5.635504751334741e+17
19100.0	5.635149434366634e+17
19101.0	5.6341651479592954e+17
19102.0	5.6330319553713485e+17
19103.0	5.6321360723094176e+17
19104.0	5.631109662507007e+17
19105.0	5.628697012163929e+17
19106.0	5.628900869319338e+17
19107.0	5.627611726217215e+17
19108.0	5.626348120134996e+17
19109.0	5.6240831750034746e+17
19110.0	5.624516503229779e+17
19111.0	5.623465855243604e+17
19112.0	5.622408062260563e+17
19113.0	5.6218582610083834e+17
19114.0	5.620562613938857e+17
19115.0	5.619627471492437e+17
19116.0	5.618756787808938e+17
19117.0	5.6177021398548474e+17
19118.0	5.616434223426217e+17
19119.0	5.606398840100167e+17
19120.0	5.614297864470526e+17
19121.0	5.613403174688085e+17
19122.0	5.6126375932723194e+17
19123.0	5.6116223794653856e+17
19124.0	5.610392616523092e+17
19125.0	5.609558292561919e+17
19126.0	5.608479941896874e+17
19127.0	5.605538145850708e+17
19128.0	5.606310604526932e+17
19129.0	5.6053794711360826e+17
19130.0	5.604447762426538e+17
19131.0	5.60344253665553e+17
19132.0	5.6024188874042003e+17
19133.0	5.6013310310481914e+17
19134.0	5.6003156089241594e+17
19135.0	5.59934773133312e+17
19136.0	5.5983321554179405e+17
19137.0	5.5971476077718176e+17
19138.0	5.596270911553535e+17
19139.0	5.5952757283444045e+17
19140.0	5.594259291897855e+17
19141.0	5.5932394769394336e+17
19142.0	5.59217840820497e+17
19143.0	5.591136739524607e+17
19144.0	5.5901280632395085e+17
19145.0	5.5891543975089485e+17
19146.0	5.587388366935382e+17
19147.0	5.5870231248459085e+17
19148.0	5.5856009747715405e+17
19149.0	5.584495896603306e+17
19150.0	5.584056553046015e+17
19151.0	5.583035663646719e+17
19152.0	5.581977948258302e+17
19153.0	5.5799612513976294e+17
19154.0	5.5797478459091616e+17
19155.0	5.5789277469300045e+17
19156.0	5.577893243518975e+17
19157.0	5.576326234068309e+17
19158.0	5.5740995200177485e+17
19159.0	5.574690059146579e+17
19160.0	5.5737564203581434e+17
19161.0	5.572634938266965e+17
19162.0	5.5688842399361715e+17
19163.0	5.570171543835988e+17
19164.0	5.569707433612628e+17
19165.0	5.567585671533906e+17
19166.0	5.567526989725694e+17
19167.0	5.5664569997066234e+17
19168.0	5.5656723901317114e+17
19169.0	5.5646726071691936e+17
19170.0	5.563689257489749e+17
19171.0	5.5625479188643834e+17
19172.0	5.561621817939285e+17
19173.0	5.560662865128106e+17
19174.0	5.5596067072245766e+17
19175.0	5.558654929469439e+17
19176.0	5.557639708672e+17
19177.0	5.556431057059839e+17
19178.0	5.555458307085652e+17
19179.0	5.554368537427967e+17
19180.0	5.553551477222057e+17
19181.0	5.552416618796372e+17
19182.0	5.5515275409926816e+17
19183.0	5.550560730152958e+17
19184.0	5.5495483824537594e+17
19185.0	5.5485225395814394e+17
19186.0	5.5475234353971194e+17
19187.0	5.5464247549405856e+17
19188.0	5.545486319266473e+17
19189.0	5.544470238636715e+17
19190.0	5.5434355394914976e+17
19191.0	5.542370658833749e+17
19192.0	5.541408217759743e+17
19193.0	5.540229606451883e+17
19194.0	5.5390943376834554e+17
19195.0	5.5382497656395085e+17
19196.0	5.5370859581276154e+17
19197.0	5.5357540841553914e+17
19198.0	5.533359180611583e+17
19199.0	5.5134761880562304e+17
19200.0	5.5160492397690906e+17
19201.0	5.530537862452564e+17
19202.0	5.5307618047317325e+17
19203.0	5.529986714828799e+17
19204.0	5.529147470949034e+17
19205.0	5.528230621959508e+17
19206.0	5.527258534685353e+17
19207.0	5.526137042108415e+17
19208.0	5.525033937360211e+17
19209.0	5.5242875630605645e+17
19210.0	5.523287104116052e+17
19211.0	5.522301128802303e+17
19212.0	5.521277787133268e+17
19213.0	5.520020977920681e+17
19214.0	5.518923453693952e+17
19215.0	5.5181722671295136e+17
19216.0	5.5172681646298445e+17
19217.0	5.5162333361602554e+17
19218.0	5.514401234113876e+17
19219.0	5.514048752495273e+17
19220.0	5.513215080748372e+17
19221.0	5.511945277581994e+17
19222.0	5.511216782901247e+17
19223.0	5.5102379854397434e+17
19224.0	5.509200857792511e+17
19225.0	5.508108981895166e+17
19226.0	5.5072254950987085e+17
19227.0	5.5062307117465594e+17
19228.0	5.505258036570794e+17
19229.0	5.5042537552172365e+17
19230.0	5.503243088035839e+17
19231.0	5.502233849014953e+17
19232.0	5.501232904929279e+17
19233.0	5.500156819887444e+17
19234.0	5.4992200297786003e+17
19235.0	5.498199822652756e+17
19236.0	5.4972361358704634e+17
19237.0	5.496213403773611e+17
19238.0	5.495099645493247e+17
19239.0	5.4942317286522874e+17
19240.0	5.493231666069502e+17
19241.0	5.492208383819775e+17
19242.0	5.4912141366394874e+17
19243.0	5.490043382661119e+17
19244.0	5.489232920095402e+17
19245.0	5.4882247667002016e+17
19246.0	5.487214698605226e+17
19247.0	5.48621879607296e+17
19248.0	5.485222508363775e+17
19249.0	5.484175977086975e+17
19250.0	5.482985243541504e+17
19251.0	5.4818959883851066e+17
19252.0	5.480884705340074e+17
19253.0	5.480201086216874e+17
19254.0	5.479229143646207e+17
19255.0	5.478003579901268e+17
19256.0	5.477211184300031e+17
19257.0	5.476231380205568e+17
19258.0	5.47523256333107e+17
19259.0	5.474128435172692e+17
19260.0	5.472310869185876e+17
19261.0	5.472206594594133e+17
19262.0	5.4711339873293645e+17
19263.0	5.4700933259810125e+17
19264.0	5.468592994080083e+17
19265.0	5.4679721280361805e+17
19266.0	5.466881281141417e+17
19267.0	5.4662304251248634e+17
19268.0	5.4652277466944845e+17
19269.0	5.464232355867306e+17
19270.0	5.463213822967806e+17
19271.0	5.4618557814319776e+17
19272.0	5.4611971009413114e+17
19273.0	5.459909331473749e+17
19274.0	5.4587382594273254e+17
19275.0	5.458250970081962e+17
19276.0	5.457231062848852e+17
19277.0	5.4562402983389856e+17
19278.0	5.455211876668756e+17
19279.0	5.4542085537136634e+17
19280.0	5.4531577044008954e+17
19281.0	5.4522225752364365e+17
19282.0	5.451218839841449e+17
19283.0	5.4500481222137165e+17
19284.0	5.4491124170315085e+17
19285.0	5.448062964421972e+17
19286.0	5.4471307356187296e+17
19287.0	5.446000978165758e+17
19288.0	5.434025323091276e+17
19289.0	5.419973158283911e+17
19290.0	5.4429540651717965e+17
19291.0	5.4418977681571846e+17
19292.0	5.4412564248221005e+17
19293.0	5.440276213880147e+17
19294.0	5.439269260055892e+17
19295.0	5.4383052377292794e+17
19296.0	5.436637919401301e+17
19297.0	5.4361539757124256e+17
19298.0	5.435282617445034e+17
19299.0	5.433562083885056e+17
19300.0	5.4333021118354765e+17
19301.0	5.432322267196073e+17
19302.0	5.4313108394475514e+17
19303.0	5.430225285764437e+17
19304.0	5.4292953701198496e+17
19305.0	5.428301098472789e+17
19306.0	5.4272910059110394e+17
19307.0	5.426213241749504e+17
19308.0	5.42519956026163e+17
19309.0	5.423537550524415e+17
19310.0	5.422274059785557e+17
19311.0	5.4220302511854925e+17
19312.0	5.421166484608341e+17
19313.0	5.419924785375915e+17
19314.0	5.3524960763357536e+17
19315.0	5.357501621644047e+17
19316.0	5.415927218001237e+17
19317.0	5.4161733453523616e+17
19318.0	5.4152555197890554e+17
19319.0	5.4143080754490016e+17
19320.0	5.4130417018251936e+17
19321.0	5.4117089701178016e+17
19322.0	5.4111476177524045e+17
19323.0	5.4100507310598816e+17
19324.0	5.409157201002494e+17
19325.0	5.407743869452288e+17
19326.0	5.407196084262228e+17
19327.0	5.406274695637673e+17
19328.0	5.404099030461099e+17
19329.0	5.404318777038164e+17
19330.0	5.4032791712563194e+17
19331.0	5.402245599679828e+17
19332.0	5.4012917932796576e+17
19333.0	5.400255893864447e+17
19334.0	5.399229674902868e+17
19335.0	5.3957969334763546e+17
19336.0	5.397203498216105e+17
19337.0	5.3962284015288314e+17
19338.0	5.39497129521971e+17
19339.0	5.39419367964672e+17
19340.0	5.392971710420309e+17
19341.0	5.3911925104312326e+17
19342.0	5.390443750271658e+17
19343.0	5.390120596624725e+17
19344.0	5.3881828659254624e+17
19345.0	5.385420295984467e+17
19346.0	5.385862986596351e+17
19347.0	5.3848172067990176e+17
19348.0	5.38503788241442e+17
19349.0	5.383972364921515e+17
19350.0	5.382520945595732e+17
19351.0	5.3819170063646714e+17
19352.0	5.3796320432182586e+17
19353.0	5.3799222680835405e+17
19354.0	5.378898178430292e+17
19355.0	5.377747300559531e+17
19356.0	5.3767946245242874e+17
19357.0	5.375753748567379e+17
19358.0	5.3746970866483194e+17
19359.0	5.373347368708778e+17
19360.0	5.371623514658133e+17
19361.0	5.3715349064908794e+17
19362.0	5.370528835567616e+17
19363.0	5.369465367691262e+17
19364.0	5.368409592867498e+17
19365.0	5.367351065182207e+17
19366.0	5.3662894987236685e+17
19367.0	5.3652194387995296e+17
19368.0	5.364109772062719e+17
19369.0	5.3629555618174285e+17
19370.0	5.3618975863821645e+17
19371.0	5.360803981732522e+17
19372.0	5.3597793922580474e+17
19373.0	5.358667700371456e+17
19374.0	5.3575943206557e+17
19375.0	5.3564922854550176e+17
19376.0	5.35531937001199e+17
19377.0	5.354189067299497e+17
19378.0	5.353074510004223e+17
19379.0	5.3519536025326925e+17
19380.0	5.3508176472965114e+17
19381.0	5.3496454973139616e+17
19382.0	5.3483282943180794e+17
19383.0	5.34715347186483e+17
19384.0	5.346080048807934e+17
19385.0	5.344909350753621e+17
19386.0	5.343659412510036e+17
19387.0	5.3424278977467725e+17
19388.0	5.341188527052115e+17
19389.0	5.33990150836497e+17
19390.0	5.338299266760704e+17
19391.0	5.304248623431637e+17
19392.0	5.3341139113082835e+17
19393.0	5.3348110843248634e+17
19394.0	5.333622059958272e+17
19395.0	5.331978201770667e+17
19396.0	5.3309347099661645e+17
19397.0	5.329705556596052e+17
19398.0	5.327920736938666e+17
19399.0	5.325675424645119e+17
19400.0	5.32506129535249e+17
19401.0	5.3240334441076045e+17
19402.0	5.322573623590911e+17
19403.0	5.320964425034409e+17
19404.0	5.319415551055187e+17
19405.0	5.3178124153651194e+17
19406.0	5.3162025506133325e+17
19407.0	5.313993844107945e+17
19408.0	5.3117368989122566e+17
19409.0	5.3108008931382605e+17
19410.0	5.308977383822677e+17
19411.0	5.306928818640213e+17
19412.0	5.3049730538318496e+17
19413.0	5.302229075143338e+17
19414.0	5.3004709088897696e+17
19415.0	5.2978954447530656e+17
19416.0	5.2951056600705683e+17
19417.0	5.292122643802793e+17
19418.0	5.289576875338409e+17
19419.0	5.2865815522836474e+17
19420.0	5.283539571791188e+17
19421.0	5.2806322207675725e+17
19422.0	5.277465194790911e+17
19423.0	5.274300842683051e+17
19424.0	5.2707862144614394e+17
19425.0	5.266930839584767e+17
19426.0	5.2629213806591994e+17
19427.0	5.258222808771242e+17
19428.0	5.2533401614636365e+17
19429.0	5.24785241030656e+17
19430.0	5.2402307119185926e+17
19431.0	5.2291233078313e+17
19432.0	5.227267225550848e+17
19433.0	5.218596156342273e+17
19434.0	5.2081621631412934e+17
19435.0	5.1956652245865805e+17
19436.0	5.1835199553535974e+17
19437.0	5.174788941152255e+17
19438.0	5.101298749800454e+17
19439.0	5.1439584705249274e+17
19440.0	5.131781545481557e+17
19441.0	5.111437117270697e+17
19442.0	5.085770748526589e+17
19443.0	5.056142218625024e+17
19444.0	5.020282599243774e+17
19445.0	4.979323166872918e+17
19446.0	4.929343662150999e+17
19447.0	4.863741700429137e+17
19448.0	4.769377547190277e+17
19449.0	4.6235262165975046e+17
19450.0	4.3169981839442e+17
19451.0	4.0834926483866086e+17
19452.0	4.5055324898809197e+17
19453.0	4.70489006097477e+17
19454.0	4.816994800325969e+17
19455.0	4.89333463956411e+17
19456.0	4.947595144549715e+17
19457.0	4.989043467091963e+17
19458.0	4.842673494731739e+17
19459.0	5.0499344655537824e+17
19460.0	5.082980831024469e+17
19461.0	5.104283725507241e+17
19462.0	5.121360766435329e+17
19463.0	5.135210405778772e+17
19464.0	5.1464490803964576e+17
19465.0	5.155853189513215e+17
19466.0	5.1639932717192506e+17
19467.0	5.1734042804660896e+17
19468.0	5.1821302733864934e+17
19469.0	5.1887213585803904e+17
19470.0	5.196040640659456e+17
19471.0	5.201308360725844e+17
19472.0	5.20561411227648e+17
19473.0	5.209295432624811e+17
19474.0	5.211949570020692e+17
19475.0	5.214421417372329e+17
19476.0	5.2178464566586016e+17
19477.0	5.2198327385238176e+17
19478.0	5.22172918608691e+17
19479.0	5.2222734403720506e+17
19480.0	5.2242598054242976e+17
19481.0	5.225406664452777e+17
19482.0	5.226412751454207e+17
19483.0	5.227487000089941e+17
19484.0	5.228768921299625e+17
19485.0	5.229515783536639e+17
19486.0	5.2294634421179757e+17
19487.0	5.230996758724607e+17
19488.0	5.231375260407124e+17
19489.0	5.2314362218195616e+17
19490.0	5.2302622969473683e+17
19491.0	5.2318642372607994e+17
19492.0	5.2320833847514445e+17
19493.0	5.2319467224432634e+17
19494.0	5.231737441353728e+17
19495.0	5.2315938682306554e+17
19496.0	5.230776216627881e+17
19497.0	5.230663625430356e+17
19498.0	5.2239670716661754e+17
19499.0	5.177596960571366e+17
19500.0	5.229309395118762e+17
19501.0	5.2294066470475085e+17
19502.0	5.229024916449961e+17
19503.0	5.228581932935849e+17
19504.0	5.228067797248683e+17
19505.0	5.2275311115851085e+17
19506.0	5.227002789363711e+17
19507.0	5.226357018241706e+17
19508.0	5.2257235664895994e+17
19509.0	5.224948342368938e+17
19510.0	5.223223219541331e+17
19511.0	5.111441630341708e+17
19512.0	5.212775570385565e+17
19513.0	5.206725830027925e+17
19514.0	5.209892881869469e+17
19515.0	5.220057098835285e+17
19516.0	5.2201393036984314e+17
19517.0	5.219607548439209e+17
19518.0	5.218727149349545e+17
19519.0	5.2179506326842003e+17
19520.0	5.2165776657175866e+17
19521.0	5.216823817535487e+17
19522.0	5.215911907338921e+17
19523.0	5.215063839342592e+17
19524.0	5.213844836887212e+17
19525.0	5.213700287190357e+17
19526.0	5.212937702604798e+17
19527.0	5.2121779079304525e+17
19528.0	5.2113151745501856e+17
19529.0	5.21045385744657e+17
19530.0	5.209762725625856e+17
19531.0	5.2089374851290445e+17
19532.0	5.2081079699374074e+17
19533.0	5.207274333143039e+17
19534.0	5.206433851244543e+17
19535.0	5.2055822320708256e+17
19536.0	5.204752119889919e+17
19537.0	5.203931105154389e+17
19538.0	5.202074200790357e+17
19539.0	5.2016281148893875e+17
19540.0	5.201346303098879e+17
19541.0	5.200317476678315e+17
19542.0	5.1995671087022074e+17
19543.0	5.197890002965845e+17
19544.0	5.197857837547519e+17
19545.0	5.1964349017402003e+17
19546.0	5.195202890650966e+17
19547.0	5.195342185583957e+17
19548.0	5.194486411952126e+17
19549.0	5.19352611836177e+17
19550.0	5.192770195030015e+17
19551.0	5.191893666583892e+17
19552.0	5.1910108173216403e+17
19553.0	5.190100140250453e+17
19554.0	5.1891979433629005e+17
19555.0	5.1882362502731085e+17
19556.0	5.187393330085887e+17
19557.0	5.186568722928981e+17
19558.0	5.18569041400081e+17
19559.0	5.184806890154665e+17
19560.0	5.183563446790825e+17
19561.0	5.182992293735081e+17
19562.0	5.1818018069544954e+17
19563.0	5.18124064403183e+17
19564.0	5.1803459857066656e+17
19565.0	5.179450080974164e+17
19566.0	5.1785203051397114e+17
19567.0	5.1776540981766816e+17
19568.0	5.176731068181162e+17
19569.0	5.1758345461869216e+17
19570.0	5.174950271560362e+17
19571.0	5.174051012083711e+17
19572.0	5.173117823483903e+17
19573.0	5.1721293141114874e+17
19574.0	5.171206531579903e+17
19575.0	5.1704585270941005e+17
19576.0	5.169490072087209e+17
19577.0	5.1684741074998605e+17
19578.0	5.167720279222953e+17
19579.0	5.166831214002175e+17
19580.0	5.1659293750285645e+17
19581.0	5.165039698837504e+17
19582.0	5.16415350182161e+17
19583.0	5.16324808790289e+17
19584.0	5.162324820929194e+17
19585.0	5.161292476885674e+17
19586.0	5.160325124281685e+17
19587.0	5.1594975021192525e+17
19588.0	5.1581758328886605e+17
19589.0	5.157760252859732e+17
19590.0	5.156737282386602e+17
19591.0	5.1559823572991994e+17
19592.0	5.1550856954948256e+17
19593.0	5.1540705369128954e+17
19594.0	5.15288784314914e+17
19595.0	5.152336503985493e+17
19596.0	5.1511977245846176e+17
19597.0	5.1505274489405434e+17
19598.0	5.149048575098879e+17
19599.0	5.1487157493869216e+17
19600.0	5.147823114114389e+17
19601.0	5.146832897660245e+17
19602.0	5.1458963543162874e+17
19603.0	5.1443616445016723e+17
19604.0	5.14403025813504e+17
19605.0	5.1429234169610234e+17
19606.0	5.1423587482992634e+17
19607.0	5.14146501342003e+17
19608.0	5.1405375815024634e+17
19609.0	5.139588953669632e+17
19610.0	5.1383079789745485e+17
19611.0	5.137198734464341e+17
19612.0	5.136921549690196e+17
19613.0	5.1359990516722336e+17
19614.0	5.1350532144496634e+17
19615.0	5.1341682533553485e+17
19616.0	5.132559943991296e+17
19617.0	5.1317103590550176e+17
19618.0	5.130684542047572e+17
19619.0	5.129527351050238e+17
19620.0	5.128622628492627e+17
19621.0	5.1278155891780256e+17
19622.0	5.1278106433945594e+17
19623.0	5.1268507860118176e+17
19624.0	5.1258323845338445e+17
19625.0	5.1250626395723085e+17
19626.0	5.1241238313041914e+17
19627.0	5.1231303880321696e+17
19628.0	5.121687578913451e+17
19629.0	5.1186805796154e+17
19630.0	5.115617980623528e+17
19631.0	5.098940831629314e+17
19632.0	5.1177360726862496e+17
19633.0	5.1174479037289805e+17
19634.0	5.116801102206293e+17
19635.0	5.115800251094355e+17
19636.0	5.114066151757139e+17
19637.0	5.1128224357635405e+17
19638.0	5.113184852989268e+17
19639.0	5.112355255309653e+17
19640.0	5.1113077062150816e+17
19641.0	5.1091097357298374e+17
19642.0	5.109568846342826e+17
19643.0	5.1086579931108685e+17
19644.0	5.1077535117257376e+17
19645.0	5.106633722036223e+17
19646.0	5.104968258289661e+17
19647.0	5.1051139523324576e+17
19648.0	5.10422394479138e+17
19649.0	5.1033151474674336e+17
19650.0	5.10241572860723e+17
19651.0	5.101504387437909e+17
19652.0	5.1005970665089696e+17
19653.0	5.09968458518801e+17
19654.0	5.0987852383300256e+17
19655.0	5.0978752085797536e+17
19656.0	5.096975922539177e+17
