# Flux units: erg / (cm m2 s)
# Wavelength units: Angstrom
wave	flux
19000.0	5.5570242455906976e+17
19001.0	5.5559440046926496e+17
19002.0	5.555052500484094e+17
19003.0	5.554054909744468e+17
19004.0	5.553066614281556e+17
19005.0	5.552051268354047e+17
19006.0	5.5510651714054816e+17
19007.0	5.55007841874739e+17
19008.0	5.5490681101789856e+17
19009.0	5.5480093678851405e+17
19010.0	5.547029911917909e+17
19011.0	5.5460735309141325e+17
19012.0	5.545006472713556e+17
19013.0	5.5441490458269005e+17
19014.0	5.543132108161024e+17
19015.0	5.542151428156073e+17
19016.0	5.541202478060883e+17
19017.0	5.540223463194623e+17
19018.0	5.53922776338705e+17
19019.0	5.538243202252799e+17
19020.0	5.537249628258303e+17
19021.0	5.536272927948799e+17
19022.0	5.5352814853597856e+17
19023.0	5.5342469267237536e+17
19024.0	5.5332399162763936e+17
19025.0	5.5322887355105274e+17
19026.0	5.531289637617664e+17
19027.0	5.530311546896383e+17
19028.0	5.5293218561283386e+17
19029.0	5.5283203751717536e+17
19030.0	5.527339125440511e+17
19031.0	5.526337757031083e+17
19032.0	5.5253030991298554e+17
19033.0	5.524141630641492e+17
19034.0	5.52298199855923e+17
19035.0	5.5212392058279245e+17
19036.0	5.5188329874500256e+17
19037.0	5.5193959427386016e+17
19038.0	5.519064891916287e+17
19039.0	5.5183197500429645e+17
19040.0	5.5174222780388685e+17
19041.0	5.5164805372532045e+17
19042.0	5.5141737539392826e+17
19043.0	5.5145634446267725e+17
19044.0	5.5135802522337274e+17
19045.0	5.5125826838637216e+17
19046.0	5.5115886282233165e+17
19047.0	5.5105885698348365e+17
19048.0	5.509382317364564e+17
19049.0	5.5058276153644326e+17
19050.0	5.5074541468822176e+17
19051.0	5.5063073081262074e+17
19052.0	5.505424512690858e+17
19053.0	5.5046026479097165e+17
19054.0	5.503704023171071e+17
19055.0	5.502194374322858e+17
19056.0	5.501676095362388e+17
19057.0	5.500845925859326e+17
19058.0	5.498502482231292e+17
19059.0	5.4983866719054496e+17
19060.0	5.497930409923924e+17
19061.0	5.496943773308244e+17
19062.0	5.495965565146452e+17
19063.0	5.4949927256937805e+17
19064.0	5.493991359381504e+17
19065.0	5.492944159812266e+17
19066.0	5.491530512291156e+17
19067.0	5.4910668082162336e+17
19068.0	5.4901151751645856e+17
19069.0	5.48913871393041e+17
19070.0	5.488137488127315e+17
19071.0	5.4871678531229005e+17
19072.0	5.485701912417621e+17
19073.0	5.4852313471604045e+17
19074.0	5.4842453753419085e+17
19075.0	5.483275920692564e+17
19076.0	5.482292635325779e+17
19077.0	5.4813132681379834e+17
19078.0	5.480319191526057e+17
19079.0	5.4793570363637754e+17
19080.0	5.478379818057726e+17
19081.0	5.4773680470753274e+17
19082.0	5.4764336889637536e+17
19083.0	5.4753902265193805e+17
19084.0	5.474311710179326e+17
19085.0	5.473488409548115e+17
19086.0	5.471513933250558e+17
19087.0	5.470380045806249e+17
19088.0	5.469804097262931e+17
19089.0	5.4694599357453645e+17
19090.0	5.46860539453986e+17
19091.0	5.467559307859285e+17
19092.0	5.465568677898925e+17
19093.0	5.465711075917823e+17
19094.0	5.46474371772143e+17
19095.0	5.463766746180266e+17
19096.0	5.462798398128126e+17
19097.0	5.461829601984512e+17
19098.0	5.4602875989742925e+17
19099.0	5.459194575235754e+17
19100.0	5.4588789314901325e+17
19101.0	5.4579123660171936e+17
19102.0	5.456934561906687e+17
19103.0	5.455975056146431e+17
19104.0	5.4550175965074765e+17
19105.0	5.452801759685293e+17
19106.0	5.453053376681301e+17
19107.0	5.451776539667113e+17
19108.0	5.450622880972799e+17
19109.0	5.45011805524241e+17
19110.0	5.449154957060777e+17
19111.0	5.4478299407755936e+17
19112.0	5.44679356740403e+17
19113.0	5.4462585412867405e+17
19114.0	5.4450201954003616e+17
19115.0	5.444229803977386e+17
19116.0	5.443269439782911e+17
19117.0	5.4421977042343245e+17
19118.0	5.4405151493980154e+17
19119.0	5.436793829370536e+17
19120.0	5.438893601412436e+17
19121.0	5.43834130804463e+17
19122.0	5.4374761706291194e+17
19123.0	5.4365357685254816e+17
19124.0	5.4354989309842765e+17
19125.0	5.4345613474529274e+17
19126.0	5.43351355019537e+17
19127.0	5.432414850864468e+17
19128.0	5.43156901843217e+17
19129.0	5.430647654973439e+17
19130.0	5.429781320084138e+17
19131.0	5.4288492590530554e+17
19132.0	5.427893951092054e+17
19133.0	5.4269103085103776e+17
19134.0	5.425971260467881e+17
19135.0	5.4250094352575136e+17
19136.0	5.4240443161204045e+17
19137.0	5.423064560260436e+17
19138.0	5.422111482271062e+17
19139.0	5.4211588873256954e+17
19140.0	5.420197125728938e+17
19141.0	5.4192327259149645e+17
19142.0	5.418250168259926e+17
19143.0	5.417298094107306e+17
19144.0	5.4163139440148474e+17
19145.0	5.4153750497634976e+17
19146.0	5.413922037301247e+17
19147.0	5.4134396958365005e+17
19148.0	5.4120512609757875e+17
19149.0	5.4110028870014285e+17
19150.0	5.410566824787967e+17
19151.0	5.4095980286443514e+17
19152.0	5.4086227516020045e+17
19153.0	5.4067198392183443e+17
19154.0	5.40661397987874e+17
19155.0	5.405729515809449e+17
19156.0	5.4047692753469434e+17
19157.0	5.403509526626305e+17
19158.0	5.402171597477205e+17
19159.0	5.4018617006271136e+17
19160.0	5.400892630455636e+17
19161.0	5.399919939201706e+17
19162.0	5.398938645430271e+17
19163.0	5.3979944684530336e+17
19164.0	5.3970479636370765e+17
19165.0	5.3950887315374054e+17
19166.0	5.3951246173033805e+17
19167.0	5.3941900285050874e+17
19168.0	5.393247663467177e+17
19169.0	5.392292544948906e+17
19170.0	5.3913408447883936e+17
19171.0	5.390376842734249e+17
19172.0	5.389421921348266e+17
19173.0	5.388469498369365e+17
19174.0	5.38750560187187e+17
19175.0	5.386550481256447e+17
19176.0	5.3855926748883616e+17
19177.0	5.3845175559345485e+17
19178.0	5.383667401971028e+17
19179.0	5.3827142624651936e+17
19180.0	5.38173874844467e+17
19181.0	5.380764650001749e+17
19182.0	5.379800687793492e+17
19183.0	5.3788706952533325e+17
19184.0	5.37791767388706e+17
19185.0	5.3769472936946336e+17
19186.0	5.375988751925247e+17
19187.0	5.374973414386347e+17
19188.0	5.3740535447988896e+17
19189.0	5.373075955296938e+17
19190.0	5.372102929197738e+17
19191.0	5.371095776144042e+17
19192.0	5.37012093391121e+17
19193.0	5.3689852939468794e+17
19194.0	5.367887620123306e+17
19195.0	5.36706730304034e+17
19196.0	5.3660020427980794e+17
19197.0	5.3649231699421856e+17
19198.0	5.3638005064553805e+17
19199.0	5.3625944881670816e+17
19200.0	5.3616839718775456e+17
19201.0	5.3609512626203296e+17
19202.0	5.3601730535533216e+17
19203.0	5.3593274399238816e+17
19204.0	5.3584953759935136e+17
19205.0	5.3576122072651085e+17
19206.0	5.356720403862868e+17
19207.0	5.3557199428212045e+17
19208.0	5.354869694485844e+17
19209.0	5.3539715555874125e+17
19210.0	5.3530519712126285e+17
19211.0	5.35213928227362e+17
19212.0	5.351198747350356e+17
19213.0	5.350188442277205e+17
19214.0	5.3492902250850976e+17
19215.0	5.348360640790526e+17
19216.0	5.347409080440147e+17
19217.0	5.346433100851881e+17
19218.0	5.345440935444479e+17
19219.0	5.344419521058132e+17
19220.0	5.343593215208106e+17
19221.0	5.342665961548458e+17
19222.0	5.341743317428906e+17
19223.0	5.3408011173669536e+17
19224.0	5.339842981046954e+17
19225.0	5.3389339537353376e+17
19226.0	5.3379863584003405e+17
19227.0	5.337047699030015e+17
19228.0	5.336128769665706e+17
19229.0	5.335173727343957e+17
19230.0	5.3342322046621e+17
19231.0	5.3332841346717005e+17
19232.0	5.332348473529683e+17
19233.0	5.3313648190641485e+17
19234.0	5.330457828087124e+17
19235.0	5.329485126347434e+17
19236.0	5.328571869080234e+17
19237.0	5.3276163814632083e+17
19238.0	5.3266343236293965e+17
19239.0	5.3257398680289274e+17
19240.0	5.324786581023402e+17
19241.0	5.3238400629254816e+17
19242.0	5.322893062482602e+17
19243.0	5.3218415336925856e+17
19244.0	5.32102307258914e+17
19245.0	5.320077626834943e+17
19246.0	5.319137157622442e+17
19247.0	5.3181874169009485e+17
19248.0	5.31724956143889e+17
19249.0	5.3162632282112006e+17
19250.0	5.3151443661619194e+17
19251.0	5.314159242291881e+17
19252.0	5.3132351497393485e+17
19253.0	5.3125202851485005e+17
19254.0	5.3115938941173754e+17
19255.0	5.310491600267945e+17
19256.0	5.30969648046626e+17
19257.0	5.3087572835259725e+17
19258.0	5.3078038951581005e+17
19259.0	5.3067751882752006e+17
19260.0	5.3057868026347514e+17
19261.0	5.304929939881983e+17
19262.0	5.3039375032429216e+17
19263.0	5.3029817171312634e+17
19264.0	5.302013662680404e+17
19265.0	5.301085701581481e+17
19266.0	5.300139795152896e+17
19267.0	5.2993036935058765e+17
19268.0	5.2983751927398406e+17
19269.0	5.29743993704721e+17
19270.0	5.2964790667400525e+17
19271.0	5.2955180454379514e+17
19272.0	5.294612254031871e+17
19273.0	5.293566370775039e+17
19274.0	5.292450458719572e+17
19275.0	5.29182425822003e+17
19276.0	5.290867762571947e+17
19277.0	5.28993507938577e+17
19278.0	5.288962616022358e+17
19279.0	5.288031885983743e+17
19280.0	5.28709592355089e+17
19281.0	5.2861510307457696e+17
19282.0	5.2852172213889696e+17
19283.0	5.28425830912273e+17
19284.0	5.283271197851647e+17
19285.0	5.2822708682315085e+17
19286.0	5.281193555656702e+17
19287.0	5.279943569877673e+17
19288.0	5.277845374195028e+17
19289.0	5.276654433031508e+17
19290.0	5.277062136157525e+17
19291.0	5.276321990399317e+17
19292.0	5.275725247195819e+17
19293.0	5.274859278609066e+17
19294.0	5.273935608982186e+17
19295.0	5.2730404815940256e+17
19296.0	5.2714863996873395e+17
19297.0	5.271063827753642e+17
19298.0	5.270226561488212e+17
19299.0	5.2686162731117216e+17
19300.0	5.268368856711167e+17
19301.0	5.2674418239515296e+17
19302.0	5.2664935701108045e+17
19303.0	5.2655214297087994e+17
19304.0	5.2646160605293216e+17
19305.0	5.263660990245545e+17
19306.0	5.2627156444555936e+17
19307.0	5.2617280019060045e+17
19308.0	5.2607753035011405e+17
19309.0	5.2597933330486605e+17
19310.0	5.258783947926186e+17
19311.0	5.2577153105701536e+17
19312.0	5.2564764998150816e+17
19313.0	5.2543280549724154e+17
19314.0	5.2382098871637357e+17
19315.0	5.2378613628709574e+17
19316.0	5.250770810525014e+17
19317.0	5.2518150041763834e+17
19318.0	5.2512219344841376e+17
19319.0	5.2504350970347514e+17
19320.0	5.249322014736383e+17
19321.0	5.248106664820736e+17
19322.0	5.247753330360319e+17
19323.0	5.246830963763881e+17
19324.0	5.245903618528596e+17
19325.0	5.244984108253183e+17
19326.0	5.244062344937472e+17
19327.0	5.2431299176038394e+17
19328.0	5.24109292170991e+17
19329.0	5.241274078593024e+17
19330.0	5.240341874256553e+17
19331.0	5.239378720849919e+17
19332.0	5.2384793802833914e+17
19333.0	5.237530746159103e+17
19334.0	5.236579912122366e+17
19335.0	5.233419571167235e+17
19336.0	5.2347178718330874e+17
19337.0	5.2337960819534483e+17
19338.0	5.232695133077504e+17
19339.0	5.231887454131541e+17
19340.0	5.2308621830826656e+17
19341.0	5.229102325825537e+17
19342.0	5.228737586353494e+17
19343.0	5.228035987647145e+17
19344.0	5.2261713077425504e+17
19345.0	5.225454468333568e+17
19346.0	5.224893019499178e+17
19347.0	5.2231531872474445e+17
19348.0	5.2233754923499514e+17
19349.0	5.222461043900415e+17
19350.0	5.2211338850249376e+17
19351.0	5.220609048270164e+17
19352.0	5.218550106379602e+17
19353.0	5.218792550432767e+17
19354.0	5.2178593226861216e+17
19355.0	5.216842670232917e+17
19356.0	5.2159777369402016e+17
19357.0	5.2150386504499194e+17
19358.0	5.2140895241939616e+17
19359.0	5.2128937784552083e+17
19360.0	5.2113065699355296e+17
19361.0	5.211259098802858e+17
19362.0	5.210313467101183e+17
19363.0	5.2093706665547085e+17
19364.0	5.208423172582058e+17
19365.0	5.207471326319956e+17
19366.0	5.206515587743743e+17
19367.0	5.205565067580756e+17
19368.0	5.2046149290994336e+17
19369.0	5.203643284324351e+17
19370.0	5.2026895135757645e+17
19371.0	5.2017000646792525e+17
19372.0	5.200776306971988e+17
19373.0	5.1998062238760954e+17
19374.0	5.198843461238783e+17
19375.0	5.197889607303167e+17
19376.0	5.196922990100479e+17
19377.0	5.1959476606293325e+17
19378.0	5.194976070380202e+17
19379.0	5.194002997444607e+17
19380.0	5.1930133465224525e+17
19381.0	5.1920261891140256e+17
19382.0	5.190984566571007e+17
19383.0	5.1900328419437216e+17
19384.0	5.189052193396053e+17
19385.0	5.188057027663189e+17
19386.0	5.1870472741410125e+17
19387.0	5.186008928048468e+17
19388.0	5.1849291981564576e+17
19389.0	5.1837480311193594e+17
19390.0	5.1822214505649485e+17
19391.0	5.179691339437396e+17
19392.0	5.179626039017472e+17
19393.0	5.179475457911466e+17
19394.0	5.178709691946324e+17
19395.0	5.177451583198549e+17
19396.0	5.176697585751381e+17
19397.0	5.175720798759594e+17
19398.0	5.174324850502313e+17
19399.0	5.173127961815722e+17
19400.0	5.1721850123714554e+17
19401.0	5.1714230820973216e+17
19402.0	5.1703530760000845e+17
19403.0	5.1692272877567994e+17
19404.0	5.1681034274952525e+17
19405.0	5.166929067813547e+17
19406.0	5.1657567619426976e+17
19407.0	5.164161431852372e+17
19408.0	5.163263606128638e+17
19409.0	5.162081633086122e+17
19410.0	5.160902045204479e+17
19411.0	5.159653962241364e+17
19412.0	5.158361812522325e+17
19413.0	5.15665833230336e+17
19414.0	5.1556975332993696e+17
19415.0	5.1543074619610445e+17
19416.0	5.1527808184920736e+17
19417.0	5.1514222869217274e+17
19418.0	5.1499029135796896e+17
19419.0	5.1483250968057165e+17
19420.0	5.14670320418816e+17
19421.0	5.145019595183444e+17
19422.0	5.143216219925162e+17
19423.0	5.1413995990548474e+17
19424.0	5.1394832404316154e+17
19425.0	5.137464277947734e+17
19426.0	5.135314593688233e+17
19427.0	5.133025922078036e+17
19428.0	5.130576119988223e+17
19429.0	5.1280603142335136e+17
19430.0	5.1251884323416736e+17
19431.0	5.1221802907948365e+17
19432.0	5.119189308145664e+17
19433.0	5.1158291121001805e+17
19434.0	5.112061322679637e+17
19435.0	5.1080342078313805e+17
19436.0	5.1032968323399674e+17
19437.0	5.097585233275562e+17
19438.0	5.0891834684429645e+17
19439.0	5.085145674197674e+17
19440.0	5.08069317583394e+17
19441.0	5.073772579127294e+17
19442.0	5.065471864165717e+17
19443.0	5.056196075585535e+17
19444.0	5.0449391892998803e+17
19445.0	5.031866286822742e+17
19446.0	5.016200868965034e+17
19447.0	4.996732622471166e+17
19448.0	4.971853632940715e+17
19449.0	4.9374930983540045e+17
19450.0	4.877074739232764e+17
19451.0	4.823049155816109e+17
19452.0	4.9119279164948486e+17
19453.0	4.952958977791317e+17
19454.0	4.979805432840191e+17
19455.0	4.9993395368973645e+17
19456.0	5.014394195585706e+17
19457.0	5.0232814427176954e+17
19458.0	4.991946867780284e+17
19459.0	5.029846649754971e+17
19460.0	5.0513872403387725e+17
19461.0	5.0592663557461325e+17
19462.0	5.064944155710805e+17
19463.0	5.069410401604947e+17
19464.0	5.0733334823348896e+17
19465.0	5.07666283626496e+17
19466.0	5.0794713897588045e+17
19467.0	5.0817396246227616e+17
19468.0	5.083707119501311e+17
19469.0	5.0846399725567974e+17
19470.0	5.0868241095284045e+17
19471.0	5.088036382223017e+17
19472.0	5.0890126015856634e+17
19473.0	5.0897701040728736e+17
19474.0	5.089539474675027e+17
19475.0	5.090653129495892e+17
19476.0	5.091189271298046e+17
19477.0	5.0914953911773856e+17
19478.0	5.091675581273428e+17
19479.0	5.0909777909951123e+17
19480.0	5.091712626065407e+17
19481.0	5.0916191504083616e+17
19482.0	5.0914696598213965e+17
19483.0	5.091271714537471e+17
19484.0	5.0909904109567994e+17
19485.0	5.0906605799778976e+17
19486.0	5.08947334098671e+17
19487.0	5.089842054561791e+17
19488.0	5.0893513922969594e+17
19489.0	5.0887475467386874e+17
19490.0	5.088165597544447e+17
19491.0	5.08774437617664e+17
19492.0	5.087277208305662e+17
19493.0	5.086687012410708e+17
19494.0	5.086041436323839e+17
19495.0	5.085298644658857e+17
19496.0	5.084384024941908e+17
19497.0	5.083287969420628e+17
19498.0	5.081052527023445e+17
19499.0	5.079166489722879e+17
19500.0	5.0808996453416954e+17
19501.0	5.080963551854591e+17
19502.0	5.0805216399851514e+17
19503.0	5.079908584434345e+17
19504.0	5.079206446060883e+17
19505.0	5.0784360188258976e+17
19506.0	5.0776802723539616e+17
19507.0	5.0768180346006176e+17
19508.0	5.075855527815851e+17
19509.0	5.0745376858876576e+17
19510.0	5.071183152851625e+17
19511.0	5.052867123609596e+17
19512.0	5.067611929488041e+17
19513.0	5.0695332674491725e+17
19514.0	5.0695180379313485e+17
19515.0	5.069974106275838e+17
19516.0	5.069480535960235e+17
19517.0	5.0689905189191674e+17
19518.0	5.068049505845247e+17
19519.0	5.067279066726398e+17
19520.0	5.0659090259858746e+17
19521.0	5.065962209061546e+17
19522.0	5.064991889686527e+17
19523.0	5.0641142392640845e+17
19524.0	5.0628733900772704e+17
19525.0	5.062660000666966e+17
19526.0	5.0618540784353274e+17
19527.0	5.061015140040703e+17
19528.0	5.0601070082129914e+17
19529.0	5.05922761785344e+17
19530.0	5.0585020906427725e+17
19531.0	5.057654454659753e+17
19532.0	5.0568139371096736e+17
19533.0	5.0559587800405325e+17
19534.0	5.0551137417297914e+17
19535.0	5.0542400409436154e+17
19536.0	5.0533596062023674e+17
19537.0	5.052500770029568e+17
19538.0	5.0508354342092806e+17
19539.0	5.050733211331241e+17
19540.0	5.049908746081619e+17
19541.0	5.048894540305749e+17
19542.0	5.048141571861162e+17
19543.0	5.046514730663935e+17
19544.0	5.046389054636032e+17
19545.0	5.045467453500074e+17
19546.0	5.0446186109556045e+17
19547.0	5.0438693817330336e+17
19548.0	5.0430593686568954e+17
19549.0	5.0421366441465165e+17
19550.0	5.041366797822633e+17
19551.0	5.040515261136896e+17
19552.0	5.039650644514132e+17
19553.0	5.038788259261098e+17
19554.0	5.0379131352077645e+17
19555.0	5.03694770569216e+17
19556.0	5.036125461326506e+17
19557.0	5.0353229700355405e+17
19558.0	5.0344680226815994e+17
19559.0	5.033607341015039e+17
19560.0	5.032419449110527e+17
19561.0	5.0318512278732794e+17
19562.0	5.0307040507767443e+17
19563.0	5.0301413527388154e+17
19564.0	5.029260734846292e+17
19565.0	5.028401989550079e+17
19566.0	5.0275205999056205e+17
19567.0	5.026669367306922e+17
19568.0	5.025784927704404e+17
19569.0	5.024923562366292e+17
19570.0	5.02405504573986e+17
19571.0	5.0231892910626125e+17
19572.0	5.0223001181880314e+17
19573.0	5.02134752743697e+17
19574.0	5.0204745270995616e+17
19575.0	5.0197201598545914e+17
19576.0	5.018788820243796e+17
19577.0	5.017799803360596e+17
19578.0	5.0171014517445965e+17
19579.0	5.016213502907732e+17
19580.0	5.015345460936704e+17
19581.0	5.0144882451633485e+17
19582.0	5.013626577136298e+17
19583.0	5.0127568707256314e+17
19584.0	5.011874408737451e+17
19585.0	5.0109154342557e+17
19586.0	5.010020579497301e+17
19587.0	5.009231175133866e+17
19588.0	5.0083215892807674e+17
19589.0	5.0074690396706125e+17
19590.0	5.006582985261055e+17
19591.0	5.005770591218346e+17
19592.0	5.0049196466285216e+17
19593.0	5.003958414213118e+17
19594.0	5.0029089252529485e+17
19595.0	5.002298667302911e+17
19596.0	5.001411411924308e+17
19597.0	5.0005267570141856e+17
19598.0	4.999488549333674e+17
19599.0	4.9987724704918176e+17
19600.0	4.9979368455973536e+17
19601.0	4.997041133802836e+17
19602.0	4.996163038085119e+17
19603.0	4.9952771535448736e+17
19604.0	4.994410482412202e+17
19605.0	4.9934477211729914e+17
19606.0	4.9927275458942285e+17
19607.0	4.9918794415472634e+17
19608.0	4.990997323492009e+17
19609.0	4.990124778935637e+17
19610.0	4.988893056554325e+17
19611.0	4.9878293880504314e+17
19612.0	4.987540864674475e+17
19613.0	4.9866504083428685e+17
19614.0	4.9857562463436794e+17
19615.0	4.984895504558762e+17
19616.0	4.98360722128896e+17
19617.0	4.982488740222293e+17
19618.0	4.982033437338281e+17
19619.0	4.981058924358314e+17
19620.0	4.980156103218515e+17
19621.0	4.9787635824066554e+17
19622.0	4.978775578815146e+17
19623.0	4.9778752323147085e+17
19624.0	4.9769097273016314e+17
19625.0	4.976164929361236e+17
19626.0	4.975258038348458e+17
19627.0	4.974340751753215e+17
19628.0	4.9733756941325645e+17
19629.0	4.970371519698259e+17
19630.0	4.971332606711124e+17
19631.0	4.9703060291365536e+17
19632.0	4.9697344615437645e+17
19633.0	4.968985401491455e+17
19634.0	4.9682678210887674e+17
19635.0	4.9673554096728723e+17
19636.0	4.965721114498387e+17
19637.0	4.964652863018324e+17
19638.0	4.964892682136232e+17
19639.0	4.964065386430464e+17
19640.0	4.962989248260778e+17
19641.0	4.9619770375755085e+17
19642.0	4.961397725200384e+17
19643.0	4.9605853024965965e+17
19644.0	4.9597749601675936e+17
19645.0	4.958935731666943e+17
19646.0	4.9571232561670803e+17
19647.0	4.9572335607698765e+17
19648.0	4.956403816988671e+17
19649.0	4.955542762029055e+17
19650.0	4.9546906772875936e+17
19651.0	4.953825523094868e+17
19652.0	4.952965478962517e+17
19653.0	4.9521062149707085e+17
19654.0	4.9512459149858125e+17
19655.0	4.950383412292266e+17
