# Flux units: erg / (cm m2 s)
# Wavelength units: Angstrom
wave	flux
19000.0	8.476460023720616e+17
19001.0	8.474607493316607e+17
19002.0	8.473580404735999e+17
19003.0	8.472114952667135e+17
19004.0	8.470673373178536e+17
19005.0	8.469195884855293e+17
19006.0	8.467730815866195e+17
19007.0	8.466247329688234e+17
19008.0	8.464589890344275e+17
19009.0	8.462867166658557e+17
19010.0	8.46029571437363e+17
19011.0	8.460280602296319e+17
19012.0	8.458485637316607e+17
19013.0	8.457428170790228e+17
19014.0	8.45568294466355e+17
19015.0	8.454323850357417e+17
19016.0	8.452862336740008e+17
19017.0	8.451429253513216e+17
19018.0	8.449986645022034e+17
19019.0	8.448495121159506e+17
19020.0	8.446953905979392e+17
19021.0	8.445554336639656e+17
19022.0	8.444059843209897e+17
19023.0	8.442386427762003e+17
19024.0	8.440997042192383e+17
19025.0	8.439550127549097e+17
19026.0	8.437987318693885e+17
19027.0	8.436457527399762e+17
19028.0	8.435047937867773e+17
19029.0	8.433480497102845e+17
19030.0	8.4320859455488e+17
19031.0	8.430600243380224e+17
19032.0	8.429077807497215e+17
19033.0	8.4271694914519e+17
19034.0	8.425935503447379e+17
19035.0	8.424128851738624e+17
19036.0	8.412215668026024e+17
19037.0	8.42124928168755e+17
19038.0	8.419832725416618e+17
19039.0	8.418414915048787e+17
19040.0	8.416922727088127e+17
19041.0	8.415364912250879e+17
19042.0	8.413478507249661e+17
19043.0	8.412328444471977e+17
19044.0	8.410759332975955e+17
19045.0	8.409266608144381e+17
19046.0	8.40749507813922e+17
19047.0	8.4060592420509e+17
19048.0	8.403936752260436e+17
19049.0	8.402792526555818e+17
19050.0	8.401325817593856e+17
19051.0	8.398642794026323e+17
19052.0	8.398524167924392e+17
19053.0	8.39749294515814e+17
19054.0	8.395959110554966e+17
19055.0	8.393341368532993e+17
19056.0	8.392771734514345e+17
19057.0	8.391307635807572e+17
19058.0	8.389718995632127e+17
19059.0	8.388211049671337e+17
19060.0	8.386831919174995e+17
19061.0	8.385769745241428e+17
19062.0	8.384182951957843e+17
19063.0	8.382631751538004e+17
19064.0	8.380584158035967e+17
19065.0	8.378713628475392e+17
19066.0	8.377672073740285e+17
19067.0	8.37633927492403e+17
19068.0	8.374822740426752e+17
19069.0	8.373264682319868e+17
19070.0	8.371582292459517e+17
19071.0	8.370104159611561e+17
19072.0	8.36856028524271e+17
19073.0	8.366966488869545e+17
19074.0	8.365430794791592e+17
19075.0	8.363856336956073e+17
19076.0	8.362215024710995e+17
19077.0	8.360648443778386e+17
19078.0	8.358970185307476e+17
19079.0	8.357536289783807e+17
19080.0	8.355901355677012e+17
19081.0	8.354187384105641e+17
19082.0	8.352660632283816e+17
19083.0	8.350648180058794e+17
19084.0	8.348523744111276e+17
19085.0	8.347979821176148e+17
19086.0	8.344676072772948e+17
19087.0	8.344677624665427e+17
19088.0	8.342871363026944e+17
19089.0	8.340759600868013e+17
19090.0	8.339929223746902e+17
19091.0	8.338386720915455e+17
19092.0	8.336631649359187e+17
19093.0	8.33531510067473e+17
19094.0	8.333742758166527e+17
19095.0	8.332160054329343e+17
19096.0	8.330517732655101e+17
19097.0	8.328960840564735e+17
19098.0	8.327359333662719e+17
19099.0	8.325757952589824e+17
19100.0	8.324151097950208e+17
19101.0	8.322560208229718e+17
19102.0	8.32064867655134e+17
19103.0	8.319341573439488e+17
19104.0	8.317771635665577e+17
19105.0	8.316143657112915e+17
19106.0	8.314516447515987e+17
19107.0	8.312857115142825e+17
19108.0	8.311267546628096e+17
19109.0	8.30891860776277e+17
19110.0	8.307915721714345e+17
19111.0	8.306487524851712e+17
19112.0	8.304899153111721e+17
19113.0	8.303285628130643e+17
19114.0	8.301652532527103e+17
19115.0	8.299865543715498e+17
19116.0	8.298334605978282e+17
19117.0	8.29670667076676e+17
19118.0	8.294802739167231e+17
19119.0	8.284626264347977e+17
19120.0	8.29175259795729e+17
19121.0	8.290262832906239e+17
19122.0	8.288190195215017e+17
19123.0	8.286533905110355e+17
19124.0	8.284835751657472e+17
19125.0	8.283244383786324e+17
19126.0	8.281449256626858e+17
19127.0	8.273887794735786e+17
19128.0	8.27782413366067e+17
19129.0	8.276351040968017e+17
19130.0	8.275066873708543e+17
19131.0	8.273505739778728e+17
19132.0	8.271852150805842e+17
19133.0	8.269791328468991e+17
19134.0	8.268439459550548e+17
19135.0	8.266964777216681e+17
19136.0	8.265333644547411e+17
19137.0	8.263167743710548e+17
19138.0	8.261993963541846e+17
19139.0	8.260430261299881e+17
19140.0	8.258805723474602e+17
19141.0	8.257164957887142e+17
19142.0	8.25541424980514e+17
19143.0	8.253671766753276e+17
19144.0	8.252033784785578e+17
19145.0	8.25055894306816e+17
19146.0	8.246417586563758e+17
19147.0	8.24698142545237e+17
19148.0	8.245609799963987e+17
19149.0	8.243945020588031e+17
19150.0	8.242297077148328e+17
19151.0	8.240636229233321e+17
19152.0	8.238979442802688e+17
19153.0	8.237240691283286e+17
19154.0	8.235243669902675e+17
19155.0	8.233985409460905e+17
19156.0	8.232321090060288e+17
19157.0	8.230557674635263e+17
19158.0	8.228590769755476e+17
19159.0	8.227208991255209e+17
19160.0	8.225581346848767e+17
19161.0	8.223861051665066e+17
19162.0	8.22104970895906e+17
19163.0	8.220357880883882e+17
19164.0	8.218967277567997e+17
19165.0	8.217277540685142e+17
19166.0	8.215271161812305e+17
19167.0	8.213851443036157e+17
19168.0	8.212199884106408e+17
19169.0	8.210550959199572e+17
19170.0	8.208935622279165e+17
19171.0	8.20720635967351e+17
19172.0	8.2055409958912e+17
19173.0	8.203888806417746e+17
19174.0	8.201995574487722e+17
19175.0	8.200504918846122e+17
19176.0	8.19879780496179e+17
19177.0	8.196497318696275e+17
19178.0	8.195389918980778e+17
19179.0	8.193662566181545e+17
19180.0	8.191966322535081e+17
19181.0	8.189979932317012e+17
19182.0	8.188533973975037e+17
19183.0	8.186913717136041e+17
19184.0	8.184682828354897e+17
19185.0	8.182646353952767e+17
19186.0	8.180995042486953e+17
19187.0	8.178909691860308e+17
19188.0	8.177551015586473e+17
19189.0	8.17583785771008e+17
19190.0	8.17410425819409e+17
19191.0	8.172245838987264e+17
19192.0	8.170469875602772e+17
19193.0	8.168644370497535e+17
19194.0	8.166833713228457e+17
19195.0	8.165119269098836e+17
19196.0	8.163229234626557e+17
19197.0	8.161324271228246e+17
19198.0	8.158816707979945e+17
19199.0	8.14997581280051e+17
19200.0	8.149604145736364e+17
19201.0	8.153706853127508e+17
19202.0	8.152659724162387e+17
19203.0	8.151099889068714e+17
19204.0	8.149381551226879e+17
19205.0	8.147690304394579e+17
19206.0	8.145954975427242e+17
19207.0	8.143807623200767e+17
19208.0	8.141869666009085e+17
19209.0	8.140711408959485e+17
19210.0	8.138969166381055e+17
19211.0	8.137268861250218e+17
19212.0	8.135477960551081e+17
19213.0	8.133336365705897e+17
19214.0	8.131526445236224e+17
19215.0	8.129572289642497e+17
19216.0	8.127291657814015e+17
19217.0	8.125375051027795e+17
19218.0	8.120924663797074e+17
19219.0	8.121049217848658e+17
19220.0	8.120004173452628e+17
19221.0	8.117283237571244e+17
19222.0	8.116396227559421e+17
19223.0	8.114640009560063e+17
19224.0	8.112703463052628e+17
19225.0	8.110629683112616e+17
19226.0	8.10918889914368e+17
19227.0	8.107375728088404e+17
19228.0	8.105684997155497e+17
19229.0	8.103854299501908e+17
19230.0	8.101986830385151e+17
19231.0	8.100121689107113e+17
19232.0	8.098306483814399e+17
19233.0	8.096196944636585e+17
19234.0	8.09456314438997e+17
19235.0	8.092622722345641e+17
19236.0	8.09093406479701e+17
19237.0	8.088038877954047e+17
19238.0	8.085469057253375e+17
19239.0	8.083967777439743e+17
19240.0	8.081971360038911e+17
19241.0	8.080060435136511e+17
19242.0	8.078248739078144e+17
19243.0	8.075647930859519e+17
19244.0	8.07455112176162e+17
19245.0	8.072620999529812e+17
19246.0	8.07068244255266e+17
19247.0	8.068780342465875e+17
19248.0	8.066917200472745e+17
19249.0	8.064987008335871e+17
19250.0	8.062977592786944e+17
19251.0	8.060639573093032e+17
19252.0	8.05774633660143e+17
19253.0	8.055432139156136e+17
19254.0	8.05356076094805e+17
19255.0	8.05076874978918e+17
19256.0	8.049534515718824e+17
19257.0	8.04767783714816e+17
19258.0	8.045712303805782e+17
19259.0	8.043400754364416e+17
19260.0	8.041074751351464e+17
19261.0	8.039204316861779e+17
19262.0	8.037001297832616e+17
19263.0	8.034932538474496e+17
19264.0	8.031402349385042e+17
19265.0	8.029907340055891e+17
19266.0	8.026603676936876e+17
19267.0	8.025071981428735e+17
19268.0	8.023004814508031e+17
19269.0	8.020953636274173e+17
19270.0	8.018855234371583e+17
19271.0	8.01570631590434e+17
19272.0	8.014558478903977e+17
19273.0	8.008487984431101e+17
19274.0	8.007196314959867e+17
19275.0	8.008491374826834e+17
19276.0	8.005524384295594e+17
19277.0	8.003029160689664e+17
19278.0	8.000942863548415e+17
19279.0	7.998697644228607e+17
19280.0	7.996401775891796e+17
19281.0	7.994500328718335e+17
19282.0	7.992416693562025e+17
19283.0	7.990187788686676e+17
19284.0	7.987800095850493e+17
19285.0	7.985425061423786e+17
19286.0	7.983514796425216e+17
19287.0	7.981487370534911e+17
19288.0	7.976134029344762e+17
19289.0	7.969927670180515e+17
19290.0	7.974008122594642e+17
19291.0	7.970717173809155e+17
19292.0	7.969572743981736e+17
19293.0	7.967306421720403e+17
19294.0	7.964998420660221e+17
19295.0	7.962765687783421e+17
19296.0	7.960436829847552e+17
19297.0	7.958041584467965e+17
19298.0	7.955691473993727e+17
19299.0	7.953474213904381e+17
19300.0	7.951114112598016e+17
19301.0	7.948733910788777e+17
19302.0	7.94629240083797e+17
19303.0	7.943671139794943e+17
19304.0	7.941429921841151e+17
19305.0	7.93903054926643e+17
19306.0	7.93661562421248e+17
19307.0	7.933444098446675e+17
19308.0	7.930252859452072e+17
19309.0	7.927601066672128e+17
19310.0	7.92487712347477e+17
19311.0	7.922648966583636e+17
19312.0	7.920228777678163e+17
19313.0	7.917697599100242e+17
19314.0	7.9102122931869e+17
19315.0	7.907928469493083e+17
19316.0	7.909842663156394e+17
19317.0	7.907185953254058e+17
19318.0	7.904496292899496e+17
19319.0	7.901862654465364e+17
19320.0	7.897947231136425e+17
19321.0	7.894427821408255e+17
19322.0	7.891396214827689e+17
19323.0	7.888722859130876e+17
19324.0	7.885983090824532e+17
19325.0	7.883065725900115e+17
19326.0	7.88025335698773e+17
19327.0	7.877305604330836e+17
19328.0	7.874381851481428e+17
19329.0	7.871391175715498e+17
19330.0	7.866714658177021e+17
19331.0	7.862626988763817e+17
19332.0	7.859722066941268e+17
19333.0	7.856554019651583e+17
19334.0	7.853471701139455e+17
19335.0	7.850305465789098e+17
19336.0	7.847113640990038e+17
19337.0	7.843884106601811e+17
19338.0	7.838407823370918e+17
19339.0	7.834161599479807e+17
19340.0	7.830660762129748e+17
19341.0	7.827338888740861e+17
19342.0	7.822907655498408e+17
19343.0	7.820641909254826e+17
19344.0	7.817097953061544e+17
19345.0	7.805708278606496e+17
19346.0	7.803214134334802e+17
19347.0	7.802562029114706e+17
19348.0	7.799244632446289e+17
19349.0	7.795533158547453e+17
19350.0	7.791938891677693e+17
19351.0	7.785730851995648e+17
19352.0	7.779459110622547e+17
19353.0	7.775696176807936e+17
19354.0	7.771760618023593e+17
19355.0	7.767412311763626e+17
19356.0	7.762710403306838e+17
19357.0	7.754141925375999e+17
19358.0	7.749976030795092e+17
19359.0	7.745655771845972e+17
19360.0	7.741478588994899e+17
19361.0	7.735410759303167e+17
19362.0	7.726782621592233e+17
19363.0	7.722415338902867e+17
19364.0	7.7179838777699e+17
19365.0	7.713470995409578e+17
19366.0	7.706462346980008e+17
19367.0	7.700420308063572e+17
19368.0	7.6955607105536e+17
19369.0	7.690593944382121e+17
19370.0	7.685657700160854e+17
19371.0	7.680933886252372e+17
19372.0	7.676168695534931e+17
19373.0	7.671018716572328e+17
19374.0	7.665914147941033e+17
19375.0	7.660688120654506e+17
19376.0	7.655267340648447e+17
19377.0	7.648795477846696e+17
19378.0	7.643197653472595e+17
19379.0	7.637503469158397e+17
19380.0	7.631713744191487e+17
19381.0	7.625796113924093e+17
19382.0	7.619550332496553e+17
19383.0	7.613423895795028e+17
19384.0	7.606189592412157e+17
19385.0	7.599738977954474e+17
19386.0	7.593344645464063e+17
19387.0	7.586825918305619e+17
19388.0	7.580203450630143e+17
19389.0	7.573234801879718e+17
19390.0	7.564436966823251e+17
19391.0	7.550571702299296e+17
19392.0	7.549814849929215e+17
19393.0	7.542586354259284e+17
19394.0	7.534109914737324e+17
19395.0	7.524200737319594e+17
19396.0	7.5160413564218e+17
19397.0	7.507664854581247e+17
19398.0	7.49896499846622e+17
19399.0	7.485984590878033e+17
19400.0	7.477625977744042e+17
19401.0	7.468540853835091e+17
19402.0	7.458894641102845e+17
19403.0	7.446395665514499e+17
19404.0	7.43486499533619e+17
19405.0	7.424170321248255e+17
19406.0	7.413191056643411e+17
19407.0	7.399478288624298e+17
19408.0	7.384874314891264e+17
19409.0	7.374744416419839e+17
19410.0	7.362941531717632e+17
19411.0	7.349458148786172e+17
19412.0	7.334085704460972e+17
19413.0	7.320851042358612e+17
19414.0	7.307011226075131e+17
19415.0	7.29231363268062e+17
19416.0	7.274832892089686e+17
19417.0	7.258323522945023e+17
19418.0	7.24248266993391e+17
19419.0	7.226020812466857e+17
19420.0	7.20900354945843e+17
19421.0	7.190778737939798e+17
19422.0	7.17224346264098e+17
19423.0	7.15330628493858e+17
19424.0	7.133294139277311e+17
19425.0	7.112107866718207e+17
19426.0	7.089447971586045e+17
19427.0	7.065863050668714e+17
19428.0	7.041384339647145e+17
19429.0	7.015798248483497e+17
19430.0	6.988925251179862e+17
19431.0	6.960035018047488e+17
19432.0	6.930585851964072e+17
19433.0	6.899022467257686e+17
19434.0	6.865698124289363e+17
19435.0	6.830342914004307e+17
19436.0	6.792324815607126e+17
19437.0	6.752827995761321e+17
19438.0	6.705337746849791e+17
19439.0	6.664574957431468e+17
19440.0	6.616370993867433e+17
19441.0	6.564307836512936e+17
19442.0	6.508273611396439e+17
19443.0	6.447979807025833e+17
19444.0	6.382641894916092e+17
19445.0	6.311771192513879e+17
19446.0	6.234550017458176e+17
19447.0	6.149828470549158e+17
19448.0	6.055891916117335e+17
19449.0	5.949811140329471e+17
19450.0	5.823569299417764e+17
19451.0	5.7542836356819635e+17
19452.0	5.889833261421908e+17
19453.0	6.001919162056708e+17
19454.0	6.099049125336401e+17
19455.0	6.185724706204329e+17
19456.0	6.264130644213761e+17
19457.0	6.335675118212434e+17
19458.0	6.397983918653444e+17
19459.0	6.461395089140397e+17
19460.0	6.516993909151058e+17
19461.0	6.568557824092842e+17
19462.0	6.616108926763009e+17
19463.0	6.660568306592422e+17
19464.0	6.701887877982889e+17
19465.0	6.740331371080364e+17
19466.0	6.776452049534973e+17
19467.0	6.810312588132351e+17
19468.0	6.841852586098688e+17
19469.0	6.871084098562726e+17
19470.0	6.899936100614143e+17
19471.0	6.926450197615956e+17
19472.0	6.951018287857661e+17
19473.0	6.974331407390036e+17
19474.0	6.996687258823338e+17
19475.0	7.016467068704083e+17
19476.0	7.038273757817513e+17
19477.0	7.057385323495424e+17
19478.0	7.075282889823572e+17
19479.0	7.091890970514772e+17
19480.0	7.107731652957523e+17
19481.0	7.123403546820605e+17
19482.0	7.138152818234708e+17
19483.0	7.152115426962089e+17
19484.0	7.165440435770708e+17
19485.0	7.178257073963007e+17
19486.0	7.194118638447274e+17
19487.0	7.206115565633535e+17
19488.0	7.217516059994793e+17
19489.0	7.227767147287892e+17
19490.0	7.236577246489254e+17
19491.0	7.251570120283476e+17
19492.0	7.260922800242688e+17
19493.0	7.269847585696425e+17
19494.0	7.278618900168701e+17
19495.0	7.290787110147411e+17
19496.0	7.298278602659155e+17
19497.0	7.3068893451933e+17
19498.0	7.313587732567382e+17
19499.0	7.314989266239483e+17
19500.0	7.332328697932457e+17
19501.0	7.338997535036756e+17
19502.0	7.34531401425442e+17
19503.0	7.353884917891072e+17
19504.0	7.360272132647594e+17
19505.0	7.365853458027859e+17
19506.0	7.371258355602772e+17
19507.0	7.377231040304472e+17
19508.0	7.383904470171647e+17
19509.0	7.388615792044714e+17
19510.0	7.392645136864595e+17
19511.0	7.387739118196047e+17
19512.0	7.400357708343973e+17
19513.0	7.403167482380283e+17
19514.0	7.40836085561207e+17
19515.0	7.413490160850262e+17
19516.0	7.418181677219839e+17
19517.0	7.421526595513002e+17
19518.0	7.4260527724189e+17
19519.0	7.42964821229568e+17
19520.0	7.43266725134336e+17
19521.0	7.43576607863603e+17
19522.0	7.4385454006272e+17
19523.0	7.441484787045714e+17
19524.0	7.444191551771986e+17
19525.0	7.447223240840532e+17
19526.0	7.450255654125565e+17
19527.0	7.452579452332713e+17
19528.0	7.454829229462867e+17
19529.0	7.456994861864276e+17
19530.0	7.459108159138472e+17
19531.0	7.461108642217981e+17
19532.0	7.462994634779305e+17
19533.0	7.464841838417236e+17
19534.0	7.466586877198335e+17
19535.0	7.468928895462053e+17
19536.0	7.473652171101523e+17
19537.0	7.475331371892735e+17
19538.0	7.476422413822634e+17
19539.0	7.476802212244141e+17
19540.0	7.482331307354794e+17
19541.0	7.486954980857172e+17
19542.0	7.488227053142016e+17
19543.0	7.489443446041257e+17
19544.0	7.490608679616511e+17
19545.0	7.493123272518316e+17
19546.0	7.495416372614486e+17
19547.0	7.499062665631059e+17
19548.0	7.500099536726696e+17
19549.0	7.500651516919808e+17
19550.0	7.503046998578514e+17
19551.0	7.50737362727731e+17
19552.0	7.508058182429356e+17
19553.0	7.508636699983871e+17
19554.0	7.509207585303208e+17
19555.0	7.509869776426323e+17
19556.0	7.510998575480833e+17
19557.0	7.514627183913641e+17
19558.0	7.515105274451284e+17
19559.0	7.51556319178479e+17
19560.0	7.51588209730082e+17
19561.0	7.5162733000349e+17
19562.0	7.516715881594879e+17
19563.0	7.517703361964713e+17
19564.0	7.52028817170978e+17
19565.0	7.520546543632383e+17
19566.0	7.520675198315177e+17
19567.0	7.520984472311123e+17
19568.0	7.521030211196244e+17
19569.0	7.521218141181267e+17
19570.0	7.521423821460819e+17
19571.0	7.521575139366228e+17
19572.0	7.523713395545428e+17
19573.0	7.5238449624733e+17
19574.0	7.523525076888232e+17
19575.0	7.523892872609791e+17
19576.0	7.52383512683042e+17
19577.0	7.523659901392211e+17
19578.0	7.523468169969661e+17
19579.0	7.523325071501993e+17
19580.0	7.523149527296681e+17
19581.0	7.523009609509544e+17
19582.0	7.524365690907306e+17
19583.0	7.524298412873042e+17
19584.0	7.524021352529919e+17
19585.0	7.523269312424617e+17
19586.0	7.522835148832769e+17
19587.0	7.522965107944105e+17
19588.0	7.521172943361364e+17
19589.0	7.52214264128034e+17
19590.0	7.5215981786781e+17
19591.0	7.521432168125778e+17
19592.0	7.52102059086097e+17
19593.0	7.520472806369961e+17
19594.0	7.519114548128425e+17
19595.0	7.520526100594684e+17
19596.0	7.519509682323455e+17
19597.0	7.519619170435071e+17
19598.0	7.518164292206592e+17
19599.0	7.518544837214207e+17
19600.0	7.517995807014911e+17
19601.0	7.517153838235648e+17
19602.0	7.51651985101073e+17
19603.0	7.514809110451539e+17
19604.0	7.515267834489513e+17
19605.0	7.513731899938132e+17
19606.0	7.514218613964799e+17
19607.0	7.513557408503123e+17
19608.0	7.512840789295103e+17
19609.0	7.512001260202666e+17
19610.0	7.511496570787156e+17
19611.0	7.510750809554943e+17
19612.0	7.510071083444905e+17
19613.0	7.509411508169386e+17
19614.0	7.509128494710783e+17
19615.0	7.508530052814163e+17
19616.0	7.507686218967722e+17
19617.0	7.506932677301587e+17
19618.0	7.504149105082365e+17
19619.0	7.502870493877586e+17
19620.0	7.502335524383398e+17
19621.0	7.503671474520061e+17
19622.0	7.502919335149568e+17
19623.0	7.502102972596221e+17
19624.0	7.501215730499583e+17
19625.0	7.501316199459497e+17
19626.0	7.500578417191594e+17
19627.0	7.499718735866538e+17
19628.0	7.498573303600471e+17
19629.0	7.497408225214463e+17
19630.0	7.494996847143594e+17
19631.0	7.487357561339903e+17
19632.0	7.49485413175569e+17
19633.0	7.494091723330902e+17
19634.0	7.49344294838818e+17
19635.0	7.493073582598825e+17
19636.0	7.493382314131453e+17
19637.0	7.490722991177728e+17
19638.0	7.491513825798825e+17
19639.0	7.490544189396306e+17
19640.0	7.489260710002687e+17
19641.0	7.486693042378074e+17
19642.0	7.487662703946409e+17
19643.0	7.486676637057021e+17
19644.0	7.485848148770816e+17
19645.0	7.484264119533565e+17
19646.0	7.484171429609471e+17
19647.0	7.483190218326016e+17
19648.0	7.483328470974464e+17
19649.0	7.482608539664383e+17
19650.0	7.481622260263593e+17
19651.0	7.480571283723603e+17
19652.0	7.479532293106345e+17
19653.0	7.47853508195123e+17
19654.0	7.477447349327187e+17
19655.0	7.47638971363055e+17
19656.0	7.475379679090004e+17
19657.0	7.474318289491284e+17
19658.0	7.473287880420012e+17
19659.0	7.472221340215977e+17
19660.0	7.471170847419049e+17
19661.0	7.470076659761151e+17
19662.0	7.469014204809215e+17
19663.0	7.468294546128893e+17
19664.0	7.467925947897172e+17
19665.0	7.467055394936147e+17
19666.0	7.466374776837462e+17
