# Flux units: erg / (cm m2 s)
# Wavelength units: Angstrom
wave	flux
19000.0	7.495189888587092e+17
19001.0	7.493760831892138e+17
19002.0	7.492464193568768e+17
19003.0	7.491098412143955e+17
19004.0	7.489732404226729e+17
19005.0	7.488367956590591e+17
19006.0	7.487000791045458e+17
19007.0	7.485624901348009e+17
19008.0	7.484226074400084e+17
19009.0	7.482836013547519e+17
19010.0	7.481234913492991e+17
19011.0	7.480132138696703e+17
19012.0	7.478694029295616e+17
19013.0	7.477401021841407e+17
19014.0	7.475989070916264e+17
19015.0	7.474633243972947e+17
19016.0	7.473254907598164e+17
19017.0	7.471908182294527e+17
19018.0	7.470525859932841e+17
19019.0	7.469152949589331e+17
19020.0	7.4677644965533e+17
19021.0	7.466408213828947e+17
19022.0	7.465032840030888e+17
19023.0	7.463624406728701e+17
19024.0	7.46225613808162e+17
19025.0	7.46088974848273e+17
19026.0	7.459494948066646e+17
19027.0	7.458087220805628e+17
19028.0	7.456745444780713e+17
19029.0	7.455361595692372e+17
19030.0	7.453991143211008e+17
19031.0	7.452608542627155e+17
19032.0	7.451225184272383e+17
19033.0	7.449780459055785e+17
19034.0	7.448444013991254e+17
19035.0	7.447188662998356e+17
19036.0	7.442874930386258e+17
19037.0	7.44451497595153e+17
19038.0	7.443132449467049e+17
19039.0	7.442083059772074e+17
19040.0	7.441225727257257e+17
19041.0	7.439838385711785e+17
19042.0	7.438395645799081e+17
19043.0	7.437062375822676e+17
19044.0	7.435672060515668e+17
19045.0	7.434283666199891e+17
19046.0	7.432862598255956e+17
19047.0	7.431490361797289e+17
19048.0	7.429987745398781e+17
19049.0	7.428678767433042e+17
19050.0	7.427299450989225e+17
19051.0	7.425419426922492e+17
19052.0	7.424446686735017e+17
19053.0	7.423155320651775e+17
19054.0	7.421765505865046e+17
19055.0	7.420202095826259e+17
19056.0	7.418966167257087e+17
19057.0	7.417582074899113e+17
19058.0	7.416186917967187e+17
19059.0	7.414800004240723e+17
19060.0	7.413393482143059e+17
19061.0	7.412013505795411e+17
19062.0	7.41061608813363e+17
19063.0	7.409222017526441e+17
19064.0	7.407758057231702e+17
19065.0	7.406311515881471e+17
19066.0	7.404995559991977e+17
19067.0	7.403642773919059e+17
19068.0	7.402247106680148e+17
19069.0	7.400851535910228e+17
19070.0	7.39943947313698e+17
19071.0	7.398058794942463e+17
19072.0	7.39666197287185e+17
19073.0	7.395261996684627e+17
19074.0	7.393868026740735e+17
19075.0	7.392470307089066e+17
19076.0	7.391060233814016e+17
19077.0	7.389666008017577e+17
19078.0	7.388260914779476e+17
19079.0	7.386877787111423e+17
19080.0	7.38546935800354e+17
19081.0	7.384052443818664e+17
19082.0	7.38265543020817e+17
19083.0	7.381202510719657e+17
19084.0	7.379719635511978e+17
19085.0	7.378482641589587e+17
19086.0	7.376819103727615e+17
19087.0	7.375612614978217e+17
19088.0	7.374219366454612e+17
19089.0	7.372718469720745e+17
19090.0	7.371455696207871e+17
19091.0	7.370063823415977e+17
19092.0	7.368633574140585e+17
19093.0	7.3672809278778e+17
19094.0	7.365879637475325e+17
19095.0	7.364478334489939e+17
19096.0	7.363069829884585e+17
19097.0	7.36167664427554e+17
19098.0	7.360277217542143e+17
19099.0	7.358875337140905e+17
19100.0	7.357473346289664e+17
19101.0	7.356068890585769e+17
19102.0	7.354609401419092e+17
19103.0	7.353265986819412e+17
19104.0	7.351863141728255e+17
19105.0	7.350458761521833e+17
19106.0	7.349042817619284e+17
19107.0	7.347641537003519e+17
19108.0	7.346241778920105e+17
19109.0	7.344604953182207e+17
19110.0	7.343410681042259e+17
19111.0	7.342036582312617e+17
19112.0	7.340635037455702e+17
19113.0	7.339231470944255e+17
19114.0	7.33782696071441e+17
19115.0	7.336394614287017e+17
19116.0	7.335001160242516e+17
19117.0	7.333597270769663e+17
19118.0	7.332020088034642e+17
19119.0	7.327864661038415e+17
19120.0	7.328537746167123e+17
19121.0	7.327152002651476e+17
19122.0	7.325768593965055e+17
19123.0	7.324362913524393e+17
19124.0	7.322938023171411e+17
19125.0	7.321547625376426e+17
19126.0	7.320127498354687e+17
19127.0	7.317661955041961e+17
19128.0	7.317267996650153e+17
19129.0	7.315864062438057e+17
19130.0	7.314507151966207e+17
19131.0	7.313110634681683e+17
19132.0	7.311701354130089e+17
19133.0	7.310231096786944e+17
19134.0	7.308865457968467e+17
19135.0	7.307478537251497e+17
19136.0	7.306073478965929e+17
19137.0	7.304568151648936e+17
19138.0	7.303247608588969e+17
19139.0	7.301849163322708e+17
19140.0	7.300441782790825e+17
19141.0	7.299032808423423e+17
19142.0	7.297606743665321e+17
19143.0	7.296181041015466e+17
19144.0	7.294777438153386e+17
19145.0	7.293393920415062e+17
19146.0	7.291592338221738e+17
19147.0	7.290521261178879e+17
19148.0	7.289160726828372e+17
19149.0	7.287750104099497e+17
19150.0	7.286335370952701e+17
19151.0	7.284927808667647e+17
19152.0	7.283513943741782e+17
19153.0	7.282088133438122e+17
19154.0	7.280612577290921e+17
19155.0	7.279275008152916e+17
19156.0	7.277859559178239e+17
19157.0	7.276427994289492e+17
19158.0	7.27489172139759e+17
19159.0	7.27359809318639e+17
19160.0	7.272200618202454e+17
19161.0	7.270775799152639e+17
19162.0	7.268999866526378e+17
19163.0	7.267917650810196e+17
19164.0	7.266544697125545e+17
19165.0	7.265125266358271e+17
19166.0	7.26364263162402e+17
19167.0	7.262264228140372e+17
19168.0	7.260871589188948e+17
19169.0	7.259454995169279e+17
19170.0	7.258047709708288e+17
19171.0	7.256614679609343e+17
19172.0	7.255211257102335e+17
19173.0	7.253794727395327e+17
19174.0	7.252342210559999e+17
19175.0	7.250957272350719e+17
19176.0	7.249537777270781e+17
19177.0	7.248016272523263e+17
19178.0	7.246682240581632e+17
19179.0	7.244792703833428e+17
19180.0	7.243286249646761e+17
19181.0	7.241801579276969e+17
19182.0	7.240435754511017e+17
19183.0	7.239023591074474e+17
19184.0	7.237592403673087e+17
19185.0	7.236172036177917e+17
19186.0	7.23474965541683e+17
19187.0	7.233063190091092e+17
19188.0	7.230873932573356e+17
19189.0	7.229448965324799e+17
19190.0	7.228019461237417e+17
19191.0	7.226571584700415e+17
19192.0	7.225167282787667e+17
19193.0	7.223735680150186e+17
19194.0	7.22229646205474e+17
19195.0	7.220870854475775e+17
19196.0	7.219424455731881e+17
19197.0	7.21797270086178e+17
19198.0	7.21644718076723e+17
19199.0	7.21277574849058e+17
19200.0	7.211885272585556e+17
19201.0	7.2121653933725e+17
19202.0	7.210817258782719e+17
19203.0	7.20940488982528e+17
19204.0	7.207962724532223e+17
19205.0	7.206537344843775e+17
19206.0	7.205103815622655e+17
19207.0	7.203609133449215e+17
19208.0	7.202110033275562e+17
19209.0	7.200789820167508e+17
19210.0	7.199359565299711e+17
19211.0	7.197918149388969e+17
19212.0	7.196474999832573e+17
19213.0	7.194968847635795e+17
19214.0	7.193506978900649e+17
19215.0	7.192131953229824e+17
19216.0	7.190694767973716e+17
19217.0	7.189241475192147e+17
19218.0	7.187241116543657e+17
19219.0	7.185598393614335e+17
19220.0	7.184249636869459e+17
19221.0	7.182626034373972e+17
19222.0	7.18135254721058e+17
19223.0	7.179911503194794e+17
19224.0	7.178425989769897e+17
19225.0	7.176918108121769e+17
19226.0	7.175531367759871e+17
19227.0	7.174072497952084e+17
19228.0	7.172634410920617e+17
19229.0	7.17117363270451e+17
19230.0	7.16971029037056e+17
19231.0	7.168240165847037e+17
19232.0	7.166779484099923e+17
19233.0	7.165272200839165e+17
19234.0	7.16383921967377e+17
19235.0	7.16236954673698e+17
19236.0	7.160914619574953e+17
19237.0	7.159433926803455e+17
19238.0	7.157898235521706e+17
19239.0	7.156431697128105e+17
19240.0	7.154940374592169e+17
19241.0	7.153457082750294e+17
19242.0	7.151987328723625e+17
19243.0	7.150401941929981e+17
19244.0	7.149036043064659e+17
19245.0	7.147551371296768e+17
19246.0	7.146055752395433e+17
19247.0	7.144575790830932e+17
19248.0	7.143086722034345e+17
19249.0	7.141593228247039e+17
19250.0	7.140086656619859e+17
19251.0	7.138533139546111e+17
19252.0	7.136904867392169e+17
19253.0	7.135591145668607e+17
19254.0	7.13410224464418e+17
19255.0	7.132468019374761e+17
19256.0	7.131075310518272e+17
19257.0	7.129099864637437e+17
19258.0	7.127183382282237e+17
19259.0	7.125618084806655e+17
19260.0	7.124096148045824e+17
19261.0	7.122633363554301e+17
19262.0	7.121077728357033e+17
19263.0	7.119542006317055e+17
19264.0	7.117734166222163e+17
19265.0	7.116408577414484e+17
19266.0	7.114891665429844e+17
19267.0	7.113461810419028e+17
19268.0	7.111923399830185e+17
19269.0	7.110381137472169e+17
19270.0	7.108829869943466e+17
19271.0	7.107084888484521e+17
19272.0	7.105706915616084e+17
19273.0	7.103606817816575e+17
19274.0	7.102152891695101e+17
19275.0	7.101055172433236e+17
19276.0	7.099479789054634e+17
19277.0	7.097913612173311e+17
19278.0	7.096343531793065e+17
19279.0	7.094762042905939e+17
19280.0	7.093147288993791e+17
19281.0	7.091594087890943e+17
19282.0	7.090015909707773e+17
19283.0	7.088396932131497e+17
19284.0	7.086784725559977e+17
19285.0	7.085119687535274e+17
19286.0	7.083589346787327e+17
19287.0	7.08179753312802e+17
19288.0	7.078232090913449e+17
19289.0	7.075469975355388e+17
19290.0	7.075816300434772e+17
19291.0	7.074017964632745e+17
19292.0	7.072557275895123e+17
19293.0	7.070912541097983e+17
19294.0	7.069261904915114e+17
19295.0	7.067617873362943e+17
19296.0	7.065959677646164e+17
19297.0	7.064295324691113e+17
19298.0	7.062616300060672e+17
19299.0	7.060954651033599e+17
19300.0	7.059273133588479e+17
19301.0	7.057583473601194e+17
19302.0	7.055884291145725e+17
19303.0	7.054144100980052e+17
19304.0	7.05246481350656e+17
19305.0	7.050360282327722e+17
19306.0	7.047187000546644e+17
19307.0	7.045424685427369e+17
19308.0	7.04369412678178e+17
19309.0	7.041888368459773e+17
19310.0	7.040084515749887e+17
19311.0	7.038404171311785e+17
19312.0	7.036654436308308e+17
19313.0	7.034876212893012e+17
19314.0	7.030995270937257e+17
19315.0	7.029349863653377e+17
19316.0	7.029456707955369e+17
19317.0	7.027331691795798e+17
19318.0	7.023321499566079e+17
19319.0	7.02148369326626e+17
19320.0	7.019620776367444e+17
19321.0	7.017746291578196e+17
19322.0	7.015809181635923e+17
19323.0	7.013932606685183e+17
19324.0	7.012046556801706e+17
19325.0	7.010073797372585e+17
19326.0	7.006922473471996e+17
19327.0	7.003024064337236e+17
19328.0	7.001058036766036e+17
19329.0	6.999074028213587e+17
19330.0	6.997054638609748e+17
19331.0	6.995035702689791e+17
19332.0	6.993039298570922e+17
19333.0	6.988285756134743e+17
19334.0	6.984906211065855e+17
19335.0	6.982816816431103e+17
19336.0	6.980708553719807e+17
19337.0	6.978582878355455e+17
19338.0	6.976312677061972e+17
19339.0	6.969788056906406e+17
19340.0	6.967119515571539e+17
19341.0	6.964706455584767e+17
19342.0	6.962271576828585e+17
19343.0	6.960227565961215e+17
19344.0	6.953157308099238e+17
19345.0	6.948633219257682e+17
19346.0	6.946915142860799e+17
19347.0	6.945026342212948e+17
19348.0	6.942128066964134e+17
19349.0	6.936832766552746e+17
19350.0	6.934373109246633e+17
19351.0	6.931873373268649e+17
19352.0	6.929320705873235e+17
19353.0	6.926816130367487e+17
19354.0	6.924246721407657e+17
19355.0	6.921596101634729e+17
19356.0	6.919036367536127e+17
19357.0	6.916391006721363e+17
19358.0	6.913710302603946e+17
19359.0	6.910976590173523e+17
19360.0	6.908248825266175e+17
19361.0	6.905487484955304e+17
19362.0	6.902348924321791e+17
19363.0	6.899354041668948e+17
19364.0	6.896483553684137e+17
19365.0	6.893578064232447e+17
19366.0	6.89063758799394e+17
19367.0	6.887661235776168e+17
19368.0	6.884647515805012e+17
19369.0	6.881563415412735e+17
19370.0	6.878457578039978e+17
19371.0	6.875349157675007e+17
19372.0	6.872208694924627e+17
19373.0	6.868099317192022e+17
19374.0	6.864749594323625e+17
19375.0	6.861398655107072e+17
19376.0	6.858011390421674e+17
19377.0	6.854580502877523e+17
19378.0	6.851112233598975e+17
19379.0	6.847110069267112e+17
19380.0	6.842517421031423e+17
19381.0	6.838889190085971e+17
19382.0	6.835164378999466e+17
19383.0	6.831429128989353e+17
19384.0	6.827094974311081e+17
19385.0	6.821682934535508e+17
19386.0	6.817774183645183e+17
19387.0	6.813814585207465e+17
19388.0	6.80953683692749e+17
19389.0	6.802703424421887e+17
19390.0	6.798402668986367e+17
19391.0	6.791668818771964e+17
19392.0	6.786093617774591e+17
19393.0	6.781019908734973e+17
19394.0	6.775132021675345e+17
19395.0	6.766524827522387e+17
19396.0	6.761432602727763e+17
19397.0	6.750595404791808e+17
19398.0	6.744833061639508e+17
19399.0	6.732246567004844e+17
19400.0	6.724859984521903e+17
19401.0	6.711985464235348e+17
19402.0	6.700356692082684e+17
19403.0	6.688762358661121e+17
19404.0	6.676978282616148e+17
19405.0	6.669629162957481e+17
19406.0	6.662121600669012e+17
19407.0	6.654432083181567e+17
19408.0	6.646203274668714e+17
19409.0	6.638473798746111e+17
19410.0	6.630177805172735e+17
19411.0	6.621620080738303e+17
19412.0	6.612889255280639e+17
19413.0	6.603898629739859e+17
19414.0	6.594478457137833e+17
19415.0	6.585156292837375e+17
19416.0	6.575574877907625e+17
19417.0	6.565931647325523e+17
19418.0	6.556005404682922e+17
19419.0	6.545141974171647e+17
19420.0	6.534108454147411e+17
19421.0	6.522938253639679e+17
19422.0	6.510874637718867e+17
19423.0	6.498110929545897e+17
19424.0	6.485440910240428e+17
19425.0	6.470448762060799e+17
19426.0	6.455924679333202e+17
19427.0	6.438685007762772e+17
19428.0	6.420773481392808e+17
19429.0	6.401693705043967e+17
19430.0	6.38069751484689e+17
19431.0	6.357192276617898e+17
19432.0	6.33170096204458e+17
19433.0	6.303664880047447e+17
19434.0	6.273074566878548e+17
19435.0	6.239441575564634e+17
19436.0	6.202755596506454e+17
19437.0	6.169533756735487e+17
19438.0	6.134215232629416e+17
19439.0	6.100276762465622e+17
19440.0	6.058880307385683e+17
19441.0	6.011982334743889e+17
19442.0	5.959702923269462e+17
19443.0	5.899334297408852e+17
19444.0	5.829952565237073e+17
19445.0	5.7493025228936557e+17
19446.0	5.654892416860158e+17
19447.0	5.541934645553828e+17
19448.0	5.402800771039239e+17
19449.0	5.223963580607146e+17
19450.0	4.978871725544776e+17
19451.0	4.851021767507973e+17
19452.0	5.112265434988543e+17
19453.0	5.318793555345416e+17
19454.0	5.472694685750607e+17
19455.0	5.594933421408255e+17
19456.0	5.6957125668809414e+17
19457.0	5.780315197581989e+17
19458.0	5.849555740393475e+17
19459.0	5.914911516743e+17
19460.0	5.968673874029224e+17
19461.0	6.015683608095401e+17
19462.0	6.057260479064746e+17
19463.0	6.093927297144146e+17
19464.0	6.125841666801664e+17
19465.0	6.156301118384808e+17
19466.0	6.188971219834202e+17
19467.0	6.221762943516668e+17
19468.0	6.251220289890989e+17
19469.0	6.278068015813965e+17
19470.0	6.302792097813844e+17
19471.0	6.324488475333974e+17
19472.0	6.343676966644392e+17
19473.0	6.36107371979298e+17
19474.0	6.378136373559297e+17
19475.0	6.392049690127017e+17
19476.0	6.405991976752468e+17
19477.0	6.418086829752319e+17
19478.0	6.429420787772072e+17
19479.0	6.439425937156778e+17
19480.0	6.449739038632617e+17
19481.0	6.458641167155199e+17
19482.0	6.467113977905151e+17
19483.0	6.47582964514816e+17
19484.0	6.48359850348817e+17
19485.0	6.490869720241491e+17
19486.0	6.497965640253439e+17
19487.0	6.504885053467304e+17
19488.0	6.511713957096106e+17
19489.0	6.518358814665386e+17
19490.0	6.524074127785981e+17
19491.0	6.53079639892514e+17
19492.0	6.536725992745642e+17
19493.0	6.542353787518975e+17
19494.0	6.547771999212884e+17
19495.0	6.552995593104042e+17
19496.0	6.557855879877972e+17
19497.0	6.56287225418001e+17
19498.0	6.569682559565824e+17
19499.0	6.573774929395706e+17
19500.0	6.590180681056255e+17
19501.0	6.597146373521398e+17
19502.0	6.605278095780521e+17
19503.0	6.612569816388946e+17
19504.0	6.618206307352576e+17
19505.0	6.624373440686767e+17
19506.0	6.629237721137151e+17
19507.0	6.633137345221975e+17
19508.0	6.638560308363263e+17
19509.0	6.640688518485332e+17
19510.0	6.645067442465446e+17
19511.0	6.644231642808316e+17
19512.0	6.649407246871208e+17
19513.0	6.651625789019473e+17
19514.0	6.655136076136447e+17
19515.0	6.657096642024788e+17
19516.0	6.65870729810193e+17
19517.0	6.660417975746559e+17
19518.0	6.663328294240255e+17
19519.0	6.664488996569087e+17
19520.0	6.665585661662548e+17
19521.0	6.666666730236585e+17
19522.0	6.667856940892159e+17
19523.0	6.670060146567849e+17
19524.0	6.670959618555904e+17
19525.0	6.671809903940948e+17
19526.0	6.672631110915412e+17
19527.0	6.673405729658195e+17
19528.0	6.674127854589268e+17
19529.0	6.67515837550865e+17
19530.0	6.676281471008768e+17
19531.0	6.676837259629908e+17
19532.0	6.677346386619049e+17
19533.0	6.677815642554367e+17
19534.0	6.678247873271123e+17
19535.0	6.678636934813012e+17
19536.0	6.678978735636479e+17
19537.0	6.679324374248105e+17
19538.0	6.679548568884563e+17
19539.0	6.679558342311936e+17
19540.0	6.680227907021481e+17
19541.0	6.680740934713343e+17
19542.0	6.680886302998527e+17
19543.0	6.681004341198848e+17
19544.0	6.681088988545023e+17
19545.0	6.680877271962963e+17
19546.0	6.680671867808425e+17
19547.0	6.681178933996201e+17
19548.0	6.681157274610346e+17
19549.0	6.681052314249898e+17
19550.0	6.681047227258198e+17
19551.0	6.680955074205012e+17
19552.0	6.680831749084499e+17
19553.0	6.68149607650645e+17
19554.0	6.683624912278867e+17
19555.0	6.683400292619603e+17
19556.0	6.683153434061481e+17
19557.0	6.682875239858175e+17
19558.0	6.685588916098391e+17
19559.0	6.687665799124307e+17
19560.0	6.687287558187689e+17
19561.0	6.686908226732032e+17
19562.0	6.686530124906495e+17
19563.0	6.687895228252157e+17
19564.0	6.690375618002943e+17
19565.0	6.689900622162601e+17
19566.0	6.68939729240064e+17
19567.0	6.688900298134868e+17
19568.0	6.688359334281215e+17
19569.0	6.689719080102566e+17
19570.0	6.690930779575635e+17
19571.0	6.690341049248425e+17
19572.0	6.689719648430762e+17
19573.0	6.689114200648361e+17
19574.0	6.688437504223913e+17
19575.0	6.687863768875007e+17
19576.0	6.688906692351314e+17
19577.0	6.689429538209791e+17
19578.0	6.688721114671785e+17
19579.0	6.688025278240084e+17
19580.0	6.687312540161364e+17
19581.0	6.686591781175295e+17
19582.0	6.685864567155369e+17
19583.0	6.685116659138559e+17
19584.0	6.684356565969578e+17
19585.0	6.684547682227539e+17
19586.0	6.684930250986835e+17
19587.0	6.684210393776127e+17
19588.0	6.68314615484689e+17
19589.0	6.682590730431146e+17
19590.0	6.681731929210879e+17
19591.0	6.680950651311444e+17
19592.0	6.68010959269615e+17
19593.0	6.679247993176063e+17
19594.0	6.678249132960426e+17
19595.0	6.677521988146516e+17
19596.0	6.67653254554146e+17
19597.0	6.675775360423252e+17
19598.0	6.675774107025404e+17
19599.0	6.675634106051242e+17
19600.0	6.674728923518292e+17
19601.0	6.673773042335743e+17
19602.0	6.672859350958079e+17
19603.0	6.671705388875773e+17
19604.0	6.671002840858623e+17
19605.0	6.669915292783956e+17
19606.0	6.669166623500969e+17
19607.0	6.668223969755135e+17
19608.0	6.667267461524137e+17
19609.0	6.666282922759508e+17
19610.0	6.665355059527679e+17
19611.0	6.664386053668863e+17
19612.0	6.663419130281983e+17
19613.0	6.662436238480724e+17
19614.0	6.661435425117524e+17
19615.0	6.660477427209556e+17
19616.0	6.659465737317034e+17
19617.0	6.658668230956371e+17
19618.0	6.65828717703987e+17
19619.0	6.65719179330628e+17
19620.0	6.656221229263529e+17
19621.0	6.655605740317353e+17
19622.0	6.654593509359615e+17
19623.0	6.653574317954388e+17
19624.0	6.652550693169833e+17
19625.0	6.65152306352401e+17
19626.0	6.650491213709311e+17
19627.0	6.649452317463891e+17
19628.0	6.648357722259455e+17
19629.0	6.64729706246963e+17
19630.0	6.6459939110912e+17
19631.0	6.642767072242346e+17
19632.0	6.644188839935999e+17
19633.0	6.643149855610195e+17
19634.0	6.642124885153108e+17
19635.0	6.641041459380223e+17
19636.0	6.640008277174953e+17
19637.0	6.638684554832556e+17
19638.0	6.637871988124329e+17
19639.0	6.636906650184361e+17
19640.0	6.635927341017769e+17
19641.0	6.634473919610879e+17
19642.0	6.633831013897556e+17
19643.0	6.632743721675433e+17
19644.0	6.631624463963476e+17
19645.0	6.630419480969215e+17
19646.0	6.629497103187965e+17
19647.0	6.628409666961407e+17
19648.0	6.627318864805887e+17
19649.0	6.626224306651135e+17
19650.0	6.625130916610047e+17
19651.0	6.624177807163391e+17
19652.0	6.623672116008276e+17
19653.0	6.622569287385087e+17
19654.0	6.621466999827114e+17
19655.0	6.62035875635746e+17
19656.0	6.619250455565652e+17
19657.0	6.618146007242068e+17
19658.0	6.617035675708073e+17
19659.0	6.615922687781546e+17
19660.0	6.614810043787945e+17
19661.0	6.613694790937257e+17
19662.0	6.612577513635839e+17
19663.0	6.611432132400468e+17
19664.0	6.610330921380521e+17
19665.0	6.609218754838527e+17
