# Flux units: erg / (cm m2 s)
# Wavelength units: Angstrom
wave	flux
19000.0	6.224025685939539e+17
19001.0	6.222818074514771e+17
19002.0	6.221770921781929e+17
19003.0	6.220643349561344e+17
19004.0	6.219514712686592e+17
19005.0	6.218377387311103e+17
19006.0	6.217249260044287e+17
19007.0	6.216115614471507e+17
19008.0	6.214956118704127e+17
19009.0	6.213752041679529e+17
19010.0	6.212600914946729e+17
19011.0	6.211555708370943e+17
19012.0	6.210384817378644e+17
19013.0	6.209345730292393e+17
19014.0	6.208185920651263e+17
19015.0	6.207071107503444e+17
19016.0	6.205973660871338e+17
19017.0	6.20485293305583e+17
19018.0	6.203720366817279e+17
19019.0	6.202599748752724e+17
19020.0	6.201464448527018e+17
19021.0	6.200351682199552e+17
19022.0	6.199220638493353e+17
19023.0	6.198065871104682e+17
19024.0	6.196946780465833e+17
19025.0	6.195831166905002e+17
19026.0	6.194692771981993e+17
19027.0	6.19356580024593e+17
19028.0	6.192448759922687e+17
19029.0	6.191316585851561e+17
19030.0	6.190211186120019e+17
19031.0	6.189077531459583e+17
19032.0	6.187930488580777e+17
19033.0	6.1866977539741e+17
19034.0	6.18551373271313e+17
19035.0	6.183820872471892e+17
19036.0	6.180998049955839e+17
19037.0	6.181695527758505e+17
19038.0	6.181029115767465e+17
19039.0	6.180027549526697e+17
19040.0	6.178947414185299e+17
19041.0	6.177836012404735e+17
19042.0	6.176442992470697e+17
19043.0	6.175609958957055e+17
19044.0	6.174479748519252e+17
19045.0	6.173355082951337e+17
19046.0	6.172213547193686e+17
19047.0	6.17107364651554e+17
19048.0	6.169888399119699e+17
19049.0	6.168321207216809e+17
19050.0	6.167593646467753e+17
19051.0	6.166259568388777e+17
19052.0	6.165253173805055e+17
19053.0	6.164306434807124e+17
19054.0	6.163244255980201e+17
19055.0	6.161891130867712e+17
19056.0	6.160995840600745e+17
19057.0	6.159918599329108e+17
19058.0	6.158572208171689e+17
19059.0	6.157601618963113e+17
19060.0	6.156568465418921e+17
19061.0	6.155451805379242e+17
19062.0	6.154330958026068e+17
19063.0	6.153206746841085e+17
19064.0	6.152054447800319e+17
19065.0	6.150871154251092e+17
19066.0	6.149730267212457e+17
19067.0	6.148733302123177e+17
19068.0	6.147628133777407e+17
19069.0	6.146511552730452e+17
19070.0	6.145377894574761e+17
19071.0	6.144269409932628e+17
19072.0	6.143078320570365e+17
19073.0	6.14204406042897e+17
19074.0	6.140927334678527e+17
19075.0	6.139809614878036e+17
19076.0	6.138689300900522e+17
19077.0	6.137566293480788e+17
19078.0	6.136442526892032e+17
19079.0	6.135340681134079e+17
19080.0	6.134217105386154e+17
19081.0	6.133073086600531e+17
19082.0	6.131988218686121e+17
19083.0	6.130805369733119e+17
19084.0	6.129587609490772e+17
19085.0	6.128632572761427e+17
19086.0	6.127118799514282e+17
19087.0	6.126206468489215e+17
19088.0	6.125116013761876e+17
19089.0	6.124038860570624e+17
19090.0	6.123045408909994e+17
19091.0	6.121931760380586e+17
19092.0	6.120632375487146e+17
19093.0	6.119737799649961e+17
19094.0	6.118627693909332e+17
19095.0	6.117516292128767e+17
19096.0	6.116402826750634e+17
19097.0	6.115292177847636e+17
19098.0	6.114086662875818e+17
19099.0	6.112951666737151e+17
19100.0	6.111938006919849e+17
19101.0	6.110824809278121e+17
19102.0	6.109695390165674e+17
19103.0	6.108613268122282e+17
19104.0	6.10750791942144e+17
19105.0	6.1061863585437e+17
19106.0	6.105277215189674e+17
19107.0	6.104101490262015e+17
19108.0	6.102952378193236e+17
19109.0	6.101898708211028e+17
19110.0	6.100804336003753e+17
19111.0	6.099653948866559e+17
19112.0	6.098541243356499e+17
19113.0	6.097506422576468e+17
19114.0	6.096352198350163e+17
19115.0	6.095250559511209e+17
19116.0	6.094140566317737e+17
19117.0	6.09299065803025e+17
19118.0	6.091473445453824e+17
19119.0	6.087636854068563e+17
19120.0	6.089454968810153e+17
19121.0	6.08856406368802e+17
19122.0	6.087506387446441e+17
19123.0	6.086410312351744e+17
19124.0	6.085257707126783e+17
19125.0	6.084151562207231e+17
19126.0	6.082925344849919e+17
19127.0	6.081546598831444e+17
19128.0	6.080696636407805e+17
19129.0	6.079666983709353e+17
19130.0	6.078657842555562e+17
19131.0	6.077580221699412e+17
19132.0	6.076482564653055e+17
19133.0	6.075354042422611e+17
19134.0	6.074274302044841e+17
19135.0	6.073171513966592e+17
19136.0	6.072062961516544e+17
19137.0	6.070938597938516e+17
19138.0	6.069849531525802e+17
19139.0	6.068760724460884e+17
19140.0	6.067662780104704e+17
19141.0	6.066560758885033e+17
19142.0	6.065437120222547e+17
19143.0	6.064340021717674e+17
19144.0	6.063219554648063e+17
19145.0	6.062144409130324e+17
19146.0	6.060571492701524e+17
19147.0	6.059921761457492e+17
19148.0	6.058765572199763e+17
19149.0	6.057649460215808e+17
19150.0	6.056637987728042e+17
19151.0	6.055530541875199e+17
19152.0	6.054421869188436e+17
19153.0	6.053150558169769e+17
19154.0	6.052188606431231e+17
19155.0	6.051108680105983e+17
19156.0	6.050009376096255e+17
19157.0	6.048852589849257e+17
19158.0	6.047681408051882e+17
19159.0	6.046688354151082e+17
19160.0	6.045577096374954e+17
19161.0	6.044463288461993e+17
19162.0	6.043323513612969e+17
19163.0	6.042251904592553e+17
19164.0	6.041183235080191e+17
19165.0	6.039925979174227e+17
19166.0	6.038974084677631e+17
19167.0	6.037903810144938e+17
19168.0	6.036823184069974e+17
19169.0	6.035732281950208e+17
19170.0	6.034638748603732e+17
19171.0	6.033542562359977e+17
19172.0	6.032442308340394e+17
19173.0	6.031346926004906e+17
19174.0	6.03024250704145e+17
19175.0	6.029150585705812e+17
19176.0	6.028056052017833e+17
19177.0	6.026849924677631e+17
19178.0	6.025865130759508e+17
19179.0	6.024765469534889e+17
19180.0	6.023660219400192e+17
19181.0	6.022531418947583e+17
19182.0	6.021454263659178e+17
19183.0	6.020380642071891e+17
19184.0	6.019286026594985e+17
19185.0	6.018183826418346e+17
19186.0	6.017091042454185e+17
19187.0	6.015942885987667e+17
19188.0	6.014889873113087e+17
19189.0	6.013787994499753e+17
19190.0	6.012682321439401e+17
19191.0	6.011550200496127e+17
19192.0	6.010458219042131e+17
19193.0	6.009308252034388e+17
19194.0	6.008151906189311e+17
19195.0	6.007042381359785e+17
19196.0	6.00584819450402e+17
19197.0	6.004616294563839e+17
19198.0	6.003298755324585e+17
19199.0	6.001824723107839e+17
19200.0	6.000790879600639e+17
19201.0	6.000043945361407e+17
19202.0	5.999170077502121e+17
19203.0	5.998204220167508e+17
19204.0	5.997212676915199e+17
19205.0	5.996172547544404e+17
19206.0	5.99512493204002e+17
19207.0	5.993962442937683e+17
19208.0	5.992934122629802e+17
19209.0	5.991905738009257e+17
19210.0	5.990835506817706e+17
19211.0	5.989765853741055e+17
19212.0	5.988678781719892e+17
19213.0	5.987519573961385e+17
19214.0	5.986473325800106e+17
19215.0	5.985402012478121e+17
19216.0	5.984303530551978e+17
19217.0	5.983166303043583e+17
19218.0	5.981990411042815e+17
19219.0	5.980867040116735e+17
19220.0	5.979911356765524e+17
19221.0	5.978823731096234e+17
19222.0	5.977769347383295e+17
19223.0	5.976694458417151e+17
19224.0	5.97559285453073e+17
19225.0	5.974528871454036e+17
19226.0	5.973448311788884e+17
19227.0	5.972368709823146e+17
19228.0	5.971306426138624e+17
19229.0	5.970221177241599e+17
19230.0	5.969131260084223e+17
19231.0	5.968037196857343e+17
19232.0	5.966959222281556e+17
19233.0	5.965833346656938e+17
19234.0	5.964785256497151e+17
19235.0	5.963678299979775e+17
19236.0	5.962615127801855e+17
19237.0	5.96152442421248e+17
19238.0	5.96039111418402e+17
19239.0	5.959357799159126e+17
19240.0	5.958274808894804e+17
19241.0	5.957173727898282e+17
19242.0	5.956091066187776e+17
19243.0	5.954894963234131e+17
19244.0	5.953933409255423e+17
19245.0	5.952842135240704e+17
19246.0	5.951758549385215e+17
19247.0	5.950671614377983e+17
19248.0	5.949590499666601e+17
19249.0	5.948497806579027e+17
19250.0	5.947370887271766e+17
19251.0	5.946235986203988e+17
19252.0	5.945008879654227e+17
19253.0	5.944149206018729e+17
19254.0	5.943077640339455e+17
19255.0	5.941836790453588e+17
19256.0	5.940896808479401e+17
19257.0	5.939820101981524e+17
19258.0	5.938730909040637e+17
19259.0	5.937569619509247e+17
19260.0	5.93646857626146e+17
19261.0	5.935440251759274e+17
19262.0	5.934309973513556e+17
19263.0	5.933191986675711e+17
19264.0	5.932024247003817e+17
19265.0	5.930988004354729e+17
19266.0	5.929909362185556e+17
19267.0	5.928935581810687e+17
19268.0	5.927855180130985e+17
19269.0	5.926767982280704e+17
19270.0	5.925655606023508e+17
19271.0	5.924521931090602e+17
19272.0	5.923490465054719e+17
19273.0	5.922297264559443e+17
19274.0	5.921056639068841e+17
19275.0	5.920271819079679e+17
19276.0	5.919175169365332e+17
19277.0	5.918094119665663e+17
19278.0	5.917002442298707e+17
19279.0	5.915902663633577e+17
19280.0	5.914814671661738e+17
19281.0	5.913734249010516e+17
19282.0	5.912658144395264e+17
19283.0	5.911560956411904e+17
19284.0	5.910449730792105e+17
19285.0	5.909328971519316e+17
19286.0	5.908182093616467e+17
19287.0	5.906939731684009e+17
19288.0	5.904724966506495e+17
19289.0	5.903300489292457e+17
19290.0	5.903634342608895e+17
19291.0	5.902582169294166e+17
19292.0	5.901755107071315e+17
19293.0	5.900694824768852e+17
19294.0	5.89961230426658e+17
19295.0	5.898540633729706e+17
19296.0	5.89734646714641e+17
19297.0	5.896336436800169e+17
19298.0	5.895258082639872e+17
19299.0	5.894074112409599e+17
19300.0	5.893098188046335e+17
19301.0	5.892010789568511e+17
19302.0	5.890908484534272e+17
19303.0	5.889783838539776e+17
19304.0	5.888727480008703e+17
19305.0	5.887621674128724e+17
19306.0	5.886528409217706e+17
19307.0	5.885405856879956e+17
19308.0	5.8843057895069e+17
19309.0	5.88319989834274e+17
19310.0	5.882071304809129e+17
19311.0	5.880952538529791e+17
19312.0	5.879808272979282e+17
19313.0	5.878418939139411e+17
19314.0	5.87021122657758e+17
19315.0	5.869469073145857e+17
19316.0	5.875002830225407e+17
19317.0	5.874328957965652e+17
19318.0	5.873309976275625e+17
19319.0	5.872255328321535e+17
19320.0	5.871125958841684e+17
19321.0	5.869976628669097e+17
19322.0	5.868964212462932e+17
19323.0	5.867862323363837e+17
19324.0	5.866750883834537e+17
19325.0	5.865652333401428e+17
19326.0	5.864552082178048e+17
19327.0	5.863446741166761e+17
19328.0	5.86215864803874e+17
19329.0	5.861236371619837e+17
19330.0	5.860122816064169e+17
19331.0	5.858983573192701e+17
19332.0	5.857905583237801e+17
19333.0	5.856783160923476e+17
19334.0	5.855673063571455e+17
19335.0	5.854184145070762e+17
19336.0	5.85343355200034e+17
19337.0	5.852310525706239e+17
19338.0	5.851032463256233e+17
19339.0	5.850043340117332e+17
19340.0	5.848837301556564e+17
19341.0	5.847570073692842e+17
19342.0	5.846499269279744e+17
19343.0	5.845427658861225e+17
19344.0	5.844048500402858e+17
19345.0	5.842544183913129e+17
19346.0	5.841532456271871e+17
19347.0	5.840614537035775e+17
19348.0	5.839762256560128e+17
19349.0	5.83861437272337e+17
19350.0	5.837411379926356e+17
19351.0	5.836323491414013e+17
19352.0	5.834971681215828e+17
19353.0	5.83404976271087e+17
19354.0	5.832892331939156e+17
19355.0	5.831652559290368e+17
19356.0	5.830558686904319e+17
19357.0	5.829385447800831e+17
19358.0	5.828205628533418e+17
19359.0	5.826968334019242e+17
19360.0	5.825676087831209e+17
19361.0	5.824645235561812e+17
19362.0	5.823457956724735e+17
19363.0	5.822262473829033e+17
19364.0	5.821060729536512e+17
19365.0	5.819848525348863e+17
19366.0	5.818607468543999e+17
19367.0	5.817383108564308e+17
19368.0	5.816151093280767e+17
19369.0	5.814894792977068e+17
19370.0	5.813647400676009e+17
19371.0	5.812365073317887e+17
19372.0	5.811149674468692e+17
19373.0	5.809867053509289e+17
19374.0	5.808595576815615e+17
19375.0	5.807310139381075e+17
19376.0	5.806012067304788e+17
19377.0	5.804695327080447e+17
19378.0	5.803360863824554e+17
19379.0	5.802009431812778e+17
19380.0	5.800670075901268e+17
19381.0	5.799313212964863e+17
19382.0	5.797888537919487e+17
19383.0	5.796541889511423e+17
19384.0	5.795181978714111e+17
19385.0	5.793785859189418e+17
19386.0	5.792366861134506e+17
19387.0	5.790925444524713e+17
19388.0	5.789452566440618e+17
19389.0	5.787906506140329e+17
19390.0	5.786046506379946e+17
19391.0	5.782830431513257e+17
19392.0	5.782480648230228e+17
19393.0	5.781647569977341e+17
19394.0	5.780199029342207e+17
19395.0	5.778575324086272e+17
19396.0	5.776986800652287e+17
19397.0	5.775325673117011e+17
19398.0	5.773524652960428e+17
19399.0	5.771656343584767e+17
19400.0	5.769952566269268e+17
19401.0	5.768282571276287e+17
19402.0	5.766451747793578e+17
19403.0	5.7645653658610336e+17
19404.0	5.762659083354111e+17
19405.0	5.760654849168723e+17
19406.0	5.758640235479039e+17
19407.0	5.756460064221866e+17
19408.0	5.7542285148378445e+17
19409.0	5.752098837408425e+17
19410.0	5.749901184991231e+17
19411.0	5.7475693861492045e+17
19412.0	5.7451726713651194e+17
19413.0	5.742587976264362e+17
19414.0	5.7400177934554445e+17
19415.0	5.737289984507903e+17
19416.0	5.7343761917323936e+17
19417.0	5.7315526163387725e+17
19418.0	5.7285305203425274e+17
19419.0	5.725399647868245e+17
19420.0	5.722119437200042e+17
19421.0	5.718615675021994e+17
19422.0	5.7149309104510285e+17
19423.0	5.711215854616574e+17
19424.0	5.707227883110399e+17
19425.0	5.702949034524671e+17
19426.0	5.698424473124863e+17
19427.0	5.6936550000230394e+17
19428.0	5.6886266034476365e+17
19429.0	5.683291097836202e+17
19430.0	5.6774847158900045e+17
19431.0	5.671407130247167e+17
19432.0	5.6652927584610976e+17
19433.0	5.6584285912214176e+17
19434.0	5.650938254939477e+17
19435.0	5.642755262906367e+17
19436.0	5.63383655080482e+17
19437.0	5.6240447020509856e+17
19438.0	5.6109991114833914e+17
19439.0	5.6019158407577594e+17
19440.0	5.591115504462507e+17
19441.0	5.577662430270804e+17
19442.0	5.56252883128593e+17
19443.0	5.5457943978857805e+17
19444.0	5.526153194373119e+17
19445.0	5.5032783411609606e+17
19446.0	5.4763183490990074e+17
19447.0	5.442847222267901e+17
19448.0	5.3997518126230195e+17
19449.0	5.3393058179317754e+17
19450.0	5.2340101347628294e+17
19451.0	5.1479086751197894e+17
19452.0	5.295489799596713e+17
19453.0	5.369421137357485e+17
19454.0	5.4174753300152294e+17
19455.0	5.452882969100288e+17
19456.0	5.480662463152128e+17
19457.0	5.502564892147711e+17
19458.0	5.50220054903741e+17
19459.0	5.53379983698603e+17
19460.0	5.5521473444795725e+17
19461.0	5.564941413821098e+17
19462.0	5.5759958494412794e+17
19463.0	5.585739126756692e+17
19464.0	5.594230524564821e+17
19465.0	5.6017134669878605e+17
19466.0	5.6087043043054925e+17
19467.0	5.6150465987652256e+17
19468.0	5.6207172152852474e+17
19469.0	5.625654129197056e+17
19470.0	5.630355877571241e+17
19471.0	5.6343787757458765e+17
19472.0	5.638147043317076e+17
19473.0	5.6415147478657696e+17
19474.0	5.6444058599424e+17
19475.0	5.647094775807999e+17
19476.0	5.649836966324906e+17
19477.0	5.6522458082399565e+17
19478.0	5.6543554082351776e+17
19479.0	5.655972022321151e+17
19480.0	5.657713012200789e+17
19481.0	5.659208790485674e+17
19482.0	5.660563970108074e+17
19483.0	5.6616833941940896e+17
19484.0	5.6626796099010554e+17
19485.0	5.663559247724543e+17
19486.0	5.6642173570908154e+17
19487.0	5.6650268060330656e+17
19488.0	5.665579314708479e+17
19489.0	5.665897938507094e+17
19490.0	5.666135631112874e+17
19491.0	5.66668496609826e+17
19492.0	5.667024898359296e+17
19493.0	5.667206896200362e+17
19494.0	5.6672997350222496e+17
19495.0	5.6672811689355936e+17
19496.0	5.6670454071077536e+17
19497.0	5.6667765794843296e+17
19498.0	5.6652659799272096e+17
19499.0	5.66358293156113e+17
19500.0	5.66607282910003e+17
19501.0	5.666307415823701e+17
19502.0	5.666166652884308e+17
19503.0	5.6659055469745485e+17
19504.0	5.6655672344139085e+17
19505.0	5.6651746209955834e+17
19506.0	5.66476529607202e+17
19507.0	5.664285118868138e+17
19508.0	5.6637596984060576e+17
19509.0	5.663086790836223e+17
19510.0	5.661736343786836e+17
19511.0	5.651618292826108e+17
19512.0	5.659300870837588e+17
19513.0	5.659437226961577e+17
19514.0	5.659182987127466e+17
19515.0	5.659532310435156e+17
19516.0	5.659120545824768e+17
19517.0	5.6585640686387194e+17
19518.0	5.657908455582377e+17
19519.0	5.657237464110421e+17
19520.0	5.656444725974355e+17
19521.0	5.6558956615215776e+17
19522.0	5.6551283758202874e+17
19523.0	5.654409795775147e+17
19524.0	5.653600360813909e+17
19525.0	5.6529847677091834e+17
19526.0	5.652228401179305e+17
19527.0	5.65145330917922e+17
19528.0	5.6506569289891834e+17
19529.0	5.649856378262869e+17
19530.0	5.6490838070394874e+17
19531.0	5.6482726628993696e+17
19532.0	5.6474534901623456e+17
19533.0	5.646626413958484e+17
19534.0	5.645790349361151e+17
19535.0	5.644942723863892e+17
19536.0	5.6440744106612045e+17
19537.0	5.643219695392084e+17
19538.0	5.6421663602551456e+17
19539.0	5.641403454106281e+17
19540.0	5.640619362527913e+17
19541.0	5.639753444272809e+17
19542.0	5.638892844395179e+17
19543.0	5.6378696711973536e+17
19544.0	5.6370672120627194e+17
19545.0	5.6360026194138445e+17
19546.0	5.6350909238258336e+17
19547.0	5.634396619014143e+17
19548.0	5.6335554925909325e+17
19549.0	5.6325937610533536e+17
19550.0	5.631777192979113e+17
19551.0	5.630873007292415e+17
19552.0	5.6299620268332365e+17
19553.0	5.6290415784318285e+17
19554.0	5.6281246784116045e+17
19555.0	5.627186181920085e+17
19556.0	5.6263357790945274e+17
19557.0	5.6254540014769485e+17
19558.0	5.6245285192116896e+17
19559.0	5.62360045675042e+17
19560.0	5.622597196709887e+17
19561.0	5.6217146067954336e+17
19562.0	5.620745482098004e+17
19563.0	5.6198632151449594e+17
19564.0	5.6189232807062176e+17
19565.0	5.617980835976532e+17
19566.0	5.6170264542576634e+17
19567.0	5.6160910349871776e+17
19568.0	5.6151259116557645e+17
19569.0	5.614185536116052e+17
19570.0	5.6132466097083725e+17
19571.0	5.6122962384431776e+17
19572.0	5.6113175444411725e+17
19573.0	5.610368705495038e+17
19574.0	5.6093558978205005e+17
19575.0	5.608483188987221e+17
19576.0	5.607511605728596e+17
19577.0	5.606521891891883e+17
19578.0	5.605600610222079e+17
19579.0	5.6046242153977165e+17
19580.0	5.6036686942262605e+17
19581.0	5.60272514359842e+17
19582.0	5.6017660551714125e+17
19583.0	5.600802972368894e+17
19584.0	5.599841033213268e+17
19585.0	5.598789222705834e+17
19586.0	5.597799861889705e+17
19587.0	5.5969030609742496e+17
19588.0	5.5958644611263136e+17
19589.0	5.594949323412821e+17
19590.0	5.593975424898388e+17
19591.0	5.5930681801659725e+17
19592.0	5.592115094487039e+17
19593.0	5.5911181874189645e+17
19594.0	5.589972602759849e+17
19595.0	5.589192188187988e+17
19596.0	5.5882083862227616e+17
19597.0	5.587233616691199e+17
19598.0	5.586076623525204e+17
19599.0	5.5852796819974816e+17
19600.0	5.5843347381616634e+17
19601.0	5.583323216740351e+17
19602.0	5.5823272275258016e+17
19603.0	5.581313450267988e+17
19604.0	5.580370923749375e+17
19605.0	5.579310047952894e+17
19606.0	5.578490764066815e+17
19607.0	5.5775331373547514e+17
19608.0	5.5765526335105683e+17
19609.0	5.5755647288169805e+17
19610.0	5.5745471004890445e+17
19611.0	5.5735368848943776e+17
19612.0	5.572665884540926e+17
19613.0	5.571679305946452e+17
19614.0	5.570674161964372e+17
19615.0	5.5697120850957645e+17
19616.0	5.568638406885374e+17
19617.0	5.5675790585146016e+17
19618.0	5.566489301439828e+17
19619.0	5.5654271254091085e+17
19620.0	5.564550039819604e+17
19621.0	5.563633521481043e+17
19622.0	5.5628474907361274e+17
19623.0	5.561876265391443e+17
19624.0	5.5608751703108256e+17
19625.0	5.559919592516266e+17
19626.0	5.558915765545642e+17
19627.0	5.557897824742057e+17
19628.0	5.556834670739456e+17
19629.0	5.5553259760954003e+17
19630.0	5.5544361195492685e+17
19631.0	5.5532260600490656e+17
19632.0	5.5526932785834656e+17
19633.0	5.551889798834858e+17
19634.0	5.5510456483184634e+17
19635.0	5.550076264972287e+17
19636.0	5.549012824358911e+17
19637.0	5.5477912857477114e+17
19638.0	5.5472248799450445e+17
19639.0	5.5462438504147616e+17
19640.0	5.545074546267476e+17
19641.0	5.543882915140949e+17
19642.0	5.5432883075372365e+17
19643.0	5.542335041503231e+17
19644.0	5.5413334710681594e+17
19645.0	5.540357664145407e+17
19646.0	5.5392678854000634e+17
19647.0	5.538471296892926e+17
19648.0	5.5375040086016e+17
19649.0	5.5365267078075725e+17
19650.0	5.5355558012299936e+17
19651.0	5.534575090466815e+17
19652.0	5.53359849431586e+17
19653.0	5.5326281791351456e+17
19654.0	5.5316454299402234e+17
19655.0	5.530669100127573e+17
19656.0	5.529698301902847e+17
19657.0	5.5287212499708576e+17
19658.0	5.527745735251285e+17
19659.0	5.5267709335633914e+17
19660.0	5.5257946470918816e+17
