# Flux units: erg / (cm m2 s)
# Wavelength units: Angstrom
wave	flux
19000.0	4.8233232682625696e+17
19001.0	4.822384030078292e+17
19002.0	4.821536512933887e+17
19003.0	4.82064186020113e+17
19004.0	4.8197479414715725e+17
19005.0	4.8188524540723194e+17
19006.0	4.8179612008229536e+17
19007.0	4.8170540910073165e+17
19008.0	4.8161457152109216e+17
19009.0	4.815273947299839e+17
19010.0	4.814134359796393e+17
19011.0	4.8134838288383994e+17
19012.0	4.812535586182485e+17
19013.0	4.811710103115092e+17
19014.0	4.810793847619583e+17
19015.0	4.8099092066904736e+17
19016.0	4.8090104162768205e+17
19017.0	4.8081354956472314e+17
19018.0	4.8072448275032736e+17
19019.0	4.806357764363604e+17
19020.0	4.8054553976067405e+17
19021.0	4.804573958329685e+17
19022.0	4.803687062962175e+17
19023.0	4.8027807423747405e+17
19024.0	4.8018951353576096e+17
19025.0	4.801015956111359e+17
19026.0	4.800112748396543e+17
19027.0	4.799207804239871e+17
19028.0	4.7983459621492045e+17
19029.0	4.797449138864127e+17
19030.0	4.796571548560042e+17
19031.0	4.795684647600127e+17
19032.0	4.794793766245717e+17
19033.0	4.7938634647251616e+17
19034.0	4.793009906384896e+17
19035.0	4.792113499034964e+17
19036.0	4.7886421770021504e+17
19037.0	4.7903476572050765e+17
19038.0	4.789453407824553e+17
19039.0	4.788574111137792e+17
19040.0	4.7876885104121165e+17
19041.0	4.7867971145564154e+17
19042.0	4.7858697378638496e+17
19043.0	4.7850261025477965e+17
19044.0	4.784133308590762e+17
19045.0	4.783250377539583e+17
19046.0	4.7823338389285536e+17
19047.0	4.7814770985096525e+17
19048.0	4.780482508095487e+17
19049.0	4.779672630635178e+17
19050.0	4.778794968328874e+17
19051.0	4.777514235505321e+17
19052.0	4.777027776632149e+17
19053.0	4.776157518670506e+17
19054.0	4.775274788945918e+17
19055.0	4.774273227598506e+17
19056.0	4.773491432401579e+17
19057.0	4.7726170877897376e+17
19058.0	4.771726760083455e+17
19059.0	4.77084849938978e+17
19060.0	4.769954751228587e+17
19061.0	4.769082431067476e+17
19062.0	4.768195949537962e+17
19063.0	4.767313473568766e+17
19064.0	4.766369098760191e+17
19065.0	4.7654671821919565e+17
19066.0	4.7646356942793376e+17
19067.0	4.763773739641514e+17
19068.0	4.7628963975004154e+17
19069.0	4.7620141606065485e+17
19070.0	4.761117054205951e+17
19071.0	4.7602447417343994e+17
19072.0	4.7593658169425914e+17
19073.0	4.758480000909311e+17
19074.0	4.757602141470719e+17
19075.0	4.7567202743746554e+17
19076.0	4.7558276398011725e+17
19077.0	4.7549517153348256e+17
19078.0	4.754053831589887e+17
19079.0	4.753193647647402e+17
19080.0	4.752307642870442e+17
19081.0	4.7514109279382176e+17
19082.0	4.7505272321256096e+17
19083.0	4.7496288569480525e+17
19084.0	4.7486892999966726e+17
19085.0	4.747904401713834e+17
19086.0	4.746863121006591e+17
19087.0	4.746081054578005e+17
19088.0	4.745240249019051e+17
19089.0	4.744275303246506e+17
19090.0	4.7434992437602976e+17
19091.0	4.742625024977578e+17
19092.0	4.7417126827677005e+17
19093.0	4.740876387483647e+17
19094.0	4.7399954578145274e+17
19095.0	4.73911775985664e+17
19096.0	4.73823139856384e+17
19097.0	4.7373630224465914e+17
19098.0	4.736483009931945e+17
19099.0	4.7356044863952205e+17
19100.0	4.7347224564203514e+17
19101.0	4.733851672073557e+17
19102.0	4.732922561735338e+17
19103.0	4.7320957924147194e+17
19104.0	4.731222282469375e+17
19105.0	4.7303431479623674e+17
19106.0	4.7294568272145056e+17
19107.0	4.7285837520786765e+17
19108.0	4.727716542676991e+17
19109.0	4.726643646005247e+17
19110.0	4.7259650222981114e+17
19111.0	4.7250896081387514e+17
19112.0	4.724214235922432e+17
19113.0	4.723337985698474e+17
19114.0	4.722462412854612e+17
19115.0	4.721562701791232e+17
19116.0	4.720705063092223e+17
19117.0	4.719832847089663e+17
19118.0	4.718921277330773e+17
19119.0	4.7155301825467674e+17
19120.0	4.717191468766548e+17
19121.0	4.7163310415544314e+17
19122.0	4.7154709184293536e+17
19123.0	4.7145967318029645e+17
19124.0	4.7137121006605645e+17
19125.0	4.712849385455615e+17
19126.0	4.711974791981738e+17
19127.0	4.710273010455891e+17
19128.0	4.71012697387827e+17
19129.0	4.7093204602497696e+17
19130.0	4.708482780146345e+17
19131.0	4.707613168107519e+17
19132.0	4.706742807385427e+17
19133.0	4.705759282244267e+17
19134.0	4.7049480507228154e+17
19135.0	4.704127583343957e+17
19136.0	4.7032594854488736e+17
19137.0	4.7023109540850336e+17
19138.0	4.70150629363985e+17
19139.0	4.70064712192273e+17
19140.0	4.699776834600959e+17
19141.0	4.6989066479424845e+17
19142.0	4.698024859839145e+17
19143.0	4.697135027759785e+17
19144.0	4.696282394962602e+17
19145.0	4.6954253700300794e+17
19146.0	4.694278450184192e+17
19147.0	4.6936434724044794e+17
19148.0	4.692816968723113e+17
19149.0	4.691946756898815e+17
19150.0	4.691077929194836e+17
19151.0	4.6902112734412794e+17
19152.0	4.689340823240704e+17
19153.0	4.688465924980736e+17
19154.0	4.687549690456746e+17
19155.0	4.686741726298111e+17
19156.0	4.685872873428308e+17
19157.0	4.685004565118975e+17
19158.0	4.6840047793602554e+17
19159.0	4.683052563300352e+17
19160.0	4.6804042678708896e+17
19161.0	4.6795361965397325e+17
19162.0	4.6783722967531514e+17
19163.0	4.677812913613482e+17
19164.0	4.6769494105784314e+17
19165.0	4.676072638862676e+17
19166.0	4.6751558325152416e+17
19167.0	4.6743247801111885e+17
19168.0	4.67346267517747e+17
19169.0	4.672605194463913e+17
19170.0	4.6717584665477114e+17
19171.0	4.670873272669524e+17
19172.0	4.670028895660714e+17
19173.0	4.669165247922175e+17
19174.0	4.668273043264853e+17
19175.0	4.6674371429444256e+17
19176.0	4.666572134154238e+17
19177.0	4.665641165739349e+17
19178.0	4.664844974292992e+17
19179.0	4.663954550117717e+17
19180.0	4.663106211588779e+17
19181.0	4.662195149340671e+17
19182.0	4.6613854040009376e+17
19183.0	4.6605324279698765e+17
19184.0	4.6596494514804045e+17
19185.0	4.658801451991039e+17
19186.0	4.65794562593041e+17
19187.0	4.6570536135120205e+17
19188.0	4.656220217890132e+17
19189.0	4.655357783004499e+17
19190.0	4.6544952069106336e+17
19191.0	4.6536221443577165e+17
19192.0	4.6527781126799354e+17
19193.0	4.6519107816434336e+17
19194.0	4.6510463761339725e+17
19195.0	4.6501943480156154e+17
19196.0	4.6493264486509216e+17
19197.0	4.648470290541225e+17
19198.0	4.647613935299242e+17
19199.0	4.644932058873854e+17
19200.0	4.64478571261679e+17
19201.0	4.64503472984337e+17
19202.0	4.6441758188721485e+17
19203.0	4.6433118789304314e+17
19204.0	4.6424443276929696e+17
19205.0	4.6415930335778125e+17
19206.0	4.640730135221589e+17
19207.0	4.63984017941026e+17
19208.0	4.638903890520745e+17
19209.0	4.638155634376704e+17
19210.0	4.6372981145163085e+17
19211.0	4.6364461542058656e+17
19212.0	4.6355868314938016e+17
19213.0	4.634676451519145e+17
19214.0	4.633813294514175e+17
19215.0	4.6330090381202765e+17
19216.0	4.6321538041555616e+17
19217.0	4.6312970064145056e+17
19218.0	4.630060043250346e+17
19219.0	4.629518252419755e+17
19220.0	4.62871665241839e+17
19221.0	4.6277155894941e+17
19222.0	4.6270147066156365e+17
19223.0	4.6261456880708256e+17
19224.0	4.625276068342442e+17
19225.0	4.6243731835890336e+17
19226.0	4.6235758044555936e+17
19227.0	4.6227207291753805e+17
19228.0	4.621876823326719e+17
19229.0	4.621020741413546e+17
19230.0	4.62015681265664e+17
19231.0	4.619300156822868e+17
19232.0	4.6184469011715405e+17
19233.0	4.61756554088721e+17
19234.0	4.616728640225278e+17
19235.0	4.6158712573788154e+17
19236.0	4.615031766035113e+17
19237.0	4.614167779956053e+17
19238.0	4.613278063220053e+17
19239.0	4.612468164788224e+17
19240.0	4.6115654044658336e+17
19241.0	4.6107374048160416e+17
19242.0	4.609896103630164e+17
19243.0	4.6089735503871994e+17
19244.0	4.608194713572693e+17
19245.0	4.6073384513044474e+17
19246.0	4.606482220493482e+17
19247.0	4.605634424427859e+17
19248.0	4.604784709468159e+17
19249.0	4.60392909312273e+17
19250.0	4.603067254527317e+17
19251.0	4.60218724061457e+17
19252.0	4.601223793606655e+17
19253.0	4.600503402321236e+17
19254.0	4.599655501398014e+17
19255.0	4.5987155627649696e+17
19256.0	4.597947526283264e+17
19257.0	4.5971009661392205e+17
19258.0	4.596248676575913e+17
19259.0	4.5953610024659616e+17
19260.0	4.594491124088831e+17
19261.0	4.5936839904023885e+17
19262.0	4.5928097569396045e+17
19263.0	4.591958912314026e+17
19264.0	4.5908786476482554e+17
19265.0	4.590179034944851e+17
19266.0	4.5893150929059834e+17
19267.0	4.588572211063466e+17
19268.0	4.587716009612629e+17
19269.0	4.586864778412031e+17
19270.0	4.586013339593385e+17
19271.0	4.584999335843158e+17
19272.0	4.584290436251647e+17
19273.0	4.582062728850088e+17
19274.0	4.581873600692223e+17
19275.0	4.5817498785109325e+17
19276.0	4.580887654738601e+17
19277.0	4.580037178512725e+17
19278.0	4.5791862381172045e+17
19279.0	4.578321823520084e+17
19280.0	4.577439887917055e+17
19281.0	4.576624959116628e+17
19282.0	4.5757787638770336e+17
19283.0	4.5748986653791565e+17
19284.0	4.574032074637311e+17
19285.0	4.57313040273681e+17
19286.0	4.572351412131157e+17
19287.0	4.571513671210325e+17
19288.0	4.5701238634141005e+17
19289.0	4.5679312217920794e+17
19290.0	4.568953468747774e+17
19291.0	4.567983626824362e+17
19292.0	4.5672460172219725e+17
19293.0	4.566388232421376e+17
19294.0	4.5655328949971616e+17
19295.0	4.5646837294912845e+17
19296.0	4.5638258566103034e+17
19297.0	4.562963466463914e+17
19298.0	4.562105186735445e+17
19299.0	4.561264616057514e+17
19300.0	4.5604080000696314e+17
19301.0	4.5595505557067085e+17
19302.0	4.558695603459412e+17
19303.0	4.5578008095184205e+17
19304.0	4.5569656487935994e+17
19305.0	4.5561208733259085e+17
19306.0	4.555267637947049e+17
19307.0	4.554389691127123e+17
19308.0	4.5535459236904954e+17
19309.0	4.5526335416347296e+17
19310.0	4.551743860550313e+17
19311.0	4.550965320133289e+17
19312.0	4.5501196289092256e+17
19313.0	4.5492578007995725e+17
19314.0	4.545576565735415e+17
19315.0	4.5450437765802726e+17
19316.0	4.546685353765546e+17
19317.0	4.545822933559978e+17
19318.0	4.544960536423082e+17
19319.0	4.544053107141291e+17
19320.0	4.5411109119371936e+17
19321.0	4.5402509726624416e+17
19322.0	4.539344145263274e+17
19323.0	4.538489901154304e+17
19324.0	4.537655387051348e+17
19325.0	4.536733994232491e+17
19326.0	4.535926197846015e+17
19327.0	4.5350517434832205e+17
19328.0	4.534191694457514e+17
19329.0	4.533324049547263e+17
19330.0	4.532434636199251e+17
19331.0	4.5315635729312416e+17
19332.0	4.530712891883519e+17
19333.0	4.5298338174948685e+17
19334.0	4.528964328488959e+17
19335.0	4.528091874110121e+17
19336.0	4.527215844087125e+17
19337.0	4.5263384068751354e+17
19338.0	4.5253665467924474e+17
19339.0	4.5245822664703994e+17
19340.0	4.523639969240404e+17
19341.0	4.5228157381727565e+17
19342.0	4.521753868326229e+17
19343.0	4.5210533209920845e+17
19344.0	4.520163083463338e+17
19345.0	4.5181774195589075e+17
19346.0	4.518152634717525e+17
19347.0	4.5174676028129274e+17
19348.0	4.5166064856378016e+17
19349.0	4.51569613012992e+17
19350.0	4.5148016255959034e+17
19351.0	4.5138951798783994e+17
19352.0	4.5129815591048525e+17
19353.0	4.512112297989461e+17
19354.0	4.5112063157425485e+17
19355.0	4.510050756329473e+17
19356.0	4.5070034868196685e+17
19357.0	4.5060857954740896e+17
19358.0	4.5051577176337056e+17
19359.0	4.504169369042943e+17
19360.0	4.5032986643879245e+17
19361.0	4.5023667571479885e+17
19362.0	4.5014554844856314e+17
19363.0	4.500517026441898e+17
19364.0	4.499571643602259e+17
19365.0	4.4986273414949536e+17
19366.0	4.4976793442058234e+17
19367.0	4.4967246618951674e+17
19368.0	4.4957652484096e+17
19369.0	4.4947652739071994e+17
19370.0	4.49367209218321e+17
19371.0	4.492302184262314e+17
19372.0	4.490538976455338e+17
19373.0	4.489535494116692e+17
19374.0	4.4885451301628576e+17
19375.0	4.487540400717824e+17
19376.0	4.4865280376395085e+17
19377.0	4.4855008183364256e+17
19378.0	4.484472426725376e+17
19379.0	4.483433821984084e+17
19380.0	4.482385752795817e+17
19381.0	4.4813238088499194e+17
19382.0	4.480218075671211e+17
19383.0	4.4791264654131194e+17
19384.0	4.478081518884181e+17
19385.0	4.476975572495018e+17
19386.0	4.475858449683797e+17
19387.0	4.474725015224318e+17
19388.0	4.473576528805887e+17
19389.0	4.4724117370306554e+17
19390.0	4.4712296563343354e+17
19391.0	4.467654410633212e+17
19392.0	4.4688068327069e+17
19393.0	4.4675712655469216e+17
19394.0	4.466306547275092e+17
19395.0	4.465019289512617e+17
19396.0	4.463712387727359e+17
19397.0	4.4623825235258016e+17
19398.0	4.4610066233425914e+17
19399.0	4.4592616286016845e+17
19400.0	4.4581760148002125e+17
19401.0	4.4567349609977165e+17
19402.0	4.4552409855645005e+17
19403.0	4.45300054355695e+17
19404.0	4.451289280107861e+17
19405.0	4.449652817876309e+17
19406.0	4.4479795597148154e+17
19407.0	4.446256794086057e+17
19408.0	4.444099557283157e+17
19409.0	4.4426106674435405e+17
19410.0	4.4407198283639456e+17
19411.0	4.4387422468833274e+17
19412.0	4.43668802568192e+17
19413.0	4.4345591612484256e+17
19414.0	4.432324510176595e+17
19415.0	4.430026205648213e+17
19416.0	4.4275475138914976e+17
19417.0	4.4246971522744314e+17
19418.0	4.4212568296434336e+17
19419.0	4.4184846135022925e+17
19420.0	4.415593000206334e+17
19421.0	4.4125664533544954e+17
19422.0	4.409185872292521e+17
19423.0	4.4044130591266125e+17
19424.0	4.40084867387665e+17
19425.0	4.3965951616832864e+17
19426.0	4.3910435669278714e+17
19427.0	4.3859617223365946e+17
19428.0	4.3797412486403405e+17
19429.0	4.3721122395804966e+17
19430.0	4.363776472820393e+17
19431.0	4.352438043672581e+17
19432.0	4.339802259674454e+17
19433.0	4.321061049641645e+17
19434.0	4.301112430908755e+17
19435.0	4.2891985069015034e+17
19436.0	4.276992768387755e+17
19437.0	4.2638118562911565e+17
19438.0	4.245361763811325e+17
19439.0	4.2338960822763514e+17
19440.0	4.2167788179729075e+17
19441.0	4.19795832231253e+17
19442.0	4.1763740473535155e+17
19443.0	4.1488755765630304e+17
19444.0	4.103428747821058e+17
19445.0	4.0315313657828666e+17
19446.0	3.980450314496682e+17
19447.0	3.921970232033275e+17
19448.0	3.8230565570914963e+17
19449.0	3.655444722963792e+17
19450.0	3.2044722715361216e+17
19451.0	3.0657507240181677e+17
19452.0	3.465528985605473e+17
19453.0	3.7476058348038957e+17
19454.0	3.8809936883002074e+17
19455.0	3.947990273578326e+17
19456.0	3.9999880864727066e+17
19457.0	4.0587746928667366e+17
19458.0	4.1128995764306054e+17
19459.0	4.152601901094235e+17
19460.0	4.174659361352361e+17
19461.0	4.192756550686036e+17
19462.0	4.209486640185344e+17
19463.0	4.2240180713335456e+17
19464.0	4.2373566424241485e+17
19465.0	4.249630952914943e+17
19466.0	4.2606099497833805e+17
19467.0	4.2705589241555616e+17
19468.0	4.284310980919289e+17
19469.0	4.3030492122972154e+17
19470.0	4.317461862154238e+17
19471.0	4.3274232251023366e+17
19472.0	4.3353391720912186e+17
19473.0	4.341511844003842e+17
19474.0	4.346341302643373e+17
19475.0	4.350709669560318e+17
19476.0	4.354046822099626e+17
19477.0	4.357875335255381e+17
19478.0	4.359910057137493e+17
19479.0	4.362184096219134e+17
19480.0	4.364953486797482e+17
19481.0	4.3664061147818656e+17
19482.0	4.3677391813345274e+17
19483.0	4.368948803229013e+17
19484.0	4.3700119502411085e+17
19485.0	4.372035855712254e+17
19486.0	4.3729453367077536e+17
19487.0	4.373679307751423e+17
19488.0	4.374312323994965e+17
19489.0	4.3748429300148896e+17
19490.0	4.374577759125502e+17
19491.0	4.3756645438368416e+17
19492.0	4.3759905887573325e+17
19493.0	4.3762316535835296e+17
19494.0	4.3764083728930125e+17
19495.0	4.376524916523007e+17
19496.0	4.376400126192297e+17
19497.0	4.376602142048255e+17
19498.0	4.376526773900628e+17
19499.0	4.372499026411514e+17
19500.0	4.3764313066482336e+17
19501.0	4.377049264641366e+17
19502.0	4.376857628988757e+17
19503.0	4.376639795014313e+17
19504.0	4.3763831406591994e+17
19505.0	4.37610559377681e+17
19506.0	4.3758010691310925e+17
19507.0	4.3754558282792954e+17
19508.0	4.375110968410111e+17
19509.0	4.3747314852604576e+17
19510.0	4.3742382064489805e+17
19511.0	4.368611941897551e+17
19512.0	4.37306110858581e+17
19513.0	4.371789676631378e+17
19514.0	4.371850828185599e+17
19515.0	4.371807463276545e+17
19516.0	4.371561538650111e+17
19517.0	4.3710138072869536e+17
19518.0	4.3705240125439994e+17
19519.0	4.3699824139523405e+17
19520.0	4.3694192992802125e+17
19521.0	4.368873527356074e+17
19522.0	4.368284851896319e+17
19523.0	4.3677218833257805e+17
19524.0	4.3671317118976e+17
19525.0	4.366520577338025e+17
19526.0	4.3659258732653216e+17
19527.0	4.365306928212649e+17
19528.0	4.3646867982690976e+17
19529.0	4.3640577435456845e+17
19530.0	4.3634279422361594e+17
19531.0	4.362788376586923e+17
19532.0	4.3621414848866976e+17
19533.0	4.3614890937548794e+17
19534.0	4.360830549579093e+17
19535.0	4.360158209638399e+17
19536.0	4.3601589813903354e+17
19537.0	4.360067570728959e+17
19538.0	4.3593754008180045e+17
19539.0	4.3584088458308275e+17
19540.0	4.358005518761983e+17
19541.0	4.3573268705880736e+17
19542.0	4.3566296696094714e+17
19543.0	4.355931971605844e+17
19544.0	4.355233340369578e+17
19545.0	4.3543741665553056e+17
19546.0	4.3533353066605216e+17
19547.0	4.3531148596346874e+17
19548.0	4.352404235485183e+17
19549.0	4.351642801537024e+17
19550.0	4.350972136521727e+17
19551.0	4.3502541548639565e+17
19552.0	4.3495323249322656e+17
19553.0	4.348800713883647e+17
19554.0	4.348061269972309e+17
19555.0	4.347350013881002e+17
19556.0	4.34662787916322e+17
19557.0	4.34589491335441e+17
19558.0	4.345162291478527e+17
19559.0	4.3444252760692045e+17
19560.0	4.343682299155796e+17
19561.0	4.343042887996758e+17
19562.0	4.344401076333226e+17
19563.0	4.343662058842794e+17
19564.0	4.342919081929386e+17
19565.0	4.3421731200696314e+17
19566.0	4.3414141908200096e+17
19567.0	4.3406815451764045e+17
19568.0	4.3399228144571725e+17
19569.0	4.3391749064403616e+17
19570.0	4.338434697068543e+17
19571.0	4.337684156426921e+17
19572.0	4.3369167609746765e+17
19573.0	4.336175005302782e+17
19574.0	4.335383048006313e+17
19575.0	4.3346729635239245e+17
19576.0	4.3339179098111994e+17
19577.0	4.3331329646919674e+17
19578.0	4.3323873768243194e+17
19579.0	4.331638423027712e+17
19580.0	4.3308841207944525e+17
19581.0	4.330128215638015e+17
19582.0	4.3293791367113376e+17
19583.0	4.328620310921215e+17
19584.0	4.327860868568404e+17
19585.0	4.327048749951657e+17
19586.0	4.3262763779577165e+17
19587.0	4.3255661445775354e+17
19588.0	4.324594155170474e+17
19589.0	4.324047045263359e+17
19590.0	4.3232457759129594e+17
19591.0	4.322529321680895e+17
19592.0	4.321768776226132e+17
19593.0	4.3209977303313056e+17
19594.0	4.3201235653754874e+17
19595.0	4.3194705346123085e+17
19596.0	4.318493255488853e+17
19597.0	4.317944319661396e+17
19598.0	4.316997036102996e+17
19599.0	4.316419124625407e+17
19600.0	4.315657383094955e+17
19601.0	4.314862029810346e+17
19602.0	4.314108960003412e+17
19603.0	4.313140718206974e+17
19604.0	4.31257820332032e+17
19605.0	4.3116878364672e+17
19606.0	4.311059634585599e+17
19607.0	4.3102970304266234e+17
19608.0	4.3095239642753696e+17
19609.0	4.308738036290902e+17
19610.0	4.307998096752638e+17
19611.0	4.3072253479703885e+17
19612.0	4.306464674589353e+17
19613.0	4.3056914972890445e+17
19614.0	4.304912049504255e+17
19615.0	4.3041630901152416e+17
19616.0	4.303374981092693e+17
19617.0	4.3026243041361914e+17
19618.0	4.301614205282986e+17
19619.0	4.300738143802708e+17
19620.0	4.3000077036639565e+17
19621.0	4.2995549012841805e+17
19622.0	4.298789173067775e+17
19623.0	4.2980225269978445e+17
19624.0	4.297250396875434e+17
19625.0	4.2964865644844365e+17
19626.0	4.295714149149355e+17
19627.0	4.29495113744384e+17
19628.0	4.294137794090325e+17
19629.0	4.293373913464831e+17
19630.0	4.2926330406939296e+17
19631.0	4.289827395250856e+17
19632.0	4.291110208449194e+17
19633.0	4.2903241057020576e+17
19634.0	4.2895753979712845e+17
19635.0	4.2887909268084045e+17
19636.0	4.2880342974354765e+17
19637.0	4.2871107711139834e+17
19638.0	4.2864979888919885e+17
19639.0	4.2857328989088416e+17
19640.0	4.284942037024767e+17
19641.0	4.2837301865567584e+17
19642.0	4.2834288817384096e+17
19643.0	4.282657205998931e+17
19644.0	4.2818692731371514e+17
19645.0	4.2809992367745696e+17
19646.0	4.2803622387384314e+17
19647.0	4.2795955381425485e+17
19648.0	4.2788261594835616e+17
19649.0	4.2780573407641594e+17
19650.0	4.277292861751296e+17
19651.0	4.2765231104983034e+17
19652.0	4.2757556989678925e+17
19653.0	4.274991182905343e+17
19654.0	4.274221180693162e+17
