# Flux units: erg / (cm m2 s)
# Wavelength units: Angstrom
wave	flux
19000.0	7.824631342475945e+17
19001.0	7.823149829018964e+17
19002.0	7.821692581008722e+17
19003.0	7.820222506816851e+17
19004.0	7.818752180966739e+17
19005.0	7.817282257769811e+17
19006.0	7.815811713815892e+17
19007.0	7.814307850310996e+17
19008.0	7.812861507491155e+17
19009.0	7.811395241727315e+17
19010.0	7.809869478363136e+17
19011.0	7.808451961596586e+17
19012.0	7.806942820259155e+17
19013.0	7.80551214735906e+17
19014.0	7.804033080579411e+17
19015.0	7.802567787894102e+17
19016.0	7.801088483437225e+17
19017.0	7.799599975279272e+17
19018.0	7.798147508775593e+17
19019.0	7.796677458351446e+17
19020.0	7.795198672590163e+17
19021.0	7.793726815819091e+17
19022.0	7.79225849205009e+17
19023.0	7.790785154689705e+17
19024.0	7.789310626146985e+17
19025.0	7.787836911299242e+17
19026.0	7.786357774614525e+17
19027.0	7.784862116566356e+17
19028.0	7.783417926822569e+17
19029.0	7.781944225955837e+17
19030.0	7.780470550254932e+17
19031.0	7.778996789269842e+17
19032.0	7.777522898261331e+17
19033.0	7.776037993010515e+17
19034.0	7.774574877168979e+17
19035.0	7.773095863517183e+17
19036.0	7.76944262333508e+17
19037.0	7.770152719002281e+17
19038.0	7.768679113206441e+17
19039.0	7.76720515928337e+17
19040.0	7.765731094910291e+17
19041.0	7.764257072480255e+17
19042.0	7.762772958554793e+17
19043.0	7.761309087738536e+17
19044.0	7.759834752133804e+17
19045.0	7.758360974371497e+17
19046.0	7.756880643708244e+17
19047.0	7.755412694630399e+17
19048.0	7.75391414391057e+17
19049.0	7.752456798033236e+17
19050.0	7.750985812279296e+17
19051.0	7.749189784742568e+17
19052.0	7.748020857383593e+17
19053.0	7.746561004710569e+17
19054.0	7.745095695248041e+17
19055.0	7.743590521722195e+17
19056.0	7.742148262756351e+17
19057.0	7.740674596842153e+17
19058.0	7.739200981259602e+17
19059.0	7.737727411814399e+17
19060.0	7.736250935716521e+17
19061.0	7.734780437899945e+17
19062.0	7.733306573455356e+17
19063.0	7.731833526900054e+17
19064.0	7.730346511914323e+17
19065.0	7.728864131634515e+17
19066.0	7.727405906351442e+17
19067.0	7.725941122575017e+17
19068.0	7.724468049455785e+17
19069.0	7.722995332852393e+17
19070.0	7.721521155233108e+17
19071.0	7.720049922015232e+17
19072.0	7.718577254345385e+17
19073.0	7.717103883430569e+17
19074.0	7.715632148294313e+17
19075.0	7.714159712709289e+17
19076.0	7.712684671063382e+17
19077.0	7.711195070988287e+17
19078.0	7.709647753095849e+17
19079.0	7.708182049368745e+17
19080.0	7.706709824897021e+17
19081.0	7.705232554677587e+17
19082.0	7.703760360964096e+17
19083.0	7.702282064538281e+17
19084.0	7.700791654962515e+17
19085.0	7.699351948929706e+17
19086.0	7.697830269419519e+17
19087.0	7.696344828695891e+17
19088.0	7.694926784845138e+17
19089.0	7.693410838948521e+17
19090.0	7.691995283718143e+17
19091.0	7.690522098750804e+17
19092.0	7.68903281324851e+17
19093.0	7.687584271215274e+17
19094.0	7.686096318103551e+17
19095.0	7.684621375722836e+17
19096.0	7.683168637987497e+17
19097.0	7.681702458905939e+17
19098.0	7.680233268314111e+17
19099.0	7.678762983008938e+17
19100.0	7.677293658199378e+17
19101.0	7.675824085925887e+17
19102.0	7.67434442215697e+17
19103.0	7.672885060217514e+17
19104.0	7.671415645929471e+17
19105.0	7.669946231641428e+17
19106.0	7.668465411642708e+17
19107.0	7.667006074869075e+17
19108.0	7.665538706003283e+17
19109.0	7.663829753615699e+17
19110.0	7.662598356292948e+17
19111.0	7.661133025858899e+17
19112.0	7.659664773393066e+17
19113.0	7.658196495761408e+17
19114.0	7.6567281677981e+17
19115.0	7.655253542786387e+17
19116.0	7.653792019382271e+17
19117.0	7.652321864100521e+17
19118.0	7.650834984730621e+17
19119.0	7.649128361579859e+17
19120.0	7.647903571684009e+17
19121.0	7.646442249606484e+17
19122.0	7.644985964888063e+17
19123.0	7.64351670718737e+17
19124.0	7.642038768675497e+17
19125.0	7.64058165767919e+17
19126.0	7.639112815214591e+17
19127.0	7.637452192393897e+17
19128.0	7.636008169024169e+17
19129.0	7.634705883769513e+17
19130.0	7.633250904877738e+17
19131.0	7.631784485322751e+17
19132.0	7.630317650531667e+17
19133.0	7.628764042581332e+17
19134.0	7.627292433274195e+17
19135.0	7.625919004235092e+17
19136.0	7.624453574535848e+17
19137.0	7.622967626301439e+17
19138.0	7.6214987404957e+17
19139.0	7.61996715823377e+17
19140.0	7.618488737376938e+17
19141.0	7.61702334402833e+17
19142.0	7.615557778713257e+17
19143.0	7.61408564372002e+17
19144.0	7.612626855002111e+17
19145.0	7.611161022649684e+17
19146.0	7.609619987824641e+17
19147.0	7.608221592890025e+17
19148.0	7.606765109641216e+17
19149.0	7.605300687973032e+17
19150.0	7.603834659886419e+17
19151.0	7.60237196067908e+17
19152.0	7.600904995864575e+17
19153.0	7.599442472818004e+17
19154.0	7.597962302936404e+17
19155.0	7.596512982160723e+17
19156.0	7.595047664309587e+17
19157.0	7.593578614925994e+17
19158.0	7.591954415441236e+17
19159.0	7.5906504720384e+17
19160.0	7.589184267791017e+17
19161.0	7.587704239117651e+17
19162.0	7.585890872328191e+17
19163.0	7.584792596621993e+17
19164.0	7.583332714588841e+17
19165.0	7.581862908832425e+17
19166.0	7.580385804987049e+17
19167.0	7.578905098234538e+17
19168.0	7.577457752976044e+17
19169.0	7.575997455706794e+17
19170.0	7.57454705280068e+17
19171.0	7.573064932567722e+17
19172.0	7.571618254203561e+17
19173.0	7.570154149904381e+17
19174.0	7.568684093887827e+17
19175.0	7.567226348153514e+17
19176.0	7.56576193627204e+17
19177.0	7.564279119784617e+17
19178.0	7.562826712001193e+17
19179.0	7.561341458623145e+17
19180.0	7.5598650174778e+17
19181.0	7.558426028670973e+17
19182.0	7.556963913869994e+17
19183.0	7.555506257614164e+17
19184.0	7.554029545237162e+17
19185.0	7.552579630268415e+17
19186.0	7.551115836347731e+17
19187.0	7.549642265504425e+17
19188.0	7.548186516258815e+17
19189.0	7.546714560222547e+17
19190.0	7.545245981999101e+17
19191.0	7.543786877310291e+17
19192.0	7.542322093533862e+17
19193.0	7.540825015014739e+17
19194.0	7.539378852549972e+17
19195.0	7.537924758656339e+17
19196.0	7.536460100709034e+17
19197.0	7.534992102697641e+17
19198.0	7.533518043916968e+17
19199.0	7.529823916261373e+17
19200.0	7.529134842445824e+17
19201.0	7.529119709396991e+17
19202.0	7.527660727741097e+17
19203.0	7.526190940159999e+17
19204.0	7.52472585858799e+17
19205.0	7.523261819999574e+17
19206.0	7.521792728672938e+17
19207.0	7.520320483229693e+17
19208.0	7.518834270754132e+17
19209.0	7.517389822361597e+17
19210.0	7.515920875039402e+17
19211.0	7.514450963027284e+17
19212.0	7.512982598713343e+17
19213.0	7.511485721520809e+17
19214.0	7.510008693172906e+17
19215.0	7.508564531391145e+17
19216.0	7.507098127215274e+17
19217.0	7.505631478371667e+17
19218.0	7.50406300860416e+17
19219.0	7.502668032027306e+17
19220.0	7.501217170543955e+17
19221.0	7.499705734922241e+17
19222.0	7.498272023947944e+17
19223.0	7.496798555166036e+17
19224.0	7.495318497132541e+17
19225.0	7.49383232380382e+17
19226.0	7.492376961832276e+17
19227.0	7.490902261323092e+17
19228.0	7.489426940056914e+17
19229.0	7.487951017607168e+17
19230.0	7.4864660592285e+17
19231.0	7.484997542521513e+17
19232.0	7.483513643903658e+17
19233.0	7.482033029425833e+17
19234.0	7.480560434457257e+17
19235.0	7.479084512007508e+17
19236.0	7.477604588191743e+17
19237.0	7.476122323954344e+17
19238.0	7.474628953199956e+17
19239.0	7.473161725542397e+17
19240.0	7.47164441789508e+17
19241.0	7.470186174436691e+17
19242.0	7.468712247077545e+17
19243.0	7.467205029527551e+17
19244.0	7.4657417934493e+17
19245.0	7.464255871778815e+17
19246.0	7.462766993124009e+17
19247.0	7.461280182261076e+17
19248.0	7.459792444456957e+17
19249.0	7.458302655638185e+17
19250.0	7.456811535826943e+17
19251.0	7.455309484261377e+17
19252.0	7.453784959614975e+17
19253.0	7.452333629767679e+17
19254.0	7.450834993763668e+17
19255.0	7.449318284503721e+17
19256.0	7.447845906240854e+17
19257.0	7.446350206249642e+17
19258.0	7.444850861408253e+17
19259.0	7.443340952513193e+17
19260.0	7.441821900035412e+17
19261.0	7.440347210711039e+17
19262.0	7.438843292680191e+17
19263.0	7.437335243259905e+17
19264.0	7.435774584684543e+17
19265.0	7.434301350783658e+17
19266.0	7.432798966469972e+17
19267.0	7.431303007830015e+17
19268.0	7.429790541807615e+17
19269.0	7.4282764889402e+17
19270.0	7.426758665393494e+17
19271.0	7.425073388453887e+17
19272.0	7.423587479366313e+17
19273.0	7.421175811888467e+17
19274.0	7.420103791127209e+17
19275.0	7.419024392585212e+17
19276.0	7.41749836358178e+17
19277.0	7.41597022064913e+17
19278.0	7.414440043479041e+17
19279.0	7.412905298711891e+17
19280.0	7.411363959100756e+17
19281.0	7.409836297114963e+17
19282.0	7.40829694140962e+17
19283.0	7.406722547886761e+17
19284.0	7.405143265203539e+17
19285.0	7.403640847335423e+17
19286.0	7.402117632709972e+17
19287.0	7.400566587479378e+17
19288.0	7.398520891200851e+17
19289.0	7.395950638486865e+17
19290.0	7.395896463458301e+17
19291.0	7.394300730714794e+17
19292.0	7.39276865072879e+17
19293.0	7.391198855561215e+17
19294.0	7.389628066343594e+17
19295.0	7.388052923438419e+17
19296.0	7.386474408312833e+17
19297.0	7.384892181228202e+17
19298.0	7.383306773463039e+17
19299.0	7.381717430042623e+17
19300.0	7.380124123004927e+17
19301.0	7.378526017683453e+17
19302.0	7.376924724690943e+17
19303.0	7.37530806796288e+17
19304.0	7.373702663154345e+17
19305.0	7.372096183205887e+17
19306.0	7.370477057430867e+17
19307.0	7.36884918793011e+17
19308.0	7.367069822965075e+17
19309.0	7.365348096125609e+17
19310.0	7.363673293761194e+17
19311.0	7.362124781890217e+17
19312.0	7.36048540042308e+17
19313.0	7.358817918517247e+17
19314.0	7.356409010891432e+17
19315.0	7.354795850814807e+17
19316.0	7.353826587705343e+17
19317.0	7.352153197423274e+17
19318.0	7.350467492664659e+17
19319.0	7.348775016901289e+17
19320.0	7.347071799525375e+17
19321.0	7.345368053667156e+17
19322.0	7.343633769081512e+17
19323.0	7.34190566969617e+17
19324.0	7.340202488670889e+17
19325.0	7.338307383285076e+17
19326.0	7.336614534228649e+17
19327.0	7.334737551032319e+17
19328.0	7.332865958914732e+17
19329.0	7.331091463536637e+17
19330.0	7.329302183236947e+17
19331.0	7.327507208470527e+17
19332.0	7.325707417245012e+17
19333.0	7.323891553446569e+17
19334.0	7.322060124585983e+17
19335.0	7.320225393410045e+17
19336.0	7.318374216368127e+17
19337.0	7.316509800704681e+17
19338.0	7.31460899386163e+17
19339.0	7.312679485396308e+17
19340.0	7.310546850982569e+17
19341.0	7.308633789781332e+17
19342.0	7.30665767141376e+17
19343.0	7.304754763224403e+17
19344.0	7.302791118716927e+17
19345.0	7.300570682141353e+17
19346.0	7.298751012711081e+17
19347.0	7.296789782724605e+17
19348.0	7.294585903863123e+17
19349.0	7.292352234258432e+17
19350.0	7.290279425998847e+17
19351.0	7.288184182407168e+17
19352.0	7.286064274909866e+17
19353.0	7.283936743565993e+17
19354.0	7.28167177326865e+17
19355.0	7.27896671981841e+17
19356.0	7.276723404712616e+17
19357.0	7.27448997138705e+17
19358.0	7.272222765525672e+17
19359.0	7.2698964227741e+17
19360.0	7.267468066160639e+17
19361.0	7.265009295250772e+17
19362.0	7.262636894846975e+17
19363.0	7.260224782772905e+17
19364.0	7.257777878947156e+17
19365.0	7.255295435385513e+17
19366.0	7.252743840333823e+17
19367.0	7.250125927743487e+17
19368.0	7.24729784557022e+17
19369.0	7.244538206049619e+17
19370.0	7.241763289475753e+17
19371.0	7.239131386085375e+17
19372.0	7.236352451368275e+17
19373.0	7.233519313660586e+17
19374.0	7.230633442366804e+17
19375.0	7.227691484839935e+17
19376.0	7.224554239120723e+17
19377.0	7.221174193531561e+17
19378.0	7.218051372023807e+17
19379.0	7.214861410893824e+17
19380.0	7.211601557280084e+17
19381.0	7.208268630502057e+17
19382.0	7.204564512014335e+17
19383.0	7.200759396084394e+17
19384.0	7.197198543836499e+17
19385.0	7.1935368115869e+17
19386.0	7.189711990816765e+17
19387.0	7.185174989810345e+17
19388.0	7.181222856534697e+17
19389.0	7.17716327637538e+17
19390.0	7.172412261007357e+17
19391.0	7.165974978843986e+17
19392.0	7.163343707395412e+17
19393.0	7.157805087020372e+17
19394.0	7.152778195501055e+17
19395.0	7.147376446450345e+17
19396.0	7.141622568801619e+17
19397.0	7.135848766810793e+17
19398.0	7.129627659075583e+17
19399.0	7.122906066015571e+17
19400.0	7.116587639242752e+17
19401.0	7.109793147781117e+17
19402.0	7.103594293624832e+17
19403.0	7.097110107957929e+17
19404.0	7.090611509264383e+17
19405.0	7.083870953755987e+17
19406.0	7.076873504118099e+17
19407.0	7.069356176091817e+17
19408.0	7.061393077436415e+17
19409.0	7.05360206827793e+17
19410.0	7.045434885974697e+17
19411.0	7.036181487987368e+17
19412.0	7.02728780189969e+17
19413.0	7.017529650184191e+17
19414.0	7.007311945356627e+17
19415.0	6.9964960642717e+17
19416.0	6.985375125864447e+17
19417.0	6.972844668529321e+17
19418.0	6.959979475675818e+17
19419.0	6.946066191264425e+17
19420.0	6.930918678375081e+17
19421.0	6.914366216252072e+17
19422.0	6.89623094473523e+17
19423.0	6.876601571956054e+17
19424.0	6.859625294288214e+17
19425.0	6.842641219409236e+17
19426.0	6.82466413466965e+17
19427.0	6.805979441485143e+17
19428.0	6.785670680237396e+17
19429.0	6.764205494850899e+17
19430.0	6.741003294386858e+17
19431.0	6.715641006391296e+17
19432.0	6.688725483738451e+17
19433.0	6.658805624471551e+17
19434.0	6.625794026285738e+17
19435.0	6.588167051629907e+17
19436.0	6.547590315944621e+17
19437.0	6.510540077662205e+17
19438.0	6.46936639395157e+17
19439.0	6.427497807740928e+17
19440.0	6.379316627636223e+17
19441.0	6.325161848471551e+17
19442.0	6.262127650144255e+17
19443.0	6.197255940516521e+17
19444.0	6.128417321080145e+17
19445.0	6.05007258705374e+17
19446.0	5.960638624956415e+17
19447.0	5.862377454392655e+17
19448.0	5.7487787249281754e+17
19449.0	5.6075962446861645e+17
19450.0	5.3538446198701555e+17
19451.0	5.2567574636571366e+17
19452.0	5.495098905897646e+17
19453.0	5.68253452089208e+17
19454.0	5.803229820485627e+17
19455.0	5.906074894860287e+17
19456.0	5.997378563735556e+17
19457.0	6.07882184124006e+17
19458.0	6.149257221723478e+17
19459.0	6.212664701921964e+17
19460.0	6.275904573538303e+17
19461.0	6.331487316781738e+17
19462.0	6.37991436349167e+17
19463.0	6.422951047288146e+17
19464.0	6.461682999448916e+17
19465.0	6.497492792595798e+17
19466.0	6.533103013767845e+17
19467.0	6.570672681648129e+17
19468.0	6.603064758064472e+17
19469.0	6.631571639500797e+17
19470.0	6.657620005879805e+17
19471.0	6.68100110319616e+17
19472.0	6.702328651098793e+17
19473.0	6.722184742786387e+17
19474.0	6.7402353082368e+17
19475.0	6.756915886074537e+17
19476.0	6.772542985469951e+17
19477.0	6.787501070308691e+17
19478.0	6.801312352742056e+17
19479.0	6.817250143808169e+17
19480.0	6.833179785341612e+17
19481.0	6.848026231089834e+17
19482.0	6.861050299285504e+17
19483.0	6.872822342571348e+17
19484.0	6.88363748336162e+17
19485.0	6.893294209116842e+17
19486.0	6.902011033288704e+17
19487.0	6.910798200831999e+17
19488.0	6.918021088018432e+17
19489.0	6.92570105577472e+17
19490.0	6.93191252779554e+17
19491.0	6.938340523070803e+17
19492.0	6.94430421099042e+17
19493.0	6.949560532336639e+17
19494.0	6.954543583592447e+17
19495.0	6.959701461827583e+17
19496.0	6.964066282460499e+17
19497.0	6.968208751853567e+17
19498.0	6.971991507249833e+17
19499.0	6.972830998593532e+17
19500.0	6.979420298412031e+17
19501.0	6.983036463742973e+17
19502.0	6.98661883486754e+17
19503.0	6.99084503515136e+17
19504.0	6.993817920776872e+17
19505.0	6.997751941649747e+17
19506.0	7.000043586322431e+17
19507.0	7.00343589605649e+17
19508.0	7.005459825295359e+17
19509.0	7.008056112054272e+17
19510.0	7.010284027772927e+17
19511.0	7.009771023149736e+17
19512.0	7.01362311738163e+17
19513.0	7.014775780627794e+17
19514.0	7.016298755478867e+17
19515.0	7.018015462435497e+17
19516.0	7.019743718408191e+17
19517.0	7.020684611245396e+17
19518.0	7.021549315948543e+17
19519.0	7.022321693534892e+17
19520.0	7.023360828855635e+17
19521.0	7.024186377633792e+17
19522.0	7.024724771777193e+17
19523.0	7.0251942786717e+17
19524.0	7.025595239454036e+17
19525.0	7.025925756900692e+17
19526.0	7.026444108562431e+17
19527.0	7.026844937224191e+17
19528.0	7.027006640226304e+17
19529.0	7.027114059147945e+17
19530.0	7.027173506416639e+17
19531.0	7.027181313414484e+17
19532.0	7.027141426282493e+17
19533.0	7.027056833462271e+17
19534.0	7.026928968007679e+17
19535.0	7.026958388953087e+17
19536.0	7.026850272378879e+17
19537.0	7.026609632575487e+17
19538.0	7.026342962921471e+17
19539.0	7.026028844504404e+17
19540.0	7.025743593384617e+17
19541.0	7.025362557643433e+17
19542.0	7.024950642737151e+17
19543.0	7.024728830465364e+17
19544.0	7.024280684462077e+17
19545.0	7.023745347267242e+17
19546.0	7.023156127946068e+17
19547.0	7.022715461085866e+17
19548.0	7.022241722138623e+17
19549.0	7.021936506131795e+17
19550.0	7.021432598254931e+17
19551.0	7.020903480513876e+17
19552.0	7.020246849639764e+17
19553.0	7.019568438444031e+17
19554.0	7.018871370285055e+17
19555.0	7.018186237018111e+17
19556.0	7.017753223364607e+17
19557.0	7.017004934365183e+17
19558.0	7.016240967057407e+17
19559.0	7.015458132372137e+17
19560.0	7.01466591432977e+17
19561.0	7.013855990033066e+17
19562.0	7.013031657603071e+17
19563.0	7.012193023994536e+17
19564.0	7.01134273651234e+17
19565.0	7.010554621198335e+17
19566.0	7.009857278312447e+17
19567.0	7.008971405656063e+17
19568.0	7.008073187764906e+17
19569.0	7.007162286997501e+17
19570.0	7.006242496402772e+17
19571.0	7.005311214114131e+17
19572.0	7.004366236723881e+17
19573.0	7.003417910181885e+17
19574.0	7.002447035760639e+17
19575.0	7.001490771498324e+17
19576.0	7.000513602824873e+17
19577.0	6.999521684182356e+17
19578.0	6.998528889629353e+17
19579.0	6.997528247533565e+17
19580.0	6.99667936584226e+17
19581.0	6.995701978365951e+17
19582.0	6.994680229833385e+17
19583.0	6.993649571201023e+17
19584.0	6.99261202342434e+17
19585.0	6.991553910975144e+17
19586.0	6.990495717436074e+17
19587.0	6.989442813613395e+17
19588.0	6.988394856972287e+17
19589.0	6.987442122915839e+17
19590.0	6.986371940657834e+17
19591.0	6.985302964262228e+17
19592.0	6.984219335764649e+17
19593.0	6.983131015238995e+17
19594.0	6.982007892475901e+17
19595.0	6.98093893984802e+17
19596.0	6.979355627836755e+17
19597.0	6.978727530812756e+17
19598.0	6.977590974393002e+17
19599.0	6.976502897836031e+17
19600.0	6.975383294793044e+17
19601.0	6.974255128379391e+17
19602.0	6.973127593907539e+17
19603.0	6.971922009729706e+17
19604.0	6.97085954499106e+17
19605.0	6.969773141262333e+17
19606.0	6.968735049624234e+17
19607.0	6.967591955682644e+17
19608.0	6.966443795021821e+17
19609.0	6.965290519407274e+17
19610.0	6.964139921855828e+17
19611.0	6.962982780491092e+17
19612.0	6.96182408094242e+17
19613.0	6.960661946957823e+17
19614.0	6.959491824921257e+17
19615.0	6.958329766434132e+17
19616.0	6.957143865425919e+17
19617.0	6.955987860717567e+17
19618.0	6.954756144627711e+17
19619.0	6.953557554451795e+17
19620.0	6.952383853275817e+17
19621.0	6.951276216582143e+17
19622.0	6.950092927227219e+17
19623.0	6.948907621810173e+17
19624.0	6.947720265378474e+17
19625.0	6.946530706937172e+17
19626.0	6.945339793735679e+17
19627.0	6.944146741439146e+17
19628.0	6.942902148836009e+17
19629.0	6.941744197271551e+17
19630.0	6.940510590948691e+17
19631.0	6.937012264588627e+17
19632.0	6.938154203698516e+17
19633.0	6.936953665967446e+17
19634.0	6.935750027946665e+17
19635.0	6.934539110711293e+17
19636.0	6.93333763695138e+17
19637.0	6.932077625387689e+17
19638.0	6.930918691657044e+17
19639.0	6.929707157159935e+17
19640.0	6.928490111347369e+17
19641.0	6.92722034942498e+17
19642.0	6.926068378238975e+17
19643.0	6.924850406184276e+17
19644.0	6.923632127945385e+17
19645.0	6.922387209584639e+17
19646.0	6.921198820655103e+17
19647.0	6.919978821353471e+17
19648.0	6.918757834293247e+17
19649.0	6.917535550494035e+17
19650.0	6.916313027619497e+17
19651.0	6.915089212899327e+17
19652.0	6.913864555823103e+17
19653.0	6.912638815917396e+17
19654.0	6.911412725787305e+17
19655.0	6.910185076075178e+17
19656.0	6.908956753177257e+17
19657.0	6.907728962955944e+17
19658.0	6.90649954394658e+17
19659.0	6.905269195898879e+17
19660.0	6.904038652816042e+17
19661.0	6.902807175801513e+17
19662.0	6.901575004629674e+17
19663.0	6.900336816728745e+17
19664.0	6.899099772474708e+17
19665.0	6.897874914071892e+17
19666.0	6.896638575859028e+17
