# Flux units: erg / (cm m2 s)
# Wavelength units: Angstrom
wave	flux
19000.0	5.14029295641122e+17
19001.0	5.139244088907092e+17
19002.0	5.138481526691156e+17
19003.0	5.137562957337941e+17
19004.0	5.136624992124927e+17
19005.0	5.135679247876094e+17
19006.0	5.134785716420607e+17
19007.0	5.133904923066368e+17
19008.0	5.132955155780947e+17
19009.0	5.131854345317033e+17
19010.0	5.1309299717461325e+17
19011.0	5.130149015410004e+17
19012.0	5.129001137165651e+17
19013.0	5.1284614973139616e+17
19014.0	5.1274929157789e+17
19015.0	5.126578568691711e+17
19016.0	5.125718097439402e+17
19017.0	5.1248389146978976e+17
19018.0	5.12391624331537e+17
19019.0	5.123026160975871e+17
19020.0	5.122104012483242e+17
19021.0	5.1212151625700685e+17
19022.0	5.12031019045137e+17
19023.0	5.119291231830015e+17
19024.0	5.118326996292949e+17
19025.0	5.117517504009556e+17
19026.0	5.1165541443829754e+17
19027.0	5.115611420732074e+17
19028.0	5.114775350542335e+17
19029.0	5.113871313054377e+17
19030.0	5.112972545709396e+17
19031.0	5.112076478797141e+17
19032.0	5.1111323304809805e+17
19033.0	5.1099927150155085e+17
19034.0	5.1088703003907405e+17
19035.0	5.106103206892885e+17
19036.0	5.096220346635605e+17
19037.0	5.1047006421210445e+17
19038.0	5.1052814280949754e+17
19039.0	5.104681968380585e+17
19040.0	5.103859415034538e+17
19041.0	5.1029998371689805e+17
19042.0	5.0976469161082816e+17
19043.0	5.1012640034870605e+17
19044.0	5.1003676324877645e+17
19045.0	5.099409783477588e+17
19046.0	5.098498087889577e+17
19047.0	5.0975677486202874e+17
19048.0	5.095985715172693e+17
19049.0	5.086433719790238e+17
19050.0	5.094470399120724e+17
19051.0	5.09241289867264e+17
19052.0	5.0920021539771725e+17
19053.0	5.0919643646962336e+17
19054.0	5.091243629477887e+17
19055.0	5.0888520611048115e+17
19056.0	5.0891289683558374e+17
19057.0	5.088662879819093e+17
19058.0	5.083071086155085e+17
19059.0	5.0850509143845523e+17
19060.0	5.0859777521090554e+17
19061.0	5.085054746580308e+17
19062.0	5.084156782444543e+17
19063.0	5.0832783784454816e+17
19064.0	5.082328832060075e+17
19065.0	5.0813447798347085e+17
19066.0	5.078835731103745e+17
19067.0	5.0796287285876045e+17
19068.0	5.078810449936383e+17
19069.0	5.0779074127899296e+17
19070.0	5.076955090474324e+17
19071.0	5.076071984660479e+17
19072.0	5.073449586961064e+17
19073.0	5.0743226970494285e+17
19074.0	5.0733821698157216e+17
19075.0	5.0725198621573114e+17
19076.0	5.0716045594678605e+17
19077.0	5.070700297584639e+17
19078.0	5.069779023604393e+17
19079.0	5.0689049802833914e+17
19080.0	5.0680159017806496e+17
19081.0	5.0670649195451725e+17
19082.0	5.066225640013823e+17
19083.0	5.065235391403349e+17
19084.0	5.064209805781674e+17
19085.0	5.063481794843988e+17
19086.0	5.0597984961822694e+17
19087.0	5.057720682719909e+17
19088.0	5.058311248412667e+17
19089.0	5.0596875799101434e+17
19090.0	5.058976053985279e+17
19091.0	5.0578231670429037e+17
19092.0	5.053529829933066e+17
19093.0	5.0563568544426656e+17
19094.0	5.055481659785215e+17
19095.0	5.0545741815698765e+17
19096.0	5.053704674388649e+17
19097.0	5.052812837431978e+17
19098.0	5.050021584044029e+17
19099.0	5.0487154540107117e+17
19100.0	5.050084939705002e+17
19101.0	5.049192621801471e+17
19102.0	5.048266764146004e+17
19103.0	5.047418728306004e+17
19104.0	5.04656321122577e+17
19105.0	5.041468446081037e+17
19106.0	5.044703681926485e+17
19107.0	5.042789666521086e+17
19108.0	5.041246935100075e+17
19109.0	5.041830413118121e+17
19110.0	5.041022412608853e+17
19111.0	5.039017867345917e+17
19112.0	5.037931708983975e+17
19113.0	5.038505710671188e+17
19114.0	5.036769611350014e+17
19115.0	5.0365306898131616e+17
19116.0	5.035765580955647e+17
19117.0	5.0348134522770765e+17
19118.0	5.033227598517589e+17
19119.0	5.0245005010971226e+17
19120.0	5.0317438348165114e+17
19121.0	5.031197057657515e+17
19122.0	5.030477257768959e+17
19123.0	5.0296291688011085e+17
19124.0	5.0286080277435725e+17
19125.0	5.0277956525752314e+17
19126.0	5.026721678666409e+17
19127.0	5.025192674503338e+17
19128.0	5.0248874983423994e+17
19129.0	5.0241786812388685e+17
19130.0	5.023414445495636e+17
19131.0	5.022555607924735e+17
19132.0	5.02165789544721e+17
19133.0	5.020754543727956e+17
19134.0	5.019895041359871e+17
19135.0	5.0190172686035616e+17
19136.0	5.0181164467486726e+17
19137.0	5.0171616050544634e+17
19138.0	5.016337078288383e+17
19139.0	5.0154860728811514e+17
19140.0	5.014605990461439e+17
19141.0	5.013714256265215e+17
19142.0	5.012797108082005e+17
19143.0	5.011913976403285e+17
19144.0	5.011005108475222e+17
19145.0	5.010158293876736e+17
19146.0	5.008628738861739e+17
19147.0	5.0083602663560525e+17
19148.0	5.00600943795678e+17
19149.0	5.004830605748907e+17
19150.0	5.005760780741289e+17
19151.0	5.004853782074709e+17
19152.0	5.003953478915413e+17
19153.0	4.9998444597957914e+17
19154.0	5.001891196261717e+17
19155.0	5.0012782910068045e+17
19156.0	5.000385134941524e+17
19157.0	4.99846029823181e+17
19158.0	4.9962555819076294e+17
19159.0	4.99763405529634e+17
19160.0	4.996759073849343e+17
19161.0	4.995794084036608e+17
19162.0	4.994699389566975e+17
19163.0	4.9939628397253965e+17
19164.0	4.993224746379946e+17
19165.0	4.9889354637639616e+17
19166.0	4.991459709157375e+17
19167.0	4.9906603705849165e+17
19168.0	4.989809028934315e+17
19169.0	4.9889453846910285e+17
19170.0	4.9880802137210874e+17
19171.0	4.987183025531561e+17
19172.0	4.9863083614535674e+17
19173.0	4.9854555483013114e+17
19174.0	4.984554649550847e+17
19175.0	4.9836851780212045e+17
19176.0	4.9828220888241485e+17
19177.0	4.9817701259236685e+17
19178.0	4.9810117726917965e+17
19179.0	4.9801549595716256e+17
19180.0	4.9792719089827834e+17
19181.0	4.978325833383935e+17
19182.0	4.9774459830490445e+17
19183.0	4.9766475210861216e+17
19184.0	4.975791691530239e+17
19185.0	4.974880058856788e+17
19186.0	4.9740138400098976e+17
19187.0	4.9730647955428685e+17
19188.0	4.9722444407111674e+17
19189.0	4.9713378740578976e+17
19190.0	4.970444990622377e+17
19191.0	4.969500118089727e+17
19192.0	4.968593271117141e+17
19193.0	4.967220951471445e+17
19194.0	4.9659812634077875e+17
19195.0	4.965609133572095e+17
19196.0	4.964413279480489e+17
19197.0	4.962978800249514e+17
19198.0	4.9609890413062816e+17
19199.0	4.9580299563390285e+17
19200.0	4.9573688340643834e+17
19201.0	4.95847257215249e+17
19202.0	4.958683743475027e+17
19203.0	4.958291918585855e+17
19204.0	4.9577587875949216e+17
19205.0	4.9570494937388365e+17
19206.0	4.956277113356287e+17
19207.0	4.955295082785449e+17
19208.0	4.954532816267945e+17
19209.0	4.95380634743603e+17
19210.0	4.952940554310996e+17
19211.0	4.9521216241445536e+17
19212.0	4.9512489551571616e+17
19213.0	4.9502728588274336e+17
19214.0	4.949438342627327e+17
19215.0	4.948638913877332e+17
19216.0	4.947774880262825e+17
19217.0	4.946836651507711e+17
19218.0	4.945731222416042e+17
19219.0	4.9449194952676685e+17
19220.0	4.9442558347400525e+17
19221.0	4.9433548863569914e+17
19222.0	4.942520853899946e+17
19223.0	4.9417041313355085e+17
19224.0	4.940805977057961e+17
19225.0	4.9399747932323834e+17
19226.0	4.9391379477954554e+17
19227.0	4.9382765866516474e+17
19228.0	4.937442058567679e+17
19229.0	4.9365286824618656e+17
19230.0	4.935691656669866e+17
19231.0	4.934833766312619e+17
19232.0	4.9339695572363936e+17
19233.0	4.9330427320948045e+17
19234.0	4.93221609419571e+17
19235.0	4.931329487536127e+17
19236.0	4.9305006357435725e+17
19237.0	4.9296031148059296e+17
19238.0	4.9286870298787834e+17
19239.0	4.9279026831469216e+17
19240.0	4.9270208544986445e+17
19241.0	4.926158127409833e+17
19242.0	4.9252639150789965e+17
19243.0	4.924289060962302e+17
19244.0	4.9235660761989114e+17
19245.0	4.9227067730602656e+17
19246.0	4.921845184025941e+17
19247.0	4.920974977094996e+17
19248.0	4.9201061892369056e+17
19249.0	4.919131853815807e+17
19250.0	4.917688779057834e+17
19251.0	4.9167742942576614e+17
19252.0	4.9163553371149645e+17
19253.0	4.915761535516671e+17
19254.0	4.9149282517428896e+17
19255.0	4.913855764714836e+17
19256.0	4.9131712214466554e+17
19257.0	4.912322730524671e+17
19258.0	4.9114429773578234e+17
19259.0	4.9104659331153914e+17
19260.0	4.909244569965908e+17
19261.0	4.9087930000124576e+17
19262.0	4.907856952295423e+17
19263.0	4.906923814726313e+17
19264.0	4.905929308198228e+17
19265.0	4.9051657784961683e+17
19266.0	4.9042670433075194e+17
19267.0	4.9036650698069325e+17
19268.0	4.9028021462848845e+17
19269.0	4.901944199304532e+17
19270.0	4.9010308581512525e+17
19271.0	4.9000516056077645e+17
19272.0	4.8993293541485216e+17
19273.0	4.89834032398336e+17
19274.0	4.897249969220264e+17
19275.0	4.896801832304639e+17
19276.0	4.8959190941914445e+17
19277.0	4.895071386206208e+17
19278.0	4.8941214203903994e+17
19279.0	4.893305651331071e+17
19280.0	4.892439985433258e+17
19281.0	4.8915851184701434e+17
19282.0	4.890730119386453e+17
19283.0	4.8898384963392845e+17
19284.0	4.888905794278741e+17
19285.0	4.8879969326421325e+17
19286.0	4.8869802599164576e+17
19287.0	4.885632419627007e+17
19288.0	4.879819470099795e+17
19289.0	4.8770000505623866e+17
19290.0	4.8829253200554656e+17
19291.0	4.882468893097984e+17
19292.0	4.8820340905738234e+17
19293.0	4.881240154264917e+17
19294.0	4.880388288326313e+17
19295.0	4.879575995645951e+17
19296.0	4.876654627258373e+17
19297.0	4.877530014154753e+17
19298.0	4.876992890885461e+17
19299.0	4.873849504705197e+17
19300.0	4.8752886619832314e+17
19301.0	4.874450403764906e+17
19302.0	4.873580582010879e+17
19303.0	4.8726480407319885e+17
19304.0	4.8718522274720416e+17
19305.0	4.870969879429119e+17
19306.0	4.8701044491113805e+17
19307.0	4.869153995358207e+17
19308.0	4.868266338025472e+17
19309.0	4.86726643482624e+17
19310.0	4.8663206437410125e+17
19311.0	4.8653997374614176e+17
19312.0	4.864274331598847e+17
19313.0	4.8620548541207885e+17
19314.0	4.810483999703045e+17
19315.0	4.812777282251466e+17
19316.0	4.856897855990446e+17
19317.0	4.8600408744700576e+17
19318.0	4.859553903192746e+17
19319.0	4.8588365227185485e+17
19320.0	4.85727259608132e+17
19321.0	4.8553842672926726e+17
19322.0	4.8563826633386656e+17
19323.0	4.8555384051684685e+17
19324.0	4.8546855927152634e+17
19325.0	4.85384575464243e+17
19326.0	4.8530186518746445e+17
19327.0	4.8521903180786336e+17
19328.0	4.8475882375523014e+17
19329.0	4.850519916238164e+17
19330.0	4.8496758300344314e+17
19331.0	4.848789129003006e+17
19332.0	4.8479828963928736e+17
19333.0	4.847121120712021e+17
19334.0	4.846186090812758e+17
19335.0	4.837767404759732e+17
19336.0	4.84451586932736e+17
19337.0	4.843725405203114e+17
19338.0	4.8426566566980256e+17
19339.0	4.8419707915250336e+17
19340.0	4.8409207209547085e+17
19341.0	4.83732810664073e+17
19342.0	4.838458905679192e+17
19343.0	4.8384766748480845e+17
19344.0	4.8346909261168685e+17
19345.0	4.8344988633443014e+17
19346.0	4.835005274521598e+17
19347.0	4.831423671653716e+17
19348.0	4.8342734488644256e+17
19349.0	4.8334245832512845e+17
19350.0	4.831233371187882e+17
19351.0	4.8317087591956474e+17
19352.0	4.8270771528662976e+17
19353.0	4.830080517100885e+17
19354.0	4.829250618829482e+17
19355.0	4.828298132936021e+17
19356.0	4.8275358279707296e+17
19357.0	4.826691782311936e+17
19358.0	4.825822216410453e+17
19359.0	4.824145874037414e+17
19360.0	4.821100489867263e+17
19361.0	4.8232502719938554e+17
19362.0	4.822411697804629e+17
19363.0	4.8215666958445216e+17
19364.0	4.8207168760272205e+17
19365.0	4.8198482573393914e+17
19366.0	4.8189768012049056e+17
19367.0	4.8181323207365965e+17
19368.0	4.8172890901708794e+17
19369.0	4.8163964905499296e+17
19370.0	4.815556536434688e+17
19371.0	4.814649804805462e+17
19372.0	4.8138450220264096e+17
19373.0	4.8129606467365536e+17
19374.0	4.81211712676386e+17
19375.0	4.81128604709683e+17
19376.0	4.810428260199081e+17
19377.0	4.809559537352703e+17
19378.0	4.8087024222426445e+17
19379.0	4.807838316625919e+17
19380.0	4.806925096408404e+17
19381.0	4.8060667838245536e+17
19382.0	4.805136329211903e+17
19383.0	4.804293669071529e+17
19384.0	4.8034187945792845e+17
19385.0	4.8025936288808954e+17
19386.0	4.801707727563434e+17
19387.0	4.8007916377429325e+17
19388.0	4.7998307415709005e+17
19389.0	4.798750492983295e+17
19390.0	4.7968944575392416e+17
19391.0	4.787391054566738e+17
19392.0	4.7930174896865274e+17
19393.0	4.7949573580827296e+17
19394.0	4.7944625427578874e+17
19395.0	4.7926016992433517e+17
19396.0	4.792607834811051e+17
19397.0	4.7919716840243194e+17
19398.0	4.790047061923158e+17
19399.0	4.7885527649266336e+17
19400.0	4.7882530735172275e+17
19401.0	4.788364100239359e+17
19402.0	4.7874916213937485e+17
19403.0	4.78656962109986e+17
19404.0	4.7856397711660365e+17
19405.0	4.7846731371861325e+17
19406.0	4.783744240058366e+17
19407.0	4.7814174771773414e+17
19408.0	4.781458686214143e+17
19409.0	4.780701398335487e+17
19410.0	4.7798721725508256e+17
19411.0	4.7788990716532045e+17
19412.0	4.7778871280052896e+17
19413.0	4.77551522812177e+17
19414.0	4.7758075941792416e+17
19415.0	4.774720507478015e+17
19416.0	4.7734790109702803e+17
19417.0	4.772531556144468e+17
19418.0	4.7714277236845216e+17
19419.0	4.770282022283945e+17
19420.0	4.769118312639146e+17
19421.0	4.7678991556935674e+17
19422.0	4.766578314138964e+17
19423.0	4.765299199617706e+17
19424.0	4.7639242389585914e+17
19425.0	4.7624339943587834e+17
19426.0	4.7609111222681594e+17
19427.0	4.759293681904298e+17
19428.0	4.757517177454591e+17
19429.0	4.755491606844757e+17
19430.0	4.752770252232021e+17
19431.0	4.750124125257728e+17
19432.0	4.748854933760683e+17
19433.0	4.746525627034282e+17
19434.0	4.743668108536489e+17
19435.0	4.739970464656042e+17
19436.0	4.73583049576721e+17
19437.0	4.7305338818396154e+17
19438.0	4.708376606233943e+17
19439.0	4.715713060492628e+17
19440.0	4.7164993114385056e+17
19441.0	4.710434680602623e+17
19442.0	4.702181819853482e+17
19443.0	4.691938569617407e+17
19444.0	4.679522609091924e+17
19445.0	4.6635365338972166e+17
19446.0	4.6431885908596045e+17
19447.0	4.615941646887593e+17
19448.0	4.578075882815489e+17
19449.0	4.519477462958079e+17
19450.0	4.402395794636794e+17
19451.0	4.298244114874376e+17
19452.0	4.473363631527253e+17
19453.0	4.549819184622252e+17
19454.0	4.594067330214567e+17
19455.0	4.623937655450281e+17
19456.0	4.644422774598315e+17
19457.0	4.656866949507755e+17
19458.0	4.516792743493769e+17
19459.0	4.654207564338549e+17
19460.0	4.6890982939033574e+17
19461.0	4.697044299371861e+17
19462.0	4.702426708486826e+17
19463.0	4.706551219268266e+17
19464.0	4.709856444765524e+17
19465.0	4.7124268554649594e+17
19466.0	4.714444057040213e+17
19467.0	4.7161203253138765e+17
19468.0	4.7173272593585485e+17
19469.0	4.715561151190352e+17
19470.0	4.719034444546047e+17
19471.0	4.719620871858858e+17
19472.0	4.7199311657697274e+17
19473.0	4.7201422294384634e+17
19474.0	4.7173976740331475e+17
19475.0	4.719617015895382e+17
19476.0	4.719916101926911e+17
19477.0	4.7198595445336736e+17
19478.0	4.719683218789716e+17
19479.0	4.716729329167014e+17
19480.0	4.7189698270986234e+17
19481.0	4.7185077259468794e+17
19482.0	4.718089946005502e+17
19483.0	4.717608433614846e+17
19484.0	4.717071920616789e+17
19485.0	4.7165020118712314e+17
19486.0	4.713131234994865e+17
19487.0	4.715306181547348e+17
19488.0	4.714665677073066e+17
19489.0	4.7136793732055034e+17
19490.0	4.712682944288085e+17
19491.0	4.7125945814876154e+17
19492.0	4.712054416648874e+17
19493.0	4.711367656691027e+17
19494.0	4.710618410691242e+17
19495.0	4.709769197649919e+17
19496.0	4.7085398520408736e+17
19497.0	4.707304024834047e+17
19498.0	4.700659602773331e+17
19499.0	4.6914973519052794e+17
19500.0	4.7043193119703034e+17
19501.0	4.705051006205951e+17
19502.0	4.7046321560180045e+17
19503.0	4.7040075018185376e+17
19504.0	4.7032782626488314e+17
19505.0	4.702447991783424e+17
19506.0	4.7017345777227085e+17
19507.0	4.7008586637421216e+17
19508.0	4.6998876383259296e+17
19509.0	4.6985018997036365e+17
19510.0	4.694042422018046e+17
19511.0	4.6237089386550336e+17
19512.0	4.6869382350329165e+17
19513.0	4.6892477110900026e+17
19514.0	4.689841231669929e+17
19515.0	4.6937254556685645e+17
19516.0	4.693271710269438e+17
19517.0	4.6930400861224954e+17
19518.0	4.691624552562686e+17
19519.0	4.690857900900351e+17
19520.0	4.68819760207189e+17
19521.0	4.690205362268842e+17
19522.0	4.688976417914878e+17
19523.0	4.6879603680433504e+17
19524.0	4.6857533231814016e+17
19525.0	4.687002479187284e+17
19526.0	4.686268302622718e+17
19527.0	4.685474966798336e+17
19528.0	4.684467847299071e+17
19529.0	4.6835619971727354e+17
19530.0	4.683102546122068e+17
19531.0	4.6823017919720083e+17
19532.0	4.681499260136107e+17
19533.0	4.6806850939999565e+17
19534.0	4.6799009087487994e+17
19535.0	4.6790845587783674e+17
19536.0	4.678245653938176e+17
19537.0	4.677422905556991e+17
19538.0	4.673937670318766e+17
19539.0	4.675610630684671e+17
19540.0	4.6750051465516365e+17
19541.0	4.6736514475185485e+17
19542.0	4.6731974371792205e+17
19543.0	4.6698985080313184e+17
19544.0	4.671596548237993e+17
19545.0	4.6705523084492794e+17
19546.0	4.6697347120715085e+17
19547.0	4.6693704654301856e+17
19548.0	4.6686431150953805e+17
19549.0	4.6677481247211514e+17
19550.0	4.667037736151723e+17
19551.0	4.666271772355242e+17
19552.0	4.6654475601619616e+17
19553.0	4.6646447067627514e+17
19554.0	4.66381249183744e+17
19555.0	4.662711065509888e+17
19556.0	4.6620085720186874e+17
19557.0	4.6614090745555616e+17
19558.0	4.660637547713877e+17
19559.0	4.659838729235113e+17
19560.0	4.658040917721085e+17
19561.0	4.6581998182290765e+17
19562.0	4.656467437158398e+17
19563.0	4.6566349940107936e+17
19564.0	4.6557910084703565e+17
19565.0	4.6550137116644685e+17
19566.0	4.6541777351475194e+17
19567.0	4.6534115749178016e+17
19568.0	4.652587451503957e+17
19569.0	4.6517911922496845e+17
19570.0	4.650981270050132e+17
19571.0	4.6501839454426445e+17
19572.0	4.649361614394709e+17
19573.0	4.6482561195922765e+17
19574.0	4.647579901318484e+17
19575.0	4.646990315694762e+17
19576.0	4.6460152693391354e+17
19577.0	4.6448762256971085e+17
19578.0	4.644557383794687e+17
19579.0	4.643751369288361e+17
19580.0	4.642937410770261e+17
19581.0	4.6421338604175354e+17
19582.0	4.641365057776297e+17
19583.0	4.64057078452497e+17
19584.0	4.6397384179056634e+17
19585.0	4.638831510115668e+17
19586.0	4.637992529078955e+17
19587.0	4.6372725544277325e+17
19588.0	4.636298910367743e+17
19589.0	4.635648024991061e+17
19590.0	4.634804774851925e+17
19591.0	4.634113471763797e+17
19592.0	4.6333316772659194e+17
19593.0	4.632265643873619e+17
19594.0	4.631243155745449e+17
19595.0	4.6309138784146765e+17
19596.0	4.630072521304746e+17
19597.0	4.629288011694079e+17
19598.0	4.628032606874281e+17
19599.0	4.6276640310121805e+17
19600.0	4.626890576887807e+17
19601.0	4.626043433735509e+17
19602.0	4.625179074363391e+17
19603.0	4.624272266537642e+17
19604.0	4.623586901185877e+17
19605.0	4.622658042505898e+17
19606.0	4.622081924792319e+17
19607.0	4.6213200993757856e+17
19608.0	4.620478092847787e+17
19609.0	4.619686088714921e+17
19610.0	4.6176435619321184e+17
19611.0	4.6161984305670835e+17
19612.0	4.6173283082567674e+17
19613.0	4.616491467713193e+17
19614.0	4.615673265957546e+17
19615.0	4.6148835938577043e+17
19616.0	4.612743413192022e+17
19617.0	4.611271588577281e+17
19618.0	4.6118638333897376e+17
19619.0	4.610750138023936e+17
19620.0	4.609795503248722e+17
19621.0	4.6072005999110803e+17
19622.0	4.6092646413762554e+17
19623.0	4.6083445110429005e+17
19624.0	4.607260591041194e+17
19625.0	4.60684114596113e+17
19626.0	4.6059605749050016e+17
19627.0	4.605064373775017e+17
19628.0	4.603995956619947e+17
19629.0	4.596131637318992e+17
19630.0	4.600508121612286e+17
19631.0	4.5985417962455034e+17
19632.0	4.599960827155796e+17
19633.0	4.599881241635498e+17
19634.0	4.5994689555333114e+17
19635.0	4.5984925075810963e+17
19636.0	4.594949804086609e+17
19637.0	4.59398564824132e+17
19638.0	4.596328766111742e+17
19639.0	4.5957150066169165e+17
19640.0	4.594590085895509e+17
19641.0	4.59314662735872e+17
19642.0	4.5931357962676896e+17
19643.0	4.592373314442581e+17
19644.0	4.5917241116808525e+17
19645.0	4.590908904658261e+17
19646.0	4.586918320799738e+17
19647.0	4.589384888221696e+17
19648.0	4.588676648534015e+17
19649.0	4.5878733421499725e+17
19650.0	4.5870879181810336e+17
19651.0	4.586299075854336e+17
19652.0	4.585508332808874e+17
19653.0	4.584702755209215e+17
19654.0	4.5839258855232845e+17
19655.0	4.5831177871469216e+17
