# Flux units: erg / (cm m2 s)
# Wavelength units: Angstrom
wave	flux
19000.0	6.661803291443199e+17
19001.0	6.660132901486591e+17
19002.0	6.65933249057041e+17
19003.0	6.658071844967763e+17
19004.0	6.656829554338474e+17
19005.0	6.655562777362431e+17
19006.0	6.654326847395156e+17
19007.0	6.653009025739433e+17
19008.0	6.651562787777193e+17
19009.0	6.650170786359978e+17
19010.0	6.647338333022888e+17
19011.0	6.64795997221683e+17
19012.0	6.64638347105621e+17
19013.0	6.645589747957757e+17
19014.0	6.644087168608938e+17
19015.0	6.642945364415828e+17
19016.0	6.641643904040959e+17
19017.0	6.640463831717204e+17
19018.0	6.639316841966249e+17
19019.0	6.638073045581823e+17
19020.0	6.636726879518719e+17
19021.0	6.635580215525375e+17
19022.0	6.634375596736511e+17
19023.0	6.632968539865087e+17
19024.0	6.631812077977599e+17
19025.0	6.630636541793619e+17
19026.0	6.629288987415892e+17
19027.0	6.628020814435667e+17
19028.0	6.626913124614143e+17
19029.0	6.625597890144937e+17
19030.0	6.62447158600226e+17
19031.0	6.623253238557354e+17
19032.0	6.621996211240959e+17
19033.0	6.620335505233236e+17
19034.0	6.619437654343679e+17
19035.0	6.618102140414633e+17
19036.0	6.602770814948691e+17
19037.0	6.615725456228352e+17
19038.0	6.614430059418964e+17
19039.0	6.613274020457129e+17
19040.0	6.612049141082793e+17
19041.0	6.610773514824361e+17
19042.0	6.609162545572521e+17
19043.0	6.608314148323327e+17
19044.0	6.607030877246803e+17
19045.0	6.605835707525801e+17
19046.0	6.604312282486099e+17
19047.0	6.603263870763005e+17
19048.0	6.601176425081512e+17
19049.0	6.600552292373843e+17
19050.0	6.599400399481514e+17
19051.0	6.59607164184166e+17
19052.0	6.596715336783188e+17
19053.0	6.595870963968682e+17
19054.0	6.594609308237823e+17
19055.0	6.592259358545239e+17
19056.0	6.592049527302825e+17
19057.0	6.59088674599731e+17
19058.0	6.589607740527956e+17
19059.0	6.58842902925585e+17
19060.0	6.587101466329087e+17
19061.0	6.585966965118292e+17
19062.0	6.584700132218195e+17
19063.0	6.583472692221267e+17
19064.0	6.581642074259455e+17
19065.0	6.580199765661012e+17
19066.0	6.57949276049681e+17
19067.0	6.578449741949609e+17
19068.0	6.577264596615168e+17
19069.0	6.576036512093523e+17
19070.0	6.5746672549888e+17
19071.0	6.573536027432276e+17
19072.0	6.572318621608617e+17
19073.0	6.57104940634385e+17
19074.0	6.569851968203433e+17
19075.0	6.568613035813545e+17
19076.0	6.567280861249536e+17
19077.0	6.566072970204499e+17
19078.0	6.564690902297257e+17
19079.0	6.563635404996608e+17
19080.0	6.562333058924543e+17
19081.0	6.560985980600319e+17
19082.0	6.559727758606335e+17
19083.0	6.558196092458323e+17
19084.0	6.556402483636906e+17
19085.0	6.556162126949034e+17
19086.0	6.55329255681775e+17
19087.0	6.553277265084416e+17
19088.0	6.55215257854498e+17
19089.0	6.550256748243628e+17
19090.0	6.549902637137919e+17
19091.0	6.548659190977876e+17
19092.0	6.547229976297471e+17
19093.0	6.546308614236842e+17
19094.0	6.545069639903913e+17
19095.0	6.543849616834559e+17
19096.0	6.542543904134483e+17
19097.0	6.541371180930388e+17
19098.0	6.540128849057108e+17
19099.0	6.538885739140435e+17
19100.0	6.537632251117568e+17
19101.0	6.536419716278953e+17
19102.0	6.53476603503138e+17
19103.0	6.53394139292194e+17
19104.0	6.532739069116415e+17
19105.0	6.531481399372457e+17
19106.0	6.530188829523965e+17
19107.0	6.528946488563027e+17
19108.0	6.527798615911081e+17
19109.0	6.525315545300988e+17
19110.0	6.525295659406676e+17
19111.0	6.524093667650217e+17
19112.0	6.522864171046227e+17
19113.0	6.521621141520383e+17
19114.0	6.520370555955882e+17
19115.0	6.518935685256532e+17
19116.0	6.517827441087828e+17
19117.0	6.5165776664221e+17
19118.0	6.515056188937556e+17
19119.0	6.49793702741058e+17
19120.0	6.512812151013375e+17
19121.0	6.511673113662803e+17
19122.0	6.510536254554111e+17
19123.0	6.509283544574634e+17
19124.0	6.507995117300394e+17
19125.0	6.506809472144723e+17
19126.0	6.50558068228096e+17
19127.0	6.496677950477652e+17
19128.0	6.50242972398387e+17
19129.0	6.501544187570857e+17
19130.0	6.500580432980649e+17
19131.0	6.499413523081898e+17
19132.0	6.498196405267113e+17
19133.0	6.495824597658282e+17
19134.0	6.49542912442368e+17
19135.0	6.494499449951572e+17
19136.0	6.493300596233556e+17
19137.0	6.49135204143377e+17
19138.0	6.490737248043007e+17
19139.0	6.489600991515988e+17
19140.0	6.488382144249855e+17
19141.0	6.487151330634409e+17
19142.0	6.485805665091583e+17
19143.0	6.484434542919679e+17
19144.0	6.483273725247487e+17
19145.0	6.482210290925567e+17
19146.0	6.478392318754819e+17
19147.0	6.479308207947773e+17
19148.0	6.4785289328285e+17
19149.0	6.477285580341248e+17
19150.0	6.476040132799145e+17
19151.0	6.474836819836927e+17
19152.0	6.473583734467242e+17
19153.0	6.472315283264852e+17
19154.0	6.47060387930658e+17
19155.0	6.469953169391615e+17
19156.0	6.468712679516841e+17
19157.0	6.467456229616297e+17
19158.0	6.465365452958376e+17
19159.0	6.464957563185833e+17
19160.0	6.463728632113834e+17
19161.0	6.462508656579923e+17
19162.0	6.459385989562368e+17
19163.0	6.460067467493376e+17
19164.0	6.458906880507904e+17
19165.0	6.457605333450751e+17
19166.0	6.455926607314943e+17
19167.0	6.455038262815402e+17
19168.0	6.45374592295458e+17
19169.0	6.452586546025812e+17
19170.0	6.451544083922943e+17
19171.0	6.450184953965225e+17
19172.0	6.449067445977087e+17
19173.0	6.447867384299519e+17
19174.0	6.446375770259456e+17
19175.0	6.445414723092479e+17
19176.0	6.444172983315113e+17
19177.0	6.442291117249876e+17
19178.0	6.441696106293929e+17
19179.0	6.440346693839529e+17
19180.0	6.43918395937041e+17
19181.0	6.437594573307903e+17
19182.0	6.436676943478783e+17
19183.0	6.43560074379264e+17
19184.0	6.434159820712617e+17
19185.0	6.433092322110122e+17
19186.0	6.431929820424874e+17
19187.0	6.430367636520959e+17
19188.0	6.4294660093597e+17
19189.0	6.428234661669545e+17
19190.0	6.427008937842003e+17
19191.0	6.425666771746815e+17
19192.0	6.424584354704042e+17
19193.0	6.423307646315178e+17
19194.0	6.422047641042943e+17
19195.0	6.420895018341716e+17
19196.0	6.419607529892521e+17
19197.0	6.418417233253716e+17
19198.0	6.417206044786687e+17
19199.0	6.404520981211814e+17
19200.0	6.406872098319022e+17
19201.0	6.413545399560874e+17
19202.0	6.412343413396819e+17
19203.0	6.411095886178985e+17
19204.0	6.409771481563135e+17
19205.0	6.408610259140607e+17
19206.0	6.407347511492607e+17
19207.0	6.405716141146111e+17
19208.0	6.404092750462973e+17
19209.0	6.403701831543466e+17
19210.0	6.402488491398484e+17
19211.0	6.401322590229844e+17
19212.0	6.40009004716305e+17
19213.0	6.398463027707903e+17
19214.0	6.397077900055892e+17
19215.0	6.396384710929065e+17
19216.0	6.39516833480704e+17
19217.0	6.393940861255679e+17
19218.0	6.389091894908238e+17
19219.0	6.390830626155176e+17
19220.0	6.390185033291091e+17
19221.0	6.387616606497452e+17
19222.0	6.387803074068479e+17
19223.0	6.38650863915281e+17
19224.0	6.385135789626708e+17
19225.0	6.383472427925501e+17
19226.0	6.382821738283008e+17
19227.0	6.381593736948393e+17
19228.0	6.380473688610132e+17
19229.0	6.379248295433556e+17
19230.0	6.377958648315903e+17
19231.0	6.376724554754729e+17
19232.0	6.375496069677055e+17
19233.0	6.374026570803882e+17
19234.0	6.373000277742932e+17
19235.0	6.371724778012672e+17
19236.0	6.370662860630697e+17
19237.0	6.369350465705299e+17
19238.0	6.367800606064639e+17
19239.0	6.366983634638163e+17
19240.0	6.365285811137193e+17
19241.0	6.364270967827114e+17
19242.0	6.363194577300137e+17
19243.0	6.361285296564904e+17
19244.0	6.360832425678163e+17
19245.0	6.359580720933546e+17
19246.0	6.358289214341119e+17
19247.0	6.357085546261161e+17
19248.0	6.355912697227946e+17
19249.0	6.354660743621289e+17
19250.0	6.353355068669951e+17
19251.0	6.351595822383101e+17
19252.0	6.349740637683711e+17
19253.0	6.349633394223785e+17
19254.0	6.348437472324266e+17
19255.0	6.346474437388968e+17
19256.0	6.345822211932159e+17
19257.0	6.344788696978772e+17
19258.0	6.343558003600042e+17
19259.0	6.342009668588884e+17
19260.0	6.340753150181373e+17
19261.0	6.339781527775914e+17
19262.0	6.338347630155092e+17
19263.0	6.337092879646719e+17
19264.0	6.333754625403558e+17
19265.0	6.334028464521213e+17
19266.0	6.332868643695274e+17
19267.0	6.332410437653843e+17
19268.0	6.331134361905833e+17
19269.0	6.329889675629908e+17
19270.0	6.328657253498879e+17
19271.0	6.325927972350637e+17
19272.0	6.326010293955241e+17
19273.0	6.311840779512477e+17
19274.0	6.316012641189878e+17
19275.0	6.322437872418815e+17
19276.0	6.321101240008701e+17
19277.0	6.319861115737427e+17
19278.0	6.3186275939997e+17
19279.0	6.317260267672916e+17
19280.0	6.315732429526356e+17
19281.0	6.3148383024797e+17
19282.0	6.313662156723539e+17
19283.0	6.312218379419647e+17
19284.0	6.310829336384852e+17
19285.0	6.308968222337705e+17
19286.0	6.308467980282537e+17
19287.0	6.307395405873151e+17
19288.0	6.30192544974984e+17
19289.0	6.29585134118501e+17
19290.0	6.303607748733609e+17
19291.0	6.301172517655895e+17
19292.0	6.301060542322004e+17
19293.0	6.299763027389097e+17
19294.0	6.29847665881907e+17
19295.0	6.297252054870697e+17
19296.0	6.295947107631104e+17
19297.0	6.294564555281747e+17
19298.0	6.293280265688404e+17
19299.0	6.292130292389204e+17
19300.0	6.290838153155924e+17
19301.0	6.289531897293482e+17
19302.0	6.288182140207104e+17
19303.0	6.286632201573716e+17
19304.0	6.284929494504788e+17
19305.0	6.283699392522921e+17
19306.0	6.282445833895933e+17
19307.0	6.280956814731946e+17
19308.0	6.279735362103978e+17
19309.0	6.278123296041641e+17
19310.0	6.276606061095593e+17
19311.0	6.275781915312127e+17
19312.0	6.27458581864994e+17
19313.0	6.273241055581524e+17
19314.0	6.261987431765339e+17
19315.0	6.261142199817565e+17
19316.0	6.269351868323156e+17
19317.0	6.268012771759444e+17
19318.0	6.266663629837652e+17
19319.0	6.265393430309546e+17
19320.0	6.264041182505641e+17
19321.0	6.262723523029674e+17
19322.0	6.260942705437354e+17
19323.0	6.259818717948586e+17
19324.0	6.258656243526313e+17
19325.0	6.256961335765674e+17
19326.0	6.255947973044906e+17
19327.0	6.254525927828138e+17
19328.0	6.25322955444497e+17
19329.0	6.251862881031508e+17
19330.0	6.250303974277119e+17
19331.0	6.248899034830166e+17
19332.0	6.247685216534527e+17
19333.0	6.246230020237993e+17
19334.0	6.244861860642816e+17
19335.0	6.243484688187391e+17
19336.0	6.242064526213119e+17
19337.0	6.24064008814592e+17
19338.0	6.238299802828797e+17
19339.0	6.237789645438975e+17
19340.0	6.236020659978239e+17
19341.0	6.234794383201619e+17
19342.0	6.231713047554726e+17
19343.0	6.23197402833442e+17
19344.0	6.230460478783487e+17
19345.0	6.220785879001755e+17
19346.0	6.223662457815034e+17
19347.0	6.225762257818966e+17
19348.0	6.224563009137321e+17
19349.0	6.222899973193727e+17
19350.0	6.221402982754985e+17
19351.0	6.219829372867924e+17
19352.0	6.218120909116756e+17
19353.0	6.216911925455529e+17
19354.0	6.215349265498111e+17
19355.0	6.21333573533696e+17
19356.0	6.212179053947561e+17
19357.0	6.210566063740244e+17
19358.0	6.208813093530282e+17
19359.0	6.20662710337536e+17
19360.0	6.205490452583766e+17
19361.0	6.20387631173905e+17
19362.0	6.202387738569386e+17
19363.0	6.200359865985706e+17
19364.0	6.198086668561066e+17
19365.0	6.196354451068244e+17
19366.0	6.194631408615423e+17
19367.0	6.192878608274772e+17
19368.0	6.191111482987859e+17
19369.0	6.18887243768354e+17
19370.0	6.185996101440852e+17
19371.0	6.185437125148671e+17
19372.0	6.183809878502058e+17
19373.0	6.181822963995988e+17
19374.0	6.179995314203306e+17
19375.0	6.178086194249727e+17
19376.0	6.176142870446079e+17
19377.0	6.174111079683412e+17
19378.0	6.172120839793321e+17
19379.0	6.170087380396714e+17
19380.0	6.167229956969811e+17
19381.0	6.164644861313024e+17
19382.0	6.162204239855615e+17
19383.0	6.159852661374976e+17
19384.0	6.158139193819133e+17
19385.0	6.155893601905321e+17
19386.0	6.153617850149546e+17
19387.0	6.151273903205033e+17
19388.0	6.148885230299817e+17
19389.0	6.145039451990697e+17
19390.0	6.142345089821354e+17
19391.0	6.127495019495406e+17
19392.0	6.136910188292776e+17
19393.0	6.134569958200659e+17
19394.0	6.131401744536916e+17
19395.0	6.126949072808618e+17
19396.0	6.124107169005568e+17
19397.0	6.121225272513876e+17
19398.0	6.117731102709079e+17
19399.0	6.109503168009554e+17
19400.0	6.109006150675114e+17
19401.0	6.105630407742803e+17
19402.0	6.099248691019775e+17
19403.0	6.095638726268244e+17
19404.0	6.089941834530812e+17
19405.0	6.084483112151721e+17
19406.0	6.078123200217084e+17
19407.0	6.072158138662911e+17
19408.0	6.060624842850305e+17
19409.0	6.056166943621121e+17
19410.0	6.047722166201001e+17
19411.0	6.039727477445972e+17
19412.0	6.034429625499647e+17
19413.0	6.028959426106707e+17
19414.0	6.023079397075625e+17
19415.0	6.017170904798548e+17
19416.0	6.010080662476116e+17
19417.0	6.003659153691988e+17
19418.0	5.997026074427392e+17
19419.0	5.98993247736081e+17
19420.0	5.982586351736148e+17
19421.0	5.974443153861289e+17
19422.0	5.965579055093076e+17
19423.0	5.957197487931391e+17
19424.0	5.947516033258834e+17
19425.0	5.937375964299263e+17
19426.0	5.926130348108458e+17
19427.0	5.914079384305664e+17
19428.0	5.900815521458853e+17
19429.0	5.885296735769937e+17
19430.0	5.866904479247014e+17
19431.0	5.84325506321613e+17
19432.0	5.817308479313239e+17
19433.0	5.782953895744846e+17
19434.0	5.758424031690751e+17
19435.0	5.7361704164174483e+17
19436.0	5.711784897238355e+17
19437.0	5.6868920490284365e+17
19438.0	5.643768136291673e+17
19439.0	5.628796094207319e+17
19440.0	5.5958477894669664e+17
19441.0	5.5578589736031514e+17
19442.0	5.508229390576292e+17
19443.0	5.4363777355393766e+17
19444.0	5.365743141694118e+17
19445.0	5.298032224501764e+17
19446.0	5.2162364583881376e+17
19447.0	5.097760167908683e+17
19448.0	4.955270955051696e+17
19449.0	4.7498509013046586e+17
19450.0	4.374990042431466e+17
19451.0	4.2671383755707616e+17
19452.0	4.574527597401438e+17
19453.0	4.8676333224809914e+17
19454.0	5.0245206715050496e+17
19455.0	5.158277996347388e+17
19456.0	5.251751757567319e+17
19457.0	5.3228956384843066e+17
19458.0	5.370445620576266e+17
19459.0	5.460969575328433e+17
19460.0	5.518141202715988e+17
19461.0	5.5587234238518605e+17
19462.0	5.591864188425558e+17
19463.0	5.621333769584638e+17
19464.0	5.6478010539595085e+17
19465.0	5.6720915847359136e+17
19466.0	5.694332551386452e+17
19467.0	5.7153118616070816e+17
19468.0	5.734668238323709e+17
19469.0	5.761813392829102e+17
19470.0	5.793116563614381e+17
19471.0	5.815225341880997e+17
19472.0	5.833042466351784e+17
19473.0	5.846858249972392e+17
19474.0	5.858958829595306e+17
19475.0	5.866087503626236e+17
19476.0	5.878772598658386e+17
19477.0	5.88658650452241e+17
19478.0	5.895009082889556e+17
19479.0	5.901441798853971e+17
19480.0	5.90743933690402e+17
19481.0	5.91406302302481e+17
19482.0	5.919333335870121e+17
19483.0	5.924380752915114e+17
19484.0	5.928967092917587e+17
19485.0	5.93316113687074e+17
19486.0	5.93791643741935e+17
19487.0	5.94185562427665e+17
19488.0	5.945461692519763e+17
19489.0	5.948296197570559e+17
19490.0	5.946382740007589e+17
19491.0	5.955886717599741e+17
19492.0	5.961024097572177e+17
19493.0	5.968266815427924e+17
19494.0	5.973306106707965e+17
19495.0	5.977089000516265e+17
19496.0	5.98087687226436e+17
19497.0	5.984529854496767e+17
19498.0	5.98716340694767e+17
19499.0	5.971559467799887e+17
19500.0	5.992935770292221e+17
19501.0	5.996209534315178e+17
19502.0	5.997340748589737e+17
19503.0	5.998429380891991e+17
19504.0	6.001422413856767e+17
19505.0	6.002086955188223e+17
19506.0	6.002723179375274e+17
19507.0	6.003143038293332e+17
19508.0	6.005540587743912e+17
19509.0	6.006044008382463e+17
19510.0	6.005529351902547e+17
19511.0	5.986015142827342e+17
19512.0	6.003541359460347e+17
19513.0	6.000399325244067e+17
19514.0	6.004336905682938e+17
19515.0	6.00672384494251e+17
19516.0	6.008674104726868e+17
19517.0	6.008466720860842e+17
19518.0	6.008655233155071e+17
19519.0	6.008522434499924e+17
19520.0	6.008257090945023e+17
19521.0	6.008217943408639e+17
19522.0	6.007832684003327e+17
19523.0	6.008501256759978e+17
19524.0	6.00865743446562e+17
19525.0	6.008232944336895e+17
19526.0	6.008001478874452e+17
19527.0	6.007600859228842e+17
19528.0	6.007229278846976e+17
19529.0	6.006799691939839e+17
19530.0	6.006411144899241e+17
19531.0	6.005980908574035e+17
19532.0	6.005495357767679e+17
19533.0	6.005013532202324e+17
19534.0	6.004482069146281e+17
19535.0	6.0038733903517e+17
19536.0	6.003230687363071e+17
19537.0	6.002822970256042e+17
19538.0	6.001734832881664e+17
19539.0	5.999353170755589e+17
19540.0	6.000889884049407e+17
19541.0	6.00037600002048e+17
19542.0	6.000010040705023e+17
19543.0	5.999859746209791e+17
19544.0	5.999196496024916e+17
19545.0	5.996383755916627e+17
19546.0	5.99405481828898e+17
19547.0	5.99710678262306e+17
19548.0	5.996376287958356e+17
19549.0	5.99520404709922e+17
19550.0	5.994898608095232e+17
19551.0	5.994152080004438e+17
19552.0	5.993375631846058e+17
19553.0	5.992490470823251e+17
19554.0	5.991635677260457e+17
19555.0	5.99095193370624e+17
19556.0	5.990202861071018e+17
19557.0	5.989379894586026e+17
19558.0	5.98855339020561e+17
19559.0	5.987685869027327e+17
19560.0	5.986780394291199e+17
19561.0	5.985928724086783e+17
19562.0	5.985173887079766e+17
19563.0	5.984350106899795e+17
19564.0	5.983478142555476e+17
19565.0	5.982597507186687e+17
19566.0	5.981594066092031e+17
19567.0	5.980848385949695e+17
19568.0	5.979828072568147e+17
19569.0	5.978966624043008e+17
19570.0	5.978163283405482e+17
19571.0	5.977239901787476e+17
19572.0	5.976196755314004e+17
19573.0	5.975334773413203e+17
19574.0	5.974115343138813e+17
19575.0	5.973581039140863e+17
19576.0	5.9726569668608e+17
19577.0	5.971545579760297e+17
19578.0	5.970591048444585e+17
19579.0	5.969732044499625e+17
19580.0	5.968788666537299e+17
19581.0	5.967901086799188e+17
19582.0	5.96702151189026e+17
19583.0	5.966066528288767e+17
19584.0	5.965067199010131e+17
19585.0	5.963659732495017e+17
19586.0	5.962549577121792e+17
19587.0	5.962116727745193e+17
19588.0	5.959158863320407e+17
19589.0	5.96014922867234e+17
19590.0	5.958895089134249e+17
19591.0	5.958274622947327e+17
19592.0	5.957319302403411e+17
19593.0	5.956248753842857e+17
19594.0	5.954317544587263e+17
19595.0	5.954150165992788e+17
19596.0	5.95185895403247e+17
19597.0	5.952259984020822e+17
19598.0	5.949918724926121e+17
19599.0	5.950357293935273e+17
19600.0	5.949386505497257e+17
19601.0	5.948088791334912e+17
19602.0	5.947151866309289e+17
19603.0	5.94449152693589e+17
19604.0	5.94511173587217e+17
19605.0	5.943031322640384e+17
19606.0	5.943301573530964e+17
19607.0	5.942307453577898e+17
19608.0	5.941243710974633e+17
19609.0	5.940055055706794e+17
19610.0	5.939285821052244e+17
19611.0	5.938224778881705e+17
19612.0	5.937259603820543e+17
19613.0	5.936186832977919e+17
19614.0	5.935031980305066e+17
19615.0	5.934181751543124e+17
19616.0	5.933062855939412e+17
19617.0	5.932123180848467e+17
19618.0	5.928614385505618e+17
19619.0	5.927085113606138e+17
19620.0	5.926135262434643e+17
19621.0	5.927983777491625e+17
19622.0	5.926985811361791e+17
19623.0	5.925963412712105e+17
19624.0	5.924886049805652e+17
19625.0	5.923894688306516e+17
19626.0	5.92281130377762e+17
19627.0	5.921822337226068e+17
19628.0	5.920461297461929e+17
19629.0	5.919347432925865e+17
19630.0	5.91792880816401e+17
19631.0	5.905308552877398e+17
19632.0	5.916597687069354e+17
19633.0	5.915377957601279e+17
19634.0	5.914542169128959e+17
19635.0	5.913325609156607e+17
19636.0	5.912409969524735e+17
19637.0	5.909709090106026e+17
19638.0	5.910312946849108e+17
19639.0	5.909248789708799e+17
19640.0	5.907791421461846e+17
19641.0	5.90406481381513e+17
19642.0	5.906139062818132e+17
19643.0	5.905054409512275e+17
19644.0	5.90381000635187e+17
19645.0	5.901845099358888e+17
19646.0	5.901995089068031e+17
19647.0	5.900951755948031e+17
19648.0	5.899881740763135e+17
19649.0	5.898817359926612e+17
19650.0	5.897797621164714e+17
19651.0	5.896723868155903e+17
19652.0	5.895657738993663e+17
19653.0	5.894634535037609e+17
19654.0	5.893543412716884e+17
19655.0	5.892466208494932e+17
19656.0	5.89145311351057e+17
19657.0	5.890400336216063e+17
19658.0	5.889371562224297e+17
19659.0	5.888313340024148e+17
19660.0	5.88727848009728e+17
19661.0	5.886204231461546e+17
19662.0	5.885169878346409e+17
19663.0	5.88389980115217e+17
19664.0	5.882985602962772e+17
19665.0	5.882005537423359e+17
