# Flux units: erg / (cm m2 s)
# Wavelength units: Angstrom
wave	flux
19000.0	6.532698660492628e+17
19001.0	6.531423346709844e+17
19002.0	6.530309459105108e+17
19003.0	6.529113268770132e+17
19004.0	6.527917866964308e+17
19005.0	6.526717124411391e+17
19006.0	6.525526127323818e+17
19007.0	6.524324559192064e+17
19008.0	6.52309256208384e+17
19009.0	6.521796788486143e+17
19010.0	6.520509353863849e+17
19011.0	6.519506285363199e+17
19012.0	6.518256786822484e+17
19013.0	6.517150256026963e+17
19014.0	6.515914712634707e+17
19015.0	6.514732950705491e+17
19016.0	6.513554655368531e+17
19017.0	6.512380328542207e+17
19018.0	6.511177476254378e+17
19019.0	6.509988442101076e+17
19020.0	6.508784314744831e+17
19021.0	6.507605340629674e+17
19022.0	6.506406743463252e+17
19023.0	6.505183820731731e+17
19024.0	6.504007897273683e+17
19025.0	6.502822297556308e+17
19026.0	6.501616267384148e+17
19027.0	6.500409528374612e+17
19028.0	6.499239260935507e+17
19029.0	6.498041830484649e+17
19030.0	6.496867720364031e+17
19031.0	6.495672470252201e+17
19032.0	6.494471120224255e+17
19033.0	6.493196298573139e+17
19034.0	6.492028659564543e+17
19035.0	6.490552788844543e+17
19036.0	6.486982693748735e+17
19037.0	6.488254361283242e+17
19038.0	6.487257495459156e+17
19039.0	6.486118488866815e+17
19040.0	6.484938081697791e+17
19041.0	6.483744802209791e+17
19042.0	6.482434117861373e+17
19043.0	6.48137216762402e+17
19044.0	6.480171900425556e+17
19045.0	6.478985130497364e+17
19046.0	6.477767809258836e+17
19047.0	6.476556626384212e+17
19048.0	6.475301864691028e+17
19049.0	6.474038132779689e+17
19050.0	6.472943789932541e+17
19051.0	6.471430140417363e+17
19052.0	6.470430469302953e+17
19053.0	6.469434574460244e+17
19054.0	6.468269642874879e+17
19055.0	6.466866295166292e+17
19056.0	6.465871817998335e+17
19057.0	6.464707245025961e+17
19058.0	6.463459566114132e+17
19059.0	6.462308585482921e+17
19060.0	6.461139634356224e+17
19061.0	6.459958521146026e+17
19062.0	6.458767600954025e+17
19063.0	6.457574206122666e+17
19064.0	6.456325438089898e+17
19065.0	6.455073405490516e+17
19066.0	6.453945832570879e+17
19067.0	6.452821222227967e+17
19068.0	6.451645935605076e+17
19069.0	6.450459175463593e+17
19070.0	6.449257542320127e+17
19071.0	6.44808086388736e+17
19072.0	6.446879321620479e+17
19073.0	6.44571213210146e+17
19074.0	6.444527150344874e+17
19075.0	6.443340235014143e+17
19076.0	6.442146835988479e+17
19077.0	6.440953815149225e+17
19078.0	6.439762623026516e+17
19079.0	6.438595936124927e+17
19080.0	6.437400609117524e+17
19081.0	6.436186239969961e+17
19082.0	6.435024533105321e+17
19083.0	6.433769276484265e+17
19084.0	6.432482705189546e+17
19085.0	6.431474730052265e+17
19086.0	6.429961238522538e+17
19087.0	6.429037612935849e+17
19088.0	6.427822486716415e+17
19089.0	6.426580509960874e+17
19090.0	6.425529300637011e+17
19091.0	6.424357301649407e+17
19092.0	6.423109682855935e+17
19093.0	6.422015317639168e+17
19094.0	6.420835750729044e+17
19095.0	6.419654085967871e+17
19096.0	6.418466538695338e+17
19097.0	6.417287533821951e+17
19098.0	6.416085415537321e+17
19099.0	6.414899269162323e+17
19100.0	6.413731763672404e+17
19101.0	6.412548806366548e+17
19102.0	6.411321949377876e+17
19103.0	6.410195049644032e+17
19104.0	6.409018485855571e+17
19105.0	6.407783117925033e+17
19106.0	6.406647863137619e+17
19107.0	6.405446227197951e+17
19108.0	6.404243899198121e+17
19109.0	6.403014871657129e+17
19110.0	6.401881230977706e+17
19111.0	6.400726077713065e+17
19112.0	6.399553735491583e+17
19113.0	6.398395593086291e+17
19114.0	6.397202491157162e+17
19115.0	6.396000659483306e+17
19116.0	6.394829825114111e+17
19117.0	6.393639342527827e+17
19118.0	6.392266224566271e+17
19119.0	6.387729134780411e+17
19120.0	6.390011341570047e+17
19121.0	6.388925007047338e+17
19122.0	6.387780004697428e+17
19123.0	6.386606453817344e+17
19124.0	6.385400434130944e+17
19125.0	6.38422554317073e+17
19126.0	6.38293064688162e+17
19127.0	6.381026510460244e+17
19128.0	6.38054983340305e+17
19129.0	6.379451250114559e+17
19130.0	6.378355943276544e+17
19131.0	6.377198701248511e+17
19132.0	6.376024182882304e+17
19133.0	6.374818084203178e+17
19134.0	6.373671991334228e+17
19135.0	6.37249927512064e+17
19136.0	6.371317953593343e+17
19137.0	6.370086568853503e+17
19138.0	6.368957256695807e+17
19139.0	6.367804271886333e+17
19140.0	6.366634702798847e+17
19141.0	6.365461453209599e+17
19142.0	6.364266059792383e+17
19143.0	6.363089254831444e+17
19144.0	6.361903373396649e+17
19145.0	6.360763818049535e+17
19146.0	6.359091326746623e+17
19147.0	6.358379842764799e+17
19148.0	6.357225789805908e+17
19149.0	6.356047235820201e+17
19150.0	6.354900759871487e+17
19151.0	6.353723683678889e+17
19152.0	6.352548801107284e+17
19153.0	6.351317196865535e+17
19154.0	6.350153583689727e+17
19155.0	6.349019846541311e+17
19156.0	6.347852387188735e+17
19157.0	6.346654166810623e+17
19158.0	6.345441994779305e+17
19159.0	6.344315541738838e+17
19160.0	6.343147597944148e+17
19161.0	6.341956496698025e+17
19162.0	6.340673695383551e+17
19163.0	6.339582067649193e+17
19164.0	6.338472098922493e+17
19165.0	6.337265870918996e+17
19166.0	6.336084132757501e+17
19167.0	6.334963680367956e+17
19168.0	6.333811433056937e+17
19169.0	6.332647416528895e+17
19170.0	6.331481777504255e+17
19171.0	6.330311256309759e+17
19172.0	6.32914567181107e+17
19173.0	6.327976160744788e+17
19174.0	6.326785405528746e+17
19175.0	6.325638131264169e+17
19176.0	6.324470092398591e+17
19177.0	6.323184894039379e+17
19178.0	6.322131633700863e+17
19179.0	6.320960621772799e+17
19180.0	6.319789867794431e+17
19181.0	6.318566441746431e+17
19182.0	6.317442272504489e+17
19183.0	6.31629984965154e+17
19184.0	6.315132315500544e+17
19185.0	6.313959112747689e+17
19186.0	6.312797974910292e+17
19187.0	6.311576248953514e+17
19188.0	6.310460284469247e+17
19189.0	6.309293969462612e+17
19190.0	6.308123465744384e+17
19191.0	6.306927859116714e+17
19192.0	6.305779927045459e+17
19193.0	6.304592998432767e+17
19194.0	6.303400160045738e+17
19195.0	6.302224885306708e+17
19196.0	6.300997628461055e+17
19197.0	6.29972881584947e+17
19198.0	6.298275210592255e+17
19199.0	6.296227952634537e+17
19200.0	6.295181534603946e+17
19201.0	6.294815554316969e+17
19202.0	6.293918294824276e+17
19203.0	6.292849319826771e+17
19204.0	6.291732223579475e+17
19205.0	6.290590630499668e+17
19206.0	6.289447479235924e+17
19207.0	6.288181684426068e+17
19208.0	6.287031668484778e+17
19209.0	6.285968223677097e+17
19210.0	6.284812984429225e+17
19211.0	6.283658602916522e+17
19212.0	6.28249264792098e+17
19213.0	6.281249838596095e+17
19214.0	6.280109096959999e+17
19215.0	6.278988966133759e+17
19216.0	6.277823215960063e+17
19217.0	6.276599903158271e+17
19218.0	6.275164435469652e+17
19219.0	6.274133428710057e+17
19220.0	6.273128690177363e+17
19221.0	6.271882686889981e+17
19222.0	6.270799279991466e+17
19223.0	6.269666101384534e+17
19224.0	6.26847794663697e+17
19225.0	6.267309406552063e+17
19226.0	6.266182060124842e+17
19227.0	6.265026479740244e+17
19228.0	6.263888297328639e+17
19229.0	6.262725273452543e+17
19230.0	6.261562035666943e+17
19231.0	6.260388121280512e+17
19232.0	6.259231130211668e+17
19233.0	6.258022441549823e+17
19234.0	6.256902059764393e+17
19235.0	6.255714010573482e+17
19236.0	6.254562280559956e+17
19237.0	6.253392382918655e+17
19238.0	6.252172649955327e+17
19239.0	6.251075043240618e+17
19240.0	6.249912959587667e+17
19241.0	6.248733266848425e+17
19242.0	6.247573968213332e+17
19243.0	6.246291956826111e+17
19244.0	6.245261812695039e+17
19245.0	6.244092181392042e+17
19246.0	6.242927467910484e+17
19247.0	6.241768381786793e+17
19248.0	6.240606606415188e+17
19249.0	6.239441857282047e+17
19250.0	6.238253896171519e+17
19251.0	6.237037030714025e+17
19252.0	6.235699719525716e+17
19253.0	6.234767868209834e+17
19254.0	6.233620675035135e+17
19255.0	6.232292715746644e+17
19256.0	6.231277873834665e+17
19257.0	6.230125701322068e+17
19258.0	6.228959041683455e+17
19259.0	6.227725086534313e+17
19260.0	6.226548626904403e+17
19261.0	6.225441035649023e+17
19262.0	6.224231907284307e+17
19263.0	6.223016860057599e+17
19264.0	6.221655221906089e+17
19265.0	6.220632802284884e+17
19266.0	6.219469901441705e+17
19267.0	6.218449663557631e+17
19268.0	6.217280944515753e+17
19269.0	6.216111924882089e+17
19270.0	6.214908809751208e+17
19271.0	6.21361627205905e+17
19272.0	6.212572320978259e+17
19273.0	6.211245174685695e+17
19274.0	6.209934203027453e+17
19275.0	6.20907342139665e+17
19276.0	6.20788852072994e+17
19277.0	6.206722599288832e+17
19278.0	6.205553308423508e+17
19279.0	6.20435867767057e+17
19280.0	6.203170609605289e+17
19281.0	6.20202045874722e+17
19282.0	6.200861910892543e+17
19283.0	6.199677115083434e+17
19284.0	6.19847358751266e+17
19285.0	6.197270439526399e+17
19286.0	6.19609621336337e+17
19287.0	6.194895886046548e+17
19288.0	6.192643214147583e+17
19289.0	6.190868859278675e+17
19290.0	6.191350409418068e+17
19291.0	6.19004684280354e+17
19292.0	6.189093551603711e+17
19293.0	6.187920255877119e+17
19294.0	6.186734899429376e+17
19295.0	6.185564710982996e+17
19296.0	6.184351598728532e+17
19297.0	6.183181484381524e+17
19298.0	6.181992719362729e+17
19299.0	6.180754674767188e+17
19300.0	6.179592482062335e+17
19301.0	6.178405866624339e+17
19302.0	6.177203949666303e+17
19303.0	6.175973985397418e+17
19304.0	6.174822628676948e+17
19305.0	6.173624268488701e+17
19306.0	6.172434275936937e+17
19307.0	6.17120942662178e+17
19308.0	6.170014684020736e+17
19309.0	6.168794102409897e+17
19310.0	6.167565753647104e+17
19311.0	6.166390720080553e+17
19312.0	6.165209179051348e+17
19313.0	6.163941758948691e+17
19314.0	6.15835283698483e+17
19315.0	6.157443827149486e+17
19316.0	6.160253806706687e+17
19317.0	6.159137183017641e+17
19318.0	6.157942058734932e+17
19319.0	6.156751300722687e+17
19320.0	6.155526919072426e+17
19321.0	6.154291405739348e+17
19322.0	6.153070251606015e+17
19323.0	6.151857265180671e+17
19324.0	6.15064617877504e+17
19325.0	6.149414536085503e+17
19326.0	6.148198008968532e+17
19327.0	6.146969511307945e+17
19328.0	6.14569752011298e+17
19329.0	6.144510670493012e+17
19330.0	6.143259002099028e+17
19331.0	6.141991272316927e+17
19332.0	6.140786591312553e+17
19333.0	6.139533363336532e+17
19334.0	6.138286926637737e+17
19335.0	6.136939437970772e+17
19336.0	6.135769571786751e+17
19337.0	6.134503735732905e+17
19338.0	6.133074456040788e+17
19339.0	6.131956989296639e+17
19340.0	6.130597238581929e+17
19341.0	6.129276781505194e+17
19342.0	6.127901240634025e+17
19343.0	6.126735936454655e+17
19344.0	6.125345679867903e+17
19345.0	6.123146379788287e+17
19346.0	6.122094998497961e+17
19347.0	6.121427900738218e+17
19348.0	6.120248462453417e+17
19349.0	6.118920540913663e+17
19350.0	6.117596064994644e+17
19351.0	6.116273824639657e+17
19352.0	6.114875470949034e+17
19353.0	6.113632587524777e+17
19354.0	6.112287566506665e+17
19355.0	6.110853196327593e+17
19356.0	6.109567717649065e+17
19357.0	6.108167134685866e+17
19358.0	6.106758233718783e+17
19359.0	6.105341213278208e+17
19360.0	6.103908124459005e+17
19361.0	6.102542113745577e+17
19362.0	6.101140011046227e+17
19363.0	6.099713499594751e+17
19364.0	6.098273929177769e+17
19365.0	6.096822258193748e+17
19366.0	6.095358893490173e+17
19367.0	6.093882660661929e+17
19368.0	6.09233340080674e+17
19369.0	6.090776750587901e+17
19370.0	6.089262817957204e+17
19371.0	6.08769856905762e+17
19372.0	6.086190901318996e+17
19373.0	6.084607090884605e+17
19374.0	6.083031158751231e+17
19375.0	6.081432665456639e+17
19376.0	6.079804136052052e+17
19377.0	6.078044953378815e+17
19378.0	6.076391530080937e+17
19379.0	6.07471963017489e+17
19380.0	6.073028604941652e+17
19381.0	6.071311711338495e+17
19382.0	6.069509328033107e+17
19383.0	6.067681339200852e+17
19384.0	6.065818491508052e+17
19385.0	6.064032000420521e+17
19386.0	6.062206948999168e+17
19387.0	6.06032765264418e+17
19388.0	6.058404984389632e+17
19389.0	6.056379714371583e+17
19390.0	6.054115740221439e+17
19391.0	6.049937417917779e+17
19392.0	6.049677218676735e+17
19393.0	6.048020895017641e+17
19394.0	6.045894306693119e+17
19395.0	6.043369522331647e+17
19396.0	6.041107802619901e+17
19397.0	6.038796446116522e+17
19398.0	6.036373871351124e+17
19399.0	6.033664087425023e+17
19400.0	6.031250841490772e+17
19401.0	6.028822874248531e+17
19402.0	6.026244889335124e+17
19403.0	6.023455930231466e+17
19404.0	6.02072995139857e+17
19405.0	6.017931687930537e+17
19406.0	6.015046619146921e+17
19407.0	6.011952430055423e+17
19408.0	6.00846695014946e+17
19409.0	6.00545606832401e+17
19410.0	6.002038438974804e+17
19411.0	5.998573883752447e+17
19412.0	5.994937621413887e+17
19413.0	5.9911296792221e+17
19414.0	5.987148088650409e+17
19415.0	5.982987703287808e+17
19416.0	5.978352102582953e+17
19417.0	5.97397845713442e+17
19418.0	5.969234883859796e+17
19419.0	5.964400080278868e+17
19420.0	5.95938803589666e+17
19421.0	5.954060061857108e+17
19422.0	5.948151973631316e+17
19423.0	5.94223287116322e+17
19424.0	5.935921649505622e+17
19425.0	5.929135523583316e+17
19426.0	5.921975121040724e+17
19427.0	5.914366777316694e+17
19428.0	5.906283309126995e+17
19429.0	5.897583022396756e+17
19430.0	5.888190286834346e+17
19431.0	5.878213336454484e+17
19432.0	5.868310224699391e+17
19433.0	5.85688466587648e+17
19434.0	5.844545723258196e+17
19435.0	5.830965704960682e+17
19436.0	5.8161945917085e+17
19437.0	5.800054522642431e+17
19438.0	5.778761606408874e+17
19439.0	5.762663539802111e+17
19440.0	5.742264556978175e+17
19441.0	5.7182037957672934e+17
19442.0	5.69080645943296e+17
19443.0	5.659785080165716e+17
19444.0	5.6241305489681043e+17
19445.0	5.5817803944427526e+17
19446.0	5.53110069121297e+17
19447.0	5.468327976981842e+17
19448.0	5.386978475726168e+17
19449.0	5.2726151428177894e+17
19450.0	5.077453918349983e+17
19451.0	4.9276673246713286e+17
19452.0	5.192262640904876e+17
19453.0	5.3333637327749165e+17
19454.0	5.42595349059993e+17
19455.0	5.4946420888698874e+17
19456.0	5.5483592930754566e+17
19457.0	5.5922760488058854e+17
19458.0	5.617561128752483e+17
19459.0	5.658838922078893e+17
19460.0	5.6870059593345683e+17
19461.0	5.7105568113186125e+17
19462.0	5.731154418204671e+17
19463.0	5.748976430437716e+17
19464.0	5.765138412645034e+17
19465.0	5.779824234725376e+17
19466.0	5.792919562048852e+17
19467.0	5.804876003016703e+17
19468.0	5.81549592482065e+17
19469.0	5.825115001105066e+17
19470.0	5.833750067806205e+17
19471.0	5.841615651689812e+17
19472.0	5.848909730196138e+17
19473.0	5.855646768780628e+17
19474.0	5.861762578513919e+17
19475.0	5.867004452580009e+17
19476.0	5.872486048595967e+17
19477.0	5.87741164347938e+17
19478.0	5.881733064949759e+17
19479.0	5.88560570847505e+17
19480.0	5.88933762261538e+17
19481.0	5.892745370883412e+17
19482.0	5.895693215814996e+17
19483.0	5.898421245662548e+17
19484.0	5.901002709052074e+17
19485.0	5.903382250957482e+17
19486.0	5.905628789385897e+17
19487.0	5.907824382399828e+17
19488.0	5.909652710970708e+17
19489.0	5.911078633821524e+17
19490.0	5.912200750650708e+17
19491.0	5.914120880652287e+17
19492.0	5.915443674655401e+17
19493.0	5.91668302647569e+17
19494.0	5.917651132656298e+17
19495.0	5.918549439326889e+17
19496.0	5.919074090134185e+17
19497.0	5.919779363749887e+17
19498.0	5.919306537063763e+17
19499.0	5.91741605519906e+17
19500.0	5.921307852013567e+17
19501.0	5.921845396810409e+17
19502.0	5.922267136873812e+17
19503.0	5.922587313963008e+17
19504.0	5.922774225431209e+17
19505.0	5.922907448410111e+17
19506.0	5.922991235923967e+17
19507.0	5.923115370545151e+17
19508.0	5.923299255123967e+17
19509.0	5.923162779462313e+17
19510.0	5.922755869758803e+17
19511.0	5.915746954291878e+17
19512.0	5.921474140788052e+17
19513.0	5.921264006856704e+17
19514.0	5.92127340978722e+17
19515.0	5.921823468989097e+17
19516.0	5.921695992905727e+17
19517.0	5.92133176304162e+17
19518.0	5.920952646194516e+17
19519.0	5.920669123827028e+17
19520.0	5.92022677365282e+17
19521.0	5.919805578149887e+17
19522.0	5.919276754709162e+17
19523.0	5.918784657293312e+17
19524.0	5.918225694283092e+17
19525.0	5.917694541605546e+17
19526.0	5.917238894788607e+17
19527.0	5.91664423964945e+17
19528.0	5.916027952387412e+17
19529.0	5.91540022865647e+17
19530.0	5.914777173185876e+17
19531.0	5.914122291336532e+17
19532.0	5.913451034225322e+17
19533.0	5.912760019845119e+17
19534.0	5.91206874751522e+17
19535.0	5.911405168077482e+17
19536.0	5.910651270594559e+17
19537.0	5.909924187297107e+17
19538.0	5.909003761265321e+17
19539.0	5.908162343337983e+17
19540.0	5.907599825655124e+17
19541.0	5.906844581101567e+17
19542.0	5.9060486420125e+17
19543.0	5.905204367764137e+17
19544.0	5.904401776508927e+17
19545.0	5.903240140248403e+17
19546.0	5.902371794889386e+17
19547.0	5.901963482191188e+17
19548.0	5.901159902478336e+17
19549.0	5.900238911613609e+17
19550.0	5.89946601742882e+17
19551.0	5.898604920526164e+17
19552.0	5.897734394828116e+17
19553.0	5.896845689618431e+17
19554.0	5.895963862368255e+17
19555.0	5.895082223861759e+17
19556.0	5.894208203609428e+17
19557.0	5.893315599794175e+17
19558.0	5.892416842934954e+17
19559.0	5.891514576841386e+17
19560.0	5.890570362814463e+17
19561.0	5.88967000023586e+17
19562.0	5.888764186460159e+17
19563.0	5.887885211336703e+17
19564.0	5.886959232745472e+17
19565.0	5.886028425811284e+17
19566.0	5.885078183171412e+17
19567.0	5.884154813437267e+17
19568.0	5.883195075592191e+17
19569.0	5.88225784717858e+17
19570.0	5.881326616619689e+17
19571.0	5.880375388318377e+17
19572.0	5.87939201557026e+17
19573.0	5.87845456625664e+17
19574.0	5.877426640213331e+17
19575.0	5.876549358889642e+17
19576.0	5.875658108436479e+17
19577.0	5.874676353291604e+17
19578.0	5.873706715490986e+17
19579.0	5.872727915233277e+17
19580.0	5.87175770910447e+17
19581.0	5.870799237939199e+17
19582.0	5.869829322615465e+17
19583.0	5.868850475521363e+17
19584.0	5.867867875224234e+17
19585.0	5.866790001311743e+17
19586.0	5.865782482654548e+17
19587.0	5.864872183769769e+17
19588.0	5.863695710158848e+17
19589.0	5.86287553777937e+17
19590.0	5.861894936068095e+17
19591.0	5.860971511108948e+17
19592.0	5.859987969190569e+17
19593.0	5.85897438487074e+17
19594.0	5.857796671143936e+17
19595.0	5.856995397599232e+17
19596.0	5.855981502900905e+17
19597.0	5.854997320652116e+17
19598.0	5.853748136684202e+17
19599.0	5.852992606917972e+17
19600.0	5.852005843075071e+17
19601.0	5.85095444500753e+17
19602.0	5.849910006688425e+17
19603.0	5.848792811874986e+17
19604.0	5.847910268097876e+17
19605.0	5.846777552262484e+17
19606.0	5.845961261012308e+17
19607.0	5.844995674210303e+17
19608.0	5.843983713785172e+17
19609.0	5.842953761893033e+17
19610.0	5.841954921250815e+17
19611.0	5.840934417727487e+17
19612.0	5.839949442056191e+17
19613.0	5.838926172389375e+17
19614.0	5.837885260780884e+17
19615.0	5.836894783580842e+17
19616.0	5.835837310763007e+17
19617.0	5.83479120241186e+17
19618.0	5.833438217808553e+17
19619.0	5.832310670753791e+17
19620.0	5.831439597000019e+17
19621.0	5.830709359585961e+17
19622.0	5.829764694671359e+17
19623.0	5.828753975760212e+17
19624.0	5.827727555472041e+17
19625.0	5.826712127056554e+17
19626.0	5.825682749085012e+17
19627.0	5.824638443585535e+17
19628.0	5.8235644032669e+17
19629.0	5.822305439580159e+17
19630.0	5.820923603757738e+17
19631.0	5.819304674415956e+17
19632.0	5.819277478548819e+17
19633.0	5.818422020887892e+17
19634.0	5.817485039938218e+17
19635.0	5.816466548282708e+17
19636.0	5.815452311748607e+17
19637.0	5.814148865370794e+17
19638.0	5.813447593820159e+17
19639.0	5.812418071844179e+17
19640.0	5.811241384323753e+17
19641.0	5.809809441248596e+17
19642.0	5.809338092355583e+17
19643.0	5.808318928213331e+17
19644.0	5.807234979550548e+17
19645.0	5.806156273767763e+17
19646.0	5.805209097863168e+17
19647.0	5.804237738300755e+17
19648.0	5.80321584156945e+17
19649.0	5.802190636930388e+17
19650.0	5.801166111768575e+17
19651.0	5.800134936537769e+17
19652.0	5.799107722827092e+17
19653.0	5.798087443699028e+17
19654.0	5.797054319514963e+17
19655.0	5.796026408151722e+17
19656.0	5.795005223053993e+17
19657.0	5.793981481527977e+17
19658.0	5.792954774629033e+17
19659.0	5.791927385456639e+17
19660.0	5.790900833047891e+17
19661.0	5.789873041222314e+17
19662.0	5.788842226701652e+17
19663.0	5.787797862481919e+17
19664.0	5.786778411029844e+17
19665.0	5.785762395411798e+17
