# Flux units: erg / (cm m2 s)
# Wavelength units: Angstrom
wave	flux
19000.0	6.785778481539753e+17
19001.0	6.784344858645844e+17
19002.0	6.783230815851859e+17
19003.0	6.781947981682003e+17
19004.0	6.780670207939924e+17
19005.0	6.779388297216e+17
19006.0	6.778110998129321e+17
19007.0	6.77678289134114e+17
19008.0	6.775449636044799e+17
19009.0	6.774217987762857e+17
19010.0	6.772206470168572e+17
19011.0	6.771684262543359e+17
19012.0	6.770267617492991e+17
19013.0	6.769164344273578e+17
19014.0	6.767789480782506e+17
19015.0	6.766555386522281e+17
19016.0	6.765262992834559e+17
19017.0	6.763857015297363e+17
19018.0	6.762765329541802e+17
19019.0	6.761493232790185e+17
19020.0	6.760136490789546e+17
19021.0	6.758906475489961e+17
19022.0	6.757680938308948e+17
19023.0	6.756340728856575e+17
19024.0	6.755098766781097e+17
19025.0	6.753850539813546e+17
19026.0	6.752539615690751e+17
19027.0	6.751267421771091e+17
19028.0	6.750031997217449e+17
19029.0	6.748730808074239e+17
19030.0	6.747501737891155e+17
19031.0	6.746237383824724e+17
19032.0	6.744960135069695e+17
19033.0	6.743536125520553e+17
19034.0	6.742382982725631e+17
19035.0	6.741082423427071e+17
19036.0	6.73488375801446e+17
19037.0	6.73857372561954e+17
19038.0	6.737282395187881e+17
19039.0	6.736040664498175e+17
19040.0	6.73477813215778e+17
19041.0	6.733493161689087e+17
19042.0	6.732082261437098e+17
19043.0	6.730957043619155e+17
19044.0	6.729670271696895e+17
19045.0	6.728417303767721e+17
19046.0	6.727042683546282e+17
19047.0	6.72586850701585e+17
19048.0	6.7242418531642e+17
19049.0	6.723215946678271e+17
19050.0	6.721978410292563e+17
19051.0	6.719963000384168e+17
19052.0	6.719451860129108e+17
19053.0	6.718233844034217e+17
19054.0	6.716971225710591e+17
19055.0	6.715277597212672e+17
19056.0	6.714395392475133e+17
19057.0	6.713159438041087e+17
19058.0	6.711859873491626e+17
19059.0	6.710626784466259e+17
19060.0	6.709326498496511e+17
19061.0	6.708097690457427e+17
19062.0	6.706820337543849e+17
19063.0	6.70555840918323e+17
19064.0	6.70406741659921e+17
19065.0	6.702704738260307e+17
19066.0	6.701642755866623e+17
19067.0	6.700457418293247e+17
19068.0	6.699207007491412e+17
19069.0	6.697919617608361e+17
19070.0	6.696603565249876e+17
19071.0	6.695376860654249e+17
19072.0	6.694120118550527e+17
19073.0	6.692841982001151e+17
19074.0	6.691592104574975e+17
19075.0	6.690326353805311e+17
19076.0	6.689023180057257e+17
19077.0	6.687780032391849e+17
19078.0	6.686430198409897e+17
19079.0	6.685260444773034e+17
19080.0	6.683975609221119e+17
19081.0	6.682657359746388e+17
19082.0	6.681370750702932e+17
19083.0	6.680016857333757e+17
19084.0	6.678536902060714e+17
19085.0	6.677655353032704e+17
19086.0	6.675764757222739e+17
19087.0	6.675002592766634e+17
19088.0	6.673767709977257e+17
19089.0	6.672239796333226e+17
19090.0	6.671308587444904e+17
19091.0	6.670057131562323e+17
19092.0	6.668707381466452e+17
19093.0	6.667569051555155e+17
19094.0	6.666305634915668e+17
19095.0	6.665045789026985e+17
19096.0	6.663756830474239e+17
19097.0	6.662529228996607e+17
19098.0	6.661263286687059e+17
19099.0	6.659996440505001e+17
19100.0	6.658734822522879e+17
19101.0	6.657486562699945e+17
19102.0	6.656075352069459e+17
19103.0	6.654957287636991e+17
19104.0	6.653710308474879e+17
19105.0	6.652445134422015e+17
19106.0	6.65116441907473e+17
19107.0	6.649900084581716e+17
19108.0	6.648673393967103e+17
19109.0	6.646922747401555e+17
19110.0	6.646153364548266e+17
19111.0	6.644898600058879e+17
19112.0	6.643640793300991e+17
19113.0	6.642379811454975e+17
19114.0	6.64111697362944e+17
19115.0	6.639783640039423e+17
19116.0	6.638572334830932e+17
19117.0	6.637318709095081e+17
19118.0	6.635942687277055e+17
19119.0	6.630226538790904e+17
19120.0	6.633517729447933e+17
19121.0	6.632300747948031e+17
19122.0	6.63107306468147e+17
19123.0	6.629797553766399e+17
19124.0	6.628533984034815e+17
19125.0	6.627296621712723e+17
19126.0	6.626032692669097e+17
19127.0	6.622046958125052e+17
19128.0	6.623131775707817e+17
19129.0	6.622134779860307e+17
19130.0	6.621007018196991e+17
19131.0	6.619762461245439e+17
19132.0	6.618518143369215e+17
19133.0	6.616410618156372e+17
19134.0	6.615816229355519e+17
19135.0	6.614755662539434e+17
19136.0	6.613513736814591e+17
19137.0	6.611997165966675e+17
19138.0	6.610944384477866e+17
19139.0	6.609753671903914e+17
19140.0	6.608504315270484e+17
19141.0	6.607252689518592e+17
19142.0	6.605959796009642e+17
19143.0	6.604647921876991e+17
19144.0	6.603434609694036e+17
19145.0	6.602238122262527e+17
19146.0	6.60002263077137e+17
19147.0	6.599597113038163e+17
19148.0	6.598487017084244e+17
19149.0	6.597231675878058e+17
19150.0	6.595973627248639e+17
19151.0	6.594734821386921e+17
19152.0	6.593462412858708e+17
19153.0	6.59220959802163e+17
19154.0	6.590787478006441e+17
19155.0	6.589747692568576e+17
19156.0	6.588494205244756e+17
19157.0	6.587238259359743e+17
19158.0	6.585649054351359e+17
19159.0	6.584720112484351e+17
19160.0	6.583452218425343e+17
19161.0	6.582211499261951e+17
19162.0	6.58023342145536e+17
19163.0	6.579751255452329e+17
19164.0	6.578514589384701e+17
19165.0	6.577240036169044e+17
19166.0	6.575839741214719e+17
19167.0	6.574699142884009e+17
19168.0	6.573305971955028e+17
19169.0	6.572155689675433e+17
19170.0	6.571031960136362e+17
19171.0	6.569737874746025e+17
19172.0	6.568530448569686e+17
19173.0	6.567294856942932e+17
19174.0	6.5659534325405e+17
19175.0	6.564803492096682e+17
19176.0	6.563550100542804e+17
19177.0	6.562067960037375e+17
19178.0	6.561058686063956e+17
19179.0	6.559761410206377e+17
19180.0	6.5584843718656e+17
19181.0	6.557163651945812e+17
19182.0	6.55596361753122e+17
19183.0	6.554836528354643e+17
19184.0	6.55340540736307e+17
19185.0	6.55232679944738e+17
19186.0	6.551111618701993e+17
19187.0	6.549734497277267e+17
19188.0	6.548618144819882e+17
19189.0	6.547369474654207e+17
19190.0	6.546123026770601e+17
19191.0	6.544840296060244e+17
19192.0	6.543652681678847e+17
19193.0	6.542354206949375e+17
19194.0	6.541116674757972e+17
19195.0	6.539916257962665e+17
19196.0	6.538654214957737e+17
19197.0	6.537426231099392e+17
19198.0	6.536195894236499e+17
19199.0	6.530311545072297e+17
19200.0	6.530722841318743e+17
19201.0	6.53247271613235e+17
19202.0	6.53123640168721e+17
19203.0	6.529986359984127e+17
19204.0	6.528711863391571e+17
19205.0	6.52749014372625e+17
19206.0	6.526239319785472e+17
19207.0	6.524881270560084e+17
19208.0	6.523435203166205e+17
19209.0	6.522520744929961e+17
19210.0	6.521282639517012e+17
19211.0	6.520060339639636e+17
19212.0	6.518823571510612e+17
19213.0	6.517420025271635e+17
19214.0	6.516147090358272e+17
19215.0	6.515091990817449e+17
19216.0	6.513819343213908e+17
19217.0	6.512603564780202e+17
19218.0	6.509961525155154e+17
19219.0	6.509780742963199e+17
19220.0	6.508764091209043e+17
19221.0	6.507022909789526e+17
19222.0	6.506325803881812e+17
19223.0	6.505044112659796e+17
19224.0	6.503697028044116e+17
19225.0	6.502341603054931e+17
19226.0	6.501319976856233e+17
19227.0	6.500079620500138e+17
19228.0	6.498887618177706e+17
19229.0	6.497645485533865e+17
19230.0	6.496369838303914e+17
19231.0	6.495127433030314e+17
19232.0	6.493855712367958e+17
19233.0	6.492571790475263e+17
19234.0	6.491403788659369e+17
19235.0	6.490146067185663e+17
19236.0	6.488971807468202e+17
19237.0	6.487700053251412e+17
19238.0	6.486342182982998e+17
19239.0	6.485256600638804e+17
19240.0	6.483591004771667e+17
19241.0	6.482621134886227e+17
19242.0	6.481489205482836e+17
19243.0	6.479990284965203e+17
19244.0	6.47905035821602e+17
19245.0	6.477804502428329e+17
19246.0	6.476545224867839e+17
19247.0	6.475310414080682e+17
19248.0	6.474074391838719e+17
19249.0	6.472622868354388e+17
19250.0	6.471351516091732e+17
19251.0	6.469973601943551e+17
19252.0	6.468365049309865e+17
19253.0	6.467623502654121e+17
19254.0	6.466358652960767e+17
19255.0	6.464842742715731e+17
19256.0	6.463892681129983e+17
19257.0	6.462691573672617e+17
19258.0	6.461450551121236e+17
19259.0	6.460083158384639e+17
19260.0	6.458874359971837e+17
19261.0	6.457704386134015e+17
19262.0	6.456384616224084e+17
19263.0	6.455158528191146e+17
19264.0	6.453147012694013e+17
19265.0	6.452446789020329e+17
19266.0	6.451264275611647e+17
19267.0	6.450266749883732e+17
19268.0	6.449009108800852e+17
19269.0	6.447764377086634e+17
19270.0	6.446526947655679e+17
19271.0	6.444747157667841e+17
19272.0	6.443974673825792e+17
19273.0	6.431752149008369e+17
19274.0	6.436084284828323e+17
19275.0	6.440295916896255e+17
19276.0	6.439015623775572e+17
19277.0	6.437769742822057e+17
19278.0	6.436530513335636e+17
19279.0	6.435211623530495e+17
19280.0	6.433887878818473e+17
19281.0	6.432770105890132e+17
19282.0	6.431545128648703e+17
19283.0	6.430221752336383e+17
19284.0	6.428872051873107e+17
19285.0	6.427421256100521e+17
19286.0	6.426475372740607e+17
19287.0	6.425281543099732e+17
19288.0	6.422828386265769e+17
19289.0	6.419370580377592e+17
19290.0	6.421514254898516e+17
19291.0	6.41981789101534e+17
19292.0	6.418994265325567e+17
19293.0	6.417723823226879e+17
19294.0	6.416457753690111e+17
19295.0	6.415216018107049e+17
19296.0	6.413942001762304e+17
19297.0	6.412641190106452e+17
19298.0	6.411371253421395e+17
19299.0	6.410155985993727e+17
19300.0	6.408888751139498e+17
19301.0	6.407605431129427e+17
19302.0	6.406326801050282e+17
19303.0	6.404921263915007e+17
19304.0	6.403661739589631e+17
19305.0	6.402384541865299e+17
19306.0	6.401122615601833e+17
19307.0	6.399771096907775e+17
19308.0	6.39853434905122e+17
19309.0	6.397142695062185e+17
19310.0	6.395767305185961e+17
19311.0	6.394678893783721e+17
19312.0	6.393421403695785e+17
19313.0	6.392033050624e+17
19314.0	6.388476166187688e+17
19315.0	6.387351336342874e+17
19316.0	6.388318048616447e+17
19317.0	6.387012106627753e+17
19318.0	6.385707609576788e+17
19319.0	6.384436599848959e+17
19320.0	6.383102685347839e+17
19321.0	6.381834264903679e+17
19322.0	6.38031475314961e+17
19323.0	6.379134624901802e+17
19324.0	6.377903728798378e+17
19325.0	6.376473122308095e+17
19326.0	6.375271258477908e+17
19327.0	6.373931443989161e+17
19328.0	6.372637805292201e+17
19329.0	6.371312301069651e+17
19330.0	6.369828820484095e+17
19331.0	6.368284683971241e+17
19332.0	6.367018030727165e+17
19333.0	6.36565016683042e+17
19334.0	6.36421434192691e+17
19335.0	6.362842231996415e+17
19336.0	6.361490292473855e+17
19337.0	6.360123808503124e+17
19338.0	6.358432268768596e+17
19339.0	6.357405360543059e+17
19340.0	6.355932081902931e+17
19341.0	6.354645676982271e+17
19342.0	6.352615338846889e+17
19343.0	6.351889449527978e+17
19344.0	6.350478583529471e+17
19345.0	6.345777449620812e+17
19346.0	6.346633204378282e+17
19347.0	6.345956879149738e+17
19348.0	6.344648531028649e+17
19349.0	6.343166477904553e+17
19350.0	6.341688484167679e+17
19351.0	6.34019992707618e+17
19352.0	6.338699628030633e+17
19353.0	6.337370028070228e+17
19354.0	6.335900288024573e+17
19355.0	6.333941953505964e+17
19356.0	6.332565675835391e+17
19357.0	6.33106058060322e+17
19358.0	6.329467324596223e+17
19359.0	6.327457821665964e+17
19360.0	6.326451797579091e+17
19361.0	6.324905605857279e+17
19362.0	6.323435698738516e+17
19363.0	6.321866332089002e+17
19364.0	6.320277098419539e+17
19365.0	6.318682683386538e+17
19366.0	6.317081798639615e+17
19367.0	6.315405245153279e+17
19368.0	6.31334915608849e+17
19369.0	6.3114493572765e+17
19370.0	6.30868383244834e+17
19371.0	6.308222947644756e+17
19372.0	6.306596289598804e+17
19373.0	6.304814126333951e+17
19374.0	6.303084413539668e+17
19375.0	6.301305107294889e+17
19376.0	6.298945655406591e+17
19377.0	6.297067649499135e+17
19378.0	6.295211607064576e+17
19379.0	6.293314569502719e+17
19380.0	6.291398991719081e+17
19381.0	6.289337047405908e+17
19382.0	6.286616734378666e+17
19383.0	6.284548464356009e+17
19384.0	6.282668306770602e+17
19385.0	6.280559460351999e+17
19386.0	6.277671280093866e+17
19387.0	6.275040556701012e+17
19388.0	6.272796517378729e+17
19389.0	6.270333236893012e+17
19390.0	6.267197175365631e+17
19391.0	6.260434167048867e+17
19392.0	6.262160289518931e+17
19393.0	6.259248233185277e+17
19394.0	6.256650856606378e+17
19395.0	6.253995935574697e+17
19396.0	6.251258518874794e+17
19397.0	6.248462380520788e+17
19398.0	6.245110310240255e+17
19399.0	6.240875366230697e+17
19400.0	6.238826416570367e+17
19401.0	6.235694227783679e+17
19402.0	6.232407105601533e+17
19403.0	6.228953488424959e+17
19404.0	6.225096421845673e+17
19405.0	6.221020083344724e+17
19406.0	6.217197940637695e+17
19407.0	6.213236981148329e+17
19408.0	6.207578043667802e+17
19409.0	6.203714860395177e+17
19410.0	6.199321737297919e+17
19411.0	6.19402528694818e+17
19412.0	6.18846250668305e+17
19413.0	6.182806382881452e+17
19414.0	6.17623920382225e+17
19415.0	6.16977725985041e+17
19416.0	6.16261832880947e+17
19417.0	6.15474828078831e+17
19418.0	6.146447712627368e+17
19419.0	6.137131734226258e+17
19420.0	6.126733841399808e+17
19421.0	6.115179088926042e+17
19422.0	6.103779735415468e+17
19423.0	6.094061123403775e+17
19424.0	6.084281871542953e+17
19425.0	6.073947230917972e+17
19426.0	6.062802208817151e+17
19427.0	6.050261056006825e+17
19428.0	6.038011738674516e+17
19429.0	6.023778135965695e+17
19430.0	6.008888324609364e+17
19431.0	5.991567052854616e+17
19432.0	5.974055863014739e+17
19433.0	5.953341944583507e+17
19434.0	5.929363493792428e+17
19435.0	5.901075972358147e+17
19436.0	5.865768720444077e+17
19437.0	5.832878439705257e+17
19438.0	5.798493470501544e+17
19439.0	5.771096629095082e+17
19440.0	5.734892442047828e+17
19441.0	5.693444555014143e+17
19442.0	5.644512789528578e+17
19443.0	5.582712744880816e+17
19444.0	5.5112856191194394e+17
19445.0	5.442575550906371e+17
19446.0	5.359129426132993e+17
19447.0	5.252106491527161e+17
19448.0	5.129672128637615e+17
19449.0	4.961748887011329e+17
19450.0	4.6493092023719104e+17
19451.0	4.540243481635492e+17
19452.0	4.822103276650499e+17
19453.0	5.0543999942219155e+17
19454.0	5.189857970225146e+17
19455.0	5.302707448097448e+17
19456.0	5.3949562873009517e+17
19457.0	5.467735576281084e+17
19458.0	5.53031704073558e+17
19459.0	5.600879483464362e+17
19460.0	5.6527822688092115e+17
19461.0	5.6953812518174714e+17
19462.0	5.7316794863452166e+17
19463.0	5.763720694551891e+17
19464.0	5.792161478650537e+17
19465.0	5.819629853212672e+17
19466.0	5.853435320598523e+17
19467.0	5.88253371424222e+17
19468.0	5.90585616540194e+17
19469.0	5.924504695297363e+17
19470.0	5.942940120995156e+17
19471.0	5.957923452048726e+17
19472.0	5.971348815871999e+17
19473.0	5.983401201543849e+17
19474.0	5.994413884265812e+17
19475.0	6.003347862934866e+17
19476.0	6.013785967951871e+17
19477.0	6.022176606694058e+17
19478.0	6.029862906451284e+17
19479.0	6.037213655597055e+17
19480.0	6.044991921760937e+17
19481.0	6.054314278300326e+17
19482.0	6.063026358714368e+17
19483.0	6.07064784039663e+17
19484.0	6.077169126779564e+17
19485.0	6.082680700884307e+17
19486.0	6.087312964321279e+17
19487.0	6.092452693103955e+17
19488.0	6.095967798777171e+17
19489.0	6.100000573838676e+17
19490.0	6.10074757588582e+17
19491.0	6.106293519515644e+17
19492.0	6.108725915942911e+17
19493.0	6.1107832108701e+17
19494.0	6.11347677192738e+17
19495.0	6.115171383989588e+17
19496.0	6.116184708262569e+17
19497.0	6.118126280944298e+17
19498.0	6.11968560782814e+17
19499.0	6.113985521429155e+17
19500.0	6.12222229352721e+17
19501.0	6.123102734559913e+17
19502.0	6.123885558759423e+17
19503.0	6.124572389321386e+17
19504.0	6.125252020360531e+17
19505.0	6.126184774150826e+17
19506.0	6.126635313004543e+17
19507.0	6.126941620229459e+17
19508.0	6.127244220388692e+17
19509.0	6.127439010856959e+17
19510.0	6.127740340841129e+17
19511.0	6.122250474356732e+17
19512.0	6.127301730587985e+17
19513.0	6.126466878843557e+17
19514.0	6.127646377945769e+17
19515.0	6.128093287328429e+17
19516.0	6.128791003507369e+17
19517.0	6.129323643065684e+17
19518.0	6.129321838116863e+17
19519.0	6.129011625994921e+17
19520.0	6.128623461335037e+17
19521.0	6.128577916786003e+17
19522.0	6.128471875693226e+17
19523.0	6.12811013095424e+17
19524.0	6.127639440566953e+17
19525.0	6.127060100928852e+17
19526.0	6.126608026959871e+17
19527.0	6.126102213470889e+17
19528.0	6.126022191043924e+17
19529.0	6.125422487360852e+17
19530.0	6.124824392892415e+17
19531.0	6.124197842168489e+17
19532.0	6.123536749953023e+17
19533.0	6.122872174368084e+17
19534.0	6.122176451881641e+17
19535.0	6.121432591368191e+17
19536.0	6.120682631637673e+17
19537.0	6.1203854407325e+17
19538.0	6.119605981762902e+17
19539.0	6.118006302878381e+17
19540.0	6.118090806919167e+17
19541.0	6.117342630466899e+17
19542.0	6.116528142767444e+17
19543.0	6.115708126975316e+17
19544.0	6.114890190159871e+17
19545.0	6.113447604737362e+17
19546.0	6.111720641309356e+17
19547.0	6.112337554221738e+17
19548.0	6.11149070606882e+17
19549.0	6.110438179733501e+17
19550.0	6.109729717747711e+17
19551.0	6.108842449786195e+17
19552.0	6.108078169303721e+17
19553.0	6.107341139913386e+17
19554.0	6.106389816541184e+17
19555.0	6.105515425092948e+17
19556.0	6.104608738202964e+17
19557.0	6.103672249384959e+17
19558.0	6.10278845780241e+17
19559.0	6.101824536139091e+17
19560.0	6.100870020901546e+17
19561.0	6.099914427727871e+17
19562.0	6.098989348814847e+17
19563.0	6.098030302330879e+17
19564.0	6.097063498481663e+17
19565.0	6.096080868125353e+17
19566.0	6.095060633037482e+17
19567.0	6.094124676197034e+17
19568.0	6.093090809621162e+17
19569.0	6.092112361684991e+17
19570.0	6.091155789141331e+17
19571.0	6.09015717499153e+17
19572.0	6.089094257268052e+17
19573.0	6.088126839652351e+17
19574.0	6.086980491629908e+17
19575.0	6.08613468016913e+17
19576.0	6.085308061843455e+17
19577.0	6.084162859565053e+17
19578.0	6.083203107738963e+17
19579.0	6.082205181455017e+17
19580.0	6.081187685946707e+17
19581.0	6.080250128979284e+17
19582.0	6.079297468323156e+17
19583.0	6.078265901623977e+17
19584.0	6.077229972848639e+17
19585.0	6.07600737657378e+17
19586.0	6.07491573485841e+17
19587.0	6.074062125487444e+17
19588.0	6.072290387165184e+17
19589.0	6.071977350179498e+17
19590.0	6.071048364971348e+17
19591.0	6.070180000038912e+17
19592.0	6.069141171601407e+17
19593.0	6.068057684312063e+17
19594.0	6.06662660666163e+17
19595.0	6.065941195871571e+17
19596.0	6.063998009780906e+17
19597.0	6.063845338513407e+17
19598.0	6.062352632556201e+17
19599.0	6.061748761832106e+17
19600.0	6.060699604921001e+17
19601.0	6.059531389195604e+17
19602.0	6.058512250219177e+17
19603.0	6.056819168378877e+17
19604.0	6.056371181759146e+17
19605.0	6.054879722908332e+17
19606.0	6.054292973333162e+17
19607.0	6.05323900555537e+17
19608.0	6.052155755943252e+17
19609.0	6.051016973746175e+17
19610.0	6.050042887886164e+17
19611.0	6.048954787561472e+17
19612.0	6.047904203188906e+17
19613.0	6.046807717751465e+17
19614.0	6.04568868303667e+17
19615.0	6.044681548158292e+17
19616.0	6.04357299081489e+17
19617.0	6.042530021900287e+17
19618.0	6.040630068598099e+17
19619.0	6.039284503718566e+17
19620.0	6.038265333284863e+17
19621.0	6.038215040783699e+17
19622.0	6.037146585180842e+17
19623.0	6.03607220092928e+17
19624.0	6.034976343938388e+17
19625.0	6.033912487389866e+17
19626.0	6.032814833139712e+17
19627.0	6.03175276965615e+17
19628.0	6.030548171139753e+17
19629.0	6.029444377826643e+17
19630.0	6.02841990299648e+17
19631.0	6.022521430212605e+17
19632.0	6.026336464972457e+17
19633.0	6.025183657022804e+17
19634.0	6.024175755984895e+17
19635.0	6.023025449238527e+17
19636.0	6.021991144357887e+17
19637.0	6.020266654171136e+17
19638.0	6.019820502559402e+17
19639.0	6.018734967051604e+17
19640.0	6.01756204601617e+17
19641.0	6.015560633199278e+17
19642.0	6.015481692203689e+17
19643.0	6.014367450879316e+17
19644.0	6.013229390102527e+17
19645.0	6.011816644356777e+17
19646.0	6.011158865641471e+17
19647.0	6.010072549294079e+17
19648.0	6.008978274254847e+17
19649.0	6.007886557042004e+17
19650.0	6.006810872556202e+17
19651.0	6.005713845354495e+17
19652.0	6.004623406006271e+17
19653.0	6.003547896283135e+17
19654.0	6.002443659771903e+17
19655.0	6.001349725869396e+17
19656.0	6.00027364921617e+17
19657.0	5.999185270669312e+17
19658.0	5.998108502654975e+17
19659.0	5.997018331742207e+17
19660.0	5.995937478475775e+17
19661.0	5.994841724944381e+17
19662.0	5.993761448394751e+17
19663.0	5.992598030254079e+17
19664.0	5.991553692598271e+17
19665.0	5.990497109671935e+17
