# Flux units: erg / (cm m2 s)
# Wavelength units: Angstrom
wave	flux
19000.0	2.851278614953984e+17
19001.0	2.8507564269021862e+17
19002.0	2.8502732930635088e+17
19003.0	2.8497705854566394e+17
19004.0	2.849264512969386e+17
19005.0	2.8487568277722448e+17
19006.0	2.848237999357951e+17
19007.0	2.8477625858348365e+17
19008.0	2.8472479363454288e+17
19009.0	2.846737441314133e+17
19010.0	2.8461541128929277e+17
19011.0	2.845731451480746e+17
19012.0	2.8451817320174925e+17
19013.0	2.844725260670293e+17
19014.0	2.8442158358855674e+17
19015.0	2.843700273785514e+17
19016.0	2.8432000726248106e+17
19017.0	2.8427212550744746e+17
19018.0	2.8422187952810662e+17
19019.0	2.8417153879244797e+17
19020.0	2.8412171972334928e+17
19021.0	2.8407184455543462e+17
19022.0	2.840218136390314e+17
19023.0	2.8397051765063674e+17
19024.0	2.8392001658770768e+17
19025.0	2.8387171886257488e+17
19026.0	2.8382119749222394e+17
19027.0	2.8377045183146662e+17
19028.0	2.837218399879168e+17
19029.0	2.8367152959105702e+17
19030.0	2.8362197710493008e+17
19031.0	2.8357211385582922e+17
19032.0	2.8352191251087354e+17
19033.0	2.834707271821994e+17
19034.0	2.8342229646267728e+17
19035.0	2.833721979131221e+17
19036.0	2.8318029518820685e+17
19037.0	2.83272638697745e+17
19038.0	2.8322247908611408e+17
19039.0	2.831728343252992e+17
19040.0	2.8312293661300042e+17
19041.0	2.8307300545112742e+17
19042.0	2.82933077947187e+17
19043.0	2.829739266233685e+17
19044.0	2.82924003885056e+17
19045.0	2.828740075367082e+17
19046.0	2.8282341776424957e+17
19047.0	2.8277451815649277e+17
19048.0	2.8270779611217917e+17
19049.0	2.8249316239168832e+17
19050.0	2.8262257362206714e+17
19051.0	2.82558366552337e+17
19052.0	2.8252388192856742e+17
19053.0	2.8247649482178557e+17
19054.0	2.8242672419689808e+17
19055.0	2.8234581093471578e+17
19056.0	2.8231692731460256e+17
19057.0	2.8227774783160314e+17
19058.0	2.8213321141671232e+17
19059.0	2.8213927271028048e+17
19060.0	2.821284989064533e+17
19061.0	2.8207917329722022e+17
19062.0	2.8202949250034342e+17
19063.0	2.8198010876504742e+17
19064.0	2.8192836804061866e+17
19065.0	2.8187840056306342e+17
19066.0	2.817936175311531e+17
19067.0	2.8178143045659302e+17
19068.0	2.8173239096879782e+17
19069.0	2.8168284795480742e+17
19070.0	2.8163270351257597e+17
19071.0	2.8158368230495568e+17
19072.0	2.814958858054314e+17
19073.0	2.8148478502065488e+17
19074.0	2.814352711221248e+17
19075.0	2.8138593558637222e+17
19076.0	2.8133501156283728e+17
19077.0	2.8128655029480106e+17
19078.0	2.8123648606863357e+17
19079.0	2.8118804468858877e+17
19080.0	2.8113848150698662e+17
19081.0	2.8108820749571405e+17
19082.0	2.8103923354391888e+17
19083.0	2.8098945295755946e+17
19084.0	2.8093834969743354e+17
19085.0	2.8089128023927462e+17
19086.0	2.8079544528622928e+17
19087.0	2.8071626906009584e+17
19088.0	2.8070117893297482e+17
19089.0	2.80690625679633e+17
19090.0	2.8064493978255354e+17
19091.0	2.8058731371560963e+17
19092.0	2.8047938238982838e+17
19093.0	2.804973840979285e+17
19094.0	2.8044815209157968e+17
19095.0	2.8039881931707728e+17
19096.0	2.803493253764437e+17
19097.0	2.8030033782811302e+17
19098.0	2.8021405001973757e+17
19099.0	2.8015839751263565e+17
19100.0	2.8015145828133542e+17
19101.0	2.8010257877128525e+17
19102.0	2.8005116873277434e+17
19103.0	2.8000507224828586e+17
19104.0	2.7995614111334397e+17
19105.0	2.7982752145298787e+17
19106.0	2.798567187371349e+17
19107.0	2.7978937090266448e+17
19108.0	2.797317913924949e+17
19109.0	2.7970452705334605e+17
19110.0	2.79661254873361e+17
19111.0	2.795907961585663e+17
19112.0	2.7953667981530448e+17
19113.0	2.795135741635242e+17
19114.0	2.794520721752063e+17
19115.0	2.7941138809050448e+17
19116.0	2.7936604693026125e+17
19117.0	2.7931769960748365e+17
19118.0	2.7926724915582288e+17
19119.0	2.7874561580072883e+17
19120.0	2.7916987265624736e+17
19121.0	2.7912127419951782e+17
19122.0	2.790731070570496e+17
19123.0	2.7902419626448205e+17
19124.0	2.789748495788714e+17
19125.0	2.7892624808127142e+17
19126.0	2.7887734029462186e+17
19127.0	2.7879174720279885e+17
19128.0	2.78779336327168e+17
19129.0	2.7872949097376416e+17
19130.0	2.786815242141696e+17
19131.0	2.7863276179510605e+17
19132.0	2.7858375956671142e+17
19133.0	2.7853438250734928e+17
19134.0	2.784861938341205e+17
19135.0	2.7843732243305808e+17
19136.0	2.783885284868095e+17
19137.0	2.783364373282816e+17
19138.0	2.7829075621969917e+17
19139.0	2.782422843959979e+17
19140.0	2.7819352019435517e+17
19141.0	2.7814466130629968e+17
19142.0	2.7809543587102714e+17
19143.0	2.7804594350325757e+17
19144.0	2.7799781292113914e+17
19145.0	2.779496661210453e+17
19146.0	2.7789043496386557e+17
19147.0	2.778487632603818e+17
19148.0	2.7777178257762986e+17
19149.0	2.777183328141312e+17
19150.0	2.7770616475374928e+17
19151.0	2.7765749551813968e+17
19152.0	2.7760882523395414e+17
19153.0	2.7749632424891722e+17
19154.0	2.7750113445150714e+17
19155.0	2.7746304510306982e+17
19156.0	2.7741442553501008e+17
19157.0	2.773429082128384e+17
19158.0	2.7726845243118938e+17
19159.0	2.772673725377194e+17
19160.0	2.772198675360426e+17
19161.0	2.7717146914761382e+17
19162.0	2.7711378341669546e+17
19163.0	2.7707435402308266e+17
19164.0	2.7702506595287034e+17
19165.0	2.769060644607316e+17
19166.0	2.76925458747665e+17
19167.0	2.7687839558096202e+17
19168.0	2.768318416027647e+17
19169.0	2.7678308627906554e+17
19170.0	2.7673490526044154e+17
19171.0	2.7668580002693114e+17
19172.0	2.7663793962789542e+17
19173.0	2.7658952512634874e+17
19174.0	2.7653985642304842e+17
19175.0	2.764925133914112e+17
19176.0	2.7644433873414822e+17
19177.0	2.7639322324063565e+17
19178.0	2.7634588775874554e+17
19179.0	2.7629673471016954e+17
19180.0	2.7625063899463683e+17
19181.0	2.7619814067404797e+17
19182.0	2.7615299891800746e+17
19183.0	2.7610560964416848e+17
19184.0	2.7605687137730557e+17
19185.0	2.7600881936848205e+17
19186.0	2.7596074397641382e+17
19187.0	2.7591167110894925e+17
19188.0	2.7586392014629542e+17
19189.0	2.7581591794483194e+17
19190.0	2.757676947035477e+17
19191.0	2.7571860205294928e+17
19192.0	2.7567114444690765e+17
19193.0	2.7561598885997222e+17
19194.0	2.7556401395357008e+17
19195.0	2.7552639541575674e+17
19196.0	2.7547792785626445e+17
19197.0	2.7542989265960954e+17
19198.0	2.7538187476445862e+17
19199.0	2.7527686082177702e+17
19200.0	2.7524832882414928e+17
19201.0	2.7523691168399357e+17
19202.0	2.7518939056919888e+17
19203.0	2.7514103692001274e+17
19204.0	2.7509265338641062e+17
19205.0	2.7504487956479994e+17
19206.0	2.7499667016471885e+17
19207.0	2.749465977596586e+17
19208.0	2.7489487950970874e+17
19209.0	2.74852444967185e+17
19210.0	2.7480412644529485e+17
19211.0	2.7475643801272317e+17
19212.0	2.7470846859673597e+17
19213.0	2.746587919941631e+17
19214.0	2.746098587620693e+17
19215.0	2.7456428142755834e+17
19216.0	2.7451647723219622e+17
19217.0	2.7446848415334394e+17
19218.0	2.744053795564202e+17
19219.0	2.7437053219525968e+17
19220.0	2.7432419013427197e+17
19221.0	2.7427062422350506e+17
19222.0	2.7422858216297808e+17
19223.0	2.74180497543441e+17
19224.0	2.7413218185270605e+17
19225.0	2.7408206858813434e+17
19226.0	2.7403684385477968e+17
19227.0	2.7398896517556902e+17
19228.0	2.7394135115694074e+17
19229.0	2.738933005811712e+17
19230.0	2.738455127435946e+17
19231.0	2.7379767247721808e+17
19232.0	2.7374990819764902e+17
19233.0	2.737010906584405e+17
19234.0	2.7365380907335674e+17
19235.0	2.7360622179341648e+17
19236.0	2.7355877040892586e+17
19237.0	2.7351057516462074e+17
19238.0	2.7346067133562874e+17
19239.0	2.7341540507866448e+17
19240.0	2.7336756236561062e+17
19241.0	2.733196457279487e+17
19242.0	2.7327180081288525e+17
19243.0	2.7322231907068582e+17
19244.0	2.7317669626292896e+17
19245.0	2.7312879266256205e+17
19246.0	2.730810997211135e+17
19247.0	2.7303359083970554e+17
19248.0	2.729860386171562e+17
19249.0	2.729373663057237e+17
19250.0	2.7287966624426666e+17
19251.0	2.7283063161487354e+17
19252.0	2.7279160543368525e+17
19253.0	2.7274722483896317e+17
19254.0	2.727002074950314e+17
19255.0	2.7264987560236365e+17
19256.0	2.7260425674424317e+17
19257.0	2.7255745942650874e+17
19258.0	2.7250985019637757e+17
19259.0	2.7246129165544096e+17
19260.0	2.7241052212210346e+17
19261.0	2.723670756338346e+17
19262.0	2.723184731925162e+17
19263.0	2.7227049731031034e+17
19264.0	2.7221290839790925e+17
19265.0	2.7217253546065917e+17
19266.0	2.7211791622034768e+17
19267.0	2.720821618059946e+17
19268.0	2.720345377909418e+17
19269.0	2.7198722090379936e+17
19270.0	2.719398333426347e+17
19271.0	2.7188509966772906e+17
19272.0	2.7184429653469866e+17
19273.0	2.71791630651665e+17
19274.0	2.7174319762527565e+17
19275.0	2.7170279773962237e+17
19276.0	2.7165504974793386e+17
19277.0	2.716078340134229e+17
19278.0	2.7155984456963408e+17
19279.0	2.7151291796247888e+17
19280.0	2.714642067838293e+17
19281.0	2.7141823067586554e+17
19282.0	2.713713080183466e+17
19283.0	2.7132316684561062e+17
19284.0	2.7127612325232637e+17
19285.0	2.7122667852485968e+17
19286.0	2.711814004189866e+17
19287.0	2.7113463693530448e+17
19288.0	2.7104972007014394e+17
19289.0	2.7094386513455763e+17
19290.0	2.7099303859541328e+17
19291.0	2.7094187392368637e+17
19292.0	2.7089855361406288e+17
19293.0	2.7085112040488954e+17
19294.0	2.7080379069016742e+17
19295.0	2.7075687939222182e+17
19296.0	2.7067569266141866e+17
19297.0	2.706550005869226e+17
19298.0	2.70614869905681e+17
19299.0	2.7052881128106666e+17
19300.0	2.7051922257783462e+17
19301.0	2.7047378547288746e+17
19302.0	2.7042658319510182e+17
19303.0	2.7037824541436582e+17
19304.0	2.703319837442048e+17
19305.0	2.702850893982378e+17
19306.0	2.7023824926365008e+17
19307.0	2.7019011990487034e+17
19308.0	2.7014377298548045e+17
19309.0	2.7009460361407142e+17
19310.0	2.7004702133234342e+17
19311.0	2.7000227943328426e+17
19312.0	2.699557854685866e+17
19313.0	2.6990895917520205e+17
19314.0	2.69052965552128e+17
19315.0	2.6904765479430928e+17
19316.0	2.6972215200535894e+17
19317.0	2.697207591818581e+17
19318.0	2.6967389538440525e+17
19319.0	2.6962709894048416e+17
19320.0	2.6956500317853008e+17
19321.0	2.6950277298913277e+17
19322.0	2.694851809247231e+17
19323.0	2.6943855047038288e+17
19324.0	2.6939250218543776e+17
19325.0	2.6934361173524477e+17
19326.0	2.6929878696372902e+17
19327.0	2.6925070646859088e+17
19328.0	2.6913314837626883e+17
19329.0	2.691581943480319e+17
19330.0	2.6911063628840954e+17
19331.0	2.690637788523178e+17
19332.0	2.6901764860368205e+17
19333.0	2.6897077302722554e+17
19334.0	2.689207550432597e+17
19335.0	2.687324073754625e+17
19336.0	2.6882820010584746e+17
19337.0	2.6878362377693862e+17
19338.0	2.6873327238075725e+17
19339.0	2.686899625918464e+17
19340.0	2.6863137246412797e+17
19341.0	2.6854456966512643e+17
19342.0	2.6852615090339834e+17
19343.0	2.6850318883662506e+17
19344.0	2.6840485040837974e+17
19345.0	2.683398213599231e+17
19346.0	2.6834435306072742e+17
19347.0	2.6825128753670822e+17
19348.0	2.6826983506356902e+17
19349.0	2.6822268808069117e+17
19350.0	2.6815513884972365e+17
19351.0	2.681284191759018e+17
19352.0	2.6801250836152307e+17
19353.0	2.6803611722492582e+17
19354.0	2.679900184335701e+17
19355.0	2.6794181721238182e+17
19356.0	2.6789671586146982e+17
19357.0	2.6785023961770662e+17
19358.0	2.6780362779306662e+17
19359.0	2.677388444958719e+17
19360.0	2.6765784056681805e+17
19361.0	2.6766328096358397e+17
19362.0	2.676174950673066e+17
19363.0	2.6757090774439245e+17
19364.0	2.6752438564290554e+17
19365.0	2.6747790087072426e+17
19366.0	2.6743126269187405e+17
19367.0	2.6738489022218234e+17
19368.0	2.6733851167074982e+17
19369.0	2.6729123260224848e+17
19370.0	2.6724526900729168e+17
19371.0	2.671982644559871e+17
19372.0	2.671526286109354e+17
19373.0	2.671058876366847e+17
19374.0	2.6705973036974074e+17
19375.0	2.6701337901137917e+17
19376.0	2.6696712171028477e+17
19377.0	2.6692056563493542e+17
19378.0	2.668742691870037e+17
19379.0	2.668280077615103e+17
19380.0	2.6678139226685434e+17
19381.0	2.6673450277928957e+17
19382.0	2.6668788081841488e+17
19383.0	2.6664063446548477e+17
19384.0	2.665950282951338e+17
19385.0	2.6654989422865066e+17
19386.0	2.665036609399466e+17
19387.0	2.6645737899731616e+17
19388.0	2.6641061289219405e+17
19389.0	2.6636327664134822e+17
19390.0	2.663169411514367e+17
19391.0	2.6613750777774054e+17
19392.0	2.6622330579626662e+17
19393.0	2.6617810888512848e+17
19394.0	2.661316871323647e+17
19395.0	2.660642802980181e+17
19396.0	2.6603298883283626e+17
19397.0	2.659930478739455e+17
19398.0	2.6592951465410554e+17
19399.0	2.6585878023372787e+17
19400.0	2.658401443468629e+17
19401.0	2.658079223054336e+17
19402.0	2.6576190656129702e+17
19403.0	2.6571536652916045e+17
19404.0	2.6566932656291834e+17
19405.0	2.6562281756863142e+17
19406.0	2.6557689822358182e+17
19407.0	2.6550391481739936e+17
19408.0	2.6546684849466022e+17
19409.0	2.6543800555929594e+17
19410.0	2.6539215758731946e+17
19411.0	2.653459076961621e+17
19412.0	2.6529915815854074e+17
19413.0	2.6522573585339725e+17
19414.0	2.6520642153786022e+17
19415.0	2.651606673784832e+17
19416.0	2.6511168486331725e+17
19417.0	2.6506725662829222e+17
19418.0	2.6502214632953168e+17
19419.0	2.6497580381416106e+17
19420.0	2.6492953438453757e+17
19421.0	2.6488313318386342e+17
19422.0	2.6483596491489277e+17
19423.0	2.6479021568382288e+17
19424.0	2.6474383073607674e+17
19425.0	2.646971432741546e+17
19426.0	2.6465062264067405e+17
19427.0	2.6460403210212688e+17
19428.0	2.645572069272234e+17
19429.0	2.6451042715566077e+17
19430.0	2.644619469083989e+17
19431.0	2.6439566327371098e+17
19432.0	2.6436881123464528e+17
19433.0	2.643210495765162e+17
19434.0	2.6427314185175037e+17
19435.0	2.6422231898084682e+17
19436.0	2.6416531838948688e+17
19437.0	2.6412621678073168e+17
19438.0	2.6377094203528538e+17
19439.0	2.6401725089491626e+17
19440.0	2.6396984994693114e+17
19441.0	2.6391389859566925e+17
19442.0	2.6385409481113594e+17
19443.0	2.637888935865002e+17
19444.0	2.637145560143189e+17
19445.0	2.636239474436779e+17
19446.0	2.6350206673660582e+17
19447.0	2.6331024087231142e+17
19448.0	2.629207836327936e+17
19449.0	2.6094730026680275e+17
19450.0	2.3087929213583376e+17
19451.0	2.056748305918635e+17
19452.0	2.425098213523473e+17
19453.0	2.61880496241596e+17
19454.0	2.6277143638616736e+17
19455.0	2.6299404312903674e+17
19456.0	2.630695612929365e+17
19457.0	2.6308988059866448e+17
19458.0	2.59876518677714e+17
19459.0	2.6298209603857142e+17
19460.0	2.6303674159813968e+17
19461.0	2.6300435874010448e+17
19462.0	2.6296828741113168e+17
19463.0	2.629301230196053e+17
19464.0	2.628898565128192e+17
19465.0	2.6284909329558186e+17
19466.0	2.6280674568000854e+17
19467.0	2.6276458757707085e+17
19468.0	2.627216608679253e+17
19469.0	2.6262009747428682e+17
19470.0	2.626341426604714e+17
19471.0	2.6259050788290557e+17
19472.0	2.6254446494569808e+17
19473.0	2.6249990745620477e+17
19474.0	2.624036782385834e+17
19475.0	2.6239206725167786e+17
19476.0	2.6236665931147946e+17
19477.0	2.6232222359661222e+17
19478.0	2.6227867913639245e+17
19479.0	2.6218203118742176e+17
19480.0	2.621884141142015e+17
19481.0	2.6213952782336e+17
19482.0	2.6209833622787414e+17
19483.0	2.6205395507391142e+17
19484.0	2.6200855120882342e+17
19485.0	2.619625976801962e+17
19486.0	2.6186322539096752e+17
19487.0	2.6187323803347626e+17
19488.0	2.6182868561210022e+17
19489.0	2.6178179318852262e+17
19490.0	2.617045860483071e+17
19491.0	2.616927406347605e+17
19492.0	2.616482518969002e+17
19493.0	2.6160312597435725e+17
19494.0	2.615579007167146e+17
19495.0	2.615126787096576e+17
19496.0	2.6145620583164582e+17
19497.0	2.6142208688127997e+17
19498.0	2.6136679623775568e+17
19499.0	2.611147896608084e+17
19500.0	2.612871392045738e+17
19501.0	2.612435563315199e+17
19502.0	2.6119910688030717e+17
19503.0	2.611540390139221e+17
19504.0	2.6110890781354662e+17
19505.0	2.6106322191646714e+17
19506.0	2.6101866086181542e+17
19507.0	2.6097287748212045e+17
19508.0	2.609284689253717e+17
19509.0	2.6088331899043834e+17
19510.0	2.6082994643708582e+17
19511.0	2.5959406879375258e+17
19512.0	2.6071721644305053e+17
19513.0	2.6063495205573955e+17
19514.0	2.6061085431125325e+17
19515.0	2.606023643758592e+17
19516.0	2.6056270719658662e+17
19517.0	2.6052013102639786e+17
19518.0	2.6046499704012794e+17
19519.0	2.6041951194535245e+17
19520.0	2.6034354097138336e+17
19521.0	2.6034246681012902e+17
19522.0	2.602922923436714e+17
19523.0	2.6024132808977062e+17
19524.0	2.6017457154730672e+17
19525.0	2.6016231767845546e+17
19526.0	2.6011797130226346e+17
19527.0	2.600726002226517e+17
19528.0	2.600253821812736e+17
19529.0	2.5997877178968742e+17
19530.0	2.5993836442419194e+17
19531.0	2.5989342469379408e+17
19532.0	2.5984850467662502e+17
19533.0	2.5980350017918288e+17
19534.0	2.5975878372556797e+17
19535.0	2.5971376248586234e+17
19536.0	2.5966838375164586e+17
19537.0	2.596240306296149e+17
19538.0	2.5953441956932266e+17
19539.0	2.595221942916437e+17
19540.0	2.5948923069726717e+17
19541.0	2.5943747882298022e+17
19542.0	2.5939675814297597e+17
19543.0	2.593106666280277e+17
19544.0	2.59307922329873e+17
19545.0	2.592559746165418e+17
19546.0	2.5920127795636902e+17
19547.0	2.5917638934091085e+17
19548.0	2.591315778513578e+17
19549.0	2.590854068830208e+17
19550.0	2.5904197084555946e+17
19551.0	2.5899746795192317e+17
19552.0	2.5895262248850768e+17
19553.0	2.5890758723283626e+17
19554.0	2.588622348178773e+17
19555.0	2.5881417665740797e+17
19556.0	2.587710086709247e+17
19557.0	2.587290335794517e+17
19558.0	2.586846103775914e+17
19559.0	2.58640092664081e+17
19560.0	2.5857999255197008e+17
19561.0	2.5855036342927354e+17
19562.0	2.5849118389698554e+17
19563.0	2.584616583735978e+17
19564.0	2.5841682867377488e+17
19565.0	2.583723955803477e+17
19566.0	2.5832720191979514e+17
19567.0	2.5828335368710822e+17
19568.0	2.5823856869157542e+17
19569.0	2.581939514332501e+17
19570.0	2.5814954231726074e+17
19571.0	2.5810491936167248e+17
19572.0	2.580602588670634e+17
19573.0	2.5801150871633914e+17
19574.0	2.5796883072942077e+17
19575.0	2.5792721872486397e+17
19576.0	2.5788066132131834e+17
19577.0	2.578321914899114e+17
19578.0	2.5779291773992957e+17
19579.0	2.5774898579592528e+17
19580.0	2.5770446018314237e+17
19581.0	2.5765995578654714e+17
19582.0	2.5761604247224317e+17
19583.0	2.575717042050389e+17
19584.0	2.5752707918725114e+17
19585.0	2.5748103827729062e+17
19586.0	2.5743623472196266e+17
19587.0	2.573937752932351e+17
19588.0	2.573397499663701e+17
19589.0	2.5730513255792637e+17
19590.0	2.5725700344381437e+17
19591.0	2.572164706336767e+17
19592.0	2.571721028665344e+17
19593.0	2.5712435550399142e+17
19594.0	2.5707658654078288e+17
19595.0	2.5703882099261437e+17
19596.0	2.5699430544616106e+17
19597.0	2.5695069188478285e+17
19598.0	2.5688742828878502e+17
19599.0	2.5686221720125434e+17
19600.0	2.5681804995679568e+17
19601.0	2.5677265018115408e+17
19602.0	2.5672879614634662e+17
19603.0	2.5667581834690554e+17
19604.0	2.5664056144691194e+17
19605.0	2.5659176582294182e+17
19606.0	2.5655254904558928e+17
19607.0	2.5650858050628262e+17
19608.0	2.5646392252825594e+17
19609.0	2.5641927587485014e+17
19610.0	2.563525068543317e+17
19611.0	2.562988377636864e+17
19612.0	2.5628779265829542e+17
19613.0	2.562433425429845e+17
19614.0	2.561983396883115e+17
19615.0	2.561548308447231e+17
19616.0	2.560863481014955e+17
19617.0	2.5603241571341654e+17
19618.0	2.5600868346757114e+17
19619.0	2.559580682496682e+17
19620.0	2.559054558440106e+17
19621.0	2.5584409527364256e+17
19622.0	2.5584629633952426e+17
19623.0	2.558006542030165e+17
19624.0	2.5575355045642237e+17
19625.0	2.5571415038798502e+17
19626.0	2.5567001722224637e+17
19627.0	2.5562618290066768e+17
19628.0	2.5557960340712102e+17
19629.0	2.5541939092084042e+17
19630.0	2.5549231798353917e+17
19631.0	2.5538670408062288e+17
19632.0	2.5540599920721914e+17
19633.0	2.5536112651578022e+17
19634.0	2.5531820791562234e+17
19635.0	2.5526633538519034e+17
19636.0	2.551756411109375e+17
19637.0	2.55129528897809e+17
19638.0	2.5513659958558714e+17
19639.0	2.5509845766853965e+17
19640.0	2.550517981686443e+17
19641.0	2.5495982473652918e+17
19642.0	2.5496436014230182e+17
19643.0	2.5492040429076477e+17
19644.0	2.5487835740678822e+17
19645.0	2.5482970585716045e+17
19646.0	2.547323994024617e+17
19647.0	2.5474599502916262e+17
19648.0	2.547042662132394e+17
