# Flux units: erg / (cm m2 s)
# Wavelength units: Angstrom
wave	flux
19000.0	7.024536769789951e+17
19001.0	7.023184438099967e+17
19002.0	7.021954311651327e+17
19003.0	7.020660735868927e+17
19004.0	7.01936705942323e+17
19005.0	7.018075572404223e+17
19006.0	7.016781675757567e+17
19007.0	7.015392701229737e+17
19008.0	7.014154971906047e+17
19009.0	7.012843053733204e+17
19010.0	7.011322861802836e+17
19011.0	7.010271630808403e+17
19012.0	7.008684319528276e+17
19013.0	7.007712874681684e+17
19014.0	7.006372034685609e+17
19015.0	7.005088394510336e+17
19016.0	7.003783193515348e+17
19017.0	7.002510520046931e+17
19018.0	7.0011953624733e+17
19019.0	6.999913160944298e+17
19020.0	6.998601101563219e+17
19021.0	6.997320822423551e+17
19022.0	6.996025670980948e+17
19023.0	6.994698598787753e+17
19024.0	6.993405410279423e+17
19025.0	6.992093386549929e+17
19026.0	6.990771402746537e+17
19027.0	6.989228460911272e+17
19028.0	6.988219541356543e+17
19029.0	6.986907973408084e+17
19030.0	6.985616018025129e+17
19031.0	6.984313660768255e+17
19032.0	6.98301071630882e+17
19033.0	6.981651371043497e+17
19034.0	6.980392816301395e+17
19035.0	6.979049828122623e+17
19036.0	6.958633196366504e+17
19037.0	6.976474387054591e+17
19038.0	6.975172439441407e+17
19039.0	6.973886189010943e+17
19040.0	6.972582812538196e+17
19041.0	6.971278223212543e+17
19042.0	6.969915985275561e+17
19043.0	6.968670695718911e+17
19044.0	6.967362878876329e+17
19045.0	6.9660500833949e+17
19046.0	6.964724430274559e+17
19047.0	6.963439858264745e+17
19048.0	6.962019778778452e+17
19049.0	6.960782383600979e+17
19050.0	6.959503280264532e+17
19051.0	6.955297173493071e+17
19052.0	6.95638376526643e+17
19053.0	6.95558923686161e+17
19054.0	6.954307886077267e+17
19055.0	6.952844796100607e+17
19056.0	6.951682948726783e+17
19057.0	6.950381934346239e+17
19058.0	6.949044583312042e+17
19059.0	6.947775549800447e+17
19060.0	6.94645510251042e+17
19061.0	6.945162782922068e+17
19062.0	6.943852743797417e+17
19063.0	6.942546697650175e+17
19064.0	6.941169987267242e+17
19065.0	6.939951323851434e+17
19066.0	6.938738962377385e+17
19067.0	6.937467089321983e+17
19068.0	6.93616001487121e+17
19069.0	6.93485231546914e+17
19070.0	6.933529178931197e+17
19071.0	6.9322269537949e+17
19072.0	6.930924529429161e+17
19073.0	6.929616232338772e+17
19074.0	6.928311125016575e+17
19075.0	6.927002607725225e+17
19076.0	6.925681294311423e+17
19077.0	6.924377129309524e+17
19078.0	6.92306036461841e+17
19079.0	6.921767993300306e+17
19080.0	6.920454482690047e+17
19081.0	6.919126357027497e+17
19082.0	6.917813597896703e+17
19083.0	6.916461938693459e+17
19084.0	6.91507583586577e+17
19085.0	6.913911617312084e+17
19086.0	6.912347422239402e+17
19087.0	6.910727375814655e+17
19088.0	6.909895235687764e+17
19089.0	6.908265919851177e+17
19090.0	6.907334330679295e+17
19091.0	6.906034243239936e+17
19092.0	6.904578538733567e+17
19093.0	6.903437746765821e+17
19094.0	6.902124645799252e+17
19095.0	6.900814214507178e+17
19096.0	6.899501862223871e+17
19097.0	6.898202342413652e+17
19098.0	6.896891636394665e+17
19099.0	6.895581494509567e+17
19100.0	6.894243870146559e+17
19101.0	6.892955052102995e+17
19102.0	6.891598653336233e+17
19103.0	6.890348445259091e+17
19104.0	6.889038533361664e+17
19105.0	6.887718297184936e+17
19106.0	6.886315498930175e+17
19107.0	6.885093689786367e+17
19108.0	6.883788028116991e+17
19109.0	6.880825412244818e+17
19110.0	6.881111031764308e+17
19111.0	6.879859399021908e+17
19112.0	6.878557151515987e+17
19113.0	6.877252122487465e+17
19114.0	6.875942441975807e+17
19115.0	6.874569191194623e+17
19116.0	6.873308311410004e+17
19117.0	6.87199620239633e+17
19118.0	6.870558390790825e+17
19119.0	6.867127329183057e+17
19120.0	6.867919667462143e+17
19121.0	6.866652217300308e+17
19122.0	6.865463545954303e+17
19123.0	6.864152902150825e+17
19124.0	6.862742707240959e+17
19125.0	6.861518493362857e+17
19126.0	6.860215653061972e+17
19127.0	6.857855967690751e+17
19128.0	6.857026809714003e+17
19129.0	6.856241360579242e+17
19130.0	6.854976128505172e+17
19131.0	6.853652069220351e+17
19132.0	6.85235861786897e+17
19133.0	6.850877088333823e+17
19134.0	6.849481579779412e+17
19135.0	6.848420030098089e+17
19136.0	6.847119196072617e+17
19137.0	6.845709467429546e+17
19138.0	6.844469731830441e+17
19139.0	6.843185263280127e+17
19140.0	6.841876608275795e+17
19141.0	6.840565784816298e+17
19142.0	6.83923969478929e+17
19143.0	6.837912215049556e+17
19144.0	6.836616257601536e+17
19145.0	6.835316653206185e+17
19146.0	6.833637764890623e+17
19147.0	6.832640153179476e+17
19148.0	6.831373559354708e+17
19149.0	6.830064222076927e+17
19150.0	6.828757621582506e+17
19151.0	6.827450943493459e+17
19152.0	6.826116842345812e+17
19153.0	6.824809834304852e+17
19154.0	6.823436001214461e+17
19155.0	6.822201298081108e+17
19156.0	6.820883191212714e+17
19157.0	6.819523930532522e+17
19158.0	6.817148775869097e+17
19159.0	6.816918319835817e+17
19160.0	6.815608257642496e+17
19161.0	6.814259798693204e+17
19162.0	6.810443046365869e+17
19163.0	6.81159784660992e+17
19164.0	6.810379694200148e+17
19165.0	6.809014965545641e+17
19166.0	6.807627651962196e+17
19167.0	6.806197915789993e+17
19168.0	6.805103304507391e+17
19169.0	6.803759587218772e+17
19170.0	6.802496988468564e+17
19171.0	6.801036953343316e+17
19172.0	6.799853180245332e+17
19173.0	6.798549111013375e+17
19174.0	6.797210382150314e+17
19175.0	6.79593002541602e+17
19176.0	6.794614111469567e+17
19177.0	6.793203448195754e+17
19178.0	6.791909066407935e+17
19179.0	6.790457337402708e+17
19180.0	6.789308154030761e+17
19181.0	6.787963562229759e+17
19182.0	6.786700184038058e+17
19183.0	6.785392851637587e+17
19184.0	6.784056926666751e+17
19185.0	6.782759495619923e+17
19186.0	6.781444104563369e+17
19187.0	6.780080217565866e+17
19188.0	6.778799740594857e+17
19189.0	6.777461914905257e+17
19190.0	6.776130944805545e+17
19191.0	6.774799650346323e+17
19192.0	6.773523911540735e+17
19193.0	6.772183560880128e+17
19194.0	6.770864627733843e+17
19195.0	6.769552831195817e+17
19196.0	6.768218060357632e+17
19197.0	6.766871704851795e+17
19198.0	6.765442989992617e+17
19199.0	6.749085287579643e+17
19200.0	6.752245174151855e+17
19201.0	6.761493237683539e+17
19202.0	6.76026692805154e+17
19203.0	6.758927962909353e+17
19204.0	6.757629525229567e+17
19205.0	6.756330986187433e+17
19206.0	6.754999454050985e+17
19207.0	6.753621809736361e+17
19208.0	6.752235579681449e+17
19209.0	6.751024689709055e+17
19210.0	6.749705920140628e+17
19211.0	6.748377585461929e+17
19212.0	6.747047859672404e+17
19213.0	6.745554576998397e+17
19214.0	6.744149123749204e+17
19215.0	6.742995535659007e+17
19216.0	6.741726593723049e+17
19217.0	6.740397453038932e+17
19218.0	6.738561885099348e+17
19219.0	6.737634943915348e+17
19220.0	6.736377739040084e+17
19221.0	6.734866403382612e+17
19222.0	6.733725944862036e+17
19223.0	6.732393875155626e+17
19224.0	6.731028978728959e+17
19225.0	6.729633751192916e+17
19226.0	6.728373912993792e+17
19227.0	6.727033079988223e+17
19228.0	6.725707119984639e+17
19229.0	6.724366407215785e+17
19230.0	6.723001670172672e+17
19231.0	6.721659550913876e+17
19232.0	6.720332736670377e+17
19233.0	6.718952408001193e+17
19234.0	6.717637049100968e+17
19235.0	6.716291861708799e+17
19236.0	6.71495867212322e+17
19237.0	6.713601105242793e+17
19238.0	6.712183856212649e+17
19239.0	6.710912812231337e+17
19240.0	6.709529564326568e+17
19241.0	6.708185557630975e+17
19242.0	6.706845655760895e+17
19243.0	6.70539889980211e+17
19244.0	6.704147971003732e+17
19245.0	6.702791353434111e+17
19246.0	6.701423776148137e+17
19247.0	6.700073473103188e+17
19248.0	6.698713753845759e+17
19249.0	6.697342936459946e+17
19250.0	6.695975840819881e+17
19251.0	6.694545309827071e+17
19252.0	6.693085951382868e+17
19253.0	6.691875694750377e+17
19254.0	6.690516213170175e+17
19255.0	6.689038779372884e+17
19256.0	6.687738269007871e+17
19257.0	6.686403130469034e+17
19258.0	6.685029014263126e+17
19259.0	6.683608271377747e+17
19260.0	6.681936847525203e+17
19261.0	6.680892212073812e+17
19262.0	6.679480044442963e+17
19263.0	6.678087888535551e+17
19264.0	6.676418631740074e+17
19265.0	6.675234686675626e+17
19266.0	6.673853882651988e+17
19267.0	6.672569214173183e+17
19268.0	6.671174850663764e+17
19269.0	6.669778315902975e+17
19270.0	6.668377804941994e+17
19271.0	6.66677814632994e+17
19272.0	6.665552669267284e+17
19273.0	6.663152648672595e+17
19274.0	6.662095795912701e+17
19275.0	6.661350837889705e+17
19276.0	6.659926576682323e+17
19277.0	6.658513758235306e+17
19278.0	6.657104950941012e+17
19279.0	6.655658592043007e+17
19280.0	6.654213367005183e+17
19281.0	6.652820323303423e+17
19282.0	6.651396577296383e+17
19283.0	6.649742842221908e+17
19284.0	6.648315187123539e+17
19285.0	6.646973242627411e+17
19286.0	6.645627621823828e+17
19287.0	6.644200626629289e+17
19288.0	6.637323913527288e+17
19289.0	6.629091684559511e+17
19290.0	6.63984203244066e+17
19291.0	6.638228035600383e+17
19292.0	6.636925171531775e+17
19293.0	6.635453220388863e+17
19294.0	6.633986610692095e+17
19295.0	6.632510890267988e+17
19296.0	6.631026829470378e+17
19297.0	6.629534839341056e+17
19298.0	6.628046193470121e+17
19299.0	6.626559068733439e+17
19300.0	6.625063997887828e+17
19301.0	6.623557769494527e+17
19302.0	6.622043029460308e+17
19303.0	6.620493833218729e+17
19304.0	6.618997133585066e+17
19305.0	6.617484288677204e+17
19306.0	6.615954270191613e+17
19307.0	6.614382576402432e+17
19308.0	6.612853008804521e+17
19309.0	6.610804425446739e+17
19310.0	6.609070792376317e+17
19311.0	6.608146213983571e+17
19312.0	6.606663963028137e+17
19313.0	6.605096053899261e+17
19314.0	6.589634082854236e+17
19315.0	6.588850024131256e+17
19316.0	6.600290735576403e+17
19317.0	6.598751511292585e+17
19318.0	6.597144148443135e+17
19319.0	6.595543355271849e+17
19320.0	6.593919785631743e+17
19321.0	6.59229016990242e+17
19322.0	6.590568371060735e+17
19323.0	6.588776840516948e+17
19324.0	6.587331814009514e+17
19325.0	6.585208133036714e+17
19326.0	6.5840040916637e+17
19327.0	6.582329357107197e+17
19328.0	6.580642180147882e+17
19329.0	6.578949222039551e+17
19330.0	6.577214501246291e+17
19331.0	6.575488544451242e+17
19332.0	6.573780008697855e+17
19333.0	6.572029697676628e+17
19334.0	6.570280027684864e+17
19335.0	6.568501143666687e+17
19336.0	6.566725298421759e+17
19337.0	6.564939095343103e+17
19338.0	6.563012978671615e+17
19339.0	6.561328265166845e+17
19340.0	6.559460257082026e+17
19341.0	6.557640167522303e+17
19342.0	6.555554987464019e+17
19343.0	6.553933271706282e+17
19344.0	6.552045075737258e+17
19345.0	6.549020659591848e+17
19346.0	6.547720765090473e+17
19347.0	6.546261494726655e+17
19348.0	6.544364401939795e+17
19349.0	6.542383191687167e+17
19350.0	6.540397204122282e+17
19351.0	6.538402255426899e+17
19352.0	6.536347711963136e+17
19353.0	6.534362682097663e+17
19354.0	6.532256371834879e+17
19355.0	6.5298029346816e+17
19356.0	6.527753867580756e+17
19357.0	6.525635269405353e+17
19358.0	6.523478925290153e+17
19359.0	6.521272442464938e+17
19360.0	6.519113760025257e+17
19361.0	6.516916837416959e+17
19362.0	6.514719935081129e+17
19363.0	6.512475014255956e+17
19364.0	6.510204570391892e+17
19365.0	6.507909327006378e+17
19366.0	6.505587160383487e+17
19367.0	6.503238407465642e+17
19368.0	6.500861963053737e+17
19369.0	6.498414184016554e+17
19370.0	6.495905207986857e+17
19371.0	6.493524656652287e+17
19372.0	6.491061227967827e+17
19373.0	6.488522831691775e+17
19374.0	6.485974304074408e+17
19375.0	6.483378959635796e+17
19376.0	6.480752467596627e+17
19377.0	6.478086803554301e+17
19378.0	6.475121924156073e+17
19379.0	6.471935691063296e+17
19380.0	6.469133307390633e+17
19381.0	6.466287586071892e+17
19382.0	6.463361473227434e+17
19383.0	6.460424916566015e+17
19384.0	6.457541648536916e+17
19385.0	6.454554994409472e+17
19386.0	6.451534078410752e+17
19387.0	6.448472167284733e+17
19388.0	6.44520601592354e+17
19389.0	6.441079324803072e+17
19390.0	6.437875628026537e+17
19391.0	6.418607086327101e+17
19392.0	6.431029361377276e+17
19393.0	6.428017990216361e+17
19394.0	6.424561341257044e+17
19395.0	6.419381542191104e+17
19396.0	6.415774084934313e+17
19397.0	6.412139346526208e+17
19398.0	6.408370261764778e+17
19399.0	6.40226733413717e+17
19400.0	6.398268095332351e+17
19401.0	6.394265402518185e+17
19402.0	6.38811666050799e+17
19403.0	6.382839034893652e+17
19404.0	6.377739495931904e+17
19405.0	6.370096730253993e+17
19406.0	6.364672682186066e+17
19407.0	6.355804425464489e+17
19408.0	6.347663446376447e+17
19409.0	6.339490591976109e+17
19410.0	6.327467964891135e+17
19411.0	6.315634855335256e+17
19412.0	6.302021832059561e+17
19413.0	6.288558937604095e+17
19414.0	6.279203501987156e+17
19415.0	6.271276031148032e+17
19416.0	6.262870823490899e+17
19417.0	6.254218105760425e+17
19418.0	6.245529362453844e+17
19419.0	6.236218017360553e+17
19420.0	6.226457655246847e+17
19421.0	6.216362884071423e+17
19422.0	6.205563439065769e+17
19423.0	6.194825956513107e+17
19424.0	6.183954047915348e+17
19425.0	6.172717821373098e+17
19426.0	6.160312810078205e+17
19427.0	6.148054147137536e+17
19428.0	6.13385104331025e+17
19429.0	6.119481320756563e+17
19430.0	6.10316117204446e+17
19431.0	6.082615773058392e+17
19432.0	6.064494298005505e+17
19433.0	6.037916490924033e+17
19434.0	6.002807080834381e+17
19435.0	5.957274265365161e+17
19436.0	5.924672193429503e+17
19437.0	5.897838332477439e+17
19438.0	5.848302174076932e+17
19439.0	5.834202929605292e+17
19440.0	5.799516899551913e+17
19441.0	5.7596026360081043e+17
19442.0	5.711995360422575e+17
19443.0	5.6512134404287136e+17
19444.0	5.567272624761517e+17
19445.0	5.486220205359106e+17
19446.0	5.400669011137874e+17
19447.0	5.2875561645288e+17
19448.0	5.13329968919348e+17
19449.0	4.9229791176075936e+17
19450.0	4.583464231064914e+17
19451.0	4.474497397336728e+17
19452.0	4.763578323522907e+17
19453.0	5.038584314724363e+17
19454.0	5.213344664737098e+17
19455.0	5.3425454158533965e+17
19456.0	5.437630170092888e+17
19457.0	5.5142566040261984e+17
19458.0	5.578380049820372e+17
19459.0	5.6681863619543155e+17
19460.0	5.7194991757994624e+17
19461.0	5.760540789964801e+17
19462.0	5.79563824279279e+17
19463.0	5.827443351530153e+17
19464.0	5.856369557809833e+17
19465.0	5.883336527096492e+17
19466.0	5.90833762330214e+17
19467.0	5.947317866375841e+17
19468.0	5.986371056784728e+17
19469.0	6.013286435433135e+17
19470.0	6.034684381932197e+17
19471.0	6.051561820826284e+17
19472.0	6.065926194244265e+17
19473.0	6.079220644052991e+17
19474.0	6.090767188972884e+17
19475.0	6.101184458784765e+17
19476.0	6.111523611082751e+17
19477.0	6.12104241414144e+17
19478.0	6.129694499231059e+17
19479.0	6.138082601118377e+17
19480.0	6.146567432044544e+17
19481.0	6.154580598106793e+17
19482.0	6.162152782036991e+17
19483.0	6.169306917590356e+17
19484.0	6.176007532838912e+17
19485.0	6.18232943808785e+17
19486.0	6.188342216840532e+17
19487.0	6.194056645662035e+17
19488.0	6.199430459949055e+17
19489.0	6.208643880626862e+17
19490.0	6.220284310847489e+17
19491.0	6.231253072216069e+17
19492.0	6.239709088972792e+17
19493.0	6.246374239283882e+17
19494.0	6.254302318996137e+17
19495.0	6.258515027602095e+17
19496.0	6.263651423311188e+17
19497.0	6.267225434488831e+17
19498.0	6.269762833918634e+17
19499.0	6.248648945259852e+17
19500.0	6.277853043053908e+17
19501.0	6.280156154254675e+17
19502.0	6.281733829820415e+17
19503.0	6.284567715512319e+17
19504.0	6.286802012864511e+17
19505.0	6.28810725859874e+17
19506.0	6.289331180972713e+17
19507.0	6.291027998539776e+17
19508.0	6.293131360905897e+17
19509.0	6.294077683968681e+17
19510.0	6.294847189854889e+17
19511.0	6.268011965054963e+17
19512.0	6.292450481362255e+17
19513.0	6.290443348912799e+17
19514.0	6.293813783953399e+17
19515.0	6.299309567901696e+17
19516.0	6.300398753153023e+17
19517.0	6.300950599128404e+17
19518.0	6.301522091223721e+17
19519.0	6.302009024053248e+17
19520.0	6.302461286765908e+17
19521.0	6.302910363904681e+17
19522.0	6.303282381193215e+17
19523.0	6.303633768098474e+17
19524.0	6.304160809659049e+17
19525.0	6.304822675024553e+17
19526.0	6.305038861336575e+17
19527.0	6.305211851909802e+17
19528.0	6.305343952213332e+17
19529.0	6.305450774844756e+17
19530.0	6.30552522723601e+17
19531.0	6.305564218884095e+17
19532.0	6.305573527442772e+17
19533.0	6.305552581787647e+17
19534.0	6.305500329847466e+17
19535.0	6.305416441670314e+17
19536.0	6.305292849512447e+17
19537.0	6.30518375916066e+17
19538.0	6.304954212592298e+17
19539.0	6.304527113606484e+17
19540.0	6.304610643869695e+17
19541.0	6.304395025885865e+17
19542.0	6.304146312047274e+17
19543.0	6.303872965061289e+17
19544.0	6.303586083056297e+17
19545.0	6.302994655434067e+17
19546.0	6.302427615592447e+17
19547.0	6.302584744706047e+17
19548.0	6.302207515295744e+17
19549.0	6.301754958282751e+17
19550.0	6.301398714373459e+17
19551.0	6.301266165978452e+17
19552.0	6.300855751234899e+17
19553.0	6.300371441942527e+17
19554.0	6.299876675551232e+17
19555.0	6.299385715490815e+17
19556.0	6.298874638150313e+17
19557.0	6.298335996542976e+17
19558.0	6.297785753490772e+17
19559.0	6.297218385794387e+17
19560.0	6.296623148346026e+17
19561.0	6.29602802204672e+17
19562.0	6.295437630417577e+17
19563.0	6.29481576473122e+17
19564.0	6.294181890752511e+17
19565.0	6.293538455857834e+17
19566.0	6.292871239958527e+17
19567.0	6.292215147353428e+17
19568.0	6.291520454568618e+17
19569.0	6.290841561726975e+17
19570.0	6.290145317049684e+17
19571.0	6.289430145575594e+17
19572.0	6.288692408745983e+17
19573.0	6.287963857442132e+17
19574.0	6.287179539371348e+17
19575.0	6.286482543214591e+17
19576.0	6.285721481161386e+17
19577.0	6.284942837983914e+17
19578.0	6.284146223611903e+17
19579.0	6.283367854462291e+17
19580.0	6.282572046095699e+17
19581.0	6.281772201410559e+17
19582.0	6.280969500404394e+17
19583.0	6.280149182622377e+17
19584.0	6.279310309938516e+17
19585.0	6.278419560005632e+17
19586.0	6.27755042611746e+17
19587.0	6.276703336792063e+17
19588.0	6.275660658682538e+17
19589.0	6.275060346126335e+17
19590.0	6.274151188092244e+17
19591.0	6.273331546991273e+17
19592.0	6.272451333849088e+17
19593.0	6.271552710508543e+17
19594.0	6.270523331837951e+17
19595.0	6.269751155578195e+17
19596.0	6.267599670564182e+17
19597.0	6.267920962639188e+17
19598.0	6.266858289583444e+17
19599.0	6.266139703945897e+17
19600.0	6.26521768198144e+17
19601.0	6.264248808243199e+17
19602.0	6.263326138258771e+17
19603.0	6.261946949741225e+17
19604.0	6.261418049404927e+17
19605.0	6.260356227792895e+17
19606.0	6.259584901578751e+17
19607.0	6.258634154923348e+17
19608.0	6.257670577192959e+17
19609.0	6.256682978683561e+17
19610.0	6.255747739768148e+17
19611.0	6.254774738135721e+17
19612.0	6.25380996363059e+17
19613.0	6.2528279805952e+17
19614.0	6.251830008173908e+17
19615.0	6.250867892857514e+17
19616.0	6.249739641159679e+17
19617.0	6.248891998186153e+17
19618.0	6.247568907785556e+17
19619.0	6.246498276037971e+17
19620.0	6.245516490833919e+17
19621.0	6.244908493613737e+17
19622.0	6.243910743490559e+17
19623.0	6.242904756453376e+17
19624.0	6.241895976009727e+17
19625.0	6.240883473121279e+17
19626.0	6.23986928132642e+17
19627.0	6.238847699167913e+17
19628.0	6.237463610305194e+17
19629.0	6.236725425384105e+17
19630.0	6.234672972081834e+17
19631.0	6.218426692053674e+17
19632.0	6.233692394138282e+17
19633.0	6.232664229718697e+17
19634.0	6.231675967810218e+17
19635.0	6.230620367050067e+17
19636.0	6.229606789021695e+17
19637.0	6.228338028838912e+17
19638.0	6.227531824889855e+17
19639.0	6.226487086678013e+17
19640.0	6.225392669731497e+17
19641.0	6.223971738801494e+17
19642.0	6.223365320736768e+17
19643.0	6.222311047473833e+17
19644.0	6.221231145615359e+17
19645.0	6.220055563294035e+17
19646.0	6.219161884338857e+17
19647.0	6.218114726712659e+17
19648.0	6.217060361175039e+17
19649.0	6.216002561201492e+17
19650.0	6.214946759114751e+17
19651.0	6.213887943420585e+17
19652.0	6.212827804423508e+17
19653.0	6.21175803810065e+17
19654.0	6.210703759245311e+17
19655.0	6.209637123970388e+17
19656.0	6.208570820744532e+17
19657.0	6.207508860720468e+17
19658.0	6.206441619368617e+17
19659.0	6.205372277369514e+17
19660.0	6.204303895866025e+17
19661.0	6.20323345076497e+17
19662.0	6.202161834754047e+17
19663.0	6.2010554332829e+17
19664.0	6.199955298800979e+17
19665.0	6.198941673936212e+17
