# Flux units: erg / (cm m2 s)
# Wavelength units: Angstrom
wave	flux
19000.0	5.1739157583626234e+17
19001.0	5.172881582806356e+17
19002.0	5.1719971376114336e+17
19003.0	5.1710348838830074e+17
19004.0	5.170075852079103e+17
19005.0	5.1691124896563194e+17
19006.0	5.168159501844479e+17
19007.0	5.167178375146154e+17
19008.0	5.16619654730001e+17
19009.0	5.1651693685418656e+17
19010.0	5.163990390931455e+17
19011.0	5.163324034864468e+17
19012.0	5.1622663145826976e+17
19013.0	5.161439780143103e+17
19014.0	5.1604422068797434e+17
19015.0	5.159495877525503e+17
19016.0	5.158524427785557e+17
19017.0	5.157606061157034e+17
19018.0	5.156642249244672e+17
19019.0	5.155686807764991e+17
19020.0	5.154717366397609e+17
19021.0	5.1537747748672845e+17
19022.0	5.1528214018785274e+17
19023.0	5.151836298280959e+17
19024.0	5.150893787840511e+17
19025.0	5.149943743031979e+17
19026.0	5.14896730975983e+17
19027.0	5.1479521924218874e+17
19028.0	5.1470957672748365e+17
19029.0	5.146142313895253e+17
19030.0	5.145196859053396e+17
19031.0	5.1442415993268896e+17
19032.0	5.143281284065962e+17
19033.0	5.142261254498985e+17
19034.0	5.141365063155711e+17
19035.0	5.140359298416639e+17
19036.0	5.13256918614016e+17
19037.0	5.1384933182778016e+17
19038.0	5.137536036896767e+17
19039.0	5.136599014004053e+17
19040.0	5.135644393908906e+17
19041.0	5.134679664842068e+17
19042.0	5.133662309842942e+17
19043.0	5.1327815094981965e+17
19044.0	5.1318188384365216e+17
19045.0	5.130873749897215e+17
19046.0	5.129879752977066e+17
19047.0	5.1289362911286605e+17
19048.0	5.127858489917439e+17
19049.0	5.126994025687722e+17
19050.0	5.126074932745557e+17
19051.0	5.12427254035251e+17
19052.0	5.1239349037738656e+17
19053.0	5.123241581827413e+17
19054.0	5.1222904632770554e+17
19055.0	5.1211521508420256e+17
19056.0	5.12037038011187e+17
19057.0	5.1194333802878285e+17
19058.0	5.118472744162645e+17
19059.0	5.1175310285428045e+17
19060.0	5.1165685595067725e+17
19061.0	5.1156340112534176e+17
19062.0	5.11467892838673e+17
19063.0	5.1137292477835936e+17
19064.0	5.112684666159103e+17
19065.0	5.111702177011028e+17
19066.0	5.110838063704746e+17
19067.0	5.1099243415688525e+17
19068.0	5.108978974807381e+17
19069.0	5.108028507772245e+17
19070.0	5.107062106576212e+17
19071.0	5.1061305558521165e+17
19072.0	5.105178132174164e+17
19073.0	5.1042279580412576e+17
19074.0	5.103282951290879e+17
19075.0	5.102334037546325e+17
19076.0	5.101370988298239e+17
19077.0	5.100421323773268e+17
19078.0	5.0994627463522976e+17
19079.0	5.098537069051903e+17
19080.0	5.0975773430906874e+17
19081.0	5.096615924727807e+17
19082.0	5.0956645747916794e+17
19083.0	5.0946726959950496e+17
19084.0	5.0936379262457165e+17
19085.0	5.0928534599761914e+17
19086.0	5.091648694386687e+17
19087.0	5.090762653958143e+17
19088.0	5.0899426213887994e+17
19089.0	5.0888580302984525e+17
19090.0	5.0881004208564896e+17
19091.0	5.0871506074337274e+17
19092.0	5.086154042201428e+17
19093.0	5.085283446598313e+17
19094.0	5.0843358736329376e+17
19095.0	5.083389944135679e+17
19096.0	5.082435055605076e+17
19097.0	5.081498798871892e+17
19098.0	5.0805538871924045e+17
19099.0	5.0796080968062285e+17
19100.0	5.078651081064447e+17
19101.0	5.0777146174122656e+17
19102.0	5.076700439598421e+17
19103.0	5.0758358907835725e+17
19104.0	5.074891986436096e+17
19105.0	5.073941098572458e+17
19106.0	5.07297212137472e+17
19107.0	5.072048091736746e+17
19108.0	5.071115308586324e+17
19109.0	5.069705890321749e+17
19110.0	5.069198218756096e+17
19111.0	5.0682876360567443e+17
19112.0	5.0673450508178765e+17
19113.0	5.066402944428714e+17
19114.0	5.0654603829575674e+17
19115.0	5.064476367082836e+17
19116.0	5.063562691084287e+17
19117.0	5.06261841973521e+17
19118.0	5.061567939521194e+17
19119.0	5.056002168717307e+17
19120.0	5.0597550131336525e+17
19121.0	5.05883075420706e+17
19122.0	5.057932699893759e+17
19123.0	5.05699162460433e+17
19124.0	5.056025700859903e+17
19125.0	5.055104088539135e+17
19126.0	5.0541659108147194e+17
19127.0	5.051849678432938e+17
19128.0	5.0521272910260896e+17
19129.0	5.0512997758184083e+17
19130.0	5.0503926778866336e+17
19131.0	5.049470373505706e+17
19132.0	5.0485302370413216e+17
19133.0	5.0474556535603194e+17
19134.0	5.0465798891765754e+17
19135.0	5.045713039785984e+17
19136.0	5.044780668376405e+17
19137.0	5.043721908606293e+17
19138.0	5.0428825969186125e+17
19139.0	5.0419656906069325e+17
19140.0	5.041029820448768e+17
19141.0	5.0400912827132576e+17
19142.0	5.039137300152319e+17
19143.0	5.038179030313642e+17
19144.0	5.0372504100099405e+17
19145.0	5.0363433456325965e+17
19146.0	5.0349892977732256e+17
19147.0	5.0343627603312634e+17
19148.0	5.0335293765932365e+17
19149.0	5.032588695568383e+17
19150.0	5.031656275225258e+17
19151.0	5.030726353988265e+17
19152.0	5.0297796359618554e+17
19153.0	5.028838095803732e+17
19154.0	5.0278221088467616e+17
19155.0	5.026985433279146e+17
19156.0	5.026048910207657e+17
19157.0	5.025104977199104e+17
19158.0	5.023843157890387e+17
19159.0	5.02323319214353e+17
19160.0	5.0222983544831994e+17
19161.0	5.0213628743953056e+17
19162.0	5.019710738748757e+17
19163.0	5.019459846668288e+17
19164.0	5.0185762815781536e+17
19165.0	5.0176163801552205e+17
19166.0	5.016597908772182e+17
19167.0	5.0157068820152314e+17
19168.0	5.0148198377499296e+17
19169.0	5.013882201789781e+17
19170.0	5.012977428201471e+17
19171.0	5.011998981663402e+17
19172.0	5.011109125816319e+17
19173.0	5.0101787194381645e+17
19174.0	5.009205187226281e+17
19175.0	5.0083153628364794e+17
19176.0	5.007386553789097e+17
19177.0	5.0063407152715085e+17
19178.0	5.0054996196065274e+17
19179.0	5.004528333444437e+17
19180.0	5.0036406062066336e+17
19181.0	5.0026406848320845e+17
19182.0	5.001767986484564e+17
19183.0	5.000865871385941e+17
19184.0	4.9999181998544205e+17
19185.0	4.99900111598387e+17
19186.0	4.9980745949293216e+17
19187.0	4.997097947747668e+17
19188.0	4.9962118353169056e+17
19189.0	4.9952804789288954e+17
19190.0	4.99434623406353e+17
19191.0	4.9933996628377594e+17
19192.0	4.992496408286549e+17
19193.0	4.9915624961693e+17
19194.0	4.9906295494410234e+17
19195.0	4.9897086193937056e+17
19196.0	4.9887682026100045e+17
19197.0	4.9878446308502176e+17
19198.0	4.986918911606782e+17
19199.0	4.981671516438525e+17
19200.0	4.9818844242029235e+17
19201.0	4.9841353778353485e+17
19202.0	4.983210518424234e+17
19203.0	4.982271229908309e+17
19204.0	4.981294742110206e+17
19205.0	4.980357729703253e+17
19206.0	4.97942474522624e+17
19207.0	4.9784115383937696e+17
19208.0	4.977430570379946e+17
19209.0	4.9766497832140794e+17
19210.0	4.975725506811221e+17
19211.0	4.9748048305192954e+17
19212.0	4.973878099749546e+17
19213.0	4.972864972608853e+17
19214.0	4.9718955564072954e+17
19215.0	4.9710794664837114e+17
19216.0	4.970168721604607e+17
19217.0	4.9692447464925856e+17
19218.0	4.967682352873471e+17
19219.0	4.9672849859106125e+17
19220.0	4.966447547678719e+17
19221.0	4.9653089772939936e+17
19222.0	4.964591781369172e+17
19223.0	4.9636715790335994e+17
19224.0	4.962723240607743e+17
19225.0	4.961719996645375e+17
19226.0	4.9608956313599994e+17
19227.0	4.9599688453652474e+17
19228.0	4.959059518160895e+17
19229.0	4.958134381226666e+17
19230.0	4.9572062474622285e+17
19231.0	4.9562755111321594e+17
19232.0	4.9553471963135994e+17
19233.0	4.954382742672724e+17
19234.0	4.9534916872546976e+17
19235.0	4.9525687355528525e+17
19236.0	4.951658326917119e+17
19237.0	4.9507211481361043e+17
19238.0	4.9497372084578976e+17
19239.0	4.948882842015061e+17
19240.0	4.947921724243966e+17
19241.0	4.947005149282303e+17
19242.0	4.946090952491007e+17
19243.0	4.945074783780862e+17
19244.0	4.9442618878197754e+17
19245.0	4.9433342783433363e+17
19246.0	4.942399771333972e+17
19247.0	4.9414876786851834e+17
19248.0	4.940564659175423e+17
19249.0	4.939636757495808e+17
19250.0	4.938700226035711e+17
19251.0	4.937679451280725e+17
19252.0	4.9366843100146336e+17
19253.0	4.9359234436956154e+17
19254.0	4.93427128078609e+17
19255.0	4.9331591617795405e+17
19256.0	4.9323061577864506e+17
19257.0	4.9314271672838816e+17
19258.0	4.930502316261374e+17
19259.0	4.9295327861145594e+17
19260.0	4.9285098736626336e+17
19261.0	4.927718239327572e+17
19262.0	4.9267625105380685e+17
19263.0	4.925811915576661e+17
19264.0	4.924540955481428e+17
19265.0	4.92386342019618e+17
19266.0	4.9229290376178336e+17
19267.0	4.922181232361471e+17
19268.0	4.9212561932943354e+17
19269.0	4.9203311052936525e+17
19270.0	4.919398513683113e+17
19271.0	4.918220955145557e+17
19272.0	4.917527921207979e+17
19273.0	4.915360306298879e+17
19274.0	4.914836651638783e+17
19275.0	4.914777204370089e+17
19276.0	4.9138363471844685e+17
19277.0	4.9129141001256954e+17
19278.0	4.9119878062626125e+17
19279.0	4.9110549399251616e+17
19280.0	4.9100818292408314e+17
19281.0	4.909203104377514e+17
19282.0	4.908291221443924e+17
19283.0	4.9072915181731834e+17
19284.0	4.906370316195156e+17
19285.0	4.9053708191443616e+17
19286.0	4.904553085752661e+17
19287.0	4.903649816521387e+17
19288.0	4.9004074636410835e+17
19289.0	4.897666434946385e+17
19290.0	4.900864516248915e+17
19291.0	4.8997509453141325e+17
19292.0	4.8990010184389965e+17
19293.0	4.898068807811071e+17
19294.0	4.8971366600977056e+17
19295.0	4.896213551109461e+17
19296.0	4.895277678155092e+17
19297.0	4.894336233067859e+17
19298.0	4.893398447510869e+17
19299.0	4.8924814048843085e+17
19300.0	4.891545779393876e+17
19301.0	4.8906129808643405e+17
19302.0	4.889664671798613e+17
19303.0	4.888694218904917e+17
19304.0	4.887781775332692e+17
19305.0	4.8868605509850445e+17
19306.0	4.8859313700427085e+17
19307.0	4.884961779777536e+17
19308.0	4.884036410758483e+17
19309.0	4.8829499888544416e+17
19310.0	4.8819610803240954e+17
19311.0	4.881197118608724e+17
19312.0	4.8802961877019296e+17
19313.0	4.8793574773009056e+17
19314.0	4.869944131627697e+17
19315.0	4.869365617568429e+17
19316.0	4.8765140789275296e+17
19317.0	4.875585385922559e+17
19318.0	4.8746370572834125e+17
19319.0	4.8737013660822176e+17
19320.0	4.8727518672322554e+17
19321.0	4.871804186613076e+17
19322.0	4.8707812287228576e+17
19323.0	4.869842212836693e+17
19324.0	4.868951725047807e+17
19325.0	4.8678476381334176e+17
19326.0	4.8670468714004474e+17
19327.0	4.866081293686099e+17
19328.0	4.865128191929002e+17
19329.0	4.8641783743119354e+17
19330.0	4.8631913490240845e+17
19331.0	4.862223688138751e+17
19332.0	4.8612888295069005e+17
19333.0	4.86032473657617e+17
19334.0	4.859361985123668e+17
19335.0	4.8583859573009056e+17
19336.0	4.857425354031104e+17
19337.0	4.856451603016361e+17
19338.0	4.8553241496343885e+17
19339.0	4.8545047720755194e+17
19340.0	4.8534375083540474e+17
19341.0	4.8524949867287885e+17
19342.0	4.851279185226409e+17
19343.0	4.8505803533626016e+17
19344.0	4.8495924822234445e+17
19345.0	4.847201152925695e+17
19346.0	4.8467839105542803e+17
19347.0	4.846566099648511e+17
19348.0	4.8456311445476685e+17
19349.0	4.844607733672617e+17
19350.0	4.843605091592874e+17
19351.0	4.8426015099890336e+17
19352.0	4.8415536526131194e+17
19353.0	4.84059898638063e+17
19354.0	4.8395853587196576e+17
19355.0	4.838494709656234e+17
19356.0	4.8375414177573536e+17
19357.0	4.836515306449578e+17
19358.0	4.835468342460415e+17
19359.0	4.8343746364484256e+17
19360.0	4.8333691156780365e+17
19361.0	4.8323366989332474e+17
19362.0	4.831315680908629e+17
19363.0	4.8302591056718496e+17
19364.0	4.8291974874835616e+17
19365.0	4.828135343609173e+17
19366.0	4.827064507039743e+17
19367.0	4.8259882094865056e+17
19368.0	4.8249064530466125e+17
19369.0	4.82375736754176e+17
19370.0	4.8225819844498765e+17
19371.0	4.8215823398993914e+17
19372.0	4.820508110138026e+17
19373.0	4.8193757172640416e+17
19374.0	4.8182669746722125e+17
19375.0	4.81713194218291e+17
19376.0	4.8159926657570125e+17
19377.0	4.814839041316181e+17
19378.0	4.813676195698004e+17
19379.0	4.8125116248227834e+17
19380.0	4.811330398366379e+17
19381.0	4.810135699805523e+17
19382.0	4.808886109689173e+17
19383.0	4.8070973243173536e+17
19384.0	4.805373986865151e+17
19385.0	4.8041398422732794e+17
19386.0	4.8028894908907514e+17
19387.0	4.801621787672576e+17
19388.0	4.800340509589504e+17
19389.0	4.799043844003156e+17
19390.0	4.7977305018641056e+17
19391.0	4.790436999375525e+17
19392.0	4.7946286420896403e+17
19393.0	4.79368864403729e+17
19394.0	4.79229475028992e+17
19395.0	4.790881857044479e+17
19396.0	4.789457179901951e+17
19397.0	4.7880185867578016e+17
19398.0	4.786526901414571e+17
19399.0	4.783597333162666e+17
19400.0	4.7819284209991674e+17
19401.0	4.780461695959039e+17
19402.0	4.7788826935951354e+17
19403.0	4.777246589976575e+17
19404.0	4.7756027150117536e+17
19405.0	4.773899949921619e+17
19406.0	4.7715622238289894e+17
19407.0	4.7685059582361594e+17
19408.0	4.7660673437532154e+17
19409.0	4.764753052303359e+17
19410.0	4.7628556722066765e+17
19411.0	4.758729539627688e+17
19412.0	4.7564549294216525e+17
19413.0	4.7543072521366176e+17
19414.0	4.7496611915366406e+17
19415.0	4.746603060177578e+17
19416.0	4.7420759276694163e+17
19417.0	4.7381427505506976e+17
19418.0	4.732542956251819e+17
19419.0	4.727431979423059e+17
19420.0	4.7209138702254035e+17
19421.0	4.7128435483825504e+17
19422.0	4.70345923847782e+17
19423.0	4.6966476748008096e+17
19424.0	4.6922852197553485e+17
19425.0	4.687717972923734e+17
19426.0	4.6827745305777485e+17
19427.0	4.677500483403776e+17
19428.0	4.6715205914897056e+17
19429.0	4.6650328826074445e+17
19430.0	4.658443647800662e+17
19431.0	4.6508900907745286e+17
19432.0	4.6432973946006176e+17
19433.0	4.635296649270612e+17
19434.0	4.62538544320785e+17
19435.0	4.6137349179965414e+17
19436.0	4.599347148750847e+17
19437.0	4.58158336743834e+17
19438.0	4.543446259859463e+17
19439.0	4.5101349835462016e+17
19440.0	4.4843987719509325e+17
19441.0	4.459201765397843e+17
19442.0	4.4313231131060915e+17
19443.0	4.4008823003108685e+17
19444.0	4.36816987763507e+17
19445.0	4.3313592291819494e+17
19446.0	4.2742183837914477e+17
19447.0	4.167059886484136e+17
19448.0	4.0749254532136986e+17
19449.0	3.8969802059939795e+17
19450.0	3.394896468639724e+17
19451.0	3.229331498554695e+17
19452.0	3.679989583402351e+17
19453.0	4.012469394953568e+17
19454.0	4.119746186313723e+17
19455.0	4.2174288407210854e+17
19456.0	4.3011593462961517e+17
19457.0	4.3421295685140454e+17
19458.0	4.353908686192653e+17
19459.0	4.401779238240263e+17
19460.0	4.431877289716393e+17
19461.0	4.456747634087253e+17
19462.0	4.4788559558737926e+17
19463.0	4.513882425698997e+17
19464.0	4.5482277447488826e+17
19465.0	4.5688557980876826e+17
19466.0	4.582901691012435e+17
19467.0	4.593635574153218e+17
19468.0	4.602234401368746e+17
19469.0	4.609350183507284e+17
19470.0	4.616143899721727e+17
19471.0	4.6220529868909216e+17
19472.0	4.6268599123312614e+17
19473.0	4.6313024660002125e+17
19474.0	4.63623988252945e+17
19475.0	4.639264286790995e+17
19476.0	4.643192080520532e+17
19477.0	4.646256298513749e+17
19478.0	4.6489766758536525e+17
19479.0	4.652552558389929e+17
19480.0	4.6590848254607354e+17
19481.0	4.665617955160064e+17
19482.0	4.670758701760507e+17
19483.0	4.6756434741821446e+17
19484.0	4.679161348795045e+17
19485.0	4.681315912428202e+17
19486.0	4.684735855635116e+17
19487.0	4.686031574007807e+17
19488.0	4.688225466231468e+17
19489.0	4.689863298602324e+17
19490.0	4.6893941216597325e+17
19491.0	4.691443544577363e+17
19492.0	4.6931907909604685e+17
19493.0	4.69334950622003e+17
19494.0	4.6934530055645856e+17
19495.0	4.693509669213524e+17
19496.0	4.6945561340805094e+17
19497.0	4.695282113576959e+17
19498.0	4.693598389927934e+17
19499.0	4.685800156080811e+17
19500.0	4.6949714785293645e+17
19501.0	4.6947919818915834e+17
19502.0	4.6945786756683085e+17
19503.0	4.69435418673152e+17
19504.0	4.695434489146025e+17
19505.0	4.695222784447828e+17
19506.0	4.6949084647041696e+17
19507.0	4.6945576587100154e+17
19508.0	4.694217825714175e+17
19509.0	4.693840023082324e+17
19510.0	4.6932771719522976e+17
19511.0	4.678035657719807e+17
19512.0	4.690616550162432e+17
19513.0	4.689266108006396e+17
19514.0	4.6894653010957626e+17
19515.0	4.690825746666837e+17
19516.0	4.690690614580566e+17
19517.0	4.6901586440137376e+17
19518.0	4.689685999080789e+17
19519.0	4.689146710851583e+17
19520.0	4.6885861155580576e+17
19521.0	4.6880574361217696e+17
19522.0	4.687893583538857e+17
19523.0	4.687962546285225e+17
19524.0	4.687372355982677e+17
19525.0	4.6867646397808634e+17
19526.0	4.686168965425834e+17
19527.0	4.6855508473501005e+17
19528.0	4.6849235080970234e+17
19529.0	4.684295616593919e+17
19530.0	4.6836610910999885e+17
19531.0	4.6830144063187616e+17
19532.0	4.682360436730538e+17
19533.0	4.681700484666708e+17
19534.0	4.68103073890304e+17
19535.0	4.680353985855487e+17
19536.0	4.67965221727983e+17
19537.0	4.678998744017577e+17
19538.0	4.6781693763256314e+17
19539.0	4.6772302975249056e+17
19540.0	4.676893617247572e+17
19541.0	4.6762064930843296e+17
19542.0	4.6754956221699405e+17
19543.0	4.674778958921727e+17
19544.0	4.6740651799565645e+17
19545.0	4.672913905025023e+17
19546.0	4.6719715441814176e+17
19547.0	4.671891668555092e+17
19548.0	4.6711511285323085e+17
19549.0	4.670358006617428e+17
19550.0	4.669681642941098e+17
19551.0	4.6689403968771405e+17
19552.0	4.668193314439168e+17
19553.0	4.6674220266728096e+17
19554.0	4.6666650953099936e+17
19555.0	4.6659266209819296e+17
19556.0	4.6651806458402125e+17
19557.0	4.6644173538153805e+17
19558.0	4.6636559261586765e+17
19559.0	4.66288861389346e+17
19560.0	4.6621048732385274e+17
19561.0	4.661335458228906e+17
19562.0	4.660583587992918e+17
19563.0	4.659812230321493e+17
19564.0	4.6590371502052685e+17
19565.0	4.658260092474709e+17
19566.0	4.657459014664192e+17
19567.0	4.6566979190565536e+17
19568.0	4.655900816747178e+17
19569.0	4.655121197694975e+17
19570.0	4.654348625073493e+17
19571.0	4.6535557639045114e+17
19572.0	4.652753564816725e+17
19573.0	4.651962289793707e+17
19574.0	4.6511325460125e+17
19575.0	4.6503975962978976e+17
19576.0	4.649606191251456e+17
19577.0	4.648781064000851e+17
19578.0	4.6479783070706336e+17
19579.0	4.647197285023744e+17
19580.0	4.646396844747434e+17
19581.0	4.645609041909077e+17
19582.0	4.6448207504343034e+17
19583.0	4.644019558678527e+17
19584.0	4.6432045669635405e+17
19585.0	4.642337383426729e+17
19586.0	4.641506023440383e+17
19587.0	4.640777024045056e+17
19588.0	4.6396323041116154e+17
19589.0	4.63917419663633e+17
19590.0	4.6383047726421325e+17
19591.0	4.637572353490943e+17
19592.0	4.636769017746773e+17
19593.0	4.635947266910891e+17
19594.0	4.6349956520345594e+17
19595.0	4.6342916940322125e+17
19596.0	4.6331777435129165e+17
19597.0	4.632672657036629e+17
19598.0	4.631575910154238e+17
19599.0	4.6310893764826445e+17
19600.0	4.6302837674257056e+17
19601.0	4.629419448598528e+17
19602.0	4.628595734828372e+17
19603.0	4.6274865860881056e+17
19604.0	4.626965928258217e+17
19605.0	4.6259999891346765e+17
19606.0	4.625390563753982e+17
19607.0	4.624581610438656e+17
19608.0	4.6237496996003834e+17
19609.0	4.6229108178288614e+17
19610.0	4.622128253676203e+17
19611.0	4.621305719204523e+17
19612.0	4.620496325487274e+17
19613.0	4.619670902538239e+17
19614.0	4.6188321396053325e+17
19615.0	4.618037815323306e+17
19616.0	4.617171651002368e+17
19617.0	4.616395231505065e+17
19618.0	4.615114235139412e+17
19619.0	4.614209356693502e+17
19620.0	4.6134347610193914e+17
19621.0	4.6131237261148154e+17
19622.0	4.6123080360482125e+17
19623.0	4.6114879685263354e+17
19624.0	4.610660653247146e+17
19625.0	4.609846745060693e+17
19626.0	4.6090264699207674e+17
19627.0	4.608203049052842e+17
19628.0	4.607276053342889e+17
19629.0	4.6064876716905805e+17
19630.0	4.605113287049215e+17
19631.0	4.600247932157952e+17
19632.0	4.604114822496256e+17
19633.0	4.603272727887871e+17
19634.0	4.602481184429397e+17
19635.0	4.601632902523562e+17
19636.0	4.6008281616875514e+17
19637.0	4.599761702573397e+17
19638.0	4.5991834905040205e+17
19639.0	4.598358932280661e+17
19640.0	4.597383237905066e+17
19641.0	4.5960129916436486e+17
19642.0	4.5958996902106445e+17
19643.0	4.5950738632103245e+17
19644.0	4.594205935184553e+17
19645.0	4.593229276119039e+17
19646.0	4.5926128860965536e+17
19647.0	4.591795124043774e+17
19648.0	4.5909734361224525e+17
19649.0	4.590149009320617e+17
19650.0	4.589328697131008e+17
19651.0	4.5885023073949005e+17
19652.0	4.587681517054634e+17
19653.0	4.5868600472371194e+17
19654.0	4.5860391562335565e+17
