# Flux units: erg / (cm m2 s)
# Wavelength units: Angstrom
wave	flux
19000.0	7.317297036612948e+17
19001.0	7.315899709827752e+17
19002.0	7.314563015901183e+17
19003.0	7.31319478919714e+17
19004.0	7.311826637990569e+17
19005.0	7.310459615051773e+17
19006.0	7.309091346404692e+17
19007.0	7.307665146030762e+17
19008.0	7.30633499382033e+17
19009.0	7.304965436123817e+17
19010.0	7.303477270500692e+17
19011.0	7.302235363650217e+17
19012.0	7.300772442144765e+17
19013.0	7.29950871233058e+17
19014.0	7.29811631664879e+17
19015.0	7.296754983982419e+17
19016.0	7.295381854137e+17
19017.0	7.29401200423731e+17
19018.0	7.292647816648019e+17
19019.0	7.291287963172863e+17
19020.0	7.289902811054079e+17
19021.0	7.288542120116223e+17
19022.0	7.287177980062378e+17
19023.0	7.285799800274943e+17
19024.0	7.284427811280211e+17
19025.0	7.283058879933097e+17
19026.0	7.281676862357501e+17
19027.0	7.280238699828563e+17
19028.0	7.278952899586729e+17
19029.0	7.277581686538237e+17
19030.0	7.276210800645459e+17
19031.0	7.274839663094441e+17
19032.0	7.273468395519999e+17
19033.0	7.272069621699923e+17
19034.0	7.270725491272361e+17
19035.0	7.269340853654868e+17
19036.0	7.262211634364412e+17
19037.0	7.266610296040106e+17
19038.0	7.265232514711551e+17
19039.0	7.263869216314708e+17
19040.0	7.262497780968105e+17
19041.0	7.261126393156947e+17
19042.0	7.25973017506611e+17
19043.0	7.258384007604905e+17
19044.0	7.257012035387391e+17
19045.0	7.25564122079778e+17
19046.0	7.25425468036437e+17
19047.0	7.252895451840511e+17
19048.0	7.251465406687913e+17
19049.0	7.250135918575616e+17
19050.0	7.248771455560361e+17
19051.0	7.246526847210835e+17
19052.0	7.245919844739753e+17
19053.0	7.244656341417981e+17
19054.0	7.243299749713235e+17
19055.0	7.241850282136916e+17
19056.0	7.2405508699805e+17
19057.0	7.239186815210835e+17
19058.0	7.237805816851114e+17
19059.0	7.23644467852083e+17
19060.0	7.235066515510611e+17
19061.0	7.233703317777066e+17
19062.0	7.232331085512701e+17
19063.0	7.230961093006675e+17
19064.0	7.229555687991978e+17
19065.0	7.228164719771645e+17
19066.0	7.226830412404051e+17
19067.0	7.225479178223615e+17
19068.0	7.224108780268202e+17
19069.0	7.222738826909011e+17
19070.0	7.221365588011689e+17
19071.0	7.219998569267199e+17
19072.0	7.218628429960531e+17
19073.0	7.217256730372777e+17
19074.0	7.215888935682047e+17
19075.0	7.214518850901331e+17
19076.0	7.213142390778538e+17
19077.0	7.211776160563199e+17
19078.0	7.210400153425235e+17
19079.0	7.209040344689322e+17
19080.0	7.207668861807274e+17
19081.0	7.206288851905194e+17
19082.0	7.204918070870015e+17
19083.0	7.203532225292969e+17
19084.0	7.202118084941139e+17
19085.0	7.200824718174889e+17
19086.0	7.199335154450432e+17
19087.0	7.197909172180308e+17
19088.0	7.196688078864383e+17
19089.0	7.195201322527402e+17
19090.0	7.193972092261716e+17
19091.0	7.192603405582335e+17
19092.0	7.191187310684841e+17
19093.0	7.18987614888482e+17
19094.0	7.188498483598676e+17
19095.0	7.187128183510356e+17
19096.0	7.185765089236308e+17
19097.0	7.184403757968041e+17
19098.0	7.183037473226751e+17
19099.0	7.181669577872723e+17
19100.0	7.180293524597417e+17
19101.0	7.17893488747042e+17
19102.0	7.177540875583487e+17
19103.0	7.176200833204223e+17
19104.0	7.174833765526185e+17
19105.0	7.173466236474708e+17
19106.0	7.172067250143232e+17
19107.0	7.1707278732602e+17
19108.0	7.169365108938067e+17
19109.0	7.167435888481619e+17
19110.0	7.16662089327138e+17
19111.0	7.165266791585108e+17
19112.0	7.163900984994474e+17
19113.0	7.162534982669651e+17
19114.0	7.161168988733439e+17
19115.0	7.159784750972927e+17
19116.0	7.158429934856874e+17
19117.0	7.15706465395234e+17
19118.0	7.155651742531583e+17
19119.0	7.153479519480488e+17
19120.0	7.152927023387987e+17
19121.0	7.151575729089194e+17
19122.0	7.150245265102164e+17
19123.0	7.148878772043775e+17
19124.0	7.147483275373225e+17
19125.0	7.146144914909866e+17
19126.0	7.144779178224297e+17
19127.0	7.14290916036881e+17
19128.0	7.141708262626644e+17
19129.0	7.14066442059776e+17
19130.0	7.139324666227369e+17
19131.0	7.137954933768191e+17
19132.0	7.136596777588051e+17
19133.0	7.135092079416659e+17
19134.0	7.133712409253203e+17
19135.0	7.1325040260765e+17
19136.0	7.131142128577193e+17
19137.0	7.129729010237439e+17
19138.0	7.128389011199316e+17
19139.0	7.127049645501098e+17
19140.0	7.125687404068863e+17
19141.0	7.124324005008723e+17
19142.0	7.122952948547583e+17
19143.0	7.121581254552233e+17
19144.0	7.120231459018067e+17
19145.0	7.118868257090217e+17
19146.0	7.117321101377535e+17
19147.0	7.116117522077011e+17
19148.0	7.114777839009791e+17
19149.0	7.113415863216808e+17
19150.0	7.112052004181331e+17
19151.0	7.110692549165055e+17
19152.0	7.109320934861481e+17
19153.0	7.107960762619219e+17
19154.0	7.106565618270208e+17
19155.0	7.105241441544874e+17
19156.0	7.103877267936595e+17
19157.0	7.10250434920448e+17
19158.0	7.100768286233939e+17
19159.0	7.099781393066666e+17
19160.0	7.098418003793236e+17
19161.0	7.09703095165474e+17
19162.0	7.094832071005526e+17
19163.0	7.09432372835123e+17
19164.0	7.092978714323625e+17
19165.0	7.091601202828628e+17
19166.0	7.090204106730153e+17
19167.0	7.088810058492585e+17
19168.0	7.087505806109353e+17
19169.0	7.086140874730153e+17
19170.0	7.084804916204883e+17
19171.0	7.083394890465279e+17
19172.0	7.082079974763177e+17
19173.0	7.080717955629055e+17
19174.0	7.079341126407508e+17
19175.0	7.077995922238121e+17
19176.0	7.076633571753983e+17
19177.0	7.075225230726483e+17
19178.0	7.073889195305642e+17
19179.0	7.072477266750122e+17
19180.0	7.071143494855338e+17
19181.0	7.06978914570513e+17
19182.0	7.068446603520681e+17
19183.0	7.067092677995177e+17
19184.0	7.065713258091859e+17
19185.0	7.064369177995945e+17
19186.0	7.063008568147968e+17
19187.0	7.061625882279935e+17
19188.0	7.060278952853504e+17
19189.0	7.058904617844735e+17
19190.0	7.0575378689338e+17
19191.0	7.056184192270335e+17
19192.0	7.054828074521939e+17
19193.0	7.053442684725929e+17
19194.0	7.052092967485439e+17
19195.0	7.050736392557908e+17
19196.0	7.049371030563496e+17
19197.0	7.048003147792383e+17
19198.0	7.046622153626964e+17
19199.0	7.040106433085437e+17
19200.0	7.04041476615919e+17
19201.0	7.042533505542825e+17
19202.0	7.041186714528425e+17
19203.0	7.039814767476735e+17
19204.0	7.038455717909846e+17
19205.0	7.037099220576938e+17
19206.0	7.035730796740607e+17
19207.0	7.034350884705619e+17
19208.0	7.032944746386772e+17
19209.0	7.031639059551571e+17
19210.0	7.030273008293204e+17
19211.0	7.028906314607274e+17
19212.0	7.027540398964735e+17
19213.0	7.026110643918164e+17
19214.0	7.024714722224809e+17
19215.0	7.023419121991679e+17
19216.0	7.022068622513492e+17
19217.0	7.020704660717568e+17
19218.0	7.019090856815273e+17
19219.0	7.017896596559187e+17
19220.0	7.016567274121898e+17
19221.0	7.015108457441961e+17
19222.0	7.013835683310249e+17
19223.0	7.012466051514367e+17
19224.0	7.011082470162431e+17
19225.0	7.009681643929599e+17
19226.0	7.008355795774121e+17
19227.0	7.006977550974975e+17
19228.0	7.005613386454355e+17
19229.0	7.004241151393791e+17
19230.0	7.002854013971113e+17
19231.0	7.001486667371859e+17
19232.0	7.000114930734419e+17
19233.0	6.998726082035711e+17
19234.0	6.997366476024489e+17
19235.0	6.995991953670143e+17
19236.0	6.994623506066089e+17
19237.0	6.993242618156371e+17
19238.0	6.991836126117887e+17
19239.0	6.99049434939392e+17
19240.0	6.989071784083455e+17
19241.0	6.987717174886397e+17
19242.0	6.986353721999359e+17
19243.0	6.984925127376895e+17
19244.0	6.983599184150527e+17
19245.0	6.982218620600319e+17
19246.0	6.980832073875455e+17
19247.0	6.979453850746879e+17
19248.0	6.978071456382975e+17
19249.0	6.976687124250623e+17
19250.0	6.975300806115325e+17
19251.0	6.973880405065727e+17
19252.0	6.972438990553087e+17
19253.0	6.971140421451775e+17
19254.0	6.969748399063039e+17
19255.0	6.968307202654207e+17
19256.0	6.966956050262698e+17
19257.0	6.965584444347732e+17
19258.0	6.964192921780223e+17
19259.0	6.962777203671039e+17
19260.0	6.961315861321044e+17
19261.0	6.96001110282513e+17
19262.0	6.958605824338602e+17
19263.0	6.957200721313791e+17
19264.0	6.955664026195283e+17
19265.0	6.954363226423295e+17
19266.0	6.952972863580841e+17
19267.0	6.951615849649491e+17
19268.0	6.950212227913044e+17
19269.0	6.948807224153427e+17
19270.0	6.947400448300372e+17
19271.0	6.945896068197033e+17
19272.0	6.944572629669204e+17
19273.0	6.941943319756797e+17
19274.0	6.941082775803219e+17
19275.0	6.940346239243604e+17
19276.0	6.938924980458836e+17
19277.0	6.937514017991338e+17
19278.0	6.936095037412692e+17
19279.0	6.934663016742911e+17
19280.0	6.933228177500842e+17
19281.0	6.931825930098003e+17
19282.0	6.930399041159167e+17
19283.0	6.928892691131049e+17
19284.0	6.927412926698836e+17
19285.0	6.925565397303293e+17
19286.0	6.923978285951657e+17
19287.0	6.922550899288746e+17
19288.0	6.9195855326522e+17
19289.0	6.915895743305038e+17
19290.0	6.918226536912212e+17
19291.0	6.916699317425492e+17
19292.0	6.91533164646673e+17
19293.0	6.913877467987967e+17
19294.0	6.912425699136852e+17
19295.0	6.910968581849087e+17
19296.0	6.909508515266559e+17
19297.0	6.908044868845567e+17
19298.0	6.90657383625523e+17
19299.0	6.905123248100692e+17
19300.0	6.903679846886057e+17
19301.0	6.90220196569634e+17
19302.0	6.900720131375101e+17
19303.0	6.899215490525866e+17
19304.0	6.897739448538452e+17
19305.0	6.89626413146658e+17
19306.0	6.894768960656723e+17
19307.0	6.89324982219571e+17
19308.0	6.8917549610653e+17
19309.0	6.890087860841129e+17
19310.0	6.888508199971497e+17
19311.0	6.887208324344489e+17
19312.0	6.88571844464913e+17
19313.0	6.884182312266409e+17
19314.0	6.879640798887935e+17
19315.0	6.878280138708311e+17
19316.0	6.87957667287313e+17
19317.0	6.878047530997076e+17
19318.0	6.876497453252607e+17
19319.0	6.874941923611988e+17
19320.0	6.873376991739903e+17
19321.0	6.871811833375401e+17
19322.0	6.870195919738196e+17
19323.0	6.86857481495074e+17
19324.0	6.867066304157012e+17
19325.0	6.864961939352233e+17
19326.0	6.862695104686761e+17
19327.0	6.861084800232106e+17
19328.0	6.859473415744168e+17
19329.0	6.857849428770815e+17
19330.0	6.856205101520211e+17
19331.0	6.854562925248511e+17
19332.0	6.852925964593833e+17
19333.0	6.851268579775828e+17
19334.0	6.849597626384383e+17
19335.0	6.84792473592354e+17
19336.0	6.846237452708521e+17
19337.0	6.844539286672724e+17
19338.0	6.842770487159465e+17
19339.0	6.841116366209023e+17
19340.0	6.839371103731711e+17
19341.0	6.837641079160831e+17
19342.0	6.835776140607487e+17
19343.0	6.83412708008482e+17
19344.0	6.831379151760041e+17
19345.0	6.828798838308861e+17
19346.0	6.827330353758207e+17
19347.0	6.825717041987583e+17
19348.0	6.823902038720512e+17
19349.0	6.822041891460436e+17
19350.0	6.820172739029674e+17
19351.0	6.818289799921663e+17
19352.0	6.81637334552849e+17
19353.0	6.814476660288169e+17
19354.0	6.812538763913897e+17
19355.0	6.809754884112383e+17
19356.0	6.807103239531177e+17
19357.0	6.805102557222228e+17
19358.0	6.80306967384337e+17
19359.0	6.800972887446868e+17
19360.0	6.798957489422336e+17
19361.0	6.796866193369769e+17
19362.0	6.794762032687785e+17
19363.0	6.791319123569321e+17
19364.0	6.788600702173183e+17
19365.0	6.786397848819027e+17
19366.0	6.784164748241578e+17
19367.0	6.781900857278463e+17
19368.0	6.779604612852393e+17
19369.0	6.775279711507795e+17
19370.0	6.772544668084906e+17
19371.0	6.770259282012842e+17
19372.0	6.76782934135057e+17
19373.0	6.764489528224424e+17
19374.0	6.760183300620287e+17
19375.0	6.75760522273314e+17
19376.0	6.754516100360874e+17
19377.0	6.750041144295421e+17
19378.0	6.746007332541779e+17
19379.0	6.743222964103849e+17
19380.0	6.739581147108691e+17
19381.0	6.735719275954176e+17
19382.0	6.732736243608233e+17
19383.0	6.729707076015443e+17
19384.0	6.726657796734975e+17
19385.0	6.723507896101546e+17
19386.0	6.72029077475601e+17
19387.0	6.716999751871146e+17
19388.0	6.713632912048127e+17
19389.0	6.709936649491796e+17
19390.0	6.705832268573353e+17
19391.0	6.697426888949752e+17
19392.0	6.698454959696553e+17
19393.0	6.6947011065501e+17
19394.0	6.690790970141354e+17
19395.0	6.686770243218089e+17
19396.0	6.682446152772265e+17
19397.0	6.677216586891263e+17
19398.0	6.67283056894498e+17
19399.0	6.668135026043561e+17
19400.0	6.663662950066858e+17
19401.0	6.658009982479017e+17
19402.0	6.652315155737257e+17
19403.0	6.647192878055423e+17
19404.0	6.641461145632767e+17
19405.0	6.634347759140863e+17
19406.0	6.628655600675497e+17
19407.0	6.621113752048979e+17
19408.0	6.613815655399423e+17
19409.0	6.605827393017171e+17
19410.0	6.597769747060052e+17
19411.0	6.587595330245972e+17
19412.0	6.577905328979964e+17
19413.0	6.566853176459269e+17
19414.0	6.554227518210045e+17
19415.0	6.539694080786436e+17
19416.0	6.524022758746796e+17
19417.0	6.511442861053267e+17
19418.0	6.501102731482452e+17
19419.0	6.490272011649023e+17
19420.0	6.479110310898345e+17
19421.0	6.467425742618624e+17
19422.0	6.455265373891242e+17
19423.0	6.442579370792276e+17
19424.0	6.4288211861504e+17
19425.0	6.414679749776724e+17
19426.0	6.400059000924841e+17
19427.0	6.383853462268586e+17
19428.0	6.367376242464084e+17
19429.0	6.348882059460608e+17
19430.0	6.329759742383444e+17
19431.0	6.307919331065855e+17
19432.0	6.285182531971753e+17
19433.0	6.257321388102995e+17
19434.0	6.224758046370482e+17
19435.0	6.18433045174681e+17
19436.0	6.143688386980524e+17
19437.0	6.111175379692201e+17
19438.0	6.070954801932969e+17
19439.0	6.037296374262445e+17
19440.0	5.995348709343232e+17
19441.0	5.94766447596885e+17
19442.0	5.890618498744321e+17
19443.0	5.817094862012424e+17
19444.0	5.7405036245811155e+17
19445.0	5.6628291627035334e+17
19446.0	5.5688597619780256e+17
19447.0	5.451019285342885e+17
19448.0	5.313942176574128e+17
19449.0	5.1363510719173965e+17
19450.0	4.871023532965846e+17
19451.0	4.787406402224128e+17
19452.0	5.009689991446531e+17
19453.0	5.231924261945352e+17
19454.0	5.3817052254699456e+17
19455.0	5.507274560765949e+17
19456.0	5.6098258430197786e+17
19457.0	5.69259549156966e+17
19458.0	5.761003596458673e+17
19459.0	5.840981561005405e+17
19460.0	5.902690052385448e+17
19461.0	5.95219027748454e+17
19462.0	5.994309303489878e+17
19463.0	6.031927038093993e+17
19464.0	6.066351063957503e+17
19465.0	6.097992020219222e+17
19466.0	6.130400243307859e+17
19467.0	6.171293158910637e+17
19468.0	6.204553554821117e+17
19469.0	6.231935597324973e+17
19470.0	6.254751157758633e+17
19471.0	6.274793140300457e+17
19472.0	6.292540153484627e+17
19473.0	6.308524016183978e+17
19474.0	6.323371136516095e+17
19475.0	6.337265230588585e+17
19476.0	6.350228075227817e+17
19477.0	6.362019631114922e+17
19478.0	6.373687694808402e+17
19479.0	6.384285502843562e+17
19480.0	6.394183988281343e+17
19481.0	6.403602989973504e+17
19482.0	6.412513446286675e+17
19483.0	6.420928672737962e+17
19484.0	6.429136195857065e+17
19485.0	6.437735661305852e+17
19486.0	6.449643639887186e+17
19487.0	6.462117932695553e+17
19488.0	6.472486806530725e+17
19489.0	6.481554447881555e+17
19490.0	6.48999540498978e+17
19491.0	6.497273779322879e+17
19492.0	6.502912637971114e+17
19493.0	6.509733743689724e+17
19494.0	6.513701112075604e+17
19495.0	6.519250217511596e+17
19496.0	6.522843637131946e+17
19497.0	6.526408973090815e+17
19498.0	6.530371885028694e+17
19499.0	6.525817829982203e+17
19500.0	6.53597851394594e+17
19501.0	6.539633721256617e+17
19502.0	6.542022717123242e+17
19503.0	6.544055884316671e+17
19504.0	6.54595123716642e+17
19505.0	6.547883983634431e+17
19506.0	6.550493025970857e+17
19507.0	6.552008667780436e+17
19508.0	6.553420994095785e+17
19509.0	6.554726798371497e+17
19510.0	6.555880731093674e+17
19511.0	6.550219221805733e+17
19512.0	6.556927006517926e+17
19513.0	6.557411010325157e+17
19514.0	6.559093909094396e+17
19515.0	6.561217875279872e+17
19516.0	6.562118102941695e+17
19517.0	6.562738239875753e+17
19518.0	6.56331951378705e+17
19519.0	6.563819078462121e+17
19520.0	6.56425194950929e+17
19521.0	6.564636774105087e+17
19522.0	6.56618500845295e+17
19523.0	6.566890024818004e+17
19524.0	6.567098419511295e+17
19525.0	6.568763934288552e+17
19526.0	6.570243317738153e+17
19527.0	6.570425133826047e+17
19528.0	6.57077439701538e+17
19529.0	6.572279498539008e+17
19530.0	6.573120494239743e+17
19531.0	6.57299707265024e+17
19532.0	6.572836624444074e+17
19533.0	6.572640825944746e+17
19534.0	6.574179988712104e+17
19535.0	6.574211334144e+17
19536.0	6.573898604740607e+17
19537.0	6.573580206735359e+17
19538.0	6.573196574020948e+17
19539.0	6.572677807822164e+17
19540.0	6.573563246368083e+17
19541.0	6.573684296777727e+17
19542.0	6.573216227830442e+17
19543.0	6.572724664489299e+17
19544.0	6.572210580531882e+17
19545.0	6.571547911258111e+17
19546.0	6.570862479496532e+17
19547.0	6.57054120419874e+17
19548.0	6.570200129688916e+17
19549.0	6.57067641807394e+17
19550.0	6.570072464861865e+17
19551.0	6.569421140481363e+17
19552.0	6.568752114040832e+17
19553.0	6.568061014376447e+17
19554.0	6.567356801220605e+17
19555.0	6.566652795682815e+17
19556.0	6.565923501288105e+17
19557.0	6.565179057766397e+17
19558.0	6.564423157503316e+17
19559.0	6.563650574396074e+17
19560.0	6.56286382432802e+17
19561.0	6.562580222967807e+17
19562.0	6.562350330369363e+17
19563.0	6.561531672133631e+17
19564.0	6.560703262141097e+17
19565.0	6.559864108438868e+17
19566.0	6.559008903135231e+17
19567.0	6.558155025328809e+17
19568.0	6.557278419288063e+17
19569.0	6.556407797121023e+17
19570.0	6.555524195680255e+17
19571.0	6.554628542605993e+17
19572.0	6.553717488047444e+17
19573.0	6.552809983967232e+17
19574.0	6.551868772362921e+17
19575.0	6.550972086790826e+17
19576.0	6.550039525239465e+17
19577.0	6.549091247631017e+17
19578.0	6.548140513558527e+17
19579.0	6.54719197520418e+17
19580.0	6.546233295721812e+17
19581.0	6.545269829140479e+17
19582.0	6.544303223122601e+17
19583.0	6.543325860812116e+17
19584.0	6.542857259887273e+17
19585.0	6.542132040957951e+17
19586.0	6.54112418046498e+17
19587.0	6.540136985307817e+17
19588.0	6.539027431817215e+17
19589.0	6.538145727599956e+17
19590.0	6.537121739309055e+17
19591.0	6.536126886750889e+17
19592.0	6.535104037213523e+17
19593.0	6.534071247175679e+17
19594.0	6.532969005755049e+17
19595.0	6.532001407085226e+17
19596.0	6.530160530554879e+17
19597.0	6.529912336110932e+17
19598.0	6.528993524187135e+17
19599.0	6.528061742077267e+17
19600.0	6.527008939616937e+17
19601.0	6.525932082124116e+17
19602.0	6.524879397104297e+17
19603.0	6.523634789122047e+17
19604.0	6.522742342593194e+17
19605.0	6.521605994490538e+17
19606.0	6.520623659133609e+17
19607.0	6.519551474794495e+17
19608.0	6.51847321780224e+17
19609.0	6.517381383847935e+17
19610.0	6.516313333694464e+17
19611.0	6.515227256422399e+17
19612.0	6.514142223532031e+17
19613.0	6.513053138943997e+17
19614.0	6.511948694814719e+17
19615.0	6.510867164168191e+17
19616.0	6.509729234812927e+17
19617.0	6.508674554003455e+17
19618.0	6.507416589959165e+17
19619.0	6.506274066442921e+17
19620.0	6.505178201762474e+17
19621.0	6.504263856073385e+17
19622.0	6.503156637412009e+17
19623.0	6.502047657142953e+17
19624.0	6.500936894294697e+17
19625.0	6.49982377075234e+17
19626.0	6.498710106144767e+17
19627.0	6.497593950120617e+17
19628.0	6.49635663253777e+17
19629.0	6.495329654407165e+17
19630.0	6.494004763252052e+17
19631.0	6.487594697228288e+17
19632.0	6.491987895823017e+17
19633.0	6.490865863578964e+17
19634.0	6.489745348274858e+17
19635.0	6.488606475900244e+17
19636.0	6.487491827728383e+17
19637.0	6.486241214900905e+17
19638.0	6.485230642790399e+17
19639.0	6.484096833639763e+17
19640.0	6.482944773674324e+17
19641.0	6.481650995866282e+17
19642.0	6.480702296031231e+17
19643.0	6.479564210787668e+17
19644.0	6.478411922931711e+17
19645.0	6.477214292552361e+17
19646.0	6.476155666300927e+17
19647.0	6.475016826082644e+17
19648.0	6.473877019077289e+17
19649.0	6.472735575594323e+17
19650.0	6.471595012915199e+17
19651.0	6.470452814457513e+17
19652.0	6.469309858927956e+17
19653.0	6.468165580794538e+17
19654.0	6.467021753548799e+17
19655.0	6.465875318145023e+17
19656.0	6.464728762504532e+17
19657.0	6.463987227732649e+17
19658.0	6.463008472214185e+17
19659.0	6.461859936862207e+17
19660.0	6.460711804163412e+17
19661.0	6.459562606810452e+17
19662.0	6.45841280967202e+17
19663.0	6.457247858513236e+17
19664.0	6.456090785655465e+17
19665.0	6.454960290004991e+17
