# Flux units: erg / (cm m2 s)
# Wavelength units: Angstrom
wave	flux
19000.0	5.909058365510995e+17
19001.0	5.90797557797137e+17
19002.0	5.906912054870015e+17
19003.0	5.905838931006803e+17
19004.0	5.904766057403732e+17
19005.0	5.903693446643711e+17
19006.0	5.902620747803306e+17
19007.0	5.901547664485033e+17
19008.0	5.900471529111551e+17
19009.0	5.899386931729748e+17
19010.0	5.898301193497258e+17
19011.0	5.897255464031571e+17
19012.0	5.896177763483647e+17
19013.0	5.895117687401129e+17
19014.0	5.894046864113663e+17
19015.0	5.892975663338835e+17
19016.0	5.89190181036578e+17
19017.0	5.890833743435092e+17
19018.0	5.889764099446099e+17
19019.0	5.888694026939049e+17
19020.0	5.887623975403519e+17
19021.0	5.886554074862931e+17
19022.0	5.885484340696404e+17
19023.0	5.884414619811839e+17
19024.0	5.88334433898769e+17
19025.0	5.882275135400618e+17
19026.0	5.881204467302399e+17
19027.0	5.880132937274708e+17
19028.0	5.879068752172372e+17
19029.0	5.878000855110996e+17
19030.0	5.876932614116691e+17
19031.0	5.875864299722067e+17
19032.0	5.874795872081235e+17
19033.0	5.87371809743394e+17
19034.0	5.872655283169962e+17
19035.0	5.87155841814801e+17
19036.0	5.870169130445482e+17
19037.0	5.869431945166848e+17
19038.0	5.868387858470228e+17
19039.0	5.867324968708777e+17
19040.0	5.866259819615574e+17
19041.0	5.865194196566015e+17
19042.0	5.864101979531946e+17
19043.0	5.863062858192212e+17
19044.0	5.861997159645183e+17
19045.0	5.860931354143401e+17
19046.0	5.859862746846548e+17
19047.0	5.858795646003882e+17
19048.0	5.857723384070143e+17
19049.0	5.856626590351359e+17
19050.0	5.855597923314346e+17
19051.0	5.854495851763028e+17
19052.0	5.85345249976866e+17
19053.0	5.852412581511167e+17
19054.0	5.851351674956457e+17
19055.0	5.850259201370794e+17
19056.0	5.849224548362921e+17
19057.0	5.848163337022121e+17
19058.0	5.847080894813524e+17
19059.0	5.846030260109311e+17
19060.0	5.84497468032068e+17
19061.0	5.843913371112788e+17
19062.0	5.842851106302633e+17
19063.0	5.841788845686783e+17
19064.0	5.840721086338388e+17
19065.0	5.839651008937983e+17
19066.0	5.838592583314089e+17
19067.0	5.837544737822036e+17
19068.0	5.836484122771455e+17
19069.0	5.835423608384169e+17
19070.0	5.834362930419028e+17
19071.0	5.83330318778368e+17
19072.0	5.832236065270441e+17
19073.0	5.831183434077524e+17
19074.0	5.830124096192511e+17
19075.0	5.829064682810025e+17
19076.0	5.828004604630356e+17
19077.0	5.826944748748799e+17
19078.0	5.825886037912234e+17
19079.0	5.824829393469439e+17
19080.0	5.823771174764543e+17
19081.0	5.822712811356159e+17
19082.0	5.821653074313215e+17
19083.0	5.820589532337494e+17
19084.0	5.819518782450346e+17
19085.0	5.818481970774015e+17
19086.0	5.817379729353385e+17
19087.0	5.81634776769058e+17
19088.0	5.81529277370641e+17
19089.0	5.814236992591188e+17
19090.0	5.81319769718784e+17
19091.0	5.812139630176937e+17
19092.0	5.811066990056788e+17
19093.0	5.810031893151743e+17
19094.0	5.808976924333398e+17
19095.0	5.807921867434665e+17
19096.0	5.806866198167551e+17
19097.0	5.805811894845439e+17
19098.0	5.804749606267561e+17
19099.0	5.80369365738018e+17
19100.0	5.802649316229119e+17
19101.0	5.801593596630356e+17
19102.0	5.800533714184874e+17
19103.0	5.799487872172032e+17
19104.0	5.798434718089213e+17
19105.0	5.797363457196031e+17
19106.0	5.79632770318336e+17
19107.0	5.79526971097088e+17
19108.0	5.794213285330944e+17
19109.0	5.793158829615786e+17
19110.0	5.792112997389652e+17
19111.0	5.791060856930303e+17
19112.0	5.790009214894079e+17
19113.0	5.78896436133888e+17
19114.0	5.787912851423231e+17
19115.0	5.786859852529663e+17
19116.0	5.785809835786239e+17
19117.0	5.784755402440704e+17
19118.0	5.783678565919401e+17
19119.0	5.78206482702882e+17
19120.0	5.781593373278207e+17
19121.0	5.780554983145472e+17
19122.0	5.779509915680768e+17
19123.0	5.778461117382656e+17
19124.0	5.777411645898751e+17
19125.0	5.776360548422996e+17
19126.0	5.775298493328042e+17
19127.0	5.774150884218195e+17
19128.0	5.773198863193428e+17
19129.0	5.772159304947028e+17
19130.0	5.771121714528255e+17
19131.0	5.770075046936576e+17
19132.0	5.769027725033471e+17
19133.0	5.767980480724991e+17
19134.0	5.766934186426367e+17
19135.0	5.765887382519807e+17
19136.0	5.764839571281236e+17
19137.0	5.763785549676543e+17
19138.0	5.762745664973482e+17
19139.0	5.7617023374458874e+17
19140.0	5.7606571196852896e+17
19141.0	5.7596116859180365e+17
19142.0	5.7585660787862176e+17
19143.0	5.757518072512511e+17
19144.0	5.756474614961492e+17
19145.0	5.7554313454551034e+17
19146.0	5.754327320057172e+17
19147.0	5.7533382290746016e+17
19148.0	5.752292077382313e+17
19149.0	5.7512474342413645e+17
19150.0	5.750211079045119e+17
19151.0	5.7491676997877754e+17
19152.0	5.748124295364607e+17
19153.0	5.74706701828096e+17
19154.0	5.746030260431529e+17
19155.0	5.7449936228188154e+17
19156.0	5.74395176329762e+17
19157.0	5.7429033061362336e+17
19158.0	5.741849962610688e+17
19159.0	5.740816965653845e+17
19160.0	5.739776969801726e+17
19161.0	5.738732462276607e+17
19162.0	5.7376764225126394e+17
19163.0	5.736645947730602e+17
19164.0	5.7356124411658234e+17
19165.0	5.7345584307459405e+17
19166.0	5.733524274763092e+17
19167.0	5.732490951349588e+17
19168.0	5.731453131642196e+17
19169.0	5.730413948086954e+17
19170.0	5.7293747512497485e+17
19171.0	5.7283350846504954e+17
19172.0	5.727296391129769e+17
19173.0	5.7262574040077645e+17
19174.0	5.7252156381593574e+17
19175.0	5.724179956148905e+17
19176.0	5.723142221725694e+17
19177.0	5.72208942555682e+17
19178.0	5.7210650646719136e+17
19179.0	5.720025086296063e+17
19180.0	5.7189876056282445e+17
19181.0	5.717941435061589e+17
19182.0	5.716910594676053e+17
19183.0	5.715876912649558e+17
19184.0	5.71484014850867e+17
19185.0	5.713803464059562e+17
19186.0	5.712767110960468e+17
19187.0	5.711725027044009e+17
19188.0	5.710688469123071e+17
19189.0	5.709652766840149e+17
19190.0	5.70861676466449e+17
19191.0	5.707580856860671e+17
19192.0	5.706545181840724e+17
19193.0	5.7055092174138016e+17
19194.0	5.7044727370874874e+17
19195.0	5.703435136882004e+17
19196.0	5.7023950718238726e+17
19197.0	5.7013493766116685e+17
19198.0	5.7002816759835296e+17
19199.0	5.6991312140479136e+17
19200.0	5.698110798604969e+17
19201.0	5.697185048603306e+17
19202.0	5.696182715503956e+17
19203.0	5.695160473441621e+17
19204.0	5.6941310234678605e+17
19205.0	5.6931017202947405e+17
19206.0	5.6920700983705594e+17
19207.0	5.6910289889307296e+17
19208.0	5.689992862324054e+17
19209.0	5.688976089634132e+17
19210.0	5.687945207305556e+17
19211.0	5.686913764338345e+17
19212.0	5.685882006798335e+17
19213.0	5.684841963410772e+17
19214.0	5.683812252691113e+17
19215.0	5.6827872039403514e+17
19216.0	5.681756398507349e+17
19217.0	5.680719607802538e+17
19218.0	5.67965144719906e+17
19219.0	5.6786424598364154e+17
19220.0	5.677633300507306e+17
19221.0	5.676590334388905e+17
19222.0	5.675571009465002e+17
19223.0	5.6745470896810656e+17
19224.0	5.6735169965806925e+17
19225.0	5.672482765799423e+17
19226.0	5.671460342682964e+17
19227.0	5.6704326948618234e+17
19228.0	5.669404260608681e+17
19229.0	5.668375672564393e+17
19230.0	5.667347227126442e+17
19231.0	5.6663192011188896e+17
19232.0	5.6652904033594016e+17
19233.0	5.664257147054762e+17
19234.0	5.6632343639272096e+17
19235.0	5.662207896802643e+17
19236.0	5.661180286031188e+17
19237.0	5.6601520985429325e+17
19238.0	5.6591181459838285e+17
19239.0	5.6580992006444365e+17
19240.0	5.657072518911315e+17
19241.0	5.6560459231614285e+17
19242.0	5.65501946372642e+17
19243.0	5.653978296964436e+17
19244.0	5.6529667965146445e+17
19245.0	5.6519405684654074e+17
19246.0	5.650914000677545e+17
19247.0	5.649888531797332e+17
19248.0	5.648863054528511e+17
19249.0	5.647837369641642e+17
19250.0	5.646808469121706e+17
19251.0	5.6457758629341856e+17
19252.0	5.644732445928105e+17
19253.0	5.643735427011924e+17
19254.0	5.642711319183358e+17
19255.0	5.641667506514602e+17
19256.0	5.640660247205204e+17
19257.0	5.6396370726092794e+17
19258.0	5.638612400646825e+17
19259.0	5.6375800656909645e+17
19260.0	5.636554124951551e+17
19261.0	5.6355383449135776e+17
19262.0	5.6345136428919456e+17
19263.0	5.6334802943126176e+17
19264.0	5.6324291451071136e+17
19265.0	5.6314228015540896e+17
19266.0	5.630396521076052e+17
19267.0	5.629394829705214e+17
19268.0	5.6283718361634125e+17
19269.0	5.627347925467135e+17
19270.0	5.6263200322792096e+17
19271.0	5.62527966802739e+17
19272.0	5.6242738159069856e+17
19273.0	5.6232333712643405e+17
19274.0	5.622192412120404e+17
19275.0	5.621208622039039e+17
19276.0	5.620185963342506e+17
19277.0	5.619162983781717e+17
19278.0	5.618139815477247e+17
19279.0	5.6171157474945696e+17
19280.0	5.616089446045013e+17
19281.0	5.6150693773312e+17
19282.0	5.6140467920349856e+17
19283.0	5.613022673021609e+17
19284.0	5.6119974963445754e+17
19285.0	5.6109711934969165e+17
19286.0	5.609950799025492e+17
19287.0	5.6089224591441914e+17
19288.0	5.607764534143657e+17
19289.0	5.606655249088512e+17
19290.0	5.605852116768085e+17
19291.0	5.604813975497386e+17
19292.0	5.603816978950826e+17
19293.0	5.6027945502419616e+17
19294.0	5.6017719558580896e+17
19295.0	5.6007490245317965e+17
19296.0	5.599716906281641e+17
19297.0	5.598700923518974e+17
19298.0	5.5976790645364045e+17
19299.0	5.5966452552826874e+17
19300.0	5.595631289281194e+17
19301.0	5.594607363904852e+17
19302.0	5.593581874053119e+17
19303.0	5.5925527099910816e+17
19304.0	5.5915332305769805e+17
19305.0	5.590509988872192e+17
19306.0	5.5894853252983456e+17
19307.0	5.5884590336354976e+17
19308.0	5.5874337059635194e+17
19309.0	5.586403382875477e+17
19310.0	5.5853739042406394e+17
19311.0	5.584350594028885e+17
19312.0	5.5833281793010336e+17
19313.0	5.582292353286144e+17
19314.0	5.580482837566804e+17
19315.0	5.57951890821393e+17
19316.0	5.579199676241236e+17
19317.0	5.5781941365964794e+17
19318.0	5.5771688795286176e+17
19319.0	5.576141635758762e+17
19320.0	5.5751096531244365e+17
19321.0	5.574075495743488e+17
19322.0	5.57305047355665e+17
19323.0	5.572022119694335e+17
19324.0	5.5709924257518925e+17
19325.0	5.569950742391466e+17
19326.0	5.568919326687231e+17
19327.0	5.5678873636263245e+17
19328.0	5.566839634176683e+17
19329.0	5.5658226217123834e+17
19330.0	5.5647867663373645e+17
19331.0	5.5637490507885216e+17
19332.0	5.562718457167871e+17
19333.0	5.561682427729236e+17
19334.0	5.560644914905087e+17
19335.0	5.5595748766515194e+17
19336.0	5.558567872495615e+17
19337.0	5.557528031832747e+17
19338.0	5.556467977420799e+17
19339.0	5.5554454200866125e+17
19340.0	5.5543893873131514e+17
19341.0	5.5533356236581536e+17
19342.0	5.552289999050069e+17
19343.0	5.5512611845133645e+17
19344.0	5.550195152519167e+17
19345.0	5.549029092666025e+17
19346.0	5.548020458323967e+17
19347.0	5.5470396979281914e+17
19348.0	5.546011927773183e+17
19349.0	5.54495930986223e+17
19350.0	5.5438973826935456e+17
19351.0	5.5428422104514554e+17
19352.0	5.541761176130899e+17
19353.0	5.5407034928988154e+17
19354.0	5.539639839074985e+17
19355.0	5.5385651136866976e+17
19356.0	5.537504625164287e+17
19357.0	5.53643359216162e+17
19358.0	5.5353596098641914e+17
19359.0	5.5342781910657696e+17
19360.0	5.533189534995796e+17
19361.0	5.532120945175211e+17
19362.0	5.531038339388756e+17
19363.0	5.52995067736883e+17
19364.0	5.528859361411071e+17
19365.0	5.527764381728766e+17
19366.0	5.5266655579668474e+17
19367.0	5.525546718287189e+17
19368.0	5.5244157249126394e+17
19369.0	5.5233018128411296e+17
19370.0	5.5221866417793696e+17
19371.0	5.521066992599039e+17
19372.0	5.5199406178522445e+17
19373.0	5.518808345214975e+17
19374.0	5.5176703522461005e+17
19375.0	5.5165260321696403e+17
19376.0	5.5153617332251296e+17
19377.0	5.514170894123007e+17
19378.0	5.513007001326932e+17
19379.0	5.5118366080587085e+17
19380.0	5.5106585713704954e+17
19381.0	5.509472217377449e+17
19382.0	5.508268866666496e+17
19383.0	5.507032489306794e+17
19384.0	5.505788711097684e+17
19385.0	5.504565341672789e+17
19386.0	5.5033301652821325e+17
19387.0	5.502082835895636e+17
19388.0	5.5007976529155405e+17
19389.0	5.4994441398299296e+17
19390.0	5.498123812077567e+17
19391.0	5.496523952138922e+17
19392.0	5.4954527772289696e+17
19393.0	5.4941146034121363e+17
19394.0	5.4927446486548474e+17
19395.0	5.4913577496084474e+17
19396.0	5.489957141479423e+17
19397.0	5.488531529706153e+17
19398.0	5.487073840594943e+17
19399.0	5.485553576662355e+17
19400.0	5.484043189616639e+17
19401.0	5.482535719010303e+17
19402.0	5.480981106524158e+17
19403.0	5.4793926781610656e+17
19404.0	5.4777659760749216e+17
19405.0	5.4760907458914976e+17
19406.0	5.4743258128274765e+17
19407.0	5.472514250287786e+17
19408.0	5.4706505420636154e+17
19409.0	5.468809411777877e+17
19410.0	5.4668721892884474e+17
19411.0	5.46477045780753e+17
19412.0	5.4626367021165216e+17
19413.0	5.460458100228094e+17
19414.0	5.45820929827362e+17
19415.0	5.4557529894202016e+17
19416.0	5.4532727877140474e+17
19417.0	5.45075413262882e+17
19418.0	5.4480519963170125e+17
19419.0	5.4451678747470496e+17
19420.0	5.442231519412223e+17
19421.0	5.4389864807792634e+17
19422.0	5.4355980920203936e+17
19423.0	5.4320345218635085e+17
19424.0	5.428037311004671e+17
19425.0	5.424043611477332e+17
19426.0	5.41975732359441e+17
19427.0	5.4149078937763834e+17
19428.0	5.4101745699826323e+17
19429.0	5.4049731912226125e+17
19430.0	5.3992440851333114e+17
19431.0	5.39304339387187e+17
19432.0	5.386456910528511e+17
19433.0	5.379047448816298e+17
19434.0	5.3707241223618554e+17
19435.0	5.361896542000468e+17
19436.0	5.3522538405997235e+17
19437.0	5.341247032000511e+17
19438.0	5.328453997253972e+17
19439.0	5.315194387431423e+17
19440.0	5.2995942301477536e+17
19441.0	5.281570696287572e+17
19442.0	5.26130876584209e+17
19443.0	5.237325662868819e+17
19444.0	5.2087894919086054e+17
19445.0	5.174891945568939e+17
19446.0	5.132812930427562e+17
19447.0	5.079114858539686e+17
19448.0	5.006951861015897e+17
19449.0	4.8992843891124896e+17
19450.0	4.6912481662074797e+17
19451.0	4.5162721996090195e+17
19452.0	4.817614773682174e+17
19453.0	4.9574639454999936e+17
19454.0	5.041830517276669e+17
19455.0	5.101091807734442e+17
19456.0	5.1466408237028704e+17
19457.0	5.181834570760189e+17
19458.0	5.208730062815235e+17
19459.0	5.234989268467713e+17
19460.0	5.255207115380051e+17
19461.0	5.272316329416021e+17
19462.0	5.287207775851862e+17
19463.0	5.299875088433151e+17
19464.0	5.3108283658294605e+17
19465.0	5.320494973364907e+17
19466.0	5.3287396160744083e+17
19467.0	5.3359849483796474e+17
19468.0	5.342512475886932e+17
19469.0	5.348475875797673e+17
19470.0	5.353470758486015e+17
19471.0	5.357866681980245e+17
19472.0	5.361833731599017e+17
19473.0	5.3653604932430496e+17
19474.0	5.368249330608809e+17
19475.0	5.371003850282324e+17
19476.0	5.373714461185364e+17
19477.0	5.375829436880212e+17
19478.0	5.37788184404514e+17
19479.0	5.3796590042043725e+17
19480.0	5.381111068054868e+17
19481.0	5.382550792962046e+17
19482.0	5.3836156554444794e+17
19483.0	5.384504243912704e+17
19484.0	5.3854147112686925e+17
19485.0	5.385998877851647e+17
19486.0	5.386512328469162e+17
19487.0	5.3870385276736845e+17
19488.0	5.387407504790868e+17
19489.0	5.387616655856979e+17
19490.0	5.3877277028515834e+17
19491.0	5.387983224045567e+17
19492.0	5.3880401931796474e+17
19493.0	5.387985423958014e+17
19494.0	5.387869129889108e+17
19495.0	5.387695730371242e+17
19496.0	5.387500051409578e+17
19497.0	5.3872588237045754e+17
19498.0	5.3868179681006925e+17
19499.0	5.386117764000426e+17
19500.0	5.3861931978588154e+17
19501.0	5.385791770809685e+17
19502.0	5.385351505903615e+17
19503.0	5.384910850927274e+17
19504.0	5.384412394247508e+17
19505.0	5.3838882558443514e+17
19506.0	5.3833407167201274e+17
19507.0	5.382771220414464e+17
19508.0	5.382182475049641e+17
19509.0	5.3815908488970234e+17
19510.0	5.3809570448233805e+17
19511.0	5.379122255626238e+17
19512.0	5.3795261258574496e+17
19513.0	5.3788372121245005e+17
19514.0	5.3782715843652256e+17
19515.0	5.3776850144460794e+17
19516.0	5.376996585854292e+17
19517.0	5.376269330590377e+17
19518.0	5.375531968451925e+17
19519.0	5.374812060909567e+17
19520.0	5.374081602595498e+17
19521.0	5.373325482131455e+17
19522.0	5.372549524706644e+17
19523.0	5.3717639867924474e+17
19524.0	5.370965540208639e+17
19525.0	5.3701764364369914e+17
19526.0	5.369389372495189e+17
19527.0	5.368605707337726e+17
19528.0	5.367789049785002e+17
19529.0	5.3669665733345274e+17
19530.0	5.3661386428907514e+17
19531.0	5.365304943181823e+17
19532.0	5.3644661075476474e+17
19533.0	5.363622783309141e+17
19534.0	5.3627750697314976e+17
19535.0	5.3619229745042765e+17
19536.0	5.3610834363241805e+17
19537.0	5.360237520704852e+17
19538.0	5.3593497214648314e+17
19539.0	5.358478435898708e+17
19540.0	5.357640314694313e+17
19541.0	5.35676949958929e+17
19542.0	5.355893800916308e+17
19543.0	5.3550035333283834e+17
19544.0	5.354129823454549e+17
19545.0	5.3532063873105914e+17
19546.0	5.3523382153161376e+17
19547.0	5.3515068888842234e+17
19548.0	5.35062099595537e+17
19549.0	5.3497203663394125e+17
19550.0	5.3488357855286605e+17
19551.0	5.3479398759028045e+17
19552.0	5.3470508449355085e+17
19553.0	5.346157553254399e+17
19554.0	5.345256007183017e+17
19555.0	5.344356044461395e+17
19556.0	5.343452150977877e+17
19557.0	5.3425464986828794e+17
19558.0	5.3416397453830816e+17
19559.0	5.3407317142186656e+17
19560.0	5.3398181605539834e+17
19561.0	5.3389119741842765e+17
19562.0	5.337995987823274e+17
19563.0	5.337087677038591e+17
19564.0	5.3361739996419405e+17
19565.0	5.33525925199872e+17
19566.0	5.3343425875585683e+17
19567.0	5.333426984277332e+17
19568.0	5.332510080761855e+17
19569.0	5.331591565934592e+17
19570.0	5.330673504092159e+17
19571.0	5.3297540329635834e+17
19572.0	5.3288336789340154e+17
19573.0	5.3279121484021754e+17
19574.0	5.326985521790974e+17
19575.0	5.326069609529343e+17
19576.0	5.325146959118335e+17
19577.0	5.3242231923234125e+17
19578.0	5.3232976093948576e+17
19579.0	5.3223734336552966e+17
19580.0	5.3214491887097165e+17
19581.0	5.3205254890236576e+17
19582.0	5.3196010008084474e+17
19583.0	5.318675187892223e+17
19584.0	5.3177487654038176e+17
19585.0	5.3168141493425485e+17
19586.0	5.3158811438940154e+17
19587.0	5.314963082750634e+17
19588.0	5.314018576520532e+17
19589.0	5.3131162104627194e+17
19590.0	5.312185884475391e+17
19591.0	5.311264674807806e+17
19592.0	5.31033647952691e+17
19593.0	5.309407962682708e+17
19594.0	5.3084547476794016e+17
19595.0	5.3075491268416845e+17
19596.0	5.3066196194426874e+17
19597.0	5.305689237531306e+17
19598.0	5.30472634556962e+17
19599.0	5.303828451338921e+17
19600.0	5.3028995570073594e+17
19601.0	5.3019663152797005e+17
19602.0	5.301028303929343e+17
19603.0	5.3000822206409363e+17
19604.0	5.299172715178666e+17
19605.0	5.2982238259008845e+17
19606.0	5.2973160470937594e+17
19607.0	5.2963863663301965e+17
19608.0	5.295455387429547e+17
19609.0	5.2945236137082874e+17
19610.0	5.293587700208979e+17
19611.0	5.292653917416106e+17
19612.0	5.291731620724735e+17
19613.0	5.290800388068692e+17
19614.0	5.2898651037149856e+17
19615.0	5.288936788197375e+17
19616.0	5.2879967845526176e+17
19617.0	5.2870614960046074e+17
19618.0	5.286090585232725e+17
19619.0	5.2851455491222176e+17
19620.0	5.284230472226132e+17
19621.0	5.283332302569471e+17
19622.0	5.282417291384149e+17
19623.0	5.2814870443895456e+17
19624.0	5.2805560654888954e+17
19625.0	5.279624658769236e+17
19626.0	5.27869272077107e+17
19627.0	5.2777592539490976e+17
19628.0	5.276822358283604e+17
19629.0	5.275846755483646e+17
19630.0	5.274890819775145e+17
19631.0	5.2738841714360314e+17
19632.0	5.273078406490793e+17
19633.0	5.2721688744645965e+17
19634.0	5.2712437536085325e+17
19635.0	5.2703140274066765e+17
19636.0	5.2693727584802125e+17
19637.0	5.268410694893567e+17
19638.0	5.267524018328917e+17
19639.0	5.266594725538474e+17
19640.0	5.2656483605326496e+17
19641.0	5.264646952277332e+17
19642.0	5.26380367557427e+17
19643.0	5.262874793825621e+17
19644.0	5.2619397184880634e+17
19645.0	5.260998924217002e+17
19646.0	5.2600713573826554e+17
19647.0	5.259157333955924e+17
19648.0	5.2582284962474656e+17
19649.0	5.2572992936345594e+17
19650.0	5.2563703056302074e+17
19651.0	5.2554413176258554e+17
19652.0	5.254512377156949e+17
19653.0	5.2535834975054496e+17
19654.0	5.252654854832128e+17
19655.0	5.251725954908159e+17
19656.0	5.250797409402879e+17
19657.0	5.249869474168832e+17
