# Flux units: erg / (cm m2 s)
# Wavelength units: Angstrom
wave	flux
19000.0	5.360670836348244e+17
19001.0	5.359578274682196e+17
19002.0	5.358747749362347e+17
19003.0	5.357781257289726e+17
19004.0	5.3568216319918074e+17
19005.0	5.355832650760191e+17
19006.0	5.354879977521151e+17
19007.0	5.3539314741193376e+17
19008.0	5.3529172725377696e+17
19009.0	5.351781090110121e+17
19010.0	5.350655213087402e+17
19011.0	5.3500181325632845e+17
19012.0	5.34885450330931e+17
19013.0	5.3481718537693856e+17
19014.0	5.3471643448989e+17
19015.0	5.3462047664373754e+17
19016.0	5.345264759996415e+17
19017.0	5.344342043175594e+17
19018.0	5.3433731072218445e+17
19019.0	5.342424048074752e+17
19020.0	5.341458677279403e+17
19021.0	5.340518577165652e+17
19022.0	5.3395549679779834e+17
19023.0	5.338539716422313e+17
19024.0	5.337563255887187e+17
19025.0	5.3366545319635616e+17
19026.0	5.3356579163996154e+17
19027.0	5.3346134668957005e+17
19028.0	5.3337902669277856e+17
19029.0	5.332825179247956e+17
19030.0	5.331897848692736e+17
19031.0	5.3309416137905485e+17
19032.0	5.3299614825403725e+17
19033.0	5.3288748327458125e+17
19034.0	5.3279004567797754e+17
19035.0	5.326124429781674e+17
19036.0	5.314669159208276e+17
19037.0	5.324448325784917e+17
19038.0	5.3240858736066554e+17
19039.0	5.323246195616426e+17
19040.0	5.3223234116867405e+17
19041.0	5.32137647415842e+17
19042.0	5.3186967899559226e+17
19043.0	5.3195012399868576e+17
19044.0	5.318535229560149e+17
19045.0	5.3175700831600634e+17
19046.0	5.316580186172074e+17
19047.0	5.3156141680558074e+17
19048.0	5.3143133060683085e+17
19049.0	5.3102336792330195e+17
19050.0	5.312610824093696e+17
19051.0	5.3102634063626234e+17
19052.0	5.310090591950164e+17
19053.0	5.309884876718079e+17
19054.0	5.309000678288043e+17
19055.0	5.307302515048448e+17
19056.0	5.306943672068778e+17
19057.0	5.3061759641408845e+17
19058.0	5.303473528635389e+17
19059.0	5.303612743876607e+17
19060.0	5.303323787788287e+17
19061.0	5.302380770536106e+17
19062.0	5.3014322587456845e+17
19063.0	5.3004790996664314e+17
19064.0	5.2994370541977594e+17
19065.0	5.2984083487129594e+17
19066.0	5.2969440228147206e+17
19067.0	5.2966760060900685e+17
19068.0	5.295748631494655e+17
19069.0	5.2948010361596576e+17
19070.0	5.293822174385492e+17
19071.0	5.2928905621449376e+17
19072.0	5.291301956222975e+17
19073.0	5.2910055915956896e+17
19074.0	5.2900646973603834e+17
19075.0	5.2891166119908685e+17
19076.0	5.288157028635989e+17
19077.0	5.287197523574783e+17
19078.0	5.2862294306761376e+17
19079.0	5.285326433375572e+17
19080.0	5.284368423583743e+17
19081.0	5.283375867407019e+17
19082.0	5.2824622116809376e+17
19083.0	5.281436951816873e+17
19084.0	5.280355859475113e+17
19085.0	5.27961351590161e+17
19086.0	5.277359846457343e+17
19087.0	5.2761470480766266e+17
19088.0	5.2757443648334483e+17
19089.0	5.275574386469545e+17
19090.0	5.274838313380522e+17
19091.0	5.273814588631722e+17
19092.0	5.2715848812462106e+17
19093.0	5.2720787954947405e+17
19094.0	5.2711475027203405e+17
19095.0	5.270205886365694e+17
19096.0	5.2692572927863456e+17
19097.0	5.268320996906325e+17
19098.0	5.2666621259066016e+17
19099.0	5.265570603728896e+17
19100.0	5.2654538119359123e+17
19101.0	5.2645202856946336e+17
19102.0	5.2634993187007136e+17
19103.0	5.262659831551317e+17
19104.0	5.261726779266388e+17
19105.0	5.259206476518745e+17
19106.0	5.259796115270313e+17
19107.0	5.25847025103667e+17
19108.0	5.257273072244053e+17
19109.0	5.2566340427666765e+17
19110.0	5.2559004016749216e+17
19111.0	5.254651978973183e+17
19112.0	5.253648463779155e+17
19113.0	5.25325116182801e+17
19114.0	5.251997703864319e+17
19115.0	5.251248181739519e+17
19116.0	5.2503967415227725e+17
19117.0	5.2494224690162336e+17
19118.0	5.248122222193322e+17
19119.0	5.237809981947891e+17
19120.0	5.246381798544726e+17
19121.0	5.245619065061375e+17
19122.0	5.2447930828718074e+17
19123.0	5.243868148662272e+17
19124.0	5.2428491900409165e+17
19125.0	5.2419670992486394e+17
19126.0	5.2408862173211296e+17
19127.0	5.238620818505726e+17
19128.0	5.238962025835178e+17
19129.0	5.2381345302009165e+17
19130.0	5.2373007654802765e+17
19131.0	5.2363864750161914e+17
19132.0	5.235451334666922e+17
19133.0	5.2344748818213536e+17
19134.0	5.2335765297124685e+17
19135.0	5.2326444449136634e+17
19136.0	5.2317036932846925e+17
19137.0	5.230663735181311e+17
19138.0	5.2298158111894176e+17
19139.0	5.228912879599615e+17
19140.0	5.2279843683478176e+17
19141.0	5.2270495257941325e+17
19142.0	5.2260876649321805e+17
19143.0	5.225138383486975e+17
19144.0	5.2241977213364896e+17
19145.0	5.22330896998946e+17
19146.0	5.221661764048213e+17
19147.0	5.2213797117842765e+17
19148.0	5.219947706493611e+17
19149.0	5.2189115777897805e+17
19150.0	5.218649136693248e+17
19151.0	5.217711401467904e+17
19152.0	5.21676506931746e+17
19153.0	5.214623702362791e+17
19154.0	5.2147235575562234e+17
19155.0	5.2139511142591136e+17
19156.0	5.2130179221640525e+17
19157.0	5.2116436934109875e+17
19158.0	5.210145038532609e+17
19159.0	5.210155364210004e+17
19160.0	5.2092498244621645e+17
19161.0	5.2082494619866445e+17
19162.0	5.20684315799279e+17
19163.0	5.206250483963221e+17
19164.0	5.2055309930550605e+17
19165.0	5.20333914625365e+17
19166.0	5.2035899334765216e+17
19167.0	5.2027393558882976e+17
19168.0	5.2018551546620576e+17
19169.0	5.200945619140607e+17
19170.0	5.2000230833739085e+17
19171.0	5.1990752203025056e+17
19172.0	5.198158598504447e+17
19173.0	5.197245752279039e+17
19174.0	5.1962794978836474e+17
19175.0	5.1953903851274234e+17
19176.0	5.1944675243021645e+17
19177.0	5.193365126294185e+17
19178.0	5.192572670574591e+17
19179.0	5.1916442732680525e+17
19180.0	5.190739288566441e+17
19181.0	5.189702745325567e+17
19182.0	5.188859864984234e+17
19183.0	5.187986211034453e+17
19184.0	5.1870620276053325e+17
19185.0	5.186123232619178e+17
19186.0	5.1852086136012794e+17
19187.0	5.184213256328532e+17
19188.0	5.183348289481386e+17
19189.0	5.182417033756671e+17
19190.0	5.181485674572458e+17
19191.0	5.180517118902271e+17
19192.0	5.179609426777428e+17
19193.0	5.1785017341597005e+17
19194.0	5.177437874115925e+17
19195.0	5.1767102315779405e+17
19196.0	5.1756467581091834e+17
19197.0	5.17444452098594e+17
19198.0	5.172588704344746e+17
19199.0	5.167763941228543e+17
19200.0	5.16733772234752e+17
19201.0	5.1699320503664634e+17
19202.0	5.1698685884497914e+17
19203.0	5.1691916802129914e+17
19204.0	5.168397184663551e+17
19205.0	5.1675434858141e+17
19206.0	5.1666561255778976e+17
19207.0	5.1655985667768294e+17
19208.0	5.1646652460564474e+17
19209.0	5.16393662484753e+17
19210.0	5.1630306705626445e+17
19211.0	5.16213112517427e+17
19212.0	5.1612003951356576e+17
19213.0	5.1601494269842765e+17
19214.0	5.159237567818409e+17
19215.0	5.1584192108735136e+17
19216.0	5.157518232431274e+17
19217.0	5.156529873354751e+17
19218.0	5.155103711428607e+17
19219.0	5.1545131743969274e+17
19220.0	5.1537988075301536e+17
19221.0	5.152731740241919e+17
19222.0	5.151959710782804e+17
19223.0	5.151086707649194e+17
19224.0	5.150133651330387e+17
19225.0	5.149188442554367e+17
19226.0	5.1483394615978656e+17
19227.0	5.147437203193856e+17
19228.0	5.146549176063317e+17
19229.0	5.145629656700244e+17
19230.0	5.144709415217834e+17
19231.0	5.1437849752371194e+17
19232.0	5.1428731943649274e+17
19233.0	5.1418940040369485e+17
19234.0	5.1410368889268896e+17
19235.0	5.1400977856593914e+17
19236.0	5.1392172243899725e+17
19237.0	5.138286163700393e+17
19238.0	5.1372876837683194e+17
19239.0	5.1364741090290336e+17
19240.0	5.1355593844544845e+17
19241.0	5.1346261301439136e+17
19242.0	5.133716442928468e+17
19243.0	5.132647288274943e+17
19244.0	5.1319068286429856e+17
19245.0	5.1309850604339194e+17
19246.0	5.1300675829978445e+17
19247.0	5.129151799361534e+17
19248.0	5.1282476765893965e+17
19249.0	5.1272939855325856e+17
19250.0	5.126152052015103e+17
19251.0	5.1251665205985254e+17
19252.0	5.124268100681727e+17
19253.0	5.1236562258274976e+17
19254.0	5.122773328330751e+17
19255.0	5.121643289859412e+17
19256.0	5.120932125343743e+17
19257.0	5.12003225559586e+17
19258.0	5.1191200378170003e+17
19259.0	5.118105908237653e+17
19260.0	5.1169278435874125e+17
19261.0	5.116351068067156e+17
19262.0	5.1153721608546976e+17
19263.0	5.114389087300266e+17
19264.0	5.113139323120298e+17
19265.0	5.1124837408221856e+17
19266.0	5.1114854559252474e+17
19267.0	5.110906031002964e+17
19268.0	5.109996685623294e+17
19269.0	5.109086365766996e+17
19270.0	5.1081303468714656e+17
19271.0	5.106985535362388e+17
19272.0	5.106316720734206e+17
19273.0	5.105219759942313e+17
19274.0	5.10409156207138e+17
19275.0	5.1036394265859405e+17
19276.0	5.102710111425876e+17
19277.0	5.1018078907706016e+17
19278.0	5.100866401643178e+17
19279.0	5.099955241527977e+17
19280.0	5.099014227755007e+17
19281.0	5.0981410561501856e+17
19282.0	5.0972489011254605e+17
19283.0	5.096311341361834e+17
19284.0	5.0953533259775994e+17
19285.0	5.094403099415892e+17
19286.0	5.0934896911537485e+17
19287.0	5.0924514946580474e+17
19288.0	5.087321039481511e+17
19289.0	5.083459229843449e+17
19290.0	5.089680945752745e+17
19291.0	5.088732318618966e+17
19292.0	5.088159053731157e+17
19293.0	5.0872728105779194e+17
19294.0	5.086353914768041e+17
19295.0	5.085479800143872e+17
19296.0	5.0837995829329926e+17
19297.0	5.083517100752896e+17
19298.0	5.0827323310953805e+17
19299.0	5.080990210850817e+17
19300.0	5.0809325461613216e+17
19301.0	5.080045346007721e+17
19302.0	5.079122072742571e+17
19303.0	5.078148792887977e+17
19304.0	5.0773042599908685e+17
19305.0	5.076392805575338e+17
19306.0	5.0754879676743674e+17
19307.0	5.074519569290581e+17
19308.0	5.073607579402239e+17
19309.0	5.072554340035242e+17
19310.0	5.071572245151743e+17
19311.0	5.0707793762932045e+17
19312.0	5.069876000107179e+17
19313.0	5.068634366585514e+17
19314.0	5.0345801378256083e+17
19315.0	5.0364353274184083e+17
19316.0	5.064914299955883e+17
19317.0	5.0653572457212576e+17
19318.0	5.064557872196267e+17
19319.0	5.063709109343572e+17
19320.0	5.0625166994746016e+17
19321.0	5.061222749700096e+17
19322.0	5.0609550517425485e+17
19323.0	5.060055850287103e+17
19324.0	5.05915694453009e+17
19325.0	5.058219542751915e+17
19326.0	5.0573789315290445e+17
19327.0	5.056495219638271e+17
19328.0	5.054212676605271e+17
19329.0	5.0547230269330765e+17
19330.0	5.0537984869881165e+17
19331.0	5.0528623497925965e+17
19332.0	5.0520189493575674e+17
19333.0	5.0510961444563616e+17
19334.0	5.050182659997694e+17
19335.0	5.046446950012248e+17
19336.0	5.048368034917034e+17
19337.0	5.0474847969826125e+17
19338.0	5.0463509815405216e+17
19339.0	5.0456616050360314e+17
19340.0	5.0445294051000314e+17
19341.0	5.042672951623681e+17
19342.0	5.0423591191183366e+17
19343.0	5.041983626848938e+17
19344.0	5.0399611376544435e+17
19345.0	5.038015754447531e+17
19346.0	5.0380637281976314e+17
19347.0	5.036955971966292e+17
19348.0	5.037488085838506e+17
19349.0	5.03656691671586e+17
19350.0	5.035170546931027e+17
19351.0	5.034745869456725e+17
19352.0	5.0324099056708243e+17
19353.0	5.032995495520938e+17
19354.0	5.0320959536278176e+17
19355.0	5.031077417233066e+17
19356.0	5.030277561363114e+17
19357.0	5.0293692701518496e+17
19358.0	5.028449990563157e+17
19359.0	5.02720486318626e+17
19360.0	5.025479460738388e+17
19361.0	5.0256977672710816e+17
19362.0	5.024812214779904e+17
19363.0	5.023901968323925e+17
19364.0	5.0229880532500474e+17
19365.0	5.0220654713460045e+17
19366.0	5.021143124322985e+17
19367.0	5.020226738105002e+17
19368.0	5.0193109097294496e+17
19369.0	5.018348522482346e+17
19370.0	5.017441426647721e+17
19371.0	5.0164902605619194e+17
19372.0	5.0156234377352525e+17
19373.0	5.014684869241514e+17
19374.0	5.01377827672337e+17
19375.0	5.0128555885636256e+17
19376.0	5.011931039531007e+17
19377.0	5.0109910337890976e+17
19378.0	5.0100613439378765e+17
19379.0	5.009114334407338e+17
19380.0	5.008172560766292e+17
19381.0	5.007231833604095e+17
19382.0	5.006206877128019e+17
19383.0	5.0052706819112954e+17
19384.0	5.004377658665641e+17
19385.0	5.003449469676203e+17
19386.0	5.0024999659328845e+17
19387.0	5.0015157543239674e+17
19388.0	5.000527831455061e+17
19389.0	4.999495922221055e+17
19390.0	4.998166370495146e+17
19391.0	4.987474086461431e+17
19392.0	4.994954018073257e+17
19393.0	4.9955170076153165e+17
19394.0	4.994649115940181e+17
19395.0	4.993283712701782e+17
19396.0	4.992620891034966e+17
19397.0	4.9917210562396154e+17
19398.0	4.9902854291674445e+17
19399.0	4.9886112007236256e+17
19400.0	4.9881269417629005e+17
19401.0	4.9876053066601805e+17
19402.0	4.986574046844244e+17
19403.0	4.985501018051925e+17
19404.0	4.9844475179390285e+17
19405.0	4.983336390186324e+17
19406.0	4.9822393559941114e+17
19407.0	4.980602797293566e+17
19408.0	4.9793188809932794e+17
19409.0	4.9786786218857805e+17
19410.0	4.9776317117235194e+17
19411.0	4.9764427908164256e+17
19412.0	4.975201343242239e+17
19413.0	4.9734350449322656e+17
19414.0	4.9725762807616845e+17
19415.0	4.9712431582849696e+17
19416.0	4.96968628646707e+17
19417.0	4.968389610394964e+17
19418.0	4.9669748534804474e+17
19419.0	4.9654815309605536e+17
19420.0	4.9638441320011085e+17
19421.0	4.9621786374963194e+17
19422.0	4.9603086706715296e+17
19423.0	4.9584541095253325e+17
19424.0	4.956441042135722e+17
19425.0	4.9543291366714016e+17
19426.0	4.952080119409321e+17
19427.0	4.949747576078335e+17
19428.0	4.9472732785541114e+17
19429.0	4.9444942795243514e+17
19430.0	4.940809644976809e+17
19431.0	4.936685301268479e+17
19432.0	4.934550334821717e+17
19433.0	4.93074207805713e+17
19434.0	4.9263130097745914e+17
19435.0	4.9209376310121805e+17
19436.0	4.9148613938380794e+17
19437.0	4.9083925117883725e+17
19438.0	4.881488391350956e+17
19439.0	4.8894277390609043e+17
19440.0	4.883596154241024e+17
19441.0	4.8725162179515725e+17
19442.0	4.859017209140566e+17
19443.0	4.84257932841233e+17
19444.0	4.822982411157502e+17
19445.0	4.7981265434269024e+17
19446.0	4.7661348377941325e+17
19447.0	4.7242706381264186e+17
19448.0	4.664972470648833e+17
19449.0	4.572099499436715e+17
19450.0	4.374223421527375e+17
19451.0	4.2014639831122016e+17
19452.0	4.496942533618345e+17
19453.0	4.622854489724249e+17
19454.0	4.692975267348477e+17
19455.0	4.740639426084863e+17
19456.0	4.7746389576253446e+17
19457.0	4.800040765052244e+17
19458.0	4.715674001036773e+17
19459.0	4.828427508340074e+17
19460.0	4.850072497946623e+17
19461.0	4.8613872292768416e+17
19462.0	4.8701161826768205e+17
19463.0	4.8773910065315834e+17
19464.0	4.883525528453119e+17
19465.0	4.888706945122302e+17
19466.0	4.892837046211925e+17
19467.0	4.896350579720191e+17
19468.0	4.899138890803882e+17
19469.0	4.900337950741842e+17
19470.0	4.9034939841467725e+17
19471.0	4.905198417171796e+17
19472.0	4.9064768620025165e+17
19473.0	4.907530260054015e+17
19474.0	4.907301270629032e+17
19475.0	4.908106241452713e+17
19476.0	4.909351458308095e+17
19477.0	4.9098523455870285e+17
19478.0	4.910260612846932e+17
19479.0	4.909415527000744e+17
19480.0	4.910508912148479e+17
19481.0	4.910434728891732e+17
19482.0	4.910389756166143e+17
19483.0	4.91022305005841e+17
19484.0	4.9099340324536314e+17
19485.0	4.9096136155900576e+17
19486.0	4.9082179175929197e+17
19487.0	4.9088620354600954e+17
19488.0	4.9084150121321805e+17
19489.0	4.9075471176608416e+17
19490.0	4.9062562283301536e+17
19491.0	4.906838055889578e+17
19492.0	4.906379702348457e+17
19493.0	4.905813458725546e+17
19494.0	4.9051941047282336e+17
19495.0	4.90450516513041e+17
19496.0	4.9033646912307194e+17
19497.0	4.902811938586623e+17
19498.0	4.898308654891006e+17
19499.0	4.885840146726909e+17
19500.0	4.900497881650517e+17
19501.0	4.9003452858804896e+17
19502.0	4.8997434123441485e+17
19503.0	4.8990660609092256e+17
19504.0	4.898344220491775e+17
19505.0	4.8975812304568314e+17
19506.0	4.896856303730687e+17
19507.0	4.8960532119551994e+17
19508.0	4.8952569240398496e+17
19509.0	4.894306974302207e+17
19510.0	4.8923387083707725e+17
19511.0	4.84188448393349e+17
19512.0	4.88699144123187e+17
19513.0	4.885817718385318e+17
19514.0	4.8861607928791014e+17
19515.0	4.889227225464832e+17
19516.0	4.888826191282175e+17
19517.0	4.888214733062143e+17
19518.0	4.8872272380122445e+17
19519.0	4.886418837645993e+17
19520.0	4.884902772910761e+17
19521.0	4.885152060669951e+17
19522.0	4.8841537904530765e+17
19523.0	4.883271620668075e+17
19524.0	4.8819437613438304e+17
19525.0	4.8818924531220474e+17
19526.0	4.88111122555426e+17
19527.0	4.880276768773461e+17
19528.0	4.8793806452381005e+17
19529.0	4.8785103096818336e+17
19530.0	4.8778240096993274e+17
19531.0	4.876997995353428e+17
19532.0	4.876168698265598e+17
19533.0	4.8753385874827936e+17
19534.0	4.8745093679895885e+17
19535.0	4.873655541912918e+17
19536.0	4.8727964638685856e+17
19537.0	4.871977196060671e+17
19538.0	4.8699890952656224e+17
19539.0	4.8698888178455885e+17
19540.0	4.8694515973051725e+17
19541.0	4.86844478468915e+17
19542.0	4.867736901517311e+17
19543.0	4.865963491065856e+17
19544.0	4.8660507724349434e+17
19545.0	4.8646918228322976e+17
19546.0	4.8636963914601805e+17
19547.0	4.8636027228651514e+17
19548.0	4.8628120357437434e+17
19549.0	4.861872914300927e+17
19550.0	4.8611462357538125e+17
19551.0	4.860311876840106e+17
19552.0	4.859470343569408e+17
19553.0	4.8586057612001274e+17
19554.0	4.8577495492635296e+17
19555.0	4.856817063908693e+17
19556.0	4.856023903546025e+17
19557.0	4.855253542021802e+17
19558.0	4.8544228244630176e+17
19559.0	4.8535869136568314e+17
19560.0	4.85235380925235e+17
19561.0	4.851873722925055e+17
19562.0	4.8506908536995834e+17
19563.0	4.8502215614136314e+17
19564.0	4.849373347315711e+17
19565.0	4.8485320097792e+17
19566.0	4.847664667557887e+17
19567.0	4.8468456437186554e+17
19568.0	4.8459818792386554e+17
19569.0	4.84514171191296e+17
19570.0	4.8443096416911354e+17
19571.0	4.8434678987052365e+17
19572.0	4.8425939951943674e+17
19573.0	4.841654289345193e+17
19574.0	4.840798024280745e+17
19575.0	4.840102947018069e+17
19576.0	4.839191502389247e+17
19577.0	4.8382076472961696e+17
19578.0	4.837537940679338e+17
19579.0	4.836697393769129e+17
19580.0	4.8358553075493536e+17
19581.0	4.835029548356949e+17
19582.0	4.8342021429002234e+17
19583.0	4.8333587830101325e+17
19584.0	4.8325050149546656e+17
19585.0	4.831534594916351e+17
19586.0	4.830654016869717e+17
19587.0	4.829916021391359e+17
19588.0	4.8287346858830496e+17
19589.0	4.8282218392453114e+17
19590.0	4.827308206587904e+17
19591.0	4.8266025065512954e+17
19592.0	4.8257728501514234e+17
19593.0	4.8248162482476365e+17
19594.0	4.823713019767465e+17
19595.0	4.823222776933034e+17
19596.0	4.8223506972453536e+17
19597.0	4.821533414042282e+17
19598.0	4.8201446715992736e+17
19599.0	4.819843372373332e+17
19600.0	4.8190278367969274e+17
19601.0	4.818115359670272e+17
19602.0	4.817211492051626e+17
19603.0	4.816120847881557e+17
19604.0	4.8155454376072525e+17
19605.0	4.8145215870293344e+17
19606.0	4.813965061608789e+17
19607.0	4.8131452436479994e+17
19608.0	4.812287030329342e+17
19609.0	4.811418561937407e+17
19610.0	4.810136420526762e+17
19611.0	4.809060440342528e+17
19612.0	4.808944297268564e+17
19613.0	4.8080886347857894e+17
19614.0	4.807215189153109e+17
19615.0	4.806398236601002e+17
19616.0	4.804998660270763e+17
19617.0	4.803941674691243e+17
19618.0	4.803175767517865e+17
19619.0	4.802094410934953e+17
19620.0	4.801338054890836e+17
19621.0	4.800277911699455e+17
19622.0	4.8005135980298234e+17
19623.0	4.799626976690175e+17
19624.0	4.7986748864593914e+17
19625.0	4.7979892002433696e+17
19626.0	4.797120876554921e+17
19627.0	4.796227422694057e+17
19628.0	4.7952157488797e+17
19629.0	4.79165736497971e+17
19630.0	4.79158616527121e+17
19631.0	4.7882271848748365e+17
19632.0	4.7913657524988576e+17
19633.0	4.7910039469424634e+17
19634.0	4.790369745808042e+17
19635.0	4.7894360035601043e+17
19636.0	4.7876107913570963e+17
19637.0	4.7864702132988576e+17
19638.0	4.7870257460674554e+17
19639.0	4.7862633194673485e+17
19640.0	4.785171257622528e+17
19641.0	4.783258262831105e+17
19642.0	4.7836658904596474e+17
19643.0	4.7828398747156474e+17
19644.0	4.782001440336553e+17
19645.0	4.7810491096323405e+17
19646.0	4.77919846876228e+17
19647.0	4.779589651922943e+17
19648.0	4.7787748636317005e+17
19649.0	4.7779394827059194e+17
19650.0	4.77711021707537e+17
19651.0	4.7762711283848525e+17
19652.0	4.7754359634657274e+17
19653.0	4.774603935885994e+17
19654.0	4.773766652843349e+17
