# Flux units: erg / (cm m2 s)
# Wavelength units: Angstrom
wave	flux
19000.0	3.044979479587498e+17
19001.0	3.044411309380949e+17
19002.0	3.043866659083605e+17
19003.0	3.0433104408958285e+17
19004.0	3.0427543415466656e+17
19005.0	3.042196423617194e+17
19006.0	3.0416277514922656e+17
19007.0	3.0410867907843405e+17
19008.0	3.040523821165226e+17
19009.0	3.0399586254192634e+17
19010.0	3.0393585778032634e+17
19011.0	3.038859750626645e+17
19012.0	3.0382906751494816e+17
19013.0	3.0377550698687136e+17
19014.0	3.0371975947878394e+17
19015.0	3.0366415761790285e+17
19016.0	3.0360798735892474e+17
19017.0	3.0355361757484365e+17
19018.0	3.034980158188203e+17
19019.0	3.0344247924927136e+17
19020.0	3.0338736424222714e+17
19021.0	3.033319771297109e+17
19022.0	3.0327659263863456e+17
19023.0	3.03221174767889e+17
19024.0	3.031654641347242e+17
19025.0	3.031104146287274e+17
19026.0	3.03054776766737e+17
19027.0	3.029987788237483e+17
19028.0	3.029445429078699e+17
19029.0	3.028892433514496e+17
19030.0	3.0283395920909645e+17
19031.0	3.027786855175509e+17
19032.0	3.0272325562313376e+17
19033.0	3.0266710263070714e+17
19034.0	3.0261293787818656e+17
19035.0	3.0255728278459725e+17
19036.0	3.0241442611855354e+17
19037.0	3.02447301562641e+17
19038.0	3.023921198661632e+17
19039.0	3.0233694509028685e+17
19040.0	3.022817836313258e+17
19041.0	3.0222658728973645e+17
19042.0	3.02166871375872e+17
19043.0	3.02116373598481e+17
19044.0	3.0206126173716474e+17
19045.0	3.0200616120046925e+17
19046.0	3.019503711201962e+17
19047.0	3.0189566565198496e+17
19048.0	3.01837502189841e+17
19049.0	3.0177797480994125e+17
19050.0	3.017301197236906e+17
19051.0	3.0166512807444474e+17
19052.0	3.016184460651178e+17
19053.0	3.0156580894801914e+17
19054.0	3.0151078736909645e+17
19055.0	3.014518688623274e+17
19056.0	3.0140016207680845e+17
19057.0	3.0134592916684794e+17
19058.0	3.012870759863637e+17
19059.0	3.012344612039338e+17
19060.0	3.0118086757580794e+17
19061.0	3.011262475315882e+17
19062.0	3.0107135765381114e+17
19063.0	3.0101647815693645e+17
19064.0	3.0096028399042554e+17
19065.0	3.009048589544106e+17
19066.0	3.008498703357269e+17
19067.0	3.0079704849448954e+17
19068.0	3.007422769310378e+17
19069.0	3.0068747401516365e+17
19070.0	3.0063268200448e+17
19071.0	3.0057789768335354e+17
19072.0	3.0052160813137914e+17
19073.0	3.0046838216895136e+17
19074.0	3.0041364007048525e+17
19075.0	3.0035890982092794e+17
19076.0	3.0030313826549754e+17
19077.0	3.0024920045977594e+17
19078.0	3.0019445325823994e+17
19079.0	3.001401136381952e+17
19080.0	3.0008534703800314e+17
19081.0	3.0003024919265274e+17
19082.0	2.99975654314257e+17
19083.0	2.999207196972373e+17
19084.0	2.998646688710656e+17
19085.0	2.998122298649258e+17
19086.0	2.997522407970133e+17
19087.0	2.9969804762808314e+17
19088.0	2.996459382592853e+17
19089.0	2.995914028001962e+17
19090.0	2.9953942523740154e+17
19091.0	2.99484157837312e+17
19092.0	2.994269041197056e+17
19093.0	2.9937586824806394e+17
19094.0	2.9932137280962554e+17
19095.0	2.9926688607436794e+17
19096.0	2.9921220713512954e+17
19097.0	2.991579056832512e+17
19098.0	2.99101871739153e+17
19099.0	2.990472141559125e+17
19100.0	2.989942517355861e+17
19101.0	2.9894010931773434e+17
19102.0	2.988840892148394e+17
19103.0	2.9883144654028794e+17
19104.0	2.9877707147837434e+17
19105.0	2.9871934873272314e+17
19106.0	2.986682918196565e+17
19107.0	2.9861313270251514e+17
19108.0	2.9855850269682336e+17
19109.0	2.985009088910677e+17
19110.0	2.984509154437802e+17
19111.0	2.9839582476369914e+17
19112.0	2.983406427526485e+17
19113.0	2.982882185663829e+17
19114.0	2.9823341201544525e+17
19115.0	2.981789500615338e+17
19116.0	2.981251456346794e+17
19117.0	2.980711129328298e+17
19118.0	2.980162622018901e+17
19119.0	2.9777908018271546e+17
19120.0	2.979081384973653e+17
19121.0	2.9785409978367994e+17
19122.0	2.978003993056597e+17
19123.0	2.977462545459883e+17
19124.0	2.976921217750357e+17
19125.0	2.9763800211128314e+17
19126.0	2.97583894401297e+17
19127.0	2.9750580593295354e+17
19128.0	2.9747570918031354e+17
19129.0	2.974209297874944e+17
19130.0	2.973674392343893e+17
19131.0	2.9731353704529914e+17
19132.0	2.972595017919146e+17
19133.0	2.972050971951104e+17
19134.0	2.971514649793877e+17
19135.0	2.97097468383505e+17
19136.0	2.9704348077042336e+17
19137.0	2.969874256450901e+17
19138.0	2.9693546772561914e+17
19139.0	2.968815930791253e+17
19140.0	2.9682765492387834e+17
19141.0	2.9677372022893216e+17
19142.0	2.967195512821077e+17
19143.0	2.9666521973609805e+17
19144.0	2.9661182205187405e+17
19145.0	2.9655814404833274e+17
19146.0	2.96497278161169e+17
19147.0	2.964480163403093e+17
19148.0	2.963951215880874e+17
19149.0	2.963412822436522e+17
19150.0	2.9628893407914656e+17
19151.0	2.962351264716117e+17
19152.0	2.9618127171310925e+17
19153.0	2.9612488705529165e+17
19154.0	2.960716949269162e+17
19155.0	2.960200218705919e+17
19156.0	2.9596627735237965e+17
19157.0	2.959115036218709e+17
19158.0	2.958540829010602e+17
19159.0	2.958044567699456e+17
19160.0	2.957513605862741e+17
19161.0	2.956976915655338e+17
19162.0	2.9563720585707514e+17
19163.0	2.9559015964235085e+17
19164.0	2.955366353250987e+17
19165.0	2.9548021955952634e+17
19166.0	2.954276478735701e+17
19167.0	2.953744958007978e+17
19168.0	2.9532224697139194e+17
19169.0	2.952686741050709e+17
19170.0	2.9521509571624954e+17
19171.0	2.951610910812842e+17
19172.0	2.951079679841621e+17
19173.0	2.950544341947733e+17
19174.0	2.950001100936533e+17
19175.0	2.94947291992337e+17
19176.0	2.948938792435712e+17
19177.0	2.948386234127701e+17
19178.0	2.9478594470215674e+17
19179.0	2.947319066875221e+17
19180.0	2.946799749474987e+17
19181.0	2.9462426120355834e+17
19182.0	2.94572529357073e+17
19183.0	2.945196522558805e+17
19184.0	2.944659185030485e+17
19185.0	2.944128620254549e+17
19186.0	2.943594760852821e+17
19187.0	2.943061014697301e+17
19188.0	2.9425273929727994e+17
19189.0	2.941993875057322e+17
19190.0	2.941460484369066e+17
19191.0	2.9409272146165754e+17
19192.0	2.940394064401749e+17
19193.0	2.9398576779318605e+17
19194.0	2.939323409585493e+17
19195.0	2.938795318400341e+17
19196.0	2.938262643889493e+17
19197.0	2.9377300826248525e+17
19198.0	2.937197614683477e+17
19199.0	2.936249840041984e+17
19200.0	2.935840295616512e+17
19201.0	2.9355998560911354e+17
19202.0	2.93506908754193e+17
19203.0	2.9345372375613434e+17
19204.0	2.9340021569181005e+17
19205.0	2.933473586883242e+17
19206.0	2.932941884402347e+17
19207.0	2.932397288630954e+17
19208.0	2.9318470682978976e+17
19209.0	2.9313486636974074e+17
19210.0	2.9308176567719245e+17
19211.0	2.930286764141226e+17
19212.0	2.9296655513681914e+17
19213.0	2.9290758367696205e+17
19214.0	2.92853730840849e+17
19215.0	2.9280205012991994e+17
19216.0	2.927491941750101e+17
19217.0	2.926961840794282e+17
19218.0	2.9263285236094285e+17
19219.0	2.9258873055477754e+17
19220.0	2.92537183047953e+17
19221.0	2.9248030360207354e+17
19222.0	2.924311296169301e+17
19223.0	2.923783575131477e+17
19224.0	2.9232508967758496e+17
19225.0	2.9227075648880634e+17
19226.0	2.922196182761472e+17
19227.0	2.921667262851754e+17
19228.0	2.921138457236821e+17
19229.0	2.92060976976145e+17
19230.0	2.920081200775168e+17
19231.0	2.919552735597909e+17
19232.0	2.9190232676324685e+17
19233.0	2.9184884015977805e+17
19234.0	2.9179651391051085e+17
19235.0	2.917440114655232e+17
19236.0	2.9169122069708794e+17
19237.0	2.9163844471357434e+17
19238.0	2.9158453266786976e+17
19239.0	2.915329150113109e+17
19240.0	2.9148019530137594e+17
19241.0	2.914274674125482e+17
19242.0	2.913746704225621e+17
19243.0	2.9132051783352314e+17
19244.0	2.9126935372103674e+17
19245.0	2.9121667326279674e+17
19246.0	2.9116400255631354e+17
19247.0	2.911113469143722e+17
19248.0	2.9105869920665594e+17
19249.0	2.910059970778453e+17
19250.0	2.9095287055537485e+17
19251.0	2.908988703244288e+17
19252.0	2.9084555491846816e+17
19253.0	2.907954423179946e+17
19254.0	2.9074307293730125e+17
19255.0	2.906887225868287e+17
19256.0	2.9063744323583994e+17
19257.0	2.9058541782302714e+17
19258.0	2.9053288972287994e+17
19259.0	2.904796828445354e+17
19260.0	2.9042575318275405e+17
19261.0	2.9037537462845434e+17
19262.0	2.9032253611485856e+17
19263.0	2.902694536325802e+17
19264.0	2.9021044407446176e+17
19265.0	2.9016214599980365e+17
19266.0	2.901075086191274e+17
19267.0	2.9006034370559994e+17
19268.0	2.9000792927109114e+17
19269.0	2.8995552490291194e+17
19270.0	2.8990309882920954e+17
19271.0	2.8984609131724794e+17
19272.0	2.8979793976360954e+17
19273.0	2.8973755384463354e+17
19274.0	2.8968684684137805e+17
19275.0	2.896413491636906e+17
19276.0	2.8958878314004474e+17
19277.0	2.8953671623857485e+17
19278.0	2.894843733519018e+17
19279.0	2.894320969449472e+17
19280.0	2.893790141830485e+17
19281.0	2.893275792583338e+17
19282.0	2.8927533755924474e+17
19283.0	2.8922249188037965e+17
19284.0	2.891708405994837e+17
19285.0	2.891168119870805e+17
19286.0	2.8906607705675085e+17
19287.0	2.89014235599121e+17
19288.0	2.8893509152931834e+17
19289.0	2.888545072403796e+17
19290.0	2.8885772937461754e+17
19291.0	2.888028936383146e+17
19292.0	2.887534234654037e+17
19293.0	2.887013173471914e+17
19294.0	2.886492018966528e+17
19295.0	2.88597098889216e+17
19296.0	2.885436021495125e+17
19297.0	2.88492496687377e+17
19298.0	2.8844085812920314e+17
19299.0	2.8838711616252576e+17
19300.0	2.8833643415033165e+17
19301.0	2.882847204791637e+17
19302.0	2.8823243949342714e+17
19303.0	2.881798502263466e+17
19304.0	2.8812827416330234e+17
19305.0	2.8807669848473597e+17
19306.0	2.8802472172584957e+17
19307.0	2.879721557022037e+17
19308.0	2.8792069288536746e+17
19309.0	2.8786726503710717e+17
19310.0	2.8781476147363834e+17
19311.0	2.8776440112960845e+17
19312.0	2.8771309255830182e+17
19313.0	2.876611808460799e+17
19314.0	2.8733638159892502e+17
19315.0	2.8729452296929286e+17
19316.0	2.8750349668625062e+17
19317.0	2.8745363626830502e+17
19318.0	2.874018809686698e+17
19319.0	2.873500534920533e+17
19320.0	2.872974988629333e+17
19321.0	2.8724516904850778e+17
19322.0	2.8719374719604048e+17
19323.0	2.8714223963996154e+17
19324.0	2.8709110579636906e+17
19325.0	2.8703791611467085e+17
19326.0	2.869875965952e+17
19327.0	2.869355305675434e+17
19328.0	2.868811445654869e+17
19329.0	2.868324099686399e+17
19330.0	2.867802584820394e+17
19331.0	2.8672852328011085e+17
19332.0	2.8667725084972365e+17
19333.0	2.8662565556278608e+17
19334.0	2.8657370938736637e+17
19335.0	2.8651648943390717e+17
19336.0	2.8647049658367994e+17
19337.0	2.8641907522054822e+17
19338.0	2.8636492721029117e+17
19339.0	2.863158579778901e+17
19340.0	2.8626036848940365e+17
19341.0	2.8620906624450557e+17
19342.0	2.8615570166033056e+17
19343.0	2.8610954981102928e+17
19344.0	2.8605592933935782e+17
19345.0	2.8597880818237434e+17
19346.0	2.8594125696314022e+17
19347.0	2.858998637963946e+17
19348.0	2.858519071730347e+17
19349.0	2.8580040922890237e+17
19350.0	2.8574766281523194e+17
19351.0	2.8569704637399037e+17
19352.0	2.8564215478353914e+17
19353.0	2.8559442419821222e+17
19354.0	2.8554309437576525e+17
19355.0	2.8549064135365968e+17
19356.0	2.8544024728043517e+17
19357.0	2.8538883870993062e+17
19358.0	2.853374229741568e+17
19359.0	2.8528492570214397e+17
19360.0	2.8523229976985587e+17
19361.0	2.851828358534485e+17
19362.0	2.8513195136122874e+17
19363.0	2.8508056543996576e+17
19364.0	2.8502918668397213e+17
19365.0	2.8497794466228896e+17
19366.0	2.8492662787713706e+17
19367.0	2.848753243040426e+17
19368.0	2.8482402967879674e+17
19369.0	2.8477235316217168e+17
19370.0	2.8472131106897914e+17
19371.0	2.8466961270702074e+17
19372.0	2.8461893702123514e+17
19373.0	2.845677051357866e+17
19374.0	2.8451646965022714e+17
19375.0	2.8446524454557008e+17
19376.0	2.844140276198058e+17
19377.0	2.8436282086522874e+17
19378.0	2.843116238624085e+17
19379.0	2.842604361919146e+17
19380.0	2.842092572246016e+17
19381.0	2.8415806913467728e+17
19382.0	2.8410616472753488e+17
19383.0	2.8405439198658554e+17
19384.0	2.840043059849898e+17
19385.0	2.8395347521481382e+17
19386.0	2.839023656282794e+17
19387.0	2.8385124513655456e+17
19388.0	2.8380013334801056e+17
19389.0	2.837490098503679e+17
19390.0	2.8369792850548048e+17
19391.0	2.835669922960724e+17
19392.0	2.8359309628101968e+17
19393.0	2.835446794376533e+17
19394.0	2.8349360952224426e+17
19395.0	2.8344173832000848e+17
19396.0	2.8339117186088957e+17
19397.0	2.8334039844782077e+17
19398.0	2.8328823720946342e+17
19399.0	2.8322701134615888e+17
19400.0	2.831853715543381e+17
19401.0	2.8313617530443088e+17
19402.0	2.8308519311988048e+17
19403.0	2.8303415749290666e+17
19404.0	2.8298311284817914e+17
19405.0	2.8293207512405322e+17
19406.0	2.8288102160138234e+17
19407.0	2.828288856337066e+17
19408.0	2.8276753530443088e+17
19409.0	2.8272775152708266e+17
19410.0	2.8267680272220154e+17
19411.0	2.826257252570453e+17
19412.0	2.825745797393066e+17
19413.0	2.825224363966463e+17
19414.0	2.8247191750792525e+17
19415.0	2.824212660791979e+17
19416.0	2.8236829691303245e+17
19417.0	2.823185567318015e+17
19418.0	2.8226766832489808e+17
19419.0	2.8221639788680525e+17
19420.0	2.8216507921421648e+17
19421.0	2.8211370769339734e+17
19422.0	2.8206173575796048e+17
19423.0	2.8201075839685965e+17
19424.0	2.8195916080305488e+17
19425.0	2.8190745926041594e+17
19426.0	2.8185563503438506e+17
19427.0	2.818036667340117e+17
19428.0	2.8175152569821866e+17
19429.0	2.81699177463808e+17
19430.0	2.816448396612949e+17
19431.0	2.8158004007621968e+17
19432.0	2.8154040369370448e+17
19433.0	2.8148667347107834e+17
19434.0	2.81432367370513e+17
19435.0	2.8137506443973968e+17
19436.0	2.8131466086973434e+17
19437.0	2.8126167492635302e+17
19438.0	2.8101948361495894e+17
19439.0	2.8113052582106448e+17
19440.0	2.8107695323436365e+17
19441.0	2.8100868653274448e+17
19442.0	2.8093375378882554e+17
19443.0	2.8084881801434445e+17
19444.0	2.8074757908507302e+17
19445.0	2.8061767103938557e+17
19446.0	2.8043207322719568e+17
19447.0	2.801208254966442e+17
19448.0	2.794417155298646e+17
19449.0	2.7274905481379965e+17
19450.0	2.2587446737414605e+17
19451.0	1.9945943144420637e+17
19452.0	2.405995296500393e+17
19453.0	2.765776418242577e+17
19454.0	2.7936633175845542e+17
19455.0	2.7980527944335354e+17
19456.0	2.799725985486165e+17
19457.0	2.8003911405841062e+17
19458.0	2.790055306330123e+17
19459.0	2.7997430877607286e+17
19460.0	2.8003589702724266e+17
19461.0	2.800085330034687e+17
19462.0	2.7997480171165008e+17
19463.0	2.7993735594420906e+17
19464.0	2.798970323948885e+17
19465.0	2.7985466370293757e+17
19466.0	2.7981045458534397e+17
19467.0	2.797657954538837e+17
19468.0	2.7971998928513706e+17
19469.0	2.796675639454378e+17
19470.0	2.7962621985204896e+17
19471.0	2.795789046426282e+17
19472.0	2.7953039828582394e+17
19473.0	2.7948456310647462e+17
19474.0	2.7943531711911242e+17
19475.0	2.793755708314965e+17
19476.0	2.7933907388552525e+17
19477.0	2.7929092537275725e+17
19478.0	2.7924234295924045e+17
19479.0	2.791910983510698e+17
19480.0	2.7914373032837114e+17
19481.0	2.7909367085574822e+17
19482.0	2.790455591479978e+17
19483.0	2.7899620907199142e+17
19484.0	2.7894667493594448e+17
19485.0	2.7889652402749437e+17
19486.0	2.7884494999169702e+17
19487.0	2.7879838898804045e+17
19488.0	2.7874890382049277e+17
19489.0	2.7869685299718822e+17
19490.0	2.7862959037699408e+17
19491.0	2.7859980071731194e+17
19492.0	2.7854825803393702e+17
19493.0	2.784981608125781e+17
19494.0	2.7844856554455034e+17
19495.0	2.78398961783057e+17
19496.0	2.783426887636309e+17
19497.0	2.782993321732778e+17
19498.0	2.782366728716287e+17
19499.0	2.780723047038975e+17
19500.0	2.7815079778276685e+17
19501.0	2.781036510096042e+17
19502.0	2.780553928856917e+17
19503.0	2.7800564260317862e+17
19504.0	2.779559031209984e+17
19505.0	2.7790617391486288e+17
19506.0	2.778564069599914e+17
19507.0	2.778064312336384e+17
19508.0	2.777570531956053e+17
19509.0	2.777073638353578e+17
19510.0	2.7765480001372154e+17
19511.0	2.771841822578004e+17
19512.0	2.775355653182805e+17
19513.0	2.7746911412114762e+17
19514.0	2.7743082952785914e+17
19515.0	2.774029313245184e+17
19516.0	2.7735917959577594e+17
19517.0	2.773091252262229e+17
19518.0	2.7726001985290237e+17
19519.0	2.7721043066661542e+17
19520.0	2.771592699445247e+17
19521.0	2.7711187388989434e+17
19522.0	2.7706214527795194e+17
19523.0	2.7701220894310397e+17
19524.0	2.7696192923456854e+17
19525.0	2.7691383538756256e+17
19526.0	2.7686433795167568e+17
19527.0	2.768146682697045e+17
19528.0	2.7676519477630282e+17
19529.0	2.7671568028357968e+17
19530.0	2.7666645159772154e+17
19531.0	2.766170071149226e+17
19532.0	2.765675738518869e+17
19533.0	2.7651815117946874e+17
19534.0	2.7646874014624426e+17
19535.0	2.764193392842069e+17
19536.0	2.763695648145408e+17
19537.0	2.763205689125546e+17
19538.0	2.762672824472917e+17
19539.0	2.7621453613847885e+17
19540.0	2.7617249149146448e+17
19541.0	2.7612279454651725e+17
19542.0	2.7607365383618554e+17
19543.0	2.7602255270816416e+17
19544.0	2.759750339701418e+17
19545.0	2.7591895511203834e+17
19546.0	2.758647221671253e+17
19547.0	2.7582738125728426e+17
19548.0	2.7577804722449066e+17
19549.0	2.7572788754295462e+17
19550.0	2.7567963459201702e+17
19551.0	2.756304088771242e+17
19552.0	2.7558119301884586e+17
19553.0	2.7553183707081386e+17
19554.0	2.7548223841239037e+17
19555.0	2.754333900100949e+17
19556.0	2.7538430788020896e+17
19557.0	2.7533527608197117e+17
19558.0	2.7528612443149648e+17
19559.0	2.7523698407069008e+17
19560.0	2.7518715112543568e+17
19561.0	2.7513873491121488e+17
19562.0	2.7508892625797114e+17
19563.0	2.7504052877830822e+17
19564.0	2.7499144532022608e+17
19565.0	2.7494236979636906e+17
19566.0	2.7489303419071142e+17
19567.0	2.7484423314909862e+17
19568.0	2.7479520792193702e+17
19569.0	2.747460455759871e+17
19570.0	2.746971543917909e+17
19571.0	2.7464807677078182e+17
19572.0	2.7459886849720317e+17
19573.0	2.745497435854165e+17
19574.0	2.7450018987595088e+17
19575.0	2.7445219183383885e+17
19576.0	2.7440313640768848e+17
19577.0	2.743538064643413e+17
19578.0	2.7430475282077008e+17
19579.0	2.7425619641193808e+17
19580.0	2.7420725902049274e+17
19581.0	2.7415840866085542e+17
19582.0	2.7410973708342608e+17
19583.0	2.7406085711899302e+17
19584.0	2.7401185254877862e+17
19585.0	2.7396189178210982e+17
19586.0	2.739127762725546e+17
19587.0	2.7386543813427194e+17
19588.0	2.7381014633731408e+17
19589.0	2.7376762696499197e+17
19590.0	2.7371709461954554e+17
19591.0	2.7367016444723194e+17
19592.0	2.7362137532443296e+17
19593.0	2.735724531722922e+17
19594.0	2.7352116679584422e+17
19595.0	2.7347445836240205e+17
19596.0	2.734263716107605e+17
19597.0	2.7337763390313805e+17
19598.0	2.733200115062101e+17
19599.0	2.7328020340189862e+17
19600.0	2.7323151784345594e+17
19601.0	2.731819998554794e+17
19602.0	2.7313337647759357e+17
19603.0	2.7307947802842448e+17
19604.0	2.7303617959908688e+17
19605.0	2.7298484624643405e+17
19606.0	2.7293955132839248e+17
19607.0	2.728909274611712e+17
19608.0	2.7284231324084906e+17
19609.0	2.727933958772053e+17
19610.0	2.7274402399081808e+17
19611.0	2.7269499722574506e+17
19612.0	2.726479655862271e+17
19613.0	2.725994022917461e+17
19614.0	2.725504288991914e+17
19615.0	2.7250227507363834e+17
19616.0	2.7245202794086394e+17
19617.0	2.7240346104627194e+17
19618.0	2.7234850580725757e+17
19619.0	2.7229783445558602e+17
19620.0	2.722497174000981e+17
19621.0	2.7220941359895888e+17
19622.0	2.721628409211563e+17
19623.0	2.7211429999629648e+17
19624.0	2.720657004560384e+17
19625.0	2.7201750318448637e+17
19626.0	2.7196909154904742e+17
19627.0	2.7192067026670925e+17
19628.0	2.7187111533390506e+17
19629.0	2.718178871345151e+17
19630.0	2.7177191487133008e+17
19631.0	2.716820212547584e+17
19632.0	2.7167878356664317e+17
19633.0	2.7163018290790394e+17
19634.0	2.7158209730969597e+17
19635.0	2.7153328351040848e+17
19636.0	2.7148325755726506e+17
19637.0	2.7143169495094608e+17
19638.0	2.713882866657962e+17
19639.0	2.7134051158589434e+17
19640.0	2.7128944565507408e+17
19641.0	2.7122179292965546e+17
19642.0	2.7119563560714234e+17
19643.0	2.7114740562001914e+17
19644.0	2.7109853614134608e+17
19645.0	2.7104722421459622e+17
19646.0	2.7100042105978874e+17
19647.0	2.7095449626214397e+17
19648.0	2.7090649339658234e+17
19649.0	2.7085831566349648e+17
19650.0	2.7081014946474656e+17
19651.0	2.7076199154974717e+17
