# Flux units: erg / (cm m2 s)
# Wavelength units: Angstrom
wave	flux
19000.0	7.161718678836564e+17
19001.0	7.160145620500479e+17
19002.0	7.159020295727785e+17
19003.0	7.157655019017556e+17
19004.0	7.156300847426217e+17
19005.0	7.154939085542739e+17
19006.0	7.15358746129203e+17
19007.0	7.152142397734911e+17
19008.0	7.150706767167487e+17
19009.0	7.149464598872064e+17
19010.0	7.14706259367253e+17
19011.0	7.146762931623254e+17
19012.0	7.145200633075028e+17
19013.0	7.144096082690045e+17
19014.0	7.142601589260287e+17
19015.0	7.141312700612607e+17
19016.0	7.139942688533161e+17
19017.0	7.137963905384447e+17
19018.0	7.137308504839506e+17
19019.0	7.1359597145402e+17
19020.0	7.134444854968319e+17
19021.0	7.13317248069359e+17
19022.0	7.131924596959913e+17
19023.0	7.130476319167828e+17
19024.0	7.129176301633536e+17
19025.0	7.127851362942973e+17
19026.0	7.12645985645363e+17
19027.0	7.125128609529855e+17
19028.0	7.123816587897514e+17
19029.0	7.122427827279187e+17
19030.0	7.121141650948093e+17
19031.0	7.119803100342953e+17
19032.0	7.118446960224938e+17
19033.0	7.116883659238057e+17
19034.0	7.115702360080383e+17
19035.0	7.1143146941754e+17
19036.0	7.106438062495055e+17
19037.0	7.11167252312883e+17
19038.0	7.110296303479466e+17
19039.0	7.10898989802018e+17
19040.0	7.107653411012607e+17
19041.0	7.106292563487402e+17
19042.0	7.10474983416354e+17
19043.0	7.103604733247487e+17
19044.0	7.102236935760553e+17
19045.0	7.100916567463251e+17
19046.0	7.099422609506301e+17
19047.0	7.098218866627923e+17
19048.0	7.096383356709544e+17
19049.0	7.095356645616297e+17
19050.0	7.094064618231123e+17
19051.0	7.091843338600444e+17
19052.0	7.091419403517952e+17
19053.0	7.090105048454484e+17
19054.0	7.088776080435881e+17
19055.0	7.086856803276119e+17
19056.0	7.086037350918825e+17
19057.0	7.084737839497216e+17
19058.0	7.083339051696127e+17
19059.0	7.082054635574612e+17
19060.0	7.080668130093736e+17
19061.0	7.079381646180351e+17
19062.0	7.078021703226708e+17
19063.0	7.076689765640874e+17
19064.0	7.075043694258858e+17
19065.0	7.073570162562387e+17
19066.0	7.072509044195327e+17
19067.0	7.071286541593258e+17
19068.0	7.069970809399978e+17
19069.0	7.068632268581545e+17
19070.0	7.067222119809024e+17
19071.0	7.065936439803904e+17
19072.0	7.064608820953087e+17
19073.0	7.063247397410132e+17
19074.0	7.06192885363507e+17
19075.0	7.060589938125481e+17
19076.0	7.059195348822697e+17
19077.0	7.057887040547496e+17
19078.0	7.05635908915473e+17
19079.0	7.055218369888255e+17
19080.0	7.053851321783636e+17
19081.0	7.052421858241194e+17
19082.0	7.051028602727081e+17
19083.0	7.049588705154387e+17
19084.0	7.047939813801981e+17
19085.0	7.047154743552681e+17
19086.0	7.044915856233811e+17
19087.0	7.04433012028211e+17
19088.0	7.042998116985513e+17
19089.0	7.041299609812992e+17
19090.0	7.040412738213203e+17
19091.0	7.039086309146623e+17
19092.0	7.037630772412415e+17
19093.0	7.036471059939327e+17
19094.0	7.035122094178303e+17
19095.0	7.033791938472617e+17
19096.0	7.032415620257107e+17
19097.0	7.031135148878506e+17
19098.0	7.029790010419881e+17
19099.0	7.028434652539561e+17
19100.0	7.027111414639274e+17
19101.0	7.025793463659178e+17
19102.0	7.024259612977832e+17
19103.0	7.023109505460905e+17
19104.0	7.021793225211903e+17
19105.0	7.020444688667988e+17
19106.0	7.019080050890067e+17
19107.0	7.017742357321043e+17
19108.0	7.016456545195347e+17
19109.0	7.014407645866665e+17
19110.0	7.013786558922751e+17
19111.0	7.012452945712468e+17
19112.0	7.011124815855615e+17
19113.0	7.009785665465e+17
19114.0	7.008448582866259e+17
19115.0	7.007009501085695e+17
19116.0	7.005739040112639e+17
19117.0	7.004418549481471e+17
19118.0	7.002900419750569e+17
19119.0	6.996559832372557e+17
19120.0	7.000384251887615e+17
19121.0	6.999108520771583e+17
19122.0	6.997807728689151e+17
19123.0	6.996410998194175e+17
19124.0	6.995105417614675e+17
19125.0	6.993799740566185e+17
19126.0	6.992446151983103e+17
19127.0	6.987410423764302e+17
19128.0	6.989156416749565e+17
19129.0	6.98827958980881e+17
19130.0	6.987138003719508e+17
19131.0	6.98581934809634e+17
19132.0	6.984501631997268e+17
19133.0	6.98153314340045e+17
19134.0	6.981524886913023e+17
19135.0	6.98052114592563e+17
19136.0	6.979208693678079e+17
19137.0	6.977515416802644e+17
19138.0	6.976413092194985e+17
19139.0	6.975224520813226e+17
19140.0	6.973898910334975e+17
19141.0	6.972572978992467e+17
19142.0	6.971185385788755e+17
19143.0	6.969781655699456e+17
19144.0	6.96849523609873e+17
19145.0	6.967260856625833e+17
19146.0	6.96459612581615e+17
19147.0	6.964421536514045e+17
19148.0	6.963287980419753e+17
19149.0	6.961956323852287e+17
19150.0	6.960615267849556e+17
19151.0	6.959310623997951e+17
19152.0	6.957916539409748e+17
19153.0	6.956625341098665e+17
19154.0	6.955064202974547e+17
19155.0	6.954030171422719e+17
19156.0	6.952700057660073e+17
19157.0	6.951366403904852e+17
19158.0	6.94954862261043e+17
19159.0	6.948695050988202e+17
19160.0	6.947296637878272e+17
19161.0	6.946017201094655e+17
19162.0	6.943648908312576e+17
19163.0	6.943443554489684e+17
19164.0	6.942136477242708e+17
19165.0	6.940779844293972e+17
19166.0	6.939249726543188e+17
19167.0	6.93806598979584e+17
19168.0	6.936411551476393e+17
19169.0	6.93529761423906e+17
19170.0	6.934210433165994e+17
19171.0	6.932829772447743e+17
19172.0	6.931557180069204e+17
19173.0	6.930252282462207e+17
19174.0	6.92880202076433e+17
19175.0	6.927611162088787e+17
19176.0	6.926281259439444e+17
19177.0	6.924634904941908e+17
19178.0	6.923644257173503e+17
19179.0	6.922262114467839e+17
19180.0	6.920794200342528e+17
19181.0	6.919470603829247e+17
19182.0	6.918010611346092e+17
19183.0	6.917044735137107e+17
19184.0	6.915355600136873e+17
19185.0	6.91438331503138e+17
19186.0	6.913112017993727e+17
19187.0	6.911595470214483e+17
19188.0	6.910467543575209e+17
19189.0	6.909136457433087e+17
19190.0	6.907818172306772e+17
19191.0	6.906445777862656e+17
19192.0	6.905166698293929e+17
19193.0	6.903664334252713e+17
19194.0	6.902423248786771e+17
19195.0	6.901204336508927e+17
19196.0	6.899870675064148e+17
19197.0	6.898576602256724e+17
19198.0	6.897273383769428e+17
19199.0	6.889146008906408e+17
19200.0	6.890278563960152e+17
19201.0	6.893334519873535e+17
19202.0	6.892028475823444e+17
19203.0	6.890703737760425e+17
19204.0	6.889337109086207e+17
19205.0	6.888053835912532e+17
19206.0	6.886727051029161e+17
19207.0	6.885256680439807e+17
19208.0	6.883645330904403e+17
19209.0	6.882783434287785e+17
19210.0	6.881476018700287e+17
19211.0	6.880172758269951e+17
19212.0	6.878885427107155e+17
19213.0	6.877325709453993e+17
19214.0	6.8759842731677e+17
19215.0	6.874930297700351e+17
19216.0	6.873484710554281e+17
19217.0	6.872300469791402e+17
19218.0	6.86917655426935e+17
19219.0	6.869305904507561e+17
19220.0	6.868300069164371e+17
19221.0	6.866291768601257e+17
19222.0	6.865732004478975e+17
19223.0	6.864361559687168e+17
19224.0	6.862762883241299e+17
19225.0	6.861392255298217e+17
19226.0	6.86041551933713e+17
19227.0	6.859100486893567e+17
19228.0	6.857855333651796e+17
19229.0	6.856543331592874e+17
19230.0	6.855167226587817e+17
19231.0	6.85384132530449e+17
19232.0	6.852387441126057e+17
19233.0	6.85112339604002e+17
19234.0	6.849919071551487e+17
19235.0	6.848579908577961e+17
19236.0	6.847359883411456e+17
19237.0	6.84600410120738e+17
19238.0	6.844526731023699e+17
19239.0	6.843430120456191e+17
19240.0	6.841259577223849e+17
19241.0	6.840515588085075e+17
19242.0	6.839393002891946e+17
19243.0	6.837731678224383e+17
19244.0	6.836847809746259e+17
19245.0	6.83553054663202e+17
19246.0	6.834193278784851e+17
19247.0	6.832867000713215e+17
19248.0	6.83161181889058e+17
19249.0	6.830296989870761e+17
19250.0	6.82893804376337e+17
19251.0	6.82745735099187e+17
19252.0	6.825513355400532e+17
19253.0	6.82499332252194e+17
19254.0	6.823601848188927e+17
19255.0	6.821923036768937e+17
19256.0	6.821049643565055e+17
19257.0	6.8197809665693e+17
19258.0	6.818462066977449e+17
19259.0	6.816966024451412e+17
19260.0	6.815734687247017e+17
19261.0	6.814499151544319e+17
19262.0	6.813065579681107e+17
19263.0	6.811785646571519e+17
19264.0	6.809410515675816e+17
19265.0	6.80883997848371e+17
19266.0	6.80765201457698e+17
19267.0	6.806635734018729e+17
19268.0	6.805299966334291e+17
19269.0	6.803982708812457e+17
19270.0	6.802668236308479e+17
19271.0	6.800622473620141e+17
19272.0	6.799955106026836e+17
19273.0	6.77752634920138e+17
19274.0	6.787256608795292e+17
19275.0	6.796083795591168e+17
19276.0	6.794718603466067e+17
19277.0	6.793396218407593e+17
19278.0	6.792087926210559e+17
19279.0	6.790616037283155e+17
19280.0	6.7892372584093e+17
19281.0	6.788110325121023e+17
19282.0	6.786821229554346e+17
19283.0	6.785391573073919e+17
19284.0	6.783890470120105e+17
19285.0	6.782307626472787e+17
19286.0	6.78144217378543e+17
19287.0	6.78019845988898e+17
19288.0	6.777369099851091e+17
19289.0	6.772934882361334e+17
19290.0	6.776213693530111e+17
19291.0	6.774261612019713e+17
19292.0	6.773548408373247e+17
19293.0	6.772201197229396e+17
19294.0	6.770858241206953e+17
19295.0	6.769552681598975e+17
19296.0	6.768201162205865e+17
19297.0	6.766810130371923e+17
19298.0	6.765469813964799e+17
19299.0	6.764199779412649e+17
19300.0	6.762862342395219e+17
19301.0	6.761496809133395e+17
19302.0	6.760146681550164e+17
19303.0	6.758587440649556e+17
19304.0	6.757313847230464e+17
19305.0	6.756094565853866e+17
19306.0	6.754765949457747e+17
19307.0	6.753304488269139e+17
19308.0	6.752015227027455e+17
19309.0	6.750511225809578e+17
19310.0	6.749010872238079e+17
19311.0	6.747930390866602e+17
19312.0	6.746582715553108e+17
19313.0	6.744805187693228e+17
19314.0	6.741689315448142e+17
19315.0	6.740480486277125e+17
19316.0	6.741210360184832e+17
19317.0	6.739820204960426e+17
19318.0	6.738440258671955e+17
19319.0	6.737107733883561e+17
19320.0	6.735616140815017e+17
19321.0	6.734357977541289e+17
19322.0	6.732618181640191e+17
19323.0	6.731470183858175e+17
19324.0	6.730202962984959e+17
19325.0	6.728678536904701e+17
19326.0	6.727428574194346e+17
19327.0	6.726003883070803e+17
19328.0	6.724650476939946e+17
19329.0	6.723248237925716e+17
19330.0	6.721747527139327e+17
19331.0	6.720338215829503e+17
19332.0	6.71900309197073e+17
19333.0	6.717523224778068e+17
19334.0	6.715983824333481e+17
19335.0	6.714714683168084e+17
19336.0	6.713284243750911e+17
19337.0	6.711830590259199e+17
19338.0	6.709939606476115e+17
19339.0	6.708967926049449e+17
19340.0	6.707403087850153e+17
19341.0	6.706061639679997e+17
19342.0	6.703636695831891e+17
19343.0	6.703129458376703e+17
19344.0	6.701621167084884e+17
19345.0	6.695499340622493e+17
19346.0	6.697488630502742e+17
19347.0	6.697003104862207e+17
19348.0	6.695666257144489e+17
19349.0	6.694080615896403e+17
19350.0	6.692592831954943e+17
19351.0	6.691034810198697e+17
19352.0	6.689437054402559e+17
19353.0	6.688077189742591e+17
19354.0	6.686519987273727e+17
19355.0	6.684745048697514e+17
19356.0	6.683402986061823e+17
19357.0	6.681803747579219e+17
19358.0	6.680044777417385e+17
19359.0	6.677460944945153e+17
19360.0	6.676928234083668e+17
19361.0	6.675213045465087e+17
19362.0	6.673711735592276e+17
19363.0	6.672052203989674e+17
19364.0	6.67036724302097e+17
19365.0	6.66868715233826e+17
19366.0	6.667006396858367e+17
19367.0	6.665293054432596e+17
19368.0	6.6635618072221e+17
19369.0	6.661390952912212e+17
19370.0	6.657383482785791e+17
19371.0	6.658122867976874e+17
19372.0	6.656440977937748e+17
19373.0	6.654537917355348e+17
19374.0	6.652701667142314e+17
19375.0	6.650773163212799e+17
19376.0	6.648858176826025e+17
19377.0	6.64691014771234e+17
19378.0	6.644953400737791e+17
19379.0	6.642942097752063e+17
19380.0	6.640924999636308e+17
19381.0	6.638823742810793e+17
19382.0	6.636444504992425e+17
19383.0	6.63417572766515e+17
19384.0	6.632246160479571e+17
19385.0	6.630012325199871e+17
19386.0	6.627746533517993e+17
19387.0	6.625418473198931e+17
19388.0	6.622995666348714e+17
19389.0	6.620487299192148e+17
19390.0	6.617998928379901e+17
19391.0	6.609657317556215e+17
19392.0	6.612780290058921e+17
19393.0	6.609959910724948e+17
19394.0	6.60707286922035e+17
19395.0	6.604237905592319e+17
19396.0	6.601189642731519e+17
19397.0	6.598165067901609e+17
19398.0	6.59501530288401e+17
19399.0	6.590140512905896e+17
19400.0	6.588162201616383e+17
19401.0	6.584641036571988e+17
19402.0	6.581067025394346e+17
19403.0	6.577317000249341e+17
19404.0	6.573483116287316e+17
19405.0	6.569203642051241e+17
19406.0	6.565068997132288e+17
19407.0	6.560777465670314e+17
19408.0	6.55446697871497e+17
19409.0	6.550950261729961e+17
19410.0	6.546152855262548e+17
19411.0	6.540698780172287e+17
19412.0	6.535157760655359e+17
19413.0	6.529084747502934e+17
19414.0	6.522580677339817e+17
19415.0	6.515840527280809e+17
19416.0	6.508286026536275e+17
19417.0	6.500752874799101e+17
19418.0	6.492581672255487e+17
19419.0	6.48342591766528e+17
19420.0	6.474453735178237e+17
19421.0	6.465631959733588e+17
19422.0	6.455817853206527e+17
19423.0	6.445798437595817e+17
19424.0	6.434665883762687e+17
19425.0	6.423048774571348e+17
19426.0	6.410080665381545e+17
19427.0	6.395848255952212e+17
19428.0	6.381174207982249e+17
19429.0	6.364469779234813e+17
19430.0	6.345755314181459e+17
19431.0	6.323770186792964e+17
19432.0	6.301538333665958e+17
19433.0	6.279616987660288e+17
19434.0	6.25708448682257e+17
19435.0	6.232359354848595e+17
19436.0	6.204821532398934e+17
19437.0	6.174944281668265e+17
19438.0	6.13433584333619e+17
19439.0	6.101326233949523e+17
19440.0	6.054774152276652e+17
19441.0	6.008598844932092e+17
19442.0	5.960308914214231e+17
19443.0	5.905191089296724e+17
19444.0	5.839993146004815e+17
19445.0	5.763832520288942e+17
19446.0	5.683721355132928e+17
19447.0	5.5875612456604954e+17
19448.0	5.4752690118328365e+17
19449.0	5.323382305674581e+17
19450.0	4.984861409061517e+17
19451.0	4.850813391689041e+17
19452.0	5.180975125714267e+17
19453.0	5.4076599071757715e+17
19454.0	5.5292558615510976e+17
19455.0	5.631648014008317e+17
19456.0	5.7161401436733466e+17
19457.0	5.791335821519529e+17
19458.0	5.857995028867759e+17
19459.0	5.917777943243434e+17
19460.0	5.966837924407974e+17
19461.0	6.010405800028842e+17
19462.0	6.055946718194346e+17
19463.0	6.096229075954344e+17
19464.0	6.130347276238847e+17
19465.0	6.160030792766806e+17
19466.0	6.185910741762045e+17
19467.0	6.209610266443775e+17
19468.0	6.230617897304064e+17
19469.0	6.247201879621631e+17
19470.0	6.270497030755667e+17
19471.0	6.290457309653677e+17
19472.0	6.307472636291754e+17
19473.0	6.322531005541033e+17
19474.0	6.33591051653393e+17
19475.0	6.34635764909124e+17
19476.0	6.358513837495635e+17
19477.0	6.368361428549631e+17
19478.0	6.377212882190335e+17
19479.0	6.385245469278208e+17
19480.0	6.392631256940541e+17
19481.0	6.399419258415785e+17
19482.0	6.40568196735522e+17
19483.0	6.412377366986751e+17
19484.0	6.418491579389267e+17
19485.0	6.423850827557546e+17
19486.0	6.42879513952256e+17
19487.0	6.433265985170089e+17
19488.0	6.437599826673663e+17
19489.0	6.441096841614676e+17
19490.0	6.441659630529189e+17
19491.0	6.447254214803455e+17
19492.0	6.450245621077331e+17
19493.0	6.452544428223145e+17
19494.0	6.454827259265023e+17
19495.0	6.456665844307284e+17
19496.0	6.457741373603837e+17
19497.0	6.460141436840617e+17
19498.0	6.461532839171412e+17
19499.0	6.453441069055988e+17
19500.0	6.464190992613376e+17
19501.0	6.465225530277887e+17
19502.0	6.466258323810985e+17
19503.0	6.467106985301332e+17
19504.0	6.467833399607295e+17
19505.0	6.468451345716563e+17
19506.0	6.468988824103594e+17
19507.0	6.469421547651071e+17
19508.0	6.469768250217812e+17
19509.0	6.470061062269609e+17
19510.0	6.46996566422323e+17
19511.0	6.463804902036817e+17
19512.0	6.469385940107258e+17
19513.0	6.467177469880996e+17
19514.0	6.468664978396498e+17
19515.0	6.469272196175195e+17
19516.0	6.470158152717652e+17
19517.0	6.469793927047849e+17
19518.0	6.469658959238484e+17
19519.0	6.469320055980032e+17
19520.0	6.468893942655657e+17
19521.0	6.468640411658921e+17
19522.0	6.468125109955242e+17
19523.0	6.467823546488148e+17
19524.0	6.467316048287059e+17
19525.0	6.466623482713428e+17
19526.0	6.466194703908863e+17
19527.0	6.46558949310464e+17
19528.0	6.464996739383295e+17
19529.0	6.464348796310868e+17
19530.0	6.46376442700322e+17
19531.0	6.463115452831059e+17
19532.0	6.462406105847123e+17
19533.0	6.461692990281043e+17
19534.0	6.460953867933012e+17
19535.0	6.460139824829779e+17
19536.0	6.459332178040148e+17
19537.0	6.458624429086036e+17
19538.0	6.457746306804394e+17
19539.0	6.455737768564059e+17
19540.0	6.45610124345344e+17
19541.0	6.455322761756672e+17
19542.0	6.454445390255444e+17
19543.0	6.453570807966378e+17
19544.0	6.452695665038676e+17
19545.0	6.451067118157816e+17
19546.0	6.44882485861854e+17
19547.0	6.449992074002431e+17
19548.0	6.449131085452627e+17
19549.0	6.447943245277865e+17
19550.0	6.447250720948223e+17
19551.0	6.446309649853097e+17
19552.0	6.445344455218516e+17
19553.0	6.44434221998626e+17
19554.0	6.443314200969215e+17
19555.0	6.442395584080553e+17
19556.0	6.441437217073833e+17
19557.0	6.440441373960873e+17
19558.0	6.439439482661545e+17
19559.0	6.438349991925076e+17
19560.0	6.437363445486931e+17
19561.0	6.436343600469332e+17
19562.0	6.435367851567785e+17
19563.0	6.434334580583082e+17
19564.0	6.433325819013801e+17
19565.0	6.432276021772287e+17
19566.0	6.43118333497617e+17
19567.0	6.430188339811667e+17
19568.0	6.429081990769322e+17
19569.0	6.428049080494762e+17
19570.0	6.427047694609065e+17
19571.0	6.425983839458644e+17
19572.0	6.424831738948265e+17
19573.0	6.423825075929087e+17
19574.0	6.422588228108287e+17
19575.0	6.421739481333759e+17
19576.0	6.4206768439296e+17
19577.0	6.419329539812009e+17
19578.0	6.418423562458452e+17
19579.0	6.417366170730495e+17
19580.0	6.416291550898857e+17
19581.0	6.415221929978538e+17
19582.0	6.414168293550761e+17
19583.0	6.413070626717696e+17
19584.0	6.411971096215551e+17
19585.0	6.410608035495935e+17
19586.0	6.409406069604351e+17
19587.0	6.408551522107391e+17
19588.0	6.40643952017408e+17
19589.0	6.40633649688303e+17
19590.0	6.405156674819411e+17
19591.0	6.40421342618146e+17
19592.0	6.403114310216361e+17
19593.0	6.401950104944639e+17
19594.0	6.400299318465876e+17
19595.0	6.399711060339369e+17
19596.0	6.39706775752977e+17
19597.0	6.397515363166889e+17
19598.0	6.395860523592361e+17
19599.0	6.395302628731561e+17
19600.0	6.394194506197673e+17
19601.0	6.39292159365393e+17
19602.0	6.391856276788563e+17
19603.0	6.389866470309885e+17
19604.0	6.389573642179926e+17
19605.0	6.387850171209046e+17
19606.0	6.387369522845012e+17
19607.0	6.386279059030015e+17
19608.0	6.385125888273065e+17
19609.0	6.383891410933076e+17
19610.0	6.382893011391828e+17
19611.0	6.38173504934161e+17
19612.0	6.380627756580863e+17
19613.0	6.379452269330431e+17
19614.0	6.37825291788834e+17
19615.0	6.377209665858218e+17
19616.0	6.376025504088064e+17
19617.0	6.374927126320467e+17
19618.0	6.372707336366761e+17
19619.0	6.3711468364759e+17
19620.0	6.370100279334226e+17
19621.0	6.370343648930474e+17
19622.0	6.369220861711702e+17
19623.0	6.368083635601407e+17
19624.0	6.366914587306665e+17
19625.0	6.365790152425472e+17
19626.0	6.364621129995604e+17
19627.0	6.363503139662506e+17
19628.0	6.362182129636692e+17
19629.0	6.361007492431871e+17
19630.0	6.359976482876074e+17
19631.0	6.351892685433508e+17
19632.0	6.357753302526633e+17
19633.0	6.356510297467561e+17
19634.0	6.355470049957203e+17
19635.0	6.354226059236692e+17
19636.0	6.353151977674068e+17
19637.0	6.351067593135446e+17
19638.0	6.350848903522985e+17
19639.0	6.349696326959103e+17
19640.0	6.348430350396074e+17
19641.0	6.346183105227438e+17
19642.0	6.34624874189073e+17
19643.0	6.345040339140607e+17
19644.0	6.343838576672767e+17
19645.0	6.34225148769075e+17
19646.0	6.341678771557716e+17
19647.0	6.340530600411135e+17
19648.0	6.339368166533801e+17
19649.0	6.338210001758889e+17
19650.0	6.337074481332223e+17
19651.0	6.335905867846995e+17
19652.0	6.334747346556244e+17
19653.0	6.333614163755007e+17
19654.0	6.33244018086161e+17
19655.0	6.331273777774591e+17
19656.0	6.330143103167145e+17
19657.0	6.328986165925204e+17
19658.0	6.327849910097238e+17
19659.0	6.326693660721151e+17
19660.0	6.325555373451946e+17
19661.0	6.324391576425812e+17
19662.0	6.323249742872576e+17
19663.0	6.321993329322666e+17
19664.0	6.320898118953642e+17
19665.0	6.319792336142336e+17
19666.0	6.318601102775636e+17
