# Flux units: erg / (cm m2 s)
# Wavelength units: Angstrom
wave	flux
19000.0	8.705119226953727e+17
19001.0	8.70333915594752e+17
19002.0	8.703217065350483e+17
19003.0	8.702173234506412e+17
19004.0	8.700739870261247e+17
19005.0	8.699310931006804e+17
19006.0	8.697867655621289e+17
19007.0	8.696103381762045e+17
19008.0	8.694784700973053e+17
19009.0	8.693121349058561e+17
19010.0	8.690662709570216e+17
19011.0	8.690458484714152e+17
19012.0	8.688027050879656e+17
19013.0	8.687678034455208e+17
19014.0	8.685969226072061e+17
19015.0	8.684613393536342e+17
19016.0	8.68315647128371e+17
19017.0	8.681699821660841e+17
19018.0	8.680258175063378e+17
19019.0	8.678797665282728e+17
19020.0	8.678532058185728e+17
19021.0	8.678078802122067e+17
19022.0	8.676583127296681e+17
19023.0	8.674925536957779e+17
19024.0	8.673524847738876e+17
19025.0	8.671958535241725e+17
19026.0	8.670379610472447e+17
19027.0	8.66816162476851e+17
19028.0	8.667538373563731e+17
19029.0	8.665983175972179e+17
19030.0	8.664582353933652e+17
19031.0	8.66308359210052e+17
19032.0	8.66154146116403e+17
19033.0	8.659628172072275e+17
19034.0	8.658254298436947e+17
19035.0	8.655593494893907e+17
19036.0	8.59615848754926e+17
19037.0	8.652929296760831e+17
19038.0	8.652128564980394e+17
19039.0	8.65078141185775e+17
19040.0	8.649302988204714e+17
19041.0	8.647746602227026e+17
19042.0	8.64587175113523e+17
19043.0	8.644698786059604e+17
19044.0	8.64310581736243e+17
19045.0	8.64155929219345e+17
19046.0	8.639823974410922e+17
19047.0	8.638360790062417e+17
19048.0	8.636249002737661e+17
19049.0	8.634994437477714e+17
19050.0	8.633388340609024e+17
19051.0	8.622612408871584e+17
19052.0	8.62774864589619e+17
19053.0	8.62887640755951e+17
19054.0	8.627485166709417e+17
19055.0	8.624962731857239e+17
19056.0	8.624278438150143e+17
19057.0	8.622774845876905e+17
19058.0	8.621080087014058e+17
19059.0	8.619630961972564e+17
19060.0	8.617995769217021e+17
19061.0	8.616493646348285e+17
19062.0	8.614879279710204e+17
19063.0	8.613296861085693e+17
19064.0	8.611254152549718e+17
19065.0	8.609382314366292e+17
19066.0	8.608260262548822e+17
19067.0	8.606872164630527e+17
19068.0	8.605324603468458e+17
19069.0	8.603720750552403e+17
19070.0	8.602011072550228e+17
19071.0	8.600446418201256e+17
19072.0	8.598900692746239e+17
19073.0	8.597268698846547e+17
19074.0	8.59649398153762e+17
19075.0	8.595022569362772e+17
19076.0	8.593340354265085e+17
19077.0	8.591728028854953e+17
19078.0	8.590006299219284e+17
19079.0	8.588511084369238e+17
19080.0	8.586828441452544e+17
19081.0	8.585074780580522e+17
19082.0	8.583481957285888e+17
19083.0	8.581436543423827e+17
19084.0	8.579284636183212e+17
19085.0	8.578558563013972e+17
19086.0	8.575143615223124e+17
19087.0	8.574310425122132e+17
19088.0	8.572885239769769e+17
19089.0	8.570681889390592e+17
19090.0	8.570088849757523e+17
19091.0	8.568575701461673e+17
19092.0	8.566663521064276e+17
19093.0	8.565459829915648e+17
19094.0	8.563873868502356e+17
19095.0	8.562249014706175e+17
19096.0	8.560565725866664e+17
19097.0	8.558951840175442e+17
19098.0	8.5572859213469e+17
19099.0	8.555623106303315e+17
19100.0	8.553867537022975e+17
19101.0	8.55226588471842e+17
19102.0	8.550357708483241e+17
19103.0	8.548948524400639e+17
19104.0	8.547294893484714e+17
19105.0	8.545547486319953e+17
19106.0	8.543706300110164e+17
19107.0	8.542049516475731e+17
19108.0	8.540152822846804e+17
19109.0	8.534057763733499e+17
19110.0	8.536011892763305e+17
19111.0	8.535349434602834e+17
19112.0	8.533823714579795e+17
19113.0	8.532181574658728e+17
19114.0	8.530486552952831e+17
19115.0	8.528531392124246e+17
19116.0	8.527031838965757e+17
19117.0	8.525298545633961e+17
19118.0	8.523252572531369e+17
19119.0	8.514496965727562e+17
19120.0	8.519700887633917e+17
19121.0	8.518224730303145e+17
19122.0	8.516975128302932e+17
19123.0	8.515270914080767e+17
19124.0	8.513126619501906e+17
19125.0	8.5118051956381e+17
19126.0	8.509993537328467e+17
19127.0	8.502861897924607e+17
19128.0	8.504454366101499e+17
19129.0	8.504654056914943e+17
19130.0	8.503250479218685e+17
19131.0	8.501531512231251e+17
19132.0	8.49985806602513e+17
19133.0	8.497456576724992e+17
19134.0	8.495445825989293e+17
19135.0	8.494701876696404e+17
19136.0	8.492990947393536e+17
19137.0	8.490776040308735e+17
19138.0	8.489463302848511e+17
19139.0	8.487812108823208e+17
19140.0	8.486097619954344e+17
19141.0	8.484364487404201e+17
19142.0	8.482503863391574e+17
19143.0	8.480683760549885e+17
19144.0	8.476835569117866e+17
19145.0	8.47523238589235e+17
19146.0	8.471190459558572e+17
19147.0	8.471492020229459e+17
19148.0	8.469968924442624e+17
19149.0	8.468207196525907e+17
19150.0	8.466490246998698e+17
19151.0	8.464717841782098e+17
19152.0	8.462887907491837e+17
19153.0	8.461099245152936e+17
19154.0	8.459006178405033e+17
19155.0	8.45754187976977e+17
19156.0	8.455674655320748e+17
19157.0	8.45334927586099e+17
19158.0	8.449932172197885e+17
19159.0	8.449917185949692e+17
19160.0	8.448340696672934e+17
19161.0	8.446069067218943e+17
19162.0	8.43760468212668e+17
19163.0	8.441592499142655e+17
19164.0	8.441356889707859e+17
19165.0	8.439647502510761e+17
19166.0	8.437504140465492e+17
19167.0	8.434297107120125e+17
19168.0	8.432997290912426e+17
19169.0	8.431327474177364e+17
19170.0	8.429617649374548e+17
19171.0	8.427644900431187e+17
19172.0	8.425950159743658e+17
19173.0	8.424247971370322e+17
19174.0	8.422295857004544e+17
19175.0	8.42066665091891e+17
19176.0	8.418824031655251e+17
19177.0	8.416422097758888e+17
19178.0	8.414971687862272e+17
19179.0	8.413028834519721e+17
19180.0	8.410587727222098e+17
19181.0	8.406802353881085e+17
19182.0	8.405198454827689e+17
19183.0	8.403463873844561e+17
19184.0	8.401540628873215e+17
19185.0	8.39973703341397e+17
19186.0	8.397945752431273e+17
19187.0	8.395726002323455e+17
19188.0	8.394181509993811e+17
19189.0	8.392247320685226e+17
19190.0	8.390303044075519e+17
19191.0	8.388332207734783e+17
19192.0	8.386568586788863e+17
19193.0	8.384521451864063e+17
19194.0	8.382459606117033e+17
19195.0	8.380378437211478e+17
19196.0	8.377891020603391e+17
19197.0	8.374747887479466e+17
19198.0	8.368457382188372e+17
19199.0	8.327041852811937e+17
19200.0	8.332303608578053e+17
19201.0	8.363422279619923e+17
19202.0	8.365486952327849e+17
19203.0	8.363274802298881e+17
19204.0	8.361808164640084e+17
19205.0	8.359970865151999e+17
19206.0	8.35669643772996e+17
19207.0	8.354540434052434e+17
19208.0	8.352510780986706e+17
19209.0	8.351149645452627e+17
19210.0	8.349287730992467e+17
19211.0	8.347429441809066e+17
19212.0	8.345456168577705e+17
19213.0	8.342941809158824e+17
19214.0	8.340774907281408e+17
19215.0	8.339487320266067e+17
19216.0	8.337740893170345e+17
19217.0	8.335725569245184e+17
19218.0	8.331353008723282e+17
19219.0	8.331170163632808e+17
19220.0	8.329864472603305e+17
19221.0	8.327063521984511e+17
19222.0	8.325969179137366e+17
19223.0	8.324028098587306e+17
19224.0	8.321935509990058e+17
19225.0	8.319716895140522e+17
19226.0	8.318076866352468e+17
19227.0	8.316092220964863e+17
19228.0	8.314221073443497e+17
19229.0	8.312230452570794e+17
19230.0	8.308791281276242e+17
19231.0	8.305669811732479e+17
19232.0	8.303707769449126e+17
19233.0	8.301444500641108e+17
19234.0	8.299622120292348e+17
19235.0	8.297514137201321e+17
19236.0	8.29562975105843e+17
19237.0	8.293525088458067e+17
19238.0	8.291155559754409e+17
19239.0	8.289479745164627e+17
19240.0	8.287311041134591e+17
19241.0	8.285221139688106e+17
19242.0	8.283216476285609e+17
19243.0	8.280483115477672e+17
19244.0	8.279102100340735e+17
19245.0	8.276968283133268e+17
19246.0	8.274823413934762e+17
19247.0	8.272711836325204e+17
19248.0	8.26936209598054e+17
19249.0	8.265280269232808e+17
19250.0	8.263074542081362e+17
19251.0	8.260537825624061e+17
19252.0	8.257653166484136e+17
19253.0	8.256557232597673e+17
19254.0	8.254432943450792e+17
19255.0	8.25150427068279e+17
19256.0	8.249888089309184e+17
19257.0	8.247829803128148e+17
19258.0	8.245621851597482e+17
19259.0	8.243091922922154e+17
19260.0	8.240153470435325e+17
19261.0	8.237584527742289e+17
19262.0	8.232398553262762e+17
19263.0	8.23007510737715e+17
19264.0	8.226444850582865e+17
19265.0	8.225156212195327e+17
19266.0	8.223036141120169e+17
19267.0	8.22113617453602e+17
19268.0	8.2187803178653e+17
19269.0	8.216435643209043e+17
19270.0	8.214051403683156e+17
19271.0	8.210719947707732e+17
19272.0	8.206018151099049e+17
19273.0	8.197531708162044e+17
19274.0	8.196148086964219e+17
19275.0	8.197128273439402e+17
19276.0	8.194676235785558e+17
19277.0	8.192245168253612e+17
19278.0	8.189797812841128e+17
19279.0	8.18716744316791e+17
19280.0	8.184590494946646e+17
19281.0	8.178845236592635e+17
19282.0	8.173757762546345e+17
19283.0	8.170909167430313e+17
19284.0	8.167790085843625e+17
19285.0	8.165690853468841e+17
19286.0	8.163323730897578e+17
19287.0	8.160719217710419e+17
19288.0	8.141882668351471e+17
19289.0	8.11877468733435e+17
19290.0	8.149267506703016e+17
19291.0	8.145877656229206e+17
19292.0	8.144194199617533e+17
19293.0	8.141494777719466e+17
19294.0	8.138752804607315e+17
19295.0	8.136066687041535e+17
19296.0	8.13328629829905e+17
19297.0	8.130427056641364e+17
19298.0	8.127654441342292e+17
19299.0	8.124953849233407e+17
19300.0	8.122141306956458e+17
19301.0	8.119298841116671e+17
19302.0	8.116405769601021e+17
19303.0	8.113326647148543e+17
19304.0	8.110593233212756e+17
19305.0	8.107710018311508e+17
19306.0	8.104775460934995e+17
19307.0	8.10165759709457e+17
19308.0	8.09866607407923e+17
19309.0	8.094445540300114e+17
19310.0	8.090666061354322e+17
19311.0	8.089397531858258e+17
19312.0	8.086806156629331e+17
19313.0	8.083762341827923e+17
19314.0	8.057865761019222e+17
19315.0	8.056364762223986e+17
19316.0	8.074264794802858e+17
19317.0	8.071329543968083e+17
19318.0	8.068203582324735e+17
19319.0	8.065088948098387e+17
19320.0	8.061866184714922e+17
19321.0	8.058569865822207e+17
19322.0	8.054887529753257e+17
19323.0	8.05144098766848e+17
19324.0	8.048448147641683e+17
19325.0	8.044674743446185e+17
19326.0	8.041851814674431e+17
19327.0	8.038625653904723e+17
19328.0	8.035314227129002e+17
19329.0	8.031940637971795e+17
19330.0	8.028231521271807e+17
19331.0	8.024692258504705e+17
19332.0	8.021345725404498e+17
19333.0	8.017787568695976e+17
19334.0	8.014332157056339e+17
19335.0	8.010767304840531e+17
19336.0	8.007181447550294e+17
19337.0	8.003602702401536e+17
19338.0	7.999317773473106e+17
19339.0	7.996315466902185e+17
19340.0	7.992504704040957e+17
19341.0	7.988814085619711e+17
19342.0	7.984053844180988e+17
19343.0	7.981272148213757e+17
19344.0	7.97731642880819e+17
19345.0	7.968476991848439e+17
19346.0	7.966971292636497e+17
19347.0	7.965393282225494e+17
19348.0	7.961580844438867e+17
19349.0	7.957390827017555e+17
19350.0	7.953100051229353e+17
19351.0	7.948638793760764e+17
19352.0	7.944319720401577e+17
19353.0	7.940325402214397e+17
19354.0	7.936032994841939e+17
19355.0	7.931371843835222e+17
19356.0	7.92727046464034e+17
19357.0	7.92281752727279e+17
19358.0	7.918235519986345e+17
19359.0	7.913532280537088e+17
19360.0	7.908967125964115e+17
19361.0	7.90432955952879e+17
19362.0	7.89926556939059e+17
19363.0	7.894002970569386e+17
19364.0	7.889116431646719e+17
19365.0	7.884128341633706e+17
19366.0	7.879087256589651e+17
19367.0	7.873882771248471e+17
19368.0	7.868604326346752e+17
19369.0	7.862994195884713e+17
19370.0	7.85737768169199e+17
19371.0	7.850944918192125e+17
19372.0	7.845305859615402e+17
19373.0	7.839544180561238e+17
19374.0	7.833834963861501e+17
19375.0	7.827992921942696e+17
19376.0	7.822068762542079e+17
19377.0	7.816000233799679e+17
19378.0	7.808084080590845e+17
19379.0	7.801882305800873e+17
19380.0	7.795590851198975e+17
19381.0	7.789201790948692e+17
19382.0	7.782539151627603e+17
19383.0	7.775053118701565e+17
19384.0	7.766916939295402e+17
19385.0	7.759828723520851e+17
19386.0	7.752578653749245e+17
19387.0	7.745139475393194e+17
19388.0	7.736165872435199e+17
19389.0	7.726859760435197e+17
19390.0	7.718699951718397e+17
19391.0	7.675190174198394e+17
19392.0	7.700890050538152e+17
19393.0	7.69081342811614e+17
19394.0	7.681897412952064e+17
19395.0	7.672909482251603e+17
19396.0	7.663695382096552e+17
19397.0	7.651944805957632e+17
19398.0	7.640773528911871e+17
19399.0	7.629530265026557e+17
19400.0	7.620576562642943e+17
19401.0	7.608084966233425e+17
19402.0	7.5959049940282e+17
19403.0	7.58522082107938e+17
19404.0	7.574266481825108e+17
19405.0	7.561173030753626e+17
19406.0	7.547435495369386e+17
19407.0	7.535694064211283e+17
19408.0	7.522111031607296e+17
19409.0	7.510722189022548e+17
19410.0	7.493914031641942e+17
19411.0	7.480053090047314e+17
19412.0	7.465866655083178e+17
19413.0	7.451519824341674e+17
19414.0	7.436646868495016e+17
19415.0	7.421210041603412e+17
19416.0	7.40352860496418e+17
19417.0	7.386769189590355e+17
19418.0	7.37034223292689e+17
19419.0	7.353174255992832e+17
19420.0	7.335235877688659e+17
19421.0	7.316256253629782e+17
19422.0	7.295648309881513e+17
19423.0	7.274838943072255e+17
19424.0	7.253199803121663e+17
19425.0	7.23063810363665e+17
19426.0	7.207148657661267e+17
19427.0	7.182453140968787e+17
19428.0	7.156669465231357e+17
19429.0	7.129793743727272e+17
19430.0	7.100371939885056e+17
19431.0	7.067174617918127e+17
19432.0	7.040350305998163e+17
19433.0	7.007612302961324e+17
19434.0	6.972777667319124e+17
19435.0	6.93547377570611e+17
19436.0	6.895857369262761e+17
19437.0	6.856340817313791e+17
19438.0	6.790572976461144e+17
19439.0	6.76597866552798e+17
19440.0	6.717986127041876e+17
19441.0	6.666068785364988e+17
19442.0	6.610539601286487e+17
19443.0	6.551096705854121e+17
19444.0	6.487609547161595e+17
19445.0	6.419637967956652e+17
19446.0	6.346591322155689e+17
19447.0	6.267848377412262e+17
19448.0	6.182064467126958e+17
19449.0	6.086365815679658e+17
19450.0	5.969670610528929e+17
19451.0	5.899621341593603e+17
19452.0	6.031562825007103e+17
19453.0	6.132743983333379e+17
19454.0	6.220559885008892e+17
19455.0	6.300233679328595e+17
19456.0	6.373586670103212e+17
19457.0	6.441594121792166e+17
19458.0	6.492884170353341e+17
19459.0	6.56333037284011e+17
19460.0	6.618691477176317e+17
19461.0	6.669822419708586e+17
19462.0	6.717797270115671e+17
19463.0	6.762665812688893e+17
19464.0	6.804596298437971e+17
19465.0	6.844219514333866e+17
19466.0	6.881009005319507e+17
19467.0	6.916094942685866e+17
19468.0	6.949173224013824e+17
19469.0	6.979896497318568e+17
19470.0	7.009352348423508e+17
19471.0	7.037067387207681e+17
19472.0	7.063442029892947e+17
19473.0	7.088403908657151e+17
19474.0	7.11175087132945e+17
19475.0	7.133207824695293e+17
19476.0	7.155355919668564e+17
19477.0	7.17563463012625e+17
19478.0	7.19491944292898e+17
19479.0	7.213210808265385e+17
19480.0	7.231209411182591e+17
19481.0	7.248008124388692e+17
19482.0	7.263679864460628e+17
19483.0	7.27833125200418e+17
19484.0	7.292348025973416e+17
19485.0	7.306422405911892e+17
19486.0	7.320721827037183e+17
19487.0	7.333984611947859e+17
19488.0	7.346121982607357e+17
19489.0	7.357497999010474e+17
19490.0	7.366738514892116e+17
19491.0	7.380122610259283e+17
19492.0	7.393320033932628e+17
19493.0	7.404454654159529e+17
19494.0	7.413933893047638e+17
19495.0	7.422980137156608e+17
19496.0	7.431728504591702e+17
19497.0	7.443635479336276e+17
19498.0	7.446542169757014e+17
19499.0	7.408870999020863e+17
19500.0	7.467461712543744e+17
19501.0	7.478952812260009e+17
19502.0	7.486257252794368e+17
19503.0	7.493343266559315e+17
19504.0	7.500208785762982e+17
19505.0	7.510436865900541e+17
19506.0	7.51682160881391e+17
19507.0	7.522849823304362e+17
19508.0	7.528803162477908e+17
19509.0	7.536599554326525e+17
19510.0	7.542352355437226e+17
19511.0	7.500959640278333e+17
19512.0	7.542936518524915e+17
19513.0	7.54158364856591e+17
19514.0	7.552591451215173e+17
19515.0	7.568378489907884e+17
19516.0	7.574223522365439e+17
19517.0	7.57837178549043e+17
19518.0	7.583151359874386e+17
19519.0	7.588489070291625e+17
19520.0	7.591926760996863e+17
19521.0	7.595410141653674e+17
19522.0	7.598628391966036e+17
19523.0	7.601977279468883e+17
19524.0	7.606166569877503e+17
19525.0	7.6098678320442e+17
19526.0	7.612866207154173e+17
19527.0	7.615718096196948e+17
19528.0	7.618494974306986e+17
19529.0	7.621183918833663e+17
19530.0	7.623837301254825e+17
19531.0	7.62734820074018e+17
19532.0	7.63010243240482e+17
19533.0	7.632499295387647e+17
19534.0	7.634783943961258e+17
19535.0	7.636928873278121e+17
19536.0	7.638970856199508e+17
19537.0	7.64104422929203e+17
19538.0	7.64258261471505e+17
19539.0	7.643516472306348e+17
19540.0	7.6472366689594e+17
19541.0	7.64901846242645e+17
19542.0	7.650626239812948e+17
19543.0	7.652166065280338e+17
19544.0	7.653668594996564e+17
19545.0	7.653769191183699e+17
19546.0	7.654276865545556e+17
19547.0	7.65785238807074e+17
19548.0	7.659168250287444e+17
19549.0	7.660064782767442e+17
19550.0	7.661600541158057e+17
19551.0	7.662750802466132e+17
19552.0	7.664270066057215e+17
19553.0	7.665282859051688e+17
19554.0	7.666250609415508e+17
19555.0	7.667285510586365e+17
19556.0	7.668243646207314e+17
19557.0	7.669108394251603e+17
19558.0	7.669943593424211e+17
19559.0	7.670759096145234e+17
19560.0	7.67144087326993e+17
19561.0	7.672136835530751e+17
19562.0	7.672851589671594e+17
19563.0	7.673494668749481e+17
19564.0	7.674078989822634e+17
19565.0	7.674642013618175e+17
19566.0	7.675099570241535e+17
19567.0	7.67570021974016e+17
19568.0	7.676078737500841e+17
19569.0	7.676582561491625e+17
19570.0	7.677095122217641e+17
19571.0	7.67751077354974e+17
19572.0	7.677799580740266e+17
19573.0	7.678420807494313e+17
19574.0	7.678490168699562e+17
19575.0	7.679139754541055e+17
19576.0	7.679441347368276e+17
19577.0	7.679662566146045e+17
19578.0	7.679871484428287e+17
19579.0	7.680124090580991e+17
19580.0	7.6803479699456e+17
19581.0	7.680602543226879e+17
19582.0	7.680820902887424e+17
19583.0	7.680962654983506e+17
19584.0	7.681037401675092e+17
19585.0	7.680766428665172e+17
19586.0	7.68070224043486e+17
19587.0	7.68108600107554e+17
19588.0	7.680014216593409e+17
19589.0	7.681201833771005e+17
19590.0	7.681052928988499e+17
19591.0	7.681236951280298e+17
19592.0	7.681205788999679e+17
19593.0	7.681050968850432e+17
19594.0	7.680173184909311e+17
19595.0	7.680790620012543e+17
19596.0	7.67643687374029e+17
19597.0	7.680499472400383e+17
19598.0	7.679626507714557e+17
19599.0	7.680221369073664e+17
19600.0	7.680036467376128e+17
19601.0	7.67959138041856e+17
19602.0	7.679314905879892e+17
19603.0	7.677540418890409e+17
19604.0	7.67862309318383e+17
19605.0	7.677727318474753e+17
19606.0	7.678423785450153e+17
19607.0	7.678122421911551e+17
19608.0	7.677754872255827e+17
19609.0	7.677273833122474e+17
19610.0	7.677089904503466e+17
19611.0	7.676693980381183e+17
19612.0	7.679187847828823e+17
19613.0	7.678984818349395e+17
19614.0	7.678427192623103e+17
19615.0	7.678094322870954e+17
19616.0	7.67723712876817e+17
19617.0	7.67712577279317e+17
19618.0	7.674914047787005e+17
19619.0	7.675845753700346e+17
19620.0	7.678859078707881e+17
19621.0	7.680174369101139e+17
19622.0	7.679652648015187e+17
19623.0	7.679064090694995e+17
19624.0	7.678408135103828e+17
19625.0	7.677825440022525e+17
19626.0	7.677126638217897e+17
19627.0	7.676321577915731e+17
19628.0	7.676327085036884e+17
19629.0	7.677979563917311e+17
19630.0	7.667404094745254e+17
19631.0	7.629373456777222e+17
19632.0	7.675099180171264e+17
19633.0	7.675983305900032e+17
19634.0	7.675832317946536e+17
19635.0	7.675073431339005e+17
19636.0	7.674502168532308e+17
19637.0	7.672247541388628e+17
19638.0	7.673071278926505e+17
19639.0	7.675427644506115e+17
19640.0	7.674671233936042e+17
19641.0	7.672523987965272e+17
19642.0	7.673342341414911e+17
19643.0	7.672495167504381e+17
19644.0	7.671477476960936e+17
19645.0	7.670087890064722e+17
19646.0	7.670033576624125e+17
19647.0	7.669201303677609e+17
19648.0	7.66832155959842e+17
19649.0	7.667443902884522e+17
19650.0	7.666592056519338e+17
19651.0	7.66604416717073e+17
19652.0	7.667463525236735e+17
19653.0	7.666556340622675e+17
19654.0	7.665614687218348e+17
19655.0	7.664674473858387e+17
19656.0	7.663774360840872e+17
19657.0	7.662826248208383e+17
19658.0	7.661903870427135e+17
19659.0	7.660947261532841e+17
19660.0	7.660001075483987e+17
19661.0	7.659007795789824e+17
19662.0	7.658030611038207e+17
19663.0	7.656833112080384e+17
19664.0	7.655823312420861e+17
19665.0	7.65503395139857e+17
19666.0	7.653974212957522e+17
