# Flux units: erg / (cm m2 s)
# Wavelength units: Angstrom
wave	flux
19000.0	7.775758070753961e+17
19001.0	7.774323035777705e+17
19002.0	7.772984322992808e+17
19003.0	7.771594037045928e+17
19004.0	7.770202811574953e+17
19005.0	7.768812110391977e+17
19006.0	7.767418619996841e+17
19007.0	7.765992177751379e+17
19008.0	7.764598300082173e+17
19009.0	7.763193903098538e+17
19010.0	7.76161453093683e+17
19011.0	7.760413773004799e+17
19012.0	7.758914485485565e+17
19013.0	7.757628105031676e+17
19014.0	7.756187680374783e+17
19015.0	7.754796580732925e+17
19016.0	7.753386760514217e+17
19017.0	7.751995885966676e+17
19018.0	7.750585239470079e+17
19019.0	7.749187540789928e+17
19020.0	7.747761007667881e+17
19021.0	7.746364098914986e+17
19022.0	7.744955776062804e+17
19023.0	7.743519744240297e+17
19024.0	7.74211400368128e+17
19025.0	7.740703825548628e+17
19026.0	7.73927179509214e+17
19027.0	7.737789273604096e+17
19028.0	7.736460077694973e+17
19029.0	7.735041007637844e+17
19030.0	7.733621165828777e+17
19031.0	7.732200090894335e+17
19032.0	7.730777882099711e+17
19033.0	7.729310236409855e+17
19034.0	7.727928716558333e+17
19035.0	7.726468310237184e+17
19036.0	7.719419128053756e+17
19037.0	7.723640300765181e+17
19038.0	7.722213721505791e+17
19039.0	7.720800568213503e+17
19040.0	7.719372609028093e+17
19041.0	7.717943360793258e+17
19042.0	7.716473335534932e+17
19043.0	7.715083245322239e+17
19044.0	7.713650798231552e+17
19045.0	7.712219420688381e+17
19046.0	7.710762906681344e+17
19047.0	7.709345872259753e+17
19048.0	7.707822327682387e+17
19049.0	7.706450492478803e+17
19050.0	7.70502373286434e+17
19051.0	7.702676113806675e+17
19052.0	7.702020190371837e+17
19053.0	7.700726683795456e+17
19054.0	7.699297759920127e+17
19055.0	7.697733271945212e+17
19056.0	7.6964090113338e+17
19057.0	7.694974918677842e+17
19058.0	7.693532768763903e+17
19059.0	7.6920967411357e+17
19060.0	7.690644049537706e+17
19061.0	7.689212680383145e+17
19062.0	7.687767229551955e+17
19063.0	7.686324190445567e+17
19064.0	7.684825867616256e+17
19065.0	7.683345780222632e+17
19066.0	7.681958533748054e+17
19067.0	7.680543808989866e+17
19068.0	7.679097351525715e+17
19069.0	7.677650638209021e+17
19070.0	7.676198182890154e+17
19071.0	7.674754668429311e+17
19072.0	7.67330581881378e+17
19073.0	7.671853987048105e+17
19074.0	7.67040660264277e+17
19075.0	7.668956206727165e+17
19076.0	7.667495147492692e+17
19077.0	7.666047972802557e+17
19078.0	7.664589234416298e+17
19079.0	7.663149359213226e+17
19080.0	7.661693630939135e+17
19081.0	7.660222224356692e+17
19082.0	7.658767244066815e+17
19083.0	7.657273768454825e+17
19084.0	7.656020580324692e+17
19085.0	7.654766644210345e+17
19086.0	7.653110270219604e+17
19087.0	7.651698000527357e+17
19088.0	7.650332203723433e+17
19089.0	7.64875837223731e+17
19090.0	7.647451852133715e+17
19091.0	7.646000646717437e+17
19092.0	7.644496992927743e+17
19093.0	7.643096191860735e+17
19094.0	7.641626249090387e+17
19095.0	7.640163103888722e+17
19096.0	7.638707315496275e+17
19097.0	7.63725263160388e+17
19098.0	7.635791618506751e+17
19099.0	7.63432846631458e+17
19100.0	7.632855839189672e+17
19101.0	7.631400189209257e+17
19102.0	7.629893985282728e+17
19103.0	7.628471649260883e+17
19104.0	7.627005924562259e+17
19105.0	7.62553829564962e+17
19106.0	7.624044256602793e+17
19107.0	7.622596139592361e+17
19108.0	7.621131631241898e+17
19109.0	7.619152344776701e+17
19110.0	7.618165766182228e+17
19111.0	7.61673280459025e+17
19112.0	7.615266185106772e+17
19113.0	7.613797321670655e+17
19114.0	7.61232746418449e+17
19115.0	7.610834981224447e+17
19116.0	7.609374135899475e+17
19117.0	7.607902364412586e+17
19118.0	7.606378168319999e+17
19119.0	7.60361963190135e+17
19120.0	7.603446447691092e+17
19121.0	7.601987534542166e+17
19122.0	7.600551202127871e+17
19123.0	7.599076491831978e+17
19124.0	7.597568038360403e+17
19125.0	7.596123132788733e+17
19126.0	7.594645599726249e+17
19127.0	7.592371280325288e+17
19128.0	7.591523070421672e+17
19129.0	7.590178607245993e+17
19130.0	7.588742174168403e+17
19131.0	7.587266813755391e+17
19132.0	7.585786697001642e+17
19133.0	7.584212172057257e+17
19134.0	7.582745113569962e+17
19135.0	7.581350046116521e+17
19136.0	7.579870843721042e+17
19137.0	7.578314351487658e+17
19138.0	7.576897634435072e+17
19139.0	7.575425896502611e+17
19140.0	7.573944672452605e+17
19141.0	7.572461661629097e+17
19142.0	7.57096575332079e+17
19143.0	7.56946911240738e+17
19144.0	7.567996160922964e+17
19145.0	7.566522060199251e+17
19146.0	7.564748656738303e+17
19147.0	7.563509548886697e+17
19148.0	7.562060274248361e+17
19149.0	7.560573200542378e+17
19150.0	7.559083085965994e+17
19151.0	7.557597948630356e+17
19152.0	7.556105808205139e+17
19153.0	7.554607032390995e+17
19154.0	7.553065856357718e+17
19155.0	7.551632795500543e+17
19156.0	7.550136027359913e+17
19157.0	7.548615641093458e+17
19158.0	7.546829116451497e+17
19159.0	7.545633716043775e+17
19160.0	7.544151904791209e+17
19161.0	7.542638644647251e+17
19162.0	7.540367511519232e+17
19163.0	7.539621451093332e+17
19164.0	7.538173591333545e+17
19165.0	7.536664696061951e+17
19166.0	7.535114587559254e+17
19167.0	7.533603111392594e+17
19168.0	7.532160245650774e+17
19169.0	7.530657102168064e+17
19170.0	7.529172911347027e+17
19171.0	7.5276333641018e+17
19172.0	7.526164117585919e+17
19173.0	7.524662791634941e+17
19174.0	7.523133594533888e+17
19175.0	7.52165345820672e+17
19176.0	7.520145832411135e+17
19177.0	7.51856257073152e+17
19178.0	7.517102411874301e+17
19179.0	7.515561630105599e+17
19180.0	7.514093325910015e+17
19181.0	7.512545008375126e+17
19182.0	7.511071251584339e+17
19183.0	7.509566851208531e+17
19184.0	7.508040204244308e+17
19185.0	7.506533804583593e+17
19186.0	7.50501902889779e+17
19187.0	7.503468575064064e+17
19188.0	7.501980729606143e+17
19189.0	7.500455034748925e+17
19190.0	7.498927757241002e+17
19191.0	7.497399990397609e+17
19192.0	7.495891618015914e+17
19193.0	7.494360153194493e+17
19194.0	7.492837095156394e+17
19195.0	7.491308945233236e+17
19196.0	7.489767278466387e+17
19197.0	7.488216339491496e+17
19198.0	7.486588359540735e+17
19199.0	7.480334916517883e+17
19200.0	7.480104775057408e+17
19201.0	7.482009450446847e+17
19202.0	7.480563870990335e+17
19203.0	7.479038742364157e+17
19204.0	7.477510744834047e+17
19205.0	7.475988244638377e+17
19206.0	7.474445114059432e+17
19207.0	7.472872078092969e+17
19208.0	7.471276422245033e+17
19209.0	7.469826335309821e+17
19210.0	7.46828090765039e+17
19211.0	7.466733322720596e+17
19212.0	7.465183567937535e+17
19213.0	7.463563877329578e+17
19214.0	7.461986107391999e+17
19215.0	7.460506997271209e+17
19216.0	7.458970865587539e+17
19217.0	7.457414395723777e+17
19218.0	7.455475469647871e+17
19219.0	7.454214196297725e+17
19220.0	7.452722950657364e+17
19221.0	7.451022115646122e+17
19222.0	7.449601091043327e+17
19223.0	7.448036884086781e+17
19224.0	7.446451590965929e+17
19225.0	7.444829358609747e+17
19226.0	7.443314564748627e+17
19227.0	7.441736835355987e+17
19228.0	7.440171319776595e+17
19229.0	7.438591178659156e+17
19230.0	7.437000280550058e+17
19231.0	7.435425857667072e+17
19232.0	7.433833179774973e+17
19233.0	7.432214845325311e+17
19234.0	7.430648541216768e+17
19235.0	7.429055196430336e+17
19236.0	7.427470907146239e+17
19237.0	7.425865528901632e+17
19238.0	7.424222868886867e+17
19239.0	7.422670548587859e+17
19240.0	7.421038851085651e+17
19241.0	7.41943691776273e+17
19242.0	7.417838275570345e+17
19243.0	7.416147253832361e+17
19244.0	7.414618551659177e+17
19245.0	7.412999975337983e+17
19246.0	7.411373345953108e+17
19247.0	7.409758489979561e+17
19248.0	7.4081348091904e+17
19249.0	7.406506749547859e+17
19250.0	7.404873967119016e+17
19251.0	7.402862342569981e+17
19252.0	7.401114531353939e+17
19253.0	7.39961588556322e+17
19254.0	7.397973700902911e+17
19255.0	7.396236301347498e+17
19256.0	7.394665684096339e+17
19257.0	7.393028809424893e+17
19258.0	7.391371839842985e+17
19259.0	7.389674649681919e+17
19260.0	7.38795295080448e+17
19261.0	7.386380636258301e+17
19262.0	7.384685260832768e+17
19263.0	7.383006402576381e+17
19264.0	7.381115497086975e+17
19265.0	7.3795864887296e+17
19266.0	7.377917197680639e+17
19267.0	7.37629711840051e+17
19268.0	7.374602330177535e+17
19269.0	7.372903132342952e+17
19270.0	7.37119754658338e+17
19271.0	7.36934087500322e+17
19272.0	7.367759360950271e+17
19273.0	7.3652557081914e+17
19274.0	7.363813207354025e+17
19275.0	7.3626118258688e+17
19276.0	7.36087295271458e+17
19277.0	7.359138724052992e+17
19278.0	7.357405667000319e+17
19279.0	7.355657510453245e+17
19280.0	7.353871398251178e+17
19281.0	7.352139367404884e+17
19282.0	7.350382116208639e+17
19283.0	7.348556281151487e+17
19284.0	7.34676684706065e+17
19285.0	7.344974875415891e+17
19286.0	7.343258329939968e+17
19287.0	7.341483729704276e+17
19288.0	7.338178451778216e+17
19289.0	7.334229078354596e+17
19290.0	7.33605312663825e+17
19291.0	7.334105828731561e+17
19292.0	7.332406272983039e+17
19293.0	7.330568278638591e+17
19294.0	7.328730598866943e+17
19295.0	7.32688370700561e+17
19296.0	7.325030291603455e+17
19297.0	7.323169527780692e+17
19298.0	7.321295245716138e+17
19299.0	7.31943135294259e+17
19300.0	7.317550888473939e+17
19301.0	7.315662281463123e+17
19302.0	7.313766324633599e+17
19303.0	7.311837476072105e+17
19304.0	7.30994990645248e+17
19305.0	7.308045491109887e+17
19306.0	7.306134595567615e+17
19307.0	7.304176371499008e+17
19308.0	7.302249347459753e+17
19309.0	7.300168702842196e+17
19310.0	7.298143245478569e+17
19311.0	7.296037110677501e+17
19312.0	7.293814244201811e+17
19313.0	7.291841565163517e+17
19314.0	7.286764885857619e+17
19315.0	7.28497736297131e+17
19316.0	7.285851671232511e+17
19317.0	7.283864661655551e+17
19318.0	7.281839689433087e+17
19319.0	7.279823051292671e+17
19320.0	7.277784903363241e+17
19321.0	7.275726173984084e+17
19322.0	7.273594934875476e+17
19323.0	7.271485469797033e+17
19324.0	7.269440647331837e+17
19325.0	7.267209055305727e+17
19326.0	7.265198891772585e+17
19327.0	7.26306234966562e+17
19328.0	7.260918106816511e+17
19329.0	7.258753367801855e+17
19330.0	7.256556303286271e+17
19331.0	7.254359535168169e+17
19332.0	7.252173377241087e+17
19333.0	7.249955686536531e+17
19334.0	7.246712980635645e+17
19335.0	7.244445858660351e+17
19336.0	7.242174609489919e+17
19337.0	7.239843581700777e+17
19338.0	7.23744583651601e+17
19339.0	7.235225514584745e+17
19340.0	7.232864364702377e+17
19341.0	7.230523909515948e+17
19342.0	7.227983088233129e+17
19343.0	7.225768200721748e+17
19344.0	7.223358205373097e+17
19345.0	7.220073865412605e+17
19346.0	7.217987320807424e+17
19347.0	7.214461521756157e+17
19348.0	7.211988484620288e+17
19349.0	7.209445072655699e+17
19350.0	7.206889888677888e+17
19351.0	7.204311011076777e+17
19352.0	7.201684132462591e+17
19353.0	7.199088522384723e+17
19354.0	7.196431591582377e+17
19355.0	7.192715194968744e+17
19356.0	7.188929508453033e+17
19357.0	7.186174303709866e+17
19358.0	7.183381209022463e+17
19359.0	7.18052745351441e+17
19360.0	7.177698905773395e+17
19361.0	7.174663192969212e+17
19362.0	7.169146841552212e+17
19363.0	7.166159890328233e+17
19364.0	7.163132847150419e+17
19365.0	7.160064929082025e+17
19366.0	7.156698636615677e+17
19367.0	7.150299929466198e+17
19368.0	7.147068193068372e+17
19369.0	7.143760564933972e+17
19370.0	7.140133376972114e+17
19371.0	7.13269763235294e+17
19372.0	7.129226377428991e+17
19373.0	7.125664795372202e+17
19374.0	7.11811090000554e+17
19375.0	7.11308986093841e+17
19376.0	7.109253542182913e+17
19377.0	7.099173177043629e+17
19378.0	7.095055103120723e+17
19379.0	7.085954210026839e+17
19380.0	7.079361278640127e+17
19381.0	7.072526692428461e+17
19382.0	7.066238439478611e+17
19383.0	7.061619245492905e+17
19384.0	7.056996280827904e+17
19385.0	7.052255233922387e+17
19386.0	7.047232080926036e+17
19387.0	7.042331720373587e+17
19388.0	7.037370117390335e+17
19389.0	7.032333653770237e+17
19390.0	7.027217836015615e+17
19391.0	7.017791383142394e+17
19392.0	7.016468412279465e+17
19393.0	7.010968101279059e+17
19394.0	7.005286283870207e+17
19395.0	6.999487635521536e+17
19396.0	6.993572180000765e+17
19397.0	6.987234333600425e+17
19398.0	6.980866943221759e+17
19399.0	6.974340844574035e+17
19400.0	6.968175061106688e+17
19401.0	6.961666630964564e+17
19402.0	6.954985238211242e+17
19403.0	6.947583457667754e+17
19404.0	6.940133012712106e+17
19405.0	6.93291619258641e+17
19406.0	6.925527900924586e+17
19407.0	6.91687919854114e+17
19408.0	6.908305020551165e+17
19409.0	6.900468965965824e+17
19410.0	6.890072750161919e+17
19411.0	6.881431347265535e+17
19412.0	6.870212501220012e+17
19413.0	6.860570280766121e+17
19414.0	6.847488324184744e+17
19415.0	6.836018825833126e+17
19416.0	6.822567685215571e+17
19417.0	6.807256471437306e+17
19418.0	6.790881628301993e+17
19419.0	6.77222262872473e+17
19420.0	6.750944502306129e+17
19421.0	6.727287588257795e+17
19422.0	6.705769932827305e+17
19423.0	6.690253204444499e+17
19424.0	6.674231651030358e+17
19425.0	6.657532770648061e+17
19426.0	6.639622275377833e+17
19427.0	6.621441851479382e+17
19428.0	6.602499456062804e+17
19429.0	6.582190086640979e+17
19430.0	6.561542745795242e+17
19431.0	6.538017582525098e+17
19432.0	6.514279602367144e+17
19433.0	6.487480889682602e+17
19434.0	6.45778421142869e+17
19435.0	6.424288087244799e+17
19436.0	6.386557583884289e+17
19437.0	6.345449795485699e+17
19438.0	6.294803102826499e+17
19439.0	6.247355856715773e+17
19440.0	6.199014037564074e+17
19441.0	6.148197623092562e+17
19442.0	6.091705211508055e+17
19443.0	6.02571260629265e+17
19444.0	5.950733434224635e+17
19445.0	5.863977219959468e+17
19446.0	5.764031150642516e+17
19447.0	5.647685163941883e+17
19448.0	5.5103933186921856e+17
19449.0	5.344536164652374e+17
19450.0	5.1389777925461165e+17
19451.0	5.0515748515566976e+17
19452.0	5.245495774893393e+17
19453.0	5.4306849395398035e+17
19454.0	5.5782607617174125e+17
19455.0	5.701895751816533e+17
19456.0	5.807255882563588e+17
19457.0	5.898063670061734e+17
19458.0	5.972751498084356e+17
19459.0	6.043985857828184e+17
19460.0	6.102539982340092e+17
19461.0	6.153265564964179e+17
19462.0	6.199732758817452e+17
19463.0	6.247724003360764e+17
19464.0	6.294547454405295e+17
19465.0	6.336124470777176e+17
19466.0	6.372524278764881e+17
19467.0	6.405567334230694e+17
19468.0	6.43468022828237e+17
19469.0	6.460171827369299e+17
19470.0	6.483460552829608e+17
19471.0	6.504218884046847e+17
19472.0	6.523404414178643e+17
19473.0	6.541225964339199e+17
19474.0	6.558392020282025e+17
19475.0	6.574085337950889e+17
19476.0	6.589823828972884e+17
19477.0	6.604532423327743e+17
19478.0	6.618314439305896e+17
19479.0	6.631406520238079e+17
19480.0	6.646694973625681e+17
19481.0	6.667242015380817e+17
19482.0	6.687226043826166e+17
19483.0	6.704574140951208e+17
19484.0	6.719710556411222e+17
19485.0	6.732779579157162e+17
19486.0	6.743206496567297e+17
19487.0	6.754101654891176e+17
19488.0	6.763258516777644e+17
19489.0	6.77143797371153e+17
19490.0	6.779352557551615e+17
19491.0	6.786656210954921e+17
19492.0	6.793649473279316e+17
19493.0	6.800141186323796e+17
19494.0	6.805472152300201e+17
19495.0	6.811790673444861e+17
19496.0	6.816708862585514e+17
19497.0	6.821469482909693e+17
19498.0	6.82551834452514e+17
19499.0	6.824518220425894e+17
19500.0	6.835254158775636e+17
19501.0	6.839202813575167e+17
19502.0	6.842996449695059e+17
19503.0	6.846665399642793e+17
19504.0	6.850196174536704e+17
19505.0	6.854045212519082e+17
19506.0	6.857404766836052e+17
19507.0	6.86056976626483e+17
19508.0	6.86362296721954e+17
19509.0	6.866555514126333e+17
19510.0	6.869295460690602e+17
19511.0	6.865734547625297e+17
19512.0	6.873474512803154e+17
19513.0	6.874909000422737e+17
19514.0	6.877801156182013e+17
19515.0	6.881175405942102e+17
19516.0	6.883618088200874e+17
19517.0	6.885829711844691e+17
19518.0	6.887854985357993e+17
19519.0	6.889785218039807e+17
19520.0	6.891645667988819e+17
19521.0	6.897235163873279e+17
19522.0	6.899022122625706e+17
19523.0	6.906302855555747e+17
19524.0	6.908836438168916e+17
19525.0	6.913053515841528e+17
19526.0	6.917196640245075e+17
19527.0	6.918270280706729e+17
19528.0	6.922879088197633e+17
19529.0	6.925065676739926e+17
19530.0	6.925883230475604e+17
19531.0	6.928165242230099e+17
19532.0	6.931373156379306e+17
19533.0	6.931972093203796e+17
19534.0	6.932517737201661e+17
19535.0	6.933978678296575e+17
19536.0	6.936705358277289e+17
19537.0	6.937100051371348e+17
19538.0	6.937397361814185e+17
19539.0	6.937503832823124e+17
19540.0	6.93855565381632e+17
19541.0	6.940762664424787e+17
19542.0	6.940921992751785e+17
19543.0	6.941046470606847e+17
19544.0	6.941136975997609e+17
19545.0	6.940998886227968e+17
19546.0	6.940844973446484e+17
19547.0	6.942437601705983e+17
19548.0	6.943123624864425e+17
19549.0	6.943009165104467e+17
19550.0	6.942961757585407e+17
19551.0	6.942842445015721e+17
19552.0	6.942696441992531e+17
19553.0	6.942516832108543e+17
19554.0	6.942316736544765e+17
19555.0	6.942107140882431e+17
19556.0	6.942816338269523e+17
19557.0	6.942977428903252e+17
19558.0	6.942685215937875e+17
19559.0	6.942370620069204e+17
19560.0	6.942026855612415e+17
19561.0	6.941682896120489e+17
19562.0	6.941322268464467e+17
19563.0	6.940935583694847e+17
19564.0	6.940531974908585e+17
19565.0	6.940111234487636e+17
19566.0	6.939665024854697e+17
19567.0	6.939219995918336e+17
19568.0	6.93873746710801e+17
19569.0	6.938263696004435e+17
19570.0	6.938664049311744e+17
19571.0	6.938176373391359e+17
19572.0	6.937665067461289e+17
19573.0	6.937127310153044e+17
19574.0	6.936533962238633e+17
19575.0	6.936009895138644e+17
19576.0	6.935427382509565e+17
19577.0	6.934827451635028e+17
19578.0	6.934206501705044e+17
19579.0	6.933592631760212e+17
19580.0	6.932962685048148e+17
19581.0	6.932319870910463e+17
19582.0	6.93165877380164e+17
19583.0	6.930975483931304e+17
19584.0	6.930281043503785e+17
19585.0	6.929528128187049e+17
19586.0	6.928800524795904e+17
19587.0	6.928123828371455e+17
19588.0	6.927216638164992e+17
19589.0	6.926676529949354e+17
19590.0	6.925907414832467e+17
19591.0	6.925189992415231e+17
19592.0	6.924428765386067e+17
19593.0	6.923650491307348e+17
19594.0	6.922772732532052e+17
19595.0	6.922546758811647e+17
19596.0	6.921423947825151e+17
19597.0	6.921045950857216e+17
19598.0	6.920120280547327e+17
19599.0	6.919438989961898e+17
19600.0	6.918617467016531e+17
19601.0	6.917756948228777e+17
19602.0	6.916930377438548e+17
19603.0	6.915863745658879e+17
19604.0	6.915231459923284e+17
19605.0	6.914269980043946e+17
19606.0	6.913550794620927e+17
19607.0	6.912686161919997e+17
19608.0	6.911811135733759e+17
19609.0	6.910912944406527e+17
19610.0	6.910049311348052e+17
19611.0	6.909156203517268e+17
19612.0	6.908262235854163e+17
19613.0	6.907359874689705e+17
19614.0	6.906430281307476e+17
19615.0	6.905529806880768e+17
19616.0	6.904562157879295e+17
19617.0	6.903670390827689e+17
19618.0	6.902482998744403e+17
19619.0	6.901474876107433e+17
19620.0	6.900542244651005e+17
19621.0	6.89988395213346e+17
19622.0	6.898925088800768e+17
19623.0	6.897960219923796e+17
19624.0	6.896990087195306e+17
19625.0	6.896014615816874e+17
19626.0	6.895034007814143e+17
19627.0	6.894045390787923e+17
19628.0	6.892941388458665e+17
19629.0	6.892004968147626e+17
19630.0	6.890647345343146e+17
19631.0	6.884878890390868e+17
19632.0	6.889019765249363e+17
19633.0	6.888029550892371e+17
19634.0	6.887031923103059e+17
19635.0	6.885994957635583e+17
19636.0	6.884993966713514e+17
19637.0	6.883772288991232e+17
19638.0	6.882934079007402e+17
19639.0	6.881895748293971e+17
19640.0	6.880825417837225e+17
19641.0	6.879534743115092e+17
19642.0	6.878780102541311e+17
19643.0	6.877730327669418e+17
19644.0	6.876649717672617e+17
19645.0	6.875502114155177e+17
19646.0	6.874567592465748e+17
19647.0	6.873506681716735e+17
19648.0	6.872442486827689e+17
19649.0	6.871373922871977e+17
19650.0	6.870304838123519e+17
19651.0	6.869231550682452e+17
19652.0	6.868155423697576e+17
19653.0	6.867075526033407e+17
19654.0	6.865994665776467e+17
19655.0	6.864908046041087e+17
19656.0	6.863819848548351e+17
19657.0	6.86273482194944e+17
19658.0	6.861644801332563e+17
19659.0	6.860551409893375e+17
19660.0	6.859456986655401e+17
19661.0	6.858359363163476e+17
19662.0	6.857259166466047e+17
19663.0	6.856134420507305e+17
19664.0	6.855033355588948e+17
19665.0	6.853945296508244e+17
