# Flux units: erg / (cm m2 s)
# Wavelength units: Angstrom
wave	flux
19000.0	5.6697713936302074e+17
19001.0	5.668674329378815e+17
19002.0	5.667659378414932e+17
19003.0	5.666596041960105e+17
19004.0	5.6655356820630176e+17
19005.0	5.6644883608589645e+17
19006.0	5.663434788044799e+17
19007.0	5.662109529189034e+17
19008.0	5.661296397647871e+17
19009.0	5.660258623378773e+17
19010.0	5.658992830666068e+17
19011.0	5.658128397893631e+17
19012.0	5.6565397367466643e+17
19013.0	5.656041229735253e+17
19014.0	5.6549682694498976e+17
19015.0	5.6539194788413434e+17
19016.0	5.6528615320671565e+17
19017.0	5.651816079425534e+17
19018.0	5.650734369122985e+17
19019.0	5.649717483186858e+17
19020.0	5.648651605682858e+17
19021.0	5.647605374298794e+17
19022.0	5.646555151335423e+17
19023.0	5.6454877596876794e+17
19024.0	5.644441815613438e+17
19025.0	5.643352264758613e+17
19026.0	5.642274922124628e+17
19027.0	5.64081297859106e+17
19028.0	5.640236965735083e+17
19029.0	5.638999500652543e+17
19030.0	5.637860440233301e+17
19031.0	5.636810963156992e+17
19032.0	5.635756206850047e+17
19033.0	5.634669552861183e+17
19034.0	5.63364887737139e+17
19035.0	5.6325135792428365e+17
19036.0	5.5992675600083226e+17
19037.0	5.6304750090868045e+17
19038.0	5.629440723779583e+17
19039.0	5.6283995744938643e+17
19040.0	5.6273499555102714e+17
19041.0	5.626294656740009e+17
19042.0	5.625201594553685e+17
19043.0	5.6242007741999776e+17
19044.0	5.6231412217064096e+17
19045.0	5.6220811512162976e+17
19046.0	5.6210275420514976e+17
19047.0	5.619999382525268e+17
19048.0	5.6188575447777274e+17
19049.0	5.617862110609407e+17
19050.0	5.616837224038399e+17
19051.0	5.6108445786439584e+17
19052.0	5.6144521330688e+17
19053.0	5.613648714836649e+17
19054.0	5.612664912172373e+17
19055.0	5.611511841379669e+17
19056.0	5.610556165718015e+17
19057.0	5.609516687862441e+17
19058.0	5.6083972155419296e+17
19059.0	5.6074220894945274e+17
19060.0	5.6063661559862605e+17
19061.0	5.6053344187187194e+17
19062.0	5.6045430940631034e+17
19063.0	5.603568404922367e+17
19064.0	5.602463865023147e+17
19065.0	5.601404009141587e+17
19066.0	5.6004881542021114e+17
19067.0	5.6012701570170874e+17
19068.0	5.600229881544703e+17
19069.0	5.5991835348172794e+17
19070.0	5.598125287451306e+17
19071.0	5.597065954459647e+17
19072.0	5.59604211786274e+17
19073.0	5.5949996669446816e+17
19074.0	5.5939566267269114e+17
19075.0	5.592911535494485e+17
19076.0	5.5918569735236256e+17
19077.0	5.5908159822233594e+17
19078.0	5.589758941418836e+17
19079.0	5.5887322464037536e+17
19080.0	5.587681867552084e+17
19081.0	5.5866252307988474e+17
19082.0	5.5855781207080954e+17
19083.0	5.584516705943551e+17
19084.0	5.5834190649753594e+17
19085.0	5.5824654445226656e+17
19086.0	5.58124471890739e+17
19087.0	5.5794114319701325e+17
19088.0	5.579283896467456e+17
19089.0	5.57768962613794e+17
19090.0	5.57720659890449e+17
19091.0	5.576174091283113e+17
19092.0	5.574880994350421e+17
19093.0	5.5741004078120954e+17
19094.0	5.5730567090885965e+17
19095.0	5.572014348348073e+17
19096.0	5.570952595243007e+17
19097.0	5.5699343119045965e+17
19098.0	5.5688892793924256e+17
19099.0	5.567849435234302e+17
19100.0	5.5667616634634234e+17
19101.0	5.565754190943573e+17
19102.0	5.564688964954793e+17
19103.0	5.563690105438207e+17
19104.0	5.562656077381631e+17
19105.0	5.5616093720412154e+17
19106.0	5.560393866936319e+17
19107.0	5.559528658217642e+17
19108.0	5.558495836722517e+17
19109.0	5.554620345264805e+17
19110.0	5.5563663822902605e+17
19111.0	5.5553702966067194e+17
19112.0	5.55434404478976e+17
19113.0	5.553308014652074e+17
19114.0	5.552266993292628e+17
19115.0	5.5511424297861114e+17
19116.0	5.550188105389396e+17
19117.0	5.5491538249755296e+17
19118.0	5.547914996744192e+17
19119.0	5.545225581756413e+17
19120.0	5.54574604874547e+17
19121.0	5.544842671860394e+17
19122.0	5.543978613779115e+17
19123.0	5.542941739887273e+17
19124.0	5.541734466103977e+17
19125.0	5.540859102276267e+17
19126.0	5.5398029387803296e+17
19127.0	5.5380615133921254e+17
19128.0	5.536106144246439e+17
19129.0	5.536694440121684e+17
19130.0	5.535690009870335e+17
19131.0	5.534606773540179e+17
19132.0	5.53362761257233e+17
19133.0	5.532339208366763e+17
19134.0	5.5307056437002246e+17
19135.0	5.5305129294124365e+17
19136.0	5.529494924995242e+17
19137.0	5.528392958301524e+17
19138.0	5.527320569839615e+17
19139.0	5.5263951239249914e+17
19140.0	5.525363834049876e+17
19141.0	5.5243313697696403e+17
19142.0	5.523278749062484e+17
19143.0	5.522240358230698e+17
19144.0	5.5212164922736634e+17
19145.0	5.5201989443365536e+17
19146.0	5.518875263937194e+17
19147.0	5.518094842374826e+17
19148.0	5.517088271630336e+17
19149.0	5.5160620967089485e+17
19150.0	5.5150426054109856e+17
19151.0	5.51401430257937e+17
19152.0	5.5129515260641274e+17
19153.0	5.511943648793941e+17
19154.0	5.510872796146345e+17
19155.0	5.509886853687979e+17
19156.0	5.5088658153908896e+17
19157.0	5.507803540794025e+17
19158.0	5.504872110271144e+17
19159.0	5.505766260386473e+17
19160.0	5.5047029232325965e+17
19161.0	5.503562280162645e+17
19162.0	5.4983507966252397e+17
19163.0	5.501468099127977e+17
19164.0	5.5003650649838925e+17
19165.0	5.499247996698623e+17
19166.0	5.4981553329711763e+17
19167.0	5.496869332800851e+17
19168.0	5.4962241950187514e+17
19169.0	5.49513746063906e+17
19170.0	5.4942029144828576e+17
19171.0	5.4929048899420154e+17
19172.0	5.492128211795967e+17
19173.0	5.491114280047956e+17
19174.0	5.490078040894122e+17
19175.0	5.489074040558933e+17
19176.0	5.488048144558762e+17
19177.0	5.486962137890815e+17
19178.0	5.4859595055977805e+17
19179.0	5.484563069403137e+17
19180.0	5.4837796223494816e+17
19181.0	5.482873275198122e+17
19182.0	5.481876196163582e+17
19183.0	5.4808728067986765e+17
19184.0	5.4798479474906445e+17
19185.0	5.4788658057707514e+17
19186.0	5.4778466073750176e+17
19187.0	5.476783214996139e+17
19188.0	5.4757729043305805e+17
19189.0	5.4747046325780474e+17
19190.0	5.4736590610978125e+17
19191.0	5.4726570628437325e+17
19192.0	5.471700295963989e+17
19193.0	5.4705944131884365e+17
19194.0	5.4696138366429856e+17
19195.0	5.468615887290367e+17
19196.0	5.4676020925562874e+17
19197.0	5.466578829879977e+17
19198.0	5.4655413401245e+17
19199.0	5.438557019002189e+17
19200.0	5.447428971604663e+17
19201.0	5.462478855077887e+17
19202.0	5.461473324520789e+17
19203.0	5.460390082598228e+17
19204.0	5.459489194333524e+17
19205.0	5.4585388901771936e+17
19206.0	5.457518518774442e+17
19207.0	5.456467115813545e+17
19208.0	5.455383481723561e+17
19209.0	5.454439813655209e+17
19210.0	5.453435292527273e+17
19211.0	5.4519034600052045e+17
19212.0	5.45084078694946e+17
19213.0	5.4495537878357325e+17
19214.0	5.448418993023658e+17
19215.0	5.447695616092841e+17
19216.0	5.4467611146758816e+17
19217.0	5.445739737339221e+17
19218.0	5.444372350894079e+17
19219.0	5.443643069082281e+17
19220.0	5.442658977710079e+17
19221.0	5.441510797475839e+17
19222.0	5.440642744319999e+17
19223.0	5.4396166819457696e+17
19224.0	5.438586052673535e+17
19225.0	5.437526539326804e+17
19226.0	5.4365612132706976e+17
19227.0	5.435542286106623e+17
19228.0	5.4345357782766925e+17
19229.0	5.4335172237066234e+17
19230.0	5.432438186573823e+17
19231.0	5.431431098531838e+17
19232.0	5.4304514531218765e+17
19233.0	5.429407106378411e+17
19234.0	5.4284128186531834e+17
19235.0	5.427384373914281e+17
19236.0	5.426379703888554e+17
19237.0	5.4253542762523296e+17
19238.0	5.4242667931893754e+17
19239.0	5.4233787513787725e+17
19240.0	5.422314745932458e+17
19241.0	5.421327136238251e+17
19242.0	5.420327870573226e+17
19243.0	5.4192596295789216e+17
19244.0	5.418309241536511e+17
19245.0	5.417289455239168e+17
19246.0	5.4162673914347514e+17
19247.0	5.415254865477632e+17
19248.0	5.414232321425407e+17
19249.0	5.4132079968911366e+17
19250.0	5.412193905759573e+17
19251.0	5.411156592164862e+17
19252.0	5.4100288577645216e+17
19253.0	5.409140595053909e+17
19254.0	5.408121998540799e+17
19255.0	5.4070286217816723e+17
19256.0	5.406048613564415e+17
19257.0	5.40507857101346e+17
19258.0	5.4040616592124576e+17
19259.0	5.4030110685484365e+17
19260.0	5.401431219634174e+17
19261.0	5.4010007001934496e+17
19262.0	5.3999638200101536e+17
19263.0	5.398946447534762e+17
19264.0	5.397737995152041e+17
19265.0	5.396844876136447e+17
19266.0	5.3958345403050656e+17
19267.0	5.394891911026004e+17
19268.0	5.393860451281577e+17
19269.0	5.392843605890389e+17
19270.0	5.391822937391103e+17
19271.0	5.390665721926998e+17
19272.0	5.38977363960354e+17
19273.0	5.387268430058834e+17
19274.0	5.386969668386814e+17
19275.0	5.3867301191024634e+17
19276.0	5.38570215600947e+17
19277.0	5.384681255425364e+17
19278.0	5.380723468926971e+17
19279.0	5.3791077712964256e+17
19280.0	5.3781126363217914e+17
19281.0	5.3771263310561274e+17
19282.0	5.376111135424511e+17
19283.0	5.374675620200446e+17
19284.0	5.3735169304384845e+17
19285.0	5.372960913926825e+17
19286.0	5.372013180179796e+17
19287.0	5.371010375920298e+17
19288.0	5.363264399605765e+17
19289.0	5.345472153649104e+17
19290.0	5.3679411226651296e+17
19291.0	5.366813027554645e+17
19292.0	5.3658929363681274e+17
19293.0	5.3648655527881376e+17
19294.0	5.3638372737242445e+17
19295.0	5.3628180410750285e+17
19296.0	5.361785084663124e+17
19297.0	5.360737974572372e+17
19298.0	5.359780607208106e+17
19299.0	5.3588653520541e+17
19300.0	5.357838570356736e+17
19301.0	5.35678137016866e+17
19302.0	5.3557496447849805e+17
19303.0	5.3546742839596365e+17
19304.0	5.3536652777226234e+17
19305.0	5.352643462780245e+17
19306.0	5.351593816533675e+17
19307.0	5.350527670594218e+17
19308.0	5.3495187985749325e+17
19309.0	5.3476242363514854e+17
19310.0	5.3461836187566054e+17
19311.0	5.346368377847807e+17
19312.0	5.345389054001152e+17
19313.0	5.3443449777902925e+17
19314.0	5.314755256385431e+17
19315.0	5.3167890478312774e+17
19316.0	5.341154363047935e+17
19317.0	5.340186433727145e+17
19318.0	5.340226531972436e+17
19319.0	5.340166428994217e+17
19320.0	5.3391185737154554e+17
19321.0	5.338073228727636e+17
19322.0	5.336930393434793e+17
19323.0	5.3354793949375155e+17
19324.0	5.334854644968107e+17
19325.0	5.332955372541268e+17
19326.0	5.3327606995135136e+17
19327.0	5.331702484303871e+17
19328.0	5.3306497643315194e+17
19329.0	5.3295965326540794e+17
19330.0	5.328517361303552e+17
19331.0	5.327454340819626e+17
19332.0	5.324966643193173e+17
19333.0	5.3213975155834874e+17
19334.0	5.3203399616757754e+17
19335.0	5.319260249959081e+17
19336.0	5.3183313675113805e+17
19337.0	5.317489536445098e+17
19338.0	5.3163238911290016e+17
19339.0	5.3153170589395616e+17
19340.0	5.314192842861226e+17
19341.0	5.313138479420757e+17
19342.0	5.311854322647039e+17
19343.0	5.3109580718844576e+17
19344.0	5.309852563800064e+17
19345.0	5.3077675578053926e+17
19346.0	5.307468324973226e+17
19347.0	5.3063875590881274e+17
19348.0	5.30521576841762e+17
19349.0	5.304072252249428e+17
19350.0	5.3029483234809165e+17
19351.0	5.301827844527445e+17
19352.0	5.300684387079508e+17
19353.0	5.2995824525421216e+17
19354.0	5.2957531948974074e+17
19355.0	5.294339504035156e+17
19356.0	5.2932199408380576e+17
19357.0	5.2936919377510374e+17
19358.0	5.293292574998528e+17
19359.0	5.2920598445861536e+17
19360.0	5.290942497379668e+17
19361.0	5.289431193878526e+17
19362.0	5.2882279382384634e+17
19363.0	5.286993942544383e+17
19364.0	5.2857827694564685e+17
19365.0	5.283833971387049e+17
19366.0	5.2825043574456314e+17
19367.0	5.2812624799552845e+17
19368.0	5.280028143124479e+17
19369.0	5.2790599915055763e+17
19370.0	5.277803280859134e+17
19371.0	5.2766866837340154e+17
19372.0	5.2754231811112954e+17
19373.0	5.276538471710718e+17
19374.0	5.2756286635595085e+17
19375.0	5.274310409890473e+17
19376.0	5.2729879814908576e+17
19377.0	5.2714437436156576e+17
19378.0	5.269336909064874e+17
19379.0	5.2679605027689805e+17
19380.0	5.266567586294441e+17
19381.0	5.2651530439884794e+17
19382.0	5.266269240557564e+17
19383.0	5.266138101448703e+17
19384.0	5.2647301113446394e+17
19385.0	5.263258768375807e+17
19386.0	5.261606021758975e+17
19387.0	5.2597194217226234e+17
19388.0	5.260071392335187e+17
19389.0	5.2592445985477965e+17
19390.0	5.258021174596949e+17
19391.0	5.226343799193556e+17
19392.0	5.254724587268775e+17
19393.0	5.255421972796755e+17
19394.0	5.2537170140856314e+17
19395.0	5.251134616764414e+17
19396.0	5.2496884186480634e+17
19397.0	5.247393350724266e+17
19398.0	5.2454777100260685e+17
19399.0	5.243367583645692e+17
19400.0	5.241052641711445e+17
19401.0	5.239052004840787e+17
19402.0	5.237406239642964e+17
19403.0	5.2337054835889485e+17
19404.0	5.2312481890740915e+17
19405.0	5.229689513705471e+17
19406.0	5.2254464292509e+17
19407.0	5.223574419101012e+17
19408.0	5.219021458068821e+17
19409.0	5.2166524711294304e+17
19410.0	5.211332519395328e+17
19411.0	5.2075363394300563e+17
19412.0	5.203619060820649e+17
19413.0	5.199659431624704e+17
19414.0	5.1957229235295546e+17
19415.0	5.190267887943679e+17
19416.0	5.185519877095423e+17
19417.0	5.180927120506879e+17
19418.0	5.177803452448767e+17
19419.0	5.173557253024428e+17
19420.0	5.1684469326042426e+17
19421.0	5.164040272390826e+17
19422.0	5.1569843101149856e+17
19423.0	5.1530164502964883e+17
19424.0	5.143992600275626e+17
19425.0	5.135872859045885e+17
19426.0	5.1277216731190605e+17
19427.0	5.1150126404949254e+17
19428.0	5.1016504023449645e+17
19429.0	5.0849126218902163e+17
19430.0	5.061928591643987e+17
19431.0	5.0421706480681114e+17
19432.0	5.044608885762725e+17
19433.0	5.039263218750808e+17
19434.0	5.025146602870104e+17
19435.0	5.002615594505558e+17
19436.0	4.981057475226277e+17
19437.0	4.9660452419229e+17
19438.0	4.901907472580587e+17
19439.0	4.929423493737129e+17
19440.0	4.9086252145704966e+17
19441.0	4.880913367651674e+17
19442.0	4.845710000259077e+17
19443.0	4.771578555749724e+17
19444.0	4.695158413765296e+17
19445.0	4.6738433620923706e+17
19446.0	4.607624347648004e+17
19447.0	4.5254155600308966e+17
19448.0	4.374095554674694e+17
19449.0	4.205669529245024e+17
19450.0	3.778929446529696e+17
19451.0	3.657900144022863e+17
19452.0	4.010547622881982e+17
19453.0	4.3166379414650925e+17
19454.0	4.4415361979078266e+17
19455.0	4.569789614434996e+17
19456.0	4.635257600999421e+17
19457.0	4.678705330083146e+17
19458.0	4.662619304624182e+17
19459.0	4.802715711089316e+17
19460.0	4.8496334843412416e+17
19461.0	4.8783660773539885e+17
19462.0	4.90147556202906e+17
19463.0	4.920035241885692e+17
19464.0	4.9349231916701e+17
19465.0	4.950548086958762e+17
19466.0	4.9658884203915936e+17
19467.0	4.9850706034687974e+17
19468.0	5.0043163239601376e+17
19469.0	5.009840815123113e+17
19470.0	5.0116471781239546e+17
19471.0	5.0168075519699546e+17
19472.0	5.036665345146888e+17
19473.0	5.0534155756939994e+17
19474.0	5.0674103288681824e+17
19475.0	5.076982016507903e+17
19476.0	5.0852953856846554e+17
19477.0	5.0921144501753165e+17
19478.0	5.099277190343339e+17
19479.0	5.102249190271657e+17
19480.0	5.106750087408296e+17
19481.0	5.110309243759274e+17
19482.0	5.112490172088319e+17
19483.0	5.116583998739799e+17
19484.0	5.117686268821503e+17
19485.0	5.119869546659839e+17
19486.0	5.121911291904e+17
19487.0	5.125147349133995e+17
19488.0	5.128086913810432e+17
19489.0	5.129656683812181e+17
19490.0	5.131282378566313e+17
19491.0	5.1339250997657606e+17
19492.0	5.135693176460627e+17
19493.0	5.139044449823402e+17
19494.0	5.139441709132455e+17
19495.0	5.1413532002658976e+17
19496.0	5.140982313342292e+17
19497.0	5.14354485133312e+17
19498.0	5.1409703903341235e+17
19499.0	5.094828034140775e+17
19500.0	5.1449986187700883e+17
19501.0	5.1448594916092576e+17
19502.0	5.144869444692649e+17
19503.0	5.145531910542677e+17
19504.0	5.1453838753791994e+17
19505.0	5.1452811918267725e+17
19506.0	5.1455270891902285e+17
19507.0	5.1451215587136845e+17
19508.0	5.1456287339533645e+17
19509.0	5.14548381585681e+17
19510.0	5.143985119035391e+17
19511.0	5.083738547421128e+17
19512.0	5.136969928889653e+17
19513.0	5.1272670413236646e+17
19514.0	5.1316825501204397e+17
19515.0	5.1382791843785363e+17
19516.0	5.1378699531277645e+17
19517.0	5.137454967291903e+17
19518.0	5.137441170827945e+17
19519.0	5.1369308883080525e+17
19520.0	5.136424110129151e+17
19521.0	5.135812209410047e+17
19522.0	5.132290044723197e+17
19523.0	5.1311615099098445e+17
19524.0	5.130580144422911e+17
19525.0	5.1299931480828576e+17
19526.0	5.1294137434330445e+17
19527.0	5.128937166340096e+17
19528.0	5.1290635560987296e+17
19529.0	5.1284286419326285e+17
19530.0	5.1277888434995194e+17
19531.0	5.127130523019945e+17
19532.0	5.126458302616918e+17
19533.0	5.1231704492277766e+17
19534.0	5.1224753488964256e+17
19535.0	5.121778670108671e+17
19536.0	5.121070886202026e+17
19537.0	5.1203802947474765e+17
19538.0	5.119323711821141e+17
19539.0	5.1182557092031155e+17
19540.0	5.117764089937919e+17
19541.0	5.1170368472569165e+17
19542.0	5.1162901709673805e+17
19543.0	5.115536909620564e+17
19544.0	5.114783607728811e+17
19545.0	5.1139027130122214e+17
19546.0	5.1128200575931725e+17
19547.0	5.11253129793809e+17
19548.0	5.111758719025151e+17
19549.0	5.1109367773484365e+17
19550.0	5.1101878179594234e+17
19551.0	5.109395037880319e+17
19552.0	5.1085964382044154e+17
19553.0	5.107786945221973e+17
19554.0	5.1069524863440186e+17
19555.0	5.104216707519827e+17
19556.0	5.1034433281938746e+17
19557.0	5.104655721125203e+17
19558.0	5.103847375983957e+17
19559.0	5.103019535717715e+17
19560.0	5.102649966504617e+17
19561.0	5.1021233667440634e+17
19562.0	5.1014263265471136e+17
19563.0	5.1010859993224525e+17
19564.0	5.10024612000563e+17
19565.0	5.0994007328686074e+17
19566.0	5.098552347503274e+17
19567.0	5.0977134223906125e+17
19568.0	5.096892800521557e+17
19569.0	5.096041922341546e+17
19570.0	5.095197258022911e+17
19571.0	5.0943404176397645e+17
19572.0	5.093467282385577e+17
19573.0	5.0926168508989434e+17
19574.0	5.091719477460991e+17
19575.0	5.090897147811156e+17
19576.0	5.0900302390012576e+17
19577.0	5.0891393499572896e+17
19578.0	5.0882807144120314e+17
19579.0	5.0874147115717965e+17
19580.0	5.0865456594725536e+17
19581.0	5.0856770512704845e+17
19582.0	5.0848114273157114e+17
19583.0	5.0839364451696634e+17
19584.0	5.083047104522921e+17
19585.0	5.0821359681754445e+17
19586.0	5.081230678687743e+17
19587.0	5.0802531185459194e+17
19588.0	5.079342933606398e+17
19589.0	5.078625091758763e+17
19590.0	5.077725206631764e+17
19591.0	5.07689331536691e+17
19592.0	5.0760102913419936e+17
19593.0	5.075119261788841e+17
19594.0	5.074104609319593e+17
19595.0	5.073345099857919e+17
19596.0	5.069654514991101e+17
19597.0	5.0715407899688954e+17
19598.0	5.070542261103274e+17
19599.0	5.072343104400043e+17
19600.0	5.0724215777307296e+17
19601.0	5.071499907388757e+17
19602.0	5.0706110847385594e+17
19603.0	5.0691283360590483e+17
19604.0	5.0688053739519994e+17
19605.0	5.067822483548841e+17
19606.0	5.06704793890543e+17
19607.0	5.066155792968362e+17
19608.0	5.064997824626687e+17
19609.0	5.0640021758498125e+17
19610.0	5.063132059795455e+17
19611.0	5.062229837742079e+17
19612.0	5.061337946259456e+17
19613.0	5.060432585468585e+17
19614.0	5.059524068463956e+17
19615.0	5.058634358718462e+17
19616.0	5.057469945129641e+17
19617.0	5.056835541969578e+17
19618.0	5.055731460647593e+17
19619.0	5.054720787873791e+17
19620.0	5.0538621719019514e+17
19621.0	5.0532303314616314e+17
19622.0	5.0523377821723296e+17
19623.0	5.0514369155781965e+17
19624.0	5.050531703685119e+17
19625.0	5.049628109395285e+17
19626.0	5.048727285443242e+17
19627.0	5.04782096695296e+17
19628.0	5.046297486688258e+17
19629.0	5.045971255820287e+17
19630.0	5.0443296387891194e+17
19631.0	5.016061573332961e+17
19632.0	5.04329851179281e+17
19633.0	5.0423632078656845e+17
19634.0	5.041505055364436e+17
19635.0	5.0405858030387194e+17
19636.0	5.039687740336809e+17
19637.0	5.038642252043605e+17
19638.0	5.037886691519146e+17
19639.0	5.0369711749201914e+17
19640.0	5.0360447978700794e+17
19641.0	5.034828566451542e+17
19642.0	5.034272241658538e+17
19643.0	5.0333582245232634e+17
19644.0	5.032441436351145e+17
19645.0	5.031450910217556e+17
19646.0	5.0306561070858214e+17
19647.0	5.0297558032274765e+17
19648.0	5.028851544140458e+17
19649.0	5.0279461428046483e+17
19650.0	5.0270435467591674e+17
19651.0	5.026135187739988e+17
19652.0	5.0252299346029216e+17
19653.0	5.024315998557524e+17
19654.0	5.0234214611681274e+17
19655.0	5.0225201674540365e+17
19656.0	5.0216198342355616e+17
