# Flux units: erg / (cm m2 s)
# Wavelength units: Angstrom
wave	flux
19000.0	6.992930143906472e+17
19001.0	6.991599856779261e+17
19002.0	6.990286086821203e+17
19003.0	6.988963951323817e+17
19004.0	6.987641906003968e+17
19005.0	6.986320358408191e+17
19006.0	6.984998666108927e+17
19007.0	6.983663959583401e+17
19008.0	6.982349621996201e+17
19009.0	6.981032319036074e+17
19010.0	6.979673340073299e+17
19011.0	6.978389518843904e+17
19012.0	6.977050055977641e+17
19013.0	6.975750910858579e+17
19014.0	6.974426560768681e+17
19015.0	6.973106870550527e+17
19016.0	6.971783483752445e+17
19017.0	6.970445636392275e+17
19018.0	6.969145766357674e+17
19019.0	6.967828247390889e+17
19020.0	6.966501790362281e+17
19021.0	6.965184466430633e+17
19022.0	6.963867965980672e+17
19023.0	6.962546742744404e+17
19024.0	6.961220721224361e+17
19025.0	6.959894830426794e+17
19026.0	6.958572966161065e+17
19027.0	6.957246186171049e+17
19028.0	6.955939065582932e+17
19029.0	6.954620637151232e+17
19030.0	6.953301415996074e+17
19031.0	6.95198316372514e+17
19032.0	6.950665137946623e+17
19033.0	6.949339832953513e+17
19034.0	6.948030132868436e+17
19035.0	6.946710506962943e+17
19036.0	6.944446552386217e+17
19037.0	6.944077993301331e+17
19038.0	6.942759522926591e+17
19039.0	6.941443996953257e+17
19040.0	6.94012785861154e+17
19041.0	6.938811205069481e+17
19042.0	6.937489031823359e+17
19043.0	6.936179098255359e+17
19044.0	6.934862799131988e+17
19045.0	6.933547376618154e+17
19046.0	6.932227709468671e+17
19047.0	6.930916416247123e+17
19048.0	6.92958430040337e+17
19049.0	6.928280120022355e+17
19050.0	6.926970061324287e+17
19051.0	6.925530662873769e+17
19052.0	6.924335460996436e+17
19053.0	6.923026981453823e+17
19054.0	6.921714727037609e+17
19055.0	6.920379015976276e+17
19056.0	6.919086462205952e+17
19057.0	6.917773819816618e+17
19058.0	6.916459602466131e+17
19059.0	6.915148203687936e+17
19060.0	6.913833212488362e+17
19061.0	6.912522639988052e+17
19062.0	6.911213585825791e+17
19063.0	6.90995061657873e+17
19064.0	6.90862909694498e+17
19065.0	6.9073140987549e+17
19066.0	6.906009118659923e+17
19067.0	6.904703972190889e+17
19068.0	6.903393019407017e+17
19069.0	6.902082272144042e+17
19070.0	6.900770157537961e+17
19071.0	6.899461141124436e+17
19072.0	6.898150994345983e+17
19073.0	6.896840510625108e+17
19074.0	6.895531154472959e+17
19075.0	6.894221603285674e+17
19076.0	6.892910331734698e+17
19077.0	6.891602357605715e+17
19078.0	6.890288761012223e+17
19079.0	6.888985560001193e+17
19080.0	6.887677599154175e+17
19081.0	6.886366851192148e+17
19082.0	6.885054106042368e+17
19083.0	6.883743910330368e+17
19084.0	6.882424396972031e+17
19085.0	6.881137797715284e+17
19086.0	6.87980100522257e+17
19087.0	6.878498423570431e+17
19088.0	6.877210258440191e+17
19089.0	6.875883056922623e+17
19090.0	6.874603821465599e+17
19091.0	6.873295738284713e+17
19092.0	6.871981319607635e+17
19093.0	6.870686840651773e+17
19094.0	6.869371371301546e+17
19095.0	6.868063380395348e+17
19096.0	6.866767647342591e+17
19097.0	6.865466286931967e+17
19098.0	6.864162293896531e+17
19099.0	6.862857510234794e+17
19100.0	6.8615535605405e+17
19101.0	6.860252460176724e+17
19102.0	6.858945724765523e+17
19103.0	6.857649344391849e+17
19104.0	6.856346296472915e+17
19105.0	6.855043345022973e+17
19106.0	6.85373615313169e+17
19107.0	6.852437038770857e+17
19108.0	6.851135990835881e+17
19109.0	6.849733255495679e+17
19110.0	6.848531796415828e+17
19111.0	6.847230840056489e+17
19112.0	6.845929591493972e+17
19113.0	6.844628521888425e+17
19114.0	6.843327676678143e+17
19115.0	6.842025015334227e+17
19116.0	6.840725805902506e+17
19117.0	6.839425008926719e+17
19118.0	6.838114270751401e+17
19119.0	6.836631842936148e+17
19120.0	6.835521386971135e+17
19121.0	6.83422368609075e+17
19122.0	6.832928940097533e+17
19123.0	6.831628286427135e+17
19124.0	6.830328948370089e+17
19125.0	6.829031806031187e+17
19126.0	6.827730387599359e+17
19127.0	6.826302394859519e+17
19128.0	6.825061653326506e+17
19129.0	6.823833970758996e+17
19130.0	6.822545143627775e+17
19131.0	6.82124826832623e+17
19132.0	6.819950331865769e+17
19133.0	6.818592915281236e+17
19134.0	6.817318761922559e+17
19135.0	6.816061652118185e+17
19136.0	6.814767298292393e+17
19137.0	6.813460201471999e+17
19138.0	6.812162353091923e+17
19139.0	6.810882338892457e+17
19140.0	6.809587499925503e+17
19141.0	6.808292667250003e+17
19142.0	6.806997060026367e+17
19143.0	6.805698915248809e+17
19144.0	6.804410885035348e+17
19145.0	6.803115251946836e+17
19146.0	6.801773499689642e+17
19147.0	6.800521115467775e+17
19148.0	6.799234070915753e+17
19149.0	6.797941031305215e+17
19150.0	6.796647123473748e+17
19151.0	6.795355924463615e+17
19152.0	6.79406161957137e+17
19153.0	6.792770238109012e+17
19154.0	6.79146860716578e+17
19155.0	6.790187100493139e+17
19156.0	6.788895126934867e+17
19157.0	6.787602732548093e+17
19158.0	6.786242110117204e+17
19159.0	6.785019599825578e+17
19160.0	6.783726401530536e+17
19161.0	6.782430376973652e+17
19162.0	6.780993683849215e+17
19163.0	6.779858364050089e+17
19164.0	6.778569031505236e+17
19165.0	6.777276769239039e+17
19166.0	6.775978771262121e+17
19167.0	6.7746853303965e+17
19168.0	6.773395905576959e+17
19169.0	6.772112222759593e+17
19170.0	6.770832395905706e+17
19171.0	6.769536328706729e+17
19172.0	6.768255092566697e+17
19173.0	6.766966647816191e+17
19174.0	6.765674258322772e+17
19175.0	6.764390776831999e+17
19176.0	6.76310296891665e+17
19177.0	6.761803148514643e+17
19178.0	6.760526175185578e+17
19179.0	6.759229511696383e+17
19180.0	6.757927179605331e+17
19181.0	6.756657875561129e+17
19182.0	6.755367836975103e+17
19183.0	6.75409012335138e+17
19184.0	6.752793322149203e+17
19185.0	6.751519280638634e+17
19186.0	6.750234013073408e+17
19187.0	6.748942444964522e+17
19188.0	6.747663067600212e+17
19189.0	6.746373789581311e+17
19190.0	6.74508635495902e+17
19191.0	6.743804891627519e+17
19192.0	6.742519420638548e+17
19193.0	6.741213594692266e+17
19194.0	6.739941124647593e+17
19195.0	6.73866421702929e+17
19196.0	6.737381187824298e+17
19197.0	6.736096541016064e+17
19198.0	6.7348119697053e+17
19199.0	6.732579632491177e+17
19200.0	6.731644665506474e+17
19201.0	6.730960039750313e+17
19202.0	6.729677272689322e+17
19203.0	6.728393041117183e+17
19204.0	6.727108337685844e+17
19205.0	6.725827757255338e+17
19206.0	6.724542783291391e+17
19207.0	6.723244968465747e+17
19208.0	6.721938442070698e+17
19209.0	6.720674068430847e+17
19210.0	6.71939005915682e+17
19211.0	6.718106525936298e+17
19212.0	6.716824760614911e+17
19213.0	6.715528266995027e+17
19214.0	6.71421254738466e+17
19215.0	6.712928320705876e+17
19216.0	6.711644555400532e+17
19217.0	6.71036695712017e+17
19218.0	6.709019339128831e+17
19219.0	6.707789251827027e+17
19220.0	6.706519981337257e+17
19221.0	6.705212447610196e+17
19222.0	6.703957084733439e+17
19223.0	6.702675424968703e+17
19224.0	6.701385710742185e+17
19225.0	6.700097900729684e+17
19226.0	6.698830098246314e+17
19227.0	6.697550411202559e+17
19228.0	6.696269308581204e+17
19229.0	6.694987567726591e+17
19230.0	6.693704093226323e+17
19231.0	6.692424099998377e+17
19232.0	6.691135704181417e+17
19233.0	6.689857399160831e+17
19234.0	6.688577319949652e+17
19235.0	6.687296884921684e+17
19236.0	6.686016120640852e+17
19237.0	6.684733187904852e+17
19238.0	6.683443327576746e+17
19239.0	6.682171303526399e+17
19240.0	6.680860467483987e+17
19241.0	6.679598920805034e+17
19242.0	6.678325031687508e+17
19243.0	6.677028489134079e+17
19244.0	6.675761194161492e+17
19245.0	6.674479434432511e+17
19246.0	6.673196038924969e+17
19247.0	6.671914091151359e+17
19248.0	6.67063273197841e+17
19249.0	6.66935006208546e+17
19250.0	6.668067922072916e+17
19251.0	6.666777630430548e+17
19252.0	6.665472052647252e+17
19253.0	6.664218779232938e+17
19254.0	6.662931112525823e+17
19255.0	6.661634329498964e+17
19256.0	6.660366092905129e+17
19257.0	6.659084625379327e+17
19258.0	6.657800288949588e+17
19259.0	6.656509752639487e+17
19260.0	6.655221330258601e+17
19261.0	6.653947382420819e+17
19262.0	6.652660377015636e+17
19263.0	6.651374354475689e+17
19264.0	6.650052380459007e+17
19265.0	6.648790777156948e+17
19266.0	6.647508914667519e+17
19267.0	6.646233614166697e+17
19268.0	6.644946787019433e+17
19269.0	6.643659769031337e+17
19270.0	6.642378008603305e+17
19271.0	6.641064994319017e+17
19272.0	6.639799341416445e+17
19273.0	6.637745658484051e+17
19274.0	6.636743248489129e+17
19275.0	6.635800311627775e+17
19276.0	6.634509708907859e+17
19277.0	6.633221031373482e+17
19278.0	6.63192981348898e+17
19279.0	6.630634936074237e+17
19280.0	6.629330610290687e+17
19281.0	6.628171320743251e+17
19282.0	6.626868594387625e+17
19283.0	6.625560103660202e+17
19284.0	6.624251910728361e+17
19285.0	6.62296881860881e+17
19286.0	6.621688364706473e+17
19287.0	6.620392839271764e+17
19288.0	6.618885985927167e+17
19289.0	6.617133951746045e+17
19290.0	6.616498725104298e+17
19291.0	6.615176796525908e+17
19292.0	6.613898425794559e+17
19293.0	6.612586159494483e+17
19294.0	6.61126982471953e+17
19295.0	6.609967792521215e+17
19296.0	6.608663408017407e+17
19297.0	6.607358633443327e+17
19298.0	6.606050959906132e+17
19299.0	6.604744175561385e+17
19300.0	6.603435375853565e+17
19301.0	6.602124909608959e+17
19302.0	6.600813611494057e+17
19303.0	6.599492496610644e+17
19304.0	6.598182082794835e+17
19305.0	6.596872057651199e+17
19306.0	6.59555695530257e+17
19307.0	6.594233983041535e+17
19308.0	6.592919559471104e+17
19309.0	6.591543416717311e+17
19310.0	6.590183877814954e+17
19311.0	6.588899015000063e+17
19312.0	6.587576535569748e+17
19313.0	6.586232373684906e+17
19314.0	6.584580290467155e+17
19315.0	6.583275353014272e+17
19316.0	6.582249909299881e+17
19317.0	6.580916314963965e+17
19318.0	6.579576504669523e+17
19319.0	6.578236578332671e+17
19320.0	6.576889722306559e+17
19321.0	6.575548100771839e+17
19322.0	6.574186556293119e+17
19323.0	6.572833640895828e+17
19324.0	6.571495650929321e+17
19325.0	6.570117199910227e+17
19326.0	6.568779932762111e+17
19327.0	6.567416386202282e+17
19328.0	6.566052216089257e+17
19329.0	6.564683242799103e+17
19330.0	6.563307493610836e+17
19331.0	6.561933029277696e+17
19332.0	6.560555070390272e+17
19333.0	6.559171260448765e+17
19334.0	6.557779044422996e+17
19335.0	6.556392118812672e+17
19336.0	6.554982613166761e+17
19337.0	6.553420167817897e+17
19338.0	6.551994134517076e+17
19339.0	6.550552355799039e+17
19340.0	6.549131573766825e+17
19341.0	6.547881002183338e+17
19342.0	6.546422621711018e+17
19343.0	6.545024422510591e+17
19344.0	6.543589519654911e+17
19345.0	6.541975970906111e+17
19346.0	6.540652558942207e+17
19347.0	6.539227054123689e+17
19348.0	6.5377727952541e+17
19349.0	6.53628845204002e+17
19350.0	6.534743431927123e+17
19351.0	6.533179621332307e+17
19352.0	6.531681440410282e+17
19353.0	6.530180178072916e+17
19354.0	6.528649605939197e+17
19355.0	6.527045746731689e+17
19356.0	6.525518755834537e+17
19357.0	6.523975002401449e+17
19358.0	6.522289381528916e+17
19359.0	6.520579290387795e+17
19360.0	6.519032653370708e+17
19361.0	6.51753734205167e+17
19362.0	6.516032241926143e+17
19363.0	6.514415128717993e+17
19364.0	6.512771129322153e+17
19365.0	6.511092112381267e+17
19366.0	6.509430367584256e+17
19367.0	6.507753022073513e+17
19368.0	6.506057280345428e+17
19369.0	6.504329982771199e+17
19370.0	6.502274176122879e+17
19371.0	6.500570286959274e+17
19372.0	6.498911467689299e+17
19373.0	6.497257925552809e+17
19374.0	6.495388366274559e+17
19375.0	6.493542248961363e+17
19376.0	6.491671779519145e+17
19377.0	6.489691049514324e+17
19378.0	6.487505138352127e+17
19379.0	6.485576256236202e+17
19380.0	6.483903813167785e+17
19381.0	6.481877939169962e+17
19382.0	6.479808326270973e+17
19383.0	6.477458632430931e+17
19384.0	6.475218669972137e+17
19385.0	6.473332625681066e+17
19386.0	6.47117165105425e+17
19387.0	6.468559073618602e+17
19388.0	6.465825918331562e+17
19389.0	6.463808898509482e+17
19390.0	6.46138771345681e+17
19391.0	6.457496192068265e+17
19392.0	6.456006622751401e+17
19393.0	6.453533759679145e+17
19394.0	6.450616501709482e+17
19395.0	6.448057212906153e+17
19396.0	6.445183714110121e+17
19397.0	6.442128776014505e+17
19398.0	6.439036659608233e+17
19399.0	6.435488077097642e+17
19400.0	6.43218362475042e+17
19401.0	6.428872289550335e+17
19402.0	6.425328069814953e+17
19403.0	6.421514150739967e+17
19404.0	6.417660027163988e+17
19405.0	6.413325458647721e+17
19406.0	6.409078365137578e+17
19407.0	6.404579635757055e+17
19408.0	6.400086549812563e+17
19409.0	6.395258557082284e+17
19410.0	6.390129346914985e+17
19411.0	6.385056845834921e+17
19412.0	6.378904206617257e+17
19413.0	6.373299358182057e+17
19414.0	6.366560019720874e+17
19415.0	6.359973654517076e+17
19416.0	6.352634650820608e+17
19417.0	6.344764126046889e+17
19418.0	6.336407781332308e+17
19419.0	6.327147204793684e+17
19420.0	6.31726197056034e+17
19421.0	6.306499170489686e+17
19422.0	6.296177912490666e+17
19423.0	6.28655767158784e+17
19424.0	6.276989988809385e+17
19425.0	6.267265662757544e+17
19426.0	6.256432805227176e+17
19427.0	6.243084360744961e+17
19428.0	6.22820289535454e+17
19429.0	6.212182183597395e+17
19430.0	6.194057567709866e+17
19431.0	6.173496970663254e+17
19432.0	6.153138400657405e+17
19433.0	6.131377735641772e+17
19434.0	6.107328703802025e+17
19435.0	6.079751144516264e+17
19436.0	6.048014744070829e+17
19437.0	6.013611159846913e+17
19438.0	5.981039641318739e+17
19439.0	5.946171814750894e+17
19440.0	5.908327889720662e+17
19441.0	5.865207322640381e+17
19442.0	5.815889934942208e+17
19443.0	5.7552597998196026e+17
19444.0	5.6810677979490963e+17
19445.0	5.614932539561304e+17
19446.0	5.536492821326507e+17
19447.0	5.4332147787366355e+17
19448.0	5.32102503831962e+17
19449.0	5.1656025870172154e+17
19450.0	4.848416962117609e+17
19451.0	4.733024626627921e+17
19452.0	5.027498010782384e+17
19453.0	5.2515165039493203e+17
19454.0	5.3751820180957805e+17
19455.0	5.4810174774312966e+17
19456.0	5.570088509199703e+17
19457.0	5.636464304630437e+17
19458.0	5.7051466142405965e+17
19459.0	5.771840750354432e+17
19460.0	5.823674225524732e+17
19461.0	5.867185046727338e+17
19462.0	5.904927783474519e+17
19463.0	5.939767215303334e+17
19464.0	5.970670967412051e+17
19465.0	6.00074891139482e+17
19466.0	6.03248064148275e+17
19467.0	6.059509614466388e+17
19468.0	6.082650048211626e+17
19469.0	6.103103423468884e+17
19470.0	6.121358260611756e+17
19471.0	6.13987924312064e+17
19472.0	6.156346873348095e+17
19473.0	6.17127502553634e+17
19474.0	6.184063996701353e+17
19475.0	6.195802118553599e+17
19476.0	6.20537941397777e+17
19477.0	6.21300556951279e+17
19478.0	6.220346111819773e+17
19479.0	6.227360646955008e+17
19480.0	6.234788675452928e+17
19481.0	6.24301191393007e+17
19482.0	6.25096981094946e+17
19483.0	6.257891431765334e+17
19484.0	6.264132014353065e+17
19485.0	6.270129832722431e+17
19486.0	6.274954672035158e+17
19487.0	6.279430339035135e+17
19488.0	6.28371583069935e+17
19489.0	6.287313586530988e+17
19490.0	6.290667263929001e+17
19491.0	6.293908659109887e+17
19492.0	6.296484550366548e+17
19493.0	6.299149391626237e+17
19494.0	6.301282335719423e+17
19495.0	6.303225516916735e+17
19496.0	6.305165396497748e+17
19497.0	6.306940167301802e+17
19498.0	6.308641829289983e+17
19499.0	6.308576159771305e+17
19500.0	6.311267718048426e+17
19501.0	6.312289333062314e+17
19502.0	6.313083809038335e+17
19503.0	6.313955417565865e+17
19504.0	6.314930524738899e+17
19505.0	6.315483529740287e+17
19506.0	6.316074393228628e+17
19507.0	6.316410215770793e+17
19508.0	6.316557135249408e+17
19509.0	6.317026546373972e+17
19510.0	6.316927696415402e+17
19511.0	6.315846697746431e+17
19512.0	6.317253988100776e+17
19513.0	6.31700475486754e+17
19514.0	6.316702339956733e+17
19515.0	6.316934984018601e+17
19516.0	6.317277707588948e+17
19517.0	6.317103914505556e+17
19518.0	6.316498979127295e+17
19519.0	6.316189352110761e+17
19520.0	6.316227832053759e+17
19521.0	6.315815426413908e+17
19522.0	6.315355484629673e+17
19523.0	6.314827569255764e+17
19524.0	6.314098526519295e+17
19525.0	6.313580172061353e+17
19526.0	6.313338520032596e+17
19527.0	6.312786277695488e+17
19528.0	6.312194317396649e+17
19529.0	6.311578595666602e+17
19530.0	6.310936210046976e+17
19531.0	6.310255037601108e+17
19532.0	6.309401022780756e+17
19533.0	6.308702615240703e+17
19534.0	6.308096861973161e+17
19535.0	6.307507506337108e+17
19536.0	6.306753537551018e+17
19537.0	6.305988191715327e+17
19538.0	6.305203512934399e+17
19539.0	6.304363798593535e+17
19540.0	6.303607301341183e+17
19541.0	6.30281799274769e+17
19542.0	6.301982825032362e+17
19543.0	6.301135393172137e+17
19544.0	6.300271417578835e+17
19545.0	6.299169404747773e+17
19546.0	6.29824013013265e+17
19547.0	6.297424351286612e+17
19548.0	6.296629870417236e+17
19549.0	6.295814032151891e+17
19550.0	6.294942003494911e+17
19551.0	6.294017186026836e+17
19552.0	6.293089394797226e+17
19553.0	6.292212154018473e+17
19554.0	6.291263080890367e+17
19555.0	6.290311214355795e+17
19556.0	6.289350581026813e+17
19557.0	6.288382645414569e+17
19558.0	6.287432952927572e+17
19559.0	6.286458103704234e+17
19560.0	6.285483803934717e+17
19561.0	6.284494461293908e+17
19562.0	6.283498380503721e+17
19563.0	6.282496697521491e+17
19564.0	6.28151360159744e+17
19565.0	6.28050702246434e+17
19566.0	6.279491373148842e+17
19567.0	6.278472632631295e+17
19568.0	6.277560284129961e+17
19569.0	6.276535213009578e+17
19570.0	6.275505112918697e+17
19571.0	6.274470535408297e+17
19572.0	6.273431386805588e+17
19573.0	6.272280705368063e+17
19574.0	6.271179218922153e+17
19575.0	6.270194313155923e+17
19576.0	6.269144185962495e+17
19577.0	6.268082744634026e+17
19578.0	6.267031645061119e+17
19579.0	6.2660967675549e+17
19580.0	6.26506692890897e+17
19581.0	6.263998528531113e+17
19582.0	6.262933781392042e+17
19583.0	6.261865204853417e+17
19584.0	6.260794248746324e+17
19585.0	6.259713391984639e+17
19586.0	6.258631064420351e+17
19587.0	6.257558296373929e+17
19588.0	6.2564501304989e+17
19589.0	6.255400756183037e+17
19590.0	6.254321945542655e+17
19591.0	6.253242719666175e+17
19592.0	6.252156786398548e+17
19593.0	6.251068645528916e+17
19594.0	6.249959455544659e+17
19595.0	6.248888906285055e+17
19596.0	6.247581278186153e+17
19597.0	6.246703260063059e+17
19598.0	6.245591724763818e+17
19599.0	6.244515773240659e+17
19600.0	6.243424334249983e+17
19601.0	6.242321746100223e+17
19602.0	6.241223150927871e+17
19603.0	6.240080528146431e+17
19604.0	6.239021618779475e+17
19605.0	6.237896844159657e+17
19606.0	6.23681619571507e+17
19607.0	6.235713034343763e+17
19608.0	6.234607194210303e+17
19609.0	6.233498661333674e+17
19610.0	6.232393611826516e+17
19611.0	6.231284988772351e+17
19612.0	6.23017639088401e+17
19613.0	6.22906700866082e+17
19614.0	6.227954660365652e+17
19615.0	6.226844962870612e+17
19616.0	6.225725989672275e+17
19617.0	6.224620690604031e+17
19618.0	6.223468702640809e+17
19619.0	6.222339339452415e+17
19620.0	6.221229001626964e+17
19621.0	6.220164260080298e+17
19622.0	6.219048770251433e+17
19623.0	6.217932684132351e+17
19624.0	6.216816805631315e+17
19625.0	6.21569890128145e+17
19626.0	6.214581676408831e+17
19627.0	6.213463734310227e+17
19628.0	6.212324476758698e+17
19629.0	6.211219454514516e+17
19630.0	6.210094760984575e+17
19631.0	6.207998601636521e+17
19632.0	6.207867449245695e+17
19633.0	6.206747361760596e+17
19634.0	6.205627217652393e+17
19635.0	6.204504697470976e+17
19636.0	6.20338509652514e+17
19637.0	6.20222990061841e+17
19638.0	6.201141178138623e+17
19639.0	6.200019161273684e+17
19640.0	6.198894834745343e+17
19641.0	6.197729494215338e+17
19642.0	6.19665213760034e+17
19643.0	6.19552810397423e+17
19644.0	6.194402482804052e+17
19645.0	6.193261927814484e+17
19646.0	6.192159238302378e+17
19647.0	6.191035438858239e+17
19648.0	6.189911274509652e+17
19649.0	6.188787061926569e+17
19650.0	6.187663102399827e+17
19651.0	6.186538660528127e+17
19652.0	6.185414294852948e+17
19653.0	6.184289603420159e+17
19654.0	6.183165056690857e+17
19655.0	6.18203993743906e+17
19656.0	6.18091483636258e+17
19657.0	6.179790423151956e+17
19658.0	6.178695918125055e+17
19659.0	6.177584740739753e+17
19660.0	6.176459644556627e+17
19661.0	6.175334410660521e+17
19662.0	6.174209099169791e+17
19663.0	6.173080308503892e+17
19664.0	6.171954432180223e+17
19665.0	6.170832991333034e+17
