# Flux units: erg / (cm m2 s)
# Wavelength units: Angstrom
wave	flux
19000.0	5.184935944694442e+17
19001.0	5.183899748881749e+17
19002.0	5.183013261060778e+17
19003.0	5.182048197148671e+17
19004.0	5.181087739281407e+17
19005.0	5.1801225635211936e+17
19006.0	5.179167433119059e+17
19007.0	5.1781619822537376e+17
19008.0	5.1772005177535136e+17
19009.0	5.1761712858835616e+17
19010.0	5.17499037679616e+17
19011.0	5.174314332585983e+17
19012.0	5.1732049958010874e+17
19013.0	5.17243378283315e+17
19014.0	5.1714341417779194e+17
19015.0	5.1704858264207366e+17
19016.0	5.169512369706325e+17
19017.0	5.168591852797951e+17
19018.0	5.1676229545929376e+17
19019.0	5.1666686595563514e+17
19020.0	5.1656972154088083e+17
19021.0	5.164752589641044e+17
19022.0	5.16379717402624e+17
19023.0	5.1628100711437645e+17
19024.0	5.161863990651561e+17
19025.0	5.1609059850540365e+17
19026.0	5.1599286597932365e+17
19027.0	5.1588627529291085e+17
19028.0	5.158054888734718e+17
19029.0	5.157103461203967e+17
19030.0	5.156155909210111e+17
19031.0	5.155198654393002e+17
19032.0	5.154236358721536e+17
19033.0	5.1532142942180685e+17
19034.0	5.1523159190405114e+17
19035.0	5.1512880279497376e+17
19036.0	5.139518939551062e+17
19037.0	5.14943374922001e+17
19038.0	5.14847888585523e+17
19039.0	5.147539927291221e+17
19040.0	5.1465833631361696e+17
19041.0	5.145616558587904e+17
19042.0	5.1445930113979725e+17
19043.0	5.143714562659668e+17
19044.0	5.142748513086121e+17
19045.0	5.141798026477567e+17
19046.0	5.140806795700906e+17
19047.0	5.1398613730153805e+17
19048.0	5.13877956624384e+17
19049.0	5.137906364579839e+17
19050.0	5.1369934093025274e+17
19051.0	5.134700448317439e+17
19052.0	5.1346971837508256e+17
19053.0	5.1341505205370874e+17
19054.0	5.1332014117573965e+17
19055.0	5.132060199660202e+17
19056.0	5.131276843483135e+17
19057.0	5.1303384343729485e+17
19058.0	5.1293637641065805e+17
19059.0	5.128429958944085e+17
19060.0	5.127467567502676e+17
19061.0	5.126531062606506e+17
19062.0	5.125573999329279e+17
19063.0	5.1246222334580045e+17
19064.0	5.123575745522346e+17
19065.0	5.122591224933035e+17
19066.0	5.12172353458449e+17
19067.0	5.1208093776390816e+17
19068.0	5.1198620011069434e+17
19069.0	5.118909616575827e+17
19070.0	5.117941160170837e+17
19071.0	5.117003383701504e+17
19072.0	5.1160493689842336e+17
19073.0	5.115101108153002e+17
19074.0	5.114154002153471e+17
19075.0	5.1132031653205325e+17
19076.0	5.112238148943871e+17
19077.0	5.111286437598549e+17
19078.0	5.110325920311979e+17
19079.0	5.1093981975893325e+17
19080.0	5.1084364366916256e+17
19081.0	5.107473100832767e+17
19082.0	5.1065196956876806e+17
19083.0	5.105525849063423e+17
19084.0	5.1044888807997434e+17
19085.0	5.10370223489024e+17
19086.0	5.102490160026964e+17
19087.0	5.1015054541892256e+17
19088.0	5.100776756084736e+17
19089.0	5.099645406893396e+17
19090.0	5.098938141682346e+17
19091.0	5.097986659625642e+17
19092.0	5.0969609013384525e+17
19093.0	5.0961164334530554e+17
19094.0	5.095166592068266e+17
19095.0	5.094218597575338e+17
19096.0	5.0932612267158176e+17
19097.0	5.092323431372117e+17
19098.0	5.0913746588357965e+17
19099.0	5.0904264672105805e+17
19100.0	5.0894646825451514e+17
19101.0	5.088526692865364e+17
19102.0	5.0875144094788256e+17
19103.0	5.0866487974079136e+17
19104.0	5.08570294620433e+17
19105.0	5.084745894111913e+17
19106.0	5.0837603354323616e+17
19107.0	5.0828517310464e+17
19108.0	5.0819166459221325e+17
19109.0	5.08023256855347e+17
19110.0	5.079977086506324e+17
19111.0	5.0790834012596896e+17
19112.0	5.078138720965972e+17
19113.0	5.077195886166015e+17
19114.0	5.076249263909545e+17
19115.0	5.0752565902923085e+17
19116.0	5.0743498677507405e+17
19117.0	5.073403473384788e+17
19118.0	5.0723333086030496e+17
19119.0	5.0667930349731795e+17
19120.0	5.07050500170274e+17
19121.0	5.069584359664298e+17
19122.0	5.068708083575466e+17
19123.0	5.067765034166954e+17
19124.0	5.0667820535862605e+17
19125.0	5.0658691975741434e+17
19126.0	5.06493220753681e+17
19127.0	5.062614184886272e+17
19128.0	5.0627770525067936e+17
19129.0	5.0620611400389965e+17
19130.0	5.0611522986748576e+17
19131.0	5.060228027165353e+17
19132.0	5.0592858858236576e+17
19133.0	5.058190319637844e+17
19134.0	5.057289402712062e+17
19135.0	5.0564615987964576e+17
19136.0	5.0555284654216525e+17
19137.0	5.054467738522964e+17
19138.0	5.0536220556875085e+17
19139.0	5.0527075590034765e+17
19140.0	5.051769830768639e+17
19141.0	5.0508293280017056e+17
19142.0	5.0498733258833914e+17
19143.0	5.0489131203734176e+17
19144.0	5.0479825581069645e+17
19145.0	5.047070633230335e+17
19146.0	5.0457105420779514e+17
19147.0	5.0450890112368634e+17
19148.0	5.0442504307561805e+17
19149.0	5.0433079524720634e+17
19150.0	5.0423766163565216e+17
19151.0	5.041444342814036e+17
19152.0	5.0404928313972045e+17
19153.0	5.039549972829524e+17
19154.0	5.0385339313466016e+17
19155.0	5.037696056208042e+17
19156.0	5.0367573646813856e+17
19157.0	5.035805389094911e+17
19158.0	5.034354471687508e+17
19159.0	5.0339353551612576e+17
19160.0	5.0329951306164896e+17
19161.0	5.0320536100317856e+17
19162.0	5.029983261731498e+17
19163.0	5.030124495131989e+17
19164.0	5.02926877462801e+17
19165.0	5.0282954143825914e+17
19166.0	5.027275218441557e+17
19167.0	5.026353100707157e+17
19168.0	5.025502198060373e+17
19169.0	5.024557027033087e+17
19170.0	5.023658192579242e+17
19171.0	5.022650947949908e+17
19172.0	5.0217832778738336e+17
19173.0	5.020852008168106e+17
19174.0	5.0198787220220576e+17
19175.0	5.01898694098944e+17
19176.0	5.018056215145129e+17
19177.0	5.01700838433314e+17
19178.0	5.016151831259817e+17
19179.0	5.015156120966485e+17
19180.0	5.014294565486591e+17
19181.0	5.013300487476564e+17
19182.0	5.012425866040661e+17
19183.0	5.0115210917533005e+17
19184.0	5.010572080141651e+17
19185.0	5.0096532647226016e+17
19186.0	5.008724840153087e+17
19187.0	5.0077462363286176e+17
19188.0	5.0068581742455443e+17
19189.0	5.005920608889513e+17
19190.0	5.0049817391049376e+17
19191.0	5.004035197938346e+17
19192.0	5.003134399851178e+17
19193.0	5.0021949813118285e+17
19194.0	5.001261103448062e+17
19195.0	5.0003411611593376e+17
19196.0	4.9993985906005325e+17
19197.0	4.9984725756586656e+17
19198.0	4.997542494339071e+17
19199.0	4.989820447926952e+17
19200.0	4.990679007275693e+17
19201.0	4.99475363729681e+17
19202.0	4.993828750622719e+17
19203.0	4.992880990311764e+17
19204.0	4.9919518485162656e+17
19205.0	4.9909933605737805e+17
19206.0	4.99003620921617e+17
19207.0	4.989021136617472e+17
19208.0	4.9880383126241274e+17
19209.0	4.9872555156875936e+17
19210.0	4.986329340663126e+17
19211.0	4.98540675736098e+17
19212.0	4.984478008431956e+17
19213.0	4.983442300556628e+17
19214.0	4.9824629312716794e+17
19215.0	4.9816627503431674e+17
19216.0	4.9807610378977274e+17
19217.0	4.9798351033466874e+17
19218.0	4.978269248727721e+17
19219.0	4.9778708660442445e+17
19220.0	4.9770311139546445e+17
19221.0	4.975891729175892e+17
19222.0	4.9751725276747085e+17
19223.0	4.974250468660564e+17
19224.0	4.9733001204640416e+17
19225.0	4.9722950407946234e+17
19226.0	4.971468693700608e+17
19227.0	4.9705399783260154e+17
19228.0	4.969628740616191e+17
19229.0	4.968701747702442e+17
19230.0	4.967762276734293e+17
19231.0	4.966831647358974e+17
19232.0	4.965908738998271e+17
19233.0	4.9649424475531936e+17
19234.0	4.9640494054331725e+17
19235.0	4.963124557206869e+17
19236.0	4.962212265328639e+17
19237.0	4.9612731844307616e+17
19238.0	4.9602831294573216e+17
19239.0	4.959430926576298e+17
19240.0	4.9584678472690336e+17
19241.0	4.957549440794623e+17
19242.0	4.9566333992086176e+17
19243.0	4.9556152829433165e+17
19244.0	4.9548004680881485e+17
19245.0	4.953870993544532e+17
19246.0	4.9529345375819085e+17
19247.0	4.9512400289791994e+17
19248.0	4.950278616907775e+17
19249.0	4.9493452206899194e+17
19250.0	4.9484098755188045e+17
19251.0	4.947388007448575e+17
19252.0	4.946392066468522e+17
19253.0	4.945629259584853e+17
19254.0	4.944715377366357e+17
19255.0	4.943679052928339e+17
19256.0	4.9428241202544634e+17
19257.0	4.9419432514027514e+17
19258.0	4.9410164863795194e+17
19259.0	4.940044776592725e+17
19260.0	4.9389466504833696e+17
19261.0	4.9382266576568314e+17
19262.0	4.937269072188757e+17
19263.0	4.936316597480107e+17
19264.0	4.935043898146815e+17
19265.0	4.9343643384108365e+17
19266.0	4.9334283067719674e+17
19267.0	4.9326783260699296e+17
19268.0	4.931751389779285e+17
19269.0	4.9308243807873696e+17
19270.0	4.929889920614398e+17
19271.0	4.9287105445451085e+17
19272.0	4.9280154994387616e+17
19273.0	4.925841809080319e+17
19274.0	4.925316235526142e+17
19275.0	4.9252591517477536e+17
19276.0	4.9243164050281805e+17
19277.0	4.9233922041227936e+17
19278.0	4.9224640423963296e+17
19279.0	4.9215221631986336e+17
19280.0	4.9205542408683514e+17
19281.0	4.919673662122666e+17
19282.0	4.918759698814292e+17
19283.0	4.917716641120255e+17
19284.0	4.916798435972436e+17
19285.0	4.915833764227753e+17
19286.0	4.915014197226153e+17
19287.0	4.914108833639081e+17
19288.0	4.909525973510822e+17
19289.0	4.90573166001083e+17
19290.0	4.911317864764757e+17
19291.0	4.9102025951368525e+17
19292.0	4.9094507996992845e+17
19293.0	4.9085167813263354e+17
19294.0	4.907582731496106e+17
19295.0	4.9066577665283405e+17
19296.0	4.905718143866196e+17
19297.0	4.9047741633221965e+17
19298.0	4.9038369985221965e+17
19299.0	4.902915902799871e+17
19300.0	4.9019803115629216e+17
19301.0	4.9010459345769805e+17
19302.0	4.900095714306729e+17
19303.0	4.899123415220223e+17
19304.0	4.898209077220692e+17
19305.0	4.8972860262536525e+17
19306.0	4.8963537100690765e+17
19307.0	4.895380334444543e+17
19308.0	4.894453526080171e+17
19309.0	4.893270961640789e+17
19310.0	4.892259319283711e+17
19311.0	4.891595399408298e+17
19312.0	4.8907083572401485e+17
19313.0	4.8897675888339616e+17
19314.0	4.8755118178304115e+17
19315.0	4.8751414978368877e+17
19316.0	4.886906865887913e+17
19317.0	4.885988239911594e+17
19318.0	4.885038186015402e+17
19319.0	4.8841006521166496e+17
19320.0	4.883148255701674e+17
19321.0	4.882198040324777e+17
19322.0	4.881166073768617e+17
19323.0	4.8801960787531085e+17
19324.0	4.8793393886658554e+17
19325.0	4.878145031940778e+17
19326.0	4.877432144265215e+17
19327.0	4.8764653963400525e+17
19328.0	4.875507353692842e+17
19329.0	4.8745591103378765e+17
19330.0	4.873570301771775e+17
19331.0	4.872600744361983e+17
19332.0	4.8716639500588365e+17
19333.0	4.8706935426034336e+17
19334.0	4.869732943527934e+17
19335.0	4.8687487333171194e+17
19336.0	4.8677886697144314e+17
19337.0	4.866817618433364e+17
19338.0	4.8656882992851616e+17
19339.0	4.8648670391828474e+17
19340.0	4.863798153663829e+17
19341.0	4.862851101491198e+17
19342.0	4.861630125615785e+17
19343.0	4.8609352930208416e+17
19344.0	4.8599431059428685e+17
19345.0	4.857551480946687e+17
19346.0	4.85713319768883e+17
19347.0	4.85691035291921e+17
19348.0	4.8559768357655885e+17
19349.0	4.854951200511317e+17
19350.0	4.853944671010815e+17
19351.0	4.852941564062377e+17
19352.0	4.8518883973966496e+17
19353.0	4.8509353550588576e+17
19354.0	4.849920062958251e+17
19355.0	4.848827555119103e+17
19356.0	4.847872498816341e+17
19357.0	4.846844451138217e+17
19358.0	4.845795582935039e+17
19359.0	4.8446987619532794e+17
19360.0	4.8436902478479354e+17
19361.0	4.8426585665044474e+17
19362.0	4.841635691102208e+17
19363.0	4.8405772500991974e+17
19364.0	4.839513789213355e+17
19365.0	4.838449797748053e+17
19366.0	4.837377063256063e+17
19367.0	4.836298944675838e+17
19368.0	4.835215379791871e+17
19369.0	4.834064099966974e+17
19370.0	4.832883095808682e+17
19371.0	4.8318856476753914e+17
19372.0	4.8308095311762765e+17
19373.0	4.829675306789546e+17
19374.0	4.828564662080853e+17
19375.0	4.827427771514879e+17
19376.0	4.826286585981609e+17
19377.0	4.8251310496372045e+17
19378.0	4.823966285823998e+17
19379.0	4.822799830308181e+17
19380.0	4.8216167262016845e+17
19381.0	4.820420084979028e+17
19382.0	4.8191685130540365e+17
19383.0	4.817012293369855e+17
19384.0	4.815654572698282e+17
19385.0	4.814418533679104e+17
19386.0	4.8131661207961594e+17
19387.0	4.811896412700671e+17
19388.0	4.810613041659904e+17
19389.0	4.8093142076183885e+17
19390.0	4.8079984264915616e+17
19391.0	4.79724767665629e+17
19392.0	4.8046440856944614e+17
19393.0	4.8039505757033805e+17
19394.0	4.8025537005049165e+17
19395.0	4.8011327325252256e+17
19396.0	4.799704376279039e+17
19397.0	4.79827153072947e+17
19398.0	4.796774515823956e+17
19399.0	4.793668217776808e+17
19400.0	4.792175076311039e+17
19401.0	4.7907066148290554e+17
19402.0	4.789124976345087e+17
19403.0	4.7874861841776634e+17
19404.0	4.7858394843490976e+17
19405.0	4.784134007641429e+17
19406.0	4.7816243094923923e+17
19407.0	4.7787345270101325e+17
19408.0	4.776294076121087e+17
19409.0	4.774976342545749e+17
19410.0	4.77307560141346e+17
19411.0	4.7688065444304186e+17
19412.0	4.766667528383145e+17
19413.0	4.7645149619377485e+17
19414.0	4.7597297567006694e+17
19415.0	4.7567405440477856e+17
19416.0	4.7521523494638944e+17
19417.0	4.748285164126207e+17
19418.0	4.7427234065722035e+17
19419.0	4.737602001305597e+17
19420.0	4.7310779222152486e+17
19421.0	4.7229944120825197e+17
19422.0	4.7135027545593165e+17
19423.0	4.706770915513685e+17
19424.0	4.7024027785844045e+17
19425.0	4.6978295758411085e+17
19426.0	4.692880108377429e+17
19427.0	4.68759715250176e+17
19428.0	4.6815312703651834e+17
19429.0	4.675112387215359e+17
19430.0	4.6683909269749766e+17
19431.0	4.6603200382020275e+17
19432.0	4.653325628036436e+17
19433.0	4.645290316049067e+17
19434.0	4.6354282406652576e+17
19435.0	4.623474763672234e+17
19436.0	4.608962776618322e+17
19437.0	4.591267021324286e+17
19438.0	4.54773012343468e+17
19439.0	4.518846055230118e+17
19440.0	4.4940360564080634e+17
19441.0	4.4688156470367546e+17
19442.0	4.440893945806849e+17
19443.0	4.4104008013796685e+17
19444.0	4.3776080500927123e+17
19445.0	4.3408201976818304e+17
19446.0	4.283571121072813e+17
19447.0	4.176007695870629e+17
19448.0	4.0838639365652506e+17
19449.0	3.905517666347687e+17
19450.0	3.402995520066882e+17
19451.0	3.2378537042247526e+17
19452.0	3.688073824043032e+17
19453.0	4.02106282829415e+17
19454.0	4.1287459840982995e+17
19455.0	4.226500431708174e+17
19456.0	4.310447473819656e+17
19457.0	4.351540549997907e+17
19458.0	4.3519203812748166e+17
19459.0	4.409744959733772e+17
19460.0	4.441439408750591e+17
19461.0	4.466351882807978e+17
19462.0	4.488503506589013e+17
19463.0	4.523055558688764e+17
19464.0	4.557777769507488e+17
19465.0	4.5785534749300026e+17
19466.0	4.592723275284482e+17
19467.0	4.603530597193044e+17
19468.0	4.612104328489643e+17
19469.0	4.6193425940916883e+17
19470.0	4.626057968396971e+17
19471.0	4.63205681926417e+17
19472.0	4.6368676684759034e+17
19473.0	4.6412823314213536e+17
19474.0	4.646201661412692e+17
19475.0	4.649279719211008e+17
19476.0	4.653210208479913e+17
19477.0	4.6562768598685e+17
19478.0	4.658999405663571e+17
19479.0	4.662577014155946e+17
19480.0	4.66895998707302e+17
19481.0	4.67566414790656e+17
19482.0	4.68068674375953e+17
19483.0	4.685704920913236e+17
19484.0	4.68922627889561e+17
19485.0	4.691382741849429e+17
19486.0	4.6947070080887443e+17
19487.0	4.69604789981457e+17
19488.0	4.6981454076313594e+17
19489.0	4.699933872837972e+17
19490.0	4.6994652621264205e+17
19491.0	4.701446498243925e+17
19492.0	4.703261069497685e+17
19493.0	4.7034194492129274e+17
19494.0	4.703522387219796e+17
19495.0	4.703578336438953e+17
19496.0	4.7044595527188454e+17
19497.0	4.7053479461519354e+17
19498.0	4.702715426897916e+17
19499.0	4.6905080190511795e+17
19500.0	4.7050340793931085e+17
19501.0	4.704852649181183e+17
19502.0	4.7046362978932045e+17
19503.0	4.7044138690587296e+17
19504.0	4.705320987262976e+17
19505.0	4.705278103300777e+17
19506.0	4.7049624176121165e+17
19507.0	4.704610199535615e+17
19508.0	4.704268836317865e+17
19509.0	4.703889472006826e+17
19510.0	4.703320776813225e+17
19511.0	4.67947616556373e+17
19512.0	4.699514825517739e+17
19513.0	4.6978097144135635e+17
19514.0	4.6982654765738624e+17
19515.0	4.7008238461255686e+17
19516.0	4.7007289010640205e+17
19517.0	4.7001952863300256e+17
19518.0	4.699720089163092e+17
19519.0	4.69917675762483e+17
19520.0	4.6986154688730445e+17
19521.0	4.6980870648627194e+17
19522.0	4.697496815839914e+17
19523.0	4.6979704422399994e+17
19524.0	4.697393091401044e+17
19525.0	4.6967853738011296e+17
19526.0	4.6961878910020256e+17
19527.0	4.6955680155129165e+17
19528.0	4.6949388873891834e+17
19529.0	4.6943091496932685e+17
19530.0	4.6936728346296314e+17
19531.0	4.6930243330157216e+17
19532.0	4.6923686961916576e+17
19533.0	4.6917069112169805e+17
19534.0	4.691035326251006e+17
19535.0	4.6903567899252045e+17
19536.0	4.6896531940311034e+17
19537.0	4.688997878770345e+17
19538.0	4.688164121739264e+17
19539.0	4.687225999239851e+17
19540.0	4.686887286822228e+17
19541.0	4.686198344428202e+17
19542.0	4.6854856650697376e+17
19543.0	4.684764867635882e+17
19544.0	4.6840513207555405e+17
19545.0	4.682898582710955e+17
19546.0	4.6819545553305594e+17
19547.0	4.681872545502549e+17
19548.0	4.681130191443285e+17
19549.0	4.680335274366294e+17
19550.0	4.679657117625003e+17
19551.0	4.678913995309055e+17
19552.0	4.6781650974365005e+17
19553.0	4.677392004721321e+17
19554.0	4.676633162153983e+17
19555.0	4.675892998919508e+17
19556.0	4.675145127253332e+17
19557.0	4.674380056144555e+17
19558.0	4.6736167948779514e+17
19559.0	4.6728476615857485e+17
19560.0	4.6720610562211834e+17
19561.0	4.671290858973866e+17
19562.0	4.670536151291221e+17
19563.0	4.669763968040959e+17
19564.0	4.6689870724901536e+17
19565.0	4.668208221694634e+17
19566.0	4.6674053599068154e+17
19567.0	4.666642429990228e+17
19568.0	4.6658435066538656e+17
19569.0	4.6650620805556896e+17
19570.0	4.664287673625257e+17
19571.0	4.663491774382079e+17
19572.0	4.6626889671202125e+17
19573.0	4.661895938878121e+17
19574.0	4.6610643496031565e+17
19575.0	4.660327599134036e+17
19576.0	4.65953438494447e+17
19577.0	4.658707339498837e+17
19578.0	4.6579028188637856e+17
19579.0	4.657120114900991e+17
19580.0	4.656317806062249e+17
19581.0	4.6555282143532365e+17
19582.0	4.654738089967615e+17
19583.0	4.6539351554785274e+17
19584.0	4.653118311978324e+17
19585.0	4.6522493144050336e+17
19586.0	4.6514142242843296e+17
19587.0	4.650669899601236e+17
19588.0	4.649538816049152e+17
19589.0	4.64907794452753e+17
19590.0	4.6482064010117114e+17
19591.0	4.647472973829461e+17
19592.0	4.646668418241876e+17
19593.0	4.645844832397994e+17
19594.0	4.6448863682232314e+17
19595.0	4.6441846038418765e+17
19596.0	4.642868810831189e+17
19597.0	4.6425424205796685e+17
19598.0	4.641464946524159e+17
19599.0	4.6409763282834765e+17
19600.0	4.6401689240644256e+17
19601.0	4.639302847823871e+17
19602.0	4.638477299045717e+17
19603.0	4.6373271761496736e+17
19604.0	4.6368351884847776e+17
19605.0	4.63587623637265e+17
19606.0	4.635265017227947e+17
19607.0	4.6344542904210765e+17
19608.0	4.6336205900130976e+17
19609.0	4.632779960614911e+17
19610.0	4.6319941116231674e+17
19611.0	4.6311694751061325e+17
19612.0	4.6303600911755936e+17
19613.0	4.629532885647359e+17
19614.0	4.6286922870074016e+17
19615.0	4.627893096633685e+17
19616.0	4.6269974869005645e+17
19617.0	4.6262483108058445e+17
19618.0	4.6249674521531725e+17
19619.0	4.6240608302749005e+17
19620.0	4.623283330744318e+17
19621.0	4.6229690774104736e+17
19622.0	4.622153998314155e+17
19623.0	4.6213321405235194e+17
19624.0	4.6205031041815885e+17
19625.0	4.6196870750754125e+17
19626.0	4.6188652620240205e+17
19627.0	4.618038505985364e+17
19628.0	4.6170476841533446e+17
19629.0	4.6163143981793274e+17
19630.0	4.614577763385342e+17
19631.0	4.6073788871912115e+17
19632.0	4.613936086603092e+17
19633.0	4.613094108037119e+17
19634.0	4.61230573687057e+17
19635.0	4.6114550418418336e+17
19636.0	4.6106466673404576e+17
19637.0	4.609578577341098e+17
19638.0	4.6090005554135034e+17
19639.0	4.608174845154644e+17
19640.0	4.6071974884365645e+17
19641.0	4.6058264753165645e+17
19642.0	4.605710364398932e+17
19643.0	4.6048827674023245e+17
19644.0	4.604013054001151e+17
19645.0	4.6030347249035936e+17
19646.0	4.60241357504512e+17
19647.0	4.6015966385711776e+17
19648.0	4.600773521790292e+17
19649.0	4.5999473396722336e+17
19650.0	4.5991252700692474e+17
19651.0	4.598297085171029e+17
19652.0	4.597474526931626e+17
19653.0	4.5966476387723936e+17
19654.0	4.595828587670187e+17
19655.0	4.595000692178944e+17
