# Flux units: erg / (cm m2 s)
# Wavelength units: Angstrom
wave	flux
19000.0	4.144377291079679e+17
19001.0	4.1436546048109216e+17
19002.0	4.142964078368085e+17
19003.0	4.142254925021183e+17
19004.0	4.1415208519161165e+17
19005.0	4.140820758964906e+17
19006.0	4.1401034819502054e+17
19007.0	4.139417121849343e+17
19008.0	4.1387030478847994e+17
19009.0	4.137995321999359e+17
19010.0	4.137208641836372e+17
19011.0	4.13656808423424e+17
19012.0	4.1358190556392096e+17
19013.0	4.1351763596410874e+17
19014.0	4.134443191806634e+17
19015.0	4.1337273925850445e+17
19016.0	4.1330285795956045e+17
19017.0	4.1323456930775034e+17
19018.0	4.131631644977834e+17
19019.0	4.130929082280617e+17
19020.0	4.1302174822563834e+17
19021.0	4.129514778350934e+17
19022.0	4.1288151502684154e+17
19023.0	4.128084543056554e+17
19024.0	4.127379527390548e+17
19025.0	4.126688949217962e+17
19026.0	4.125979442850474e+17
19027.0	4.1252667697834656e+17
19028.0	4.1245642392425805e+17
19029.0	4.1238532718591994e+17
19030.0	4.123138944838314e+17
19031.0	4.12245426245905e+17
19032.0	4.121754772788565e+17
19033.0	4.1210185242378234e+17
19034.0	4.120339352474964e+17
19035.0	4.1196408876127565e+17
19036.0	4.118168254895444e+17
19037.0	4.118225588933972e+17
19038.0	4.117517825299797e+17
19039.0	4.1168178400023885e+17
19040.0	4.116107117985791e+17
19041.0	4.115405368284502e+17
19042.0	4.1136357718534816e+17
19043.0	4.11400522502417e+17
19044.0	4.1133124916783776e+17
19045.0	4.112594647034538e+17
19046.0	4.111886931634857e+17
19047.0	4.1111898515920205e+17
19048.0	4.1103342541209594e+17
19049.0	4.107563547230205e+17
19050.0	4.109080354357247e+17
19051.0	4.108224225607679e+17
19052.0	4.1076751115223034e+17
19053.0	4.106982839549951e+17
19054.0	4.106269453451263e+17
19055.0	4.105217680692565e+17
19056.0	4.1047854311014394e+17
19057.0	4.1041797826914976e+17
19058.0	4.1023428362239974e+17
19059.0	4.1023047337683616e+17
19060.0	4.1020746202699085e+17
19061.0	4.10136313139473e+17
19062.0	4.100653566306985e+17
19063.0	4.099973015317162e+17
19064.0	4.099262278620501e+17
19065.0	4.098552477253631e+17
19066.0	4.097444898581162e+17
19067.0	4.097140910107306e+17
19068.0	4.096477861948074e+17
19069.0	4.0957739549764256e+17
19070.0	4.09505292685585e+17
19071.0	4.0943658691024205e+17
19072.0	4.0932362913054694e+17
19073.0	4.092985057389225e+17
19074.0	4.092257550467072e+17
19075.0	4.0915811867907405e+17
19076.0	4.0908670394258765e+17
19077.0	4.0901779096862714e+17
19078.0	4.0894768387631776e+17
19079.0	4.088773997843797e+17
19080.0	4.088090203258879e+17
19081.0	4.087382626970283e+17
19082.0	4.0866943703449594e+17
19083.0	4.085988536789675e+17
19084.0	4.085277340816725e+17
19085.0	4.0845990302842874e+17
19086.0	4.0833131874003616e+17
19087.0	4.082276534408531e+17
19088.0	4.08196782175027e+17
19089.0	4.081784072787285e+17
19090.0	4.0811180417788576e+17
19091.0	4.080359468346027e+17
19092.0	4.078856292706988e+17
19093.0	4.079023546870442e+17
19094.0	4.07833206063104e+17
19095.0	4.077625920891562e+17
19096.0	4.076939735553365e+17
19097.0	4.0762429022754125e+17
19098.0	4.075113105675604e+17
19099.0	4.074314883487062e+17
19100.0	4.0741593663842976e+17
19101.0	4.073460379331241e+17
19102.0	4.072747184073385e+17
19103.0	4.072062995223893e+17
19104.0	4.0713877332514125e+17
19105.0	4.0697110434502e+17
19106.0	4.069985466974208e+17
19107.0	4.069068595615061e+17
19108.0	4.068235402717866e+17
19109.0	4.0678718530300576e+17
19110.0	4.067213066283689e+17
19111.0	4.066235262872233e+17
19112.0	4.065487660340564e+17
19113.0	4.06513712557807e+17
19114.0	4.0642587208799565e+17
19115.0	4.0637121904858445e+17
19116.0	4.0630383706548896e+17
19117.0	4.062359748345856e+17
19118.0	4.061662245377365e+17
19119.0	4.058400841269243e+17
19120.0	4.0602845017975456e+17
19121.0	4.0595810030714874e+17
19122.0	4.058912535871487e+17
19123.0	4.0582266035896294e+17
19124.0	4.057524428865536e+17
19125.0	4.056836001671849e+17
19126.0	4.0561433508140365e+17
19127.0	4.0551714278167885e+17
19128.0	4.054752276338006e+17
19129.0	4.054065312257364e+17
19130.0	4.0533857951634765e+17
19131.0	4.052692686427476e+17
19132.0	4.0519950436488525e+17
19133.0	4.0513077580049056e+17
19134.0	4.050616523423743e+17
19135.0	4.0499338326398285e+17
19136.0	4.0492358829779616e+17
19137.0	4.0485089779384314e+17
19138.0	4.0478591558178125e+17
19139.0	4.047176483209215e+17
19140.0	4.0464859309015034e+17
19141.0	4.0457945229557754e+17
19142.0	4.0451011094336845e+17
19143.0	4.0444026249980576e+17
19144.0	4.0437173190655994e+17
19145.0	4.04303197049105e+17
19146.0	4.042268549141845e+17
19147.0	4.041634664677376e+17
19148.0	4.0406096313057274e+17
19149.0	4.03983881400047e+17
19150.0	4.0396023384418976e+17
19151.0	4.0389069193434445e+17
19152.0	4.0382253917798394e+17
19153.0	4.0367432261085843e+17
19154.0	4.036771240564054e+17
19155.0	4.0361647630800205e+17
19156.0	4.035471327188309e+17
19157.0	4.034546074910721e+17
19158.0	4.033517444923392e+17
19159.0	4.033388260360191e+17
19160.0	4.032719209452885e+17
19161.0	4.032035100295168e+17
19162.0	4.031295110425259e+17
19163.0	4.0306699466178554e+17
19164.0	4.0299774138996045e+17
19165.0	4.0284420043352736e+17
19166.0	4.028577467072511e+17
19167.0	4.027917300400127e+17
19168.0	4.0272391275806714e+17
19169.0	4.0265496364318714e+17
19170.0	4.025869714587647e+17
19171.0	4.025171472023551e+17
19172.0	4.024495857729535e+17
19173.0	4.023821568136533e+17
19174.0	4.0231229830376096e+17
19175.0	4.0224446375526394e+17
19176.0	4.021766868085418e+17
19177.0	4.021058060768596e+17
19178.0	4.020382075278677e+17
19179.0	4.019694122041343e+17
19180.0	4.019025238207146e+17
19181.0	4.018312509216085e+17
19182.0	4.0176418742599674e+17
19183.0	4.01697325256977e+17
19184.0	4.0162944205455354e+17
19185.0	4.015606110093311e+17
19186.0	4.0149265007247354e+17
19187.0	4.0142434597164365e+17
19188.0	4.0135668891211085e+17
19189.0	4.012884985468244e+17
19190.0	4.012203384504319e+17
19191.0	4.011518792302591e+17
19192.0	4.010837566029823e+17
19193.0	4.010064007047851e+17
19194.0	4.009332015715668e+17
19195.0	4.008796898721792e+17
19196.0	4.008111980762453e+17
19197.0	4.007419594844842e+17
19198.0	4.006732088999936e+17
19199.0	4.005561811774122e+17
19200.0	4.005072625904297e+17
19201.0	4.004700735842986e+17
19202.0	4.0040295940751354e+17
19203.0	4.003344024600576e+17
19204.0	4.0026683641692154e+17
19205.0	4.0019889903807136e+17
19206.0	4.001307136360447e+17
19207.0	4.000590528337236e+17
19208.0	3.999900303185236e+17
19209.0	3.999268318041429e+17
19210.0	3.998576295630165e+17
19211.0	3.997907360765269e+17
19212.0	3.997228706299902e+17
19213.0	3.996539626891946e+17
19214.0	3.995855164014591e+17
19215.0	3.9951945317744634e+17
19216.0	3.994516686110719e+17
19217.0	3.9938430885778765e+17
19218.0	3.9930365896294394e+17
19219.0	3.9924556142127763e+17
19220.0	3.9918060710133754e+17
19221.0	3.991079502217216e+17
19222.0	3.990430765023231e+17
19223.0	3.989765916808533e+17
19224.0	3.9890787723728205e+17
19225.0	3.9883976887063885e+17
19226.0	3.9877466781996365e+17
19227.0	3.987063266694485e+17
19228.0	3.9863881620084045e+17
19229.0	3.985680016692564e+17
19230.0	3.985026950277802e+17
19231.0	3.984363651858431e+17
19232.0	3.983685061006677e+17
19233.0	3.982995718755669e+17
19234.0	3.982320892990804e+17
19235.0	3.981647840018431e+17
19236.0	3.9809761480977056e+17
19237.0	3.9802871399929165e+17
19238.0	3.9796055739815245e+17
19239.0	3.9789518693335034e+17
19240.0	3.9782653044107936e+17
19241.0	3.9776008141100365e+17
19242.0	3.97690352505105e+17
19243.0	3.9762339792158714e+17
19244.0	3.975569513381887e+17
19245.0	3.9749038815313914e+17
19246.0	3.9742292277329914e+17
19247.0	3.973557643466068e+17
19248.0	3.972877432913919e+17
19249.0	3.9721793105865376e+17
19250.0	3.9713801118242125e+17
19251.0	3.970707121766399e+17
19252.0	3.970154871040682e+17
19253.0	3.9695034522883405e+17
19254.0	3.96884126466048e+17
19255.0	3.96813850972433e+17
19256.0	3.967482957485397e+17
19257.0	3.9668180848039245e+17
19258.0	3.9661400147449165e+17
19259.0	3.965473824352938e+17
19260.0	3.964763648294911e+17
19261.0	3.9641304670754125e+17
19262.0	3.963446411744597e+17
19263.0	3.962765349748735e+17
19264.0	3.9620298729499283e+17
19265.0	3.961384717691561e+17
19266.0	3.9606842801083725e+17
19267.0	3.9600853383905274e+17
19268.0	3.9594018982242976e+17
19269.0	3.958739328215723e+17
19270.0	3.958069760010922e+17
19271.0	3.95733518848273e+17
19272.0	3.9567269249242445e+17
19273.0	3.9560423543930874e+17
19274.0	3.95534100664593e+17
19275.0	3.9547206984444576e+17
19276.0	3.9540465773226656e+17
19277.0	3.9533843722185376e+17
19278.0	3.9527003888899405e+17
19279.0	3.9520423536230394e+17
19280.0	3.951365217495723e+17
19281.0	3.9507057107271674e+17
19282.0	3.950031922353493e+17
19283.0	3.949357197950976e+17
19284.0	3.9486922232081056e+17
19285.0	3.948001363318102e+17
19286.0	3.947342295553365e+17
19287.0	3.9466707860848634e+17
19288.0	3.9458680557185696e+17
19289.0	3.9447802692676243e+17
19290.0	3.944681678656853e+17
19291.0	3.9439806328995834e+17
19292.0	3.943340134017706e+17
19293.0	3.9426698353049594e+17
19294.0	3.9420101880272205e+17
19295.0	3.9413320459659936e+17
19296.0	3.940203047682049e+17
19297.0	3.939934072558933e+17
19298.0	3.939329183318015e+17
19299.0	3.938154013436586e+17
19300.0	3.938000636826966e+17
19301.0	3.937334867263487e+17
19302.0	3.9366699854943565e+17
19303.0	3.93598070755601e+17
19304.0	3.935324262629376e+17
19305.0	3.934663178802517e+17
19306.0	3.934002367605417e+17
19307.0	3.933323601990997e+17
19308.0	3.932660369282389e+17
19309.0	3.931975225529684e+17
19310.0	3.9313056132846925e+17
19311.0	3.9306509194799776e+17
19312.0	3.929980406857727e+17
19313.0	3.929284579513685e+17
19314.0	3.924290985175718e+17
19315.0	3.9238577380393024e+17
19316.0	3.926704441524225e+17
19317.0	3.926663726716245e+17
19318.0	3.9260086407441056e+17
19319.0	3.9253339827514016e+17
19320.0	3.9245135097801376e+17
19321.0	3.923606086789802e+17
19322.0	3.923351492537002e+17
19323.0	3.9226957347771725e+17
19324.0	3.922032681025536e+17
19325.0	3.921356736080554e+17
19326.0	3.92070490698547e+17
19327.0	3.920044263560532e+17
19328.0	3.918485121925121e+17
19329.0	3.91871511728401e+17
19330.0	3.918053265200469e+17
19331.0	3.9173900730368e+17
19332.0	3.916729056318804e+17
19333.0	3.916071646702251e+17
19334.0	3.9153703730544634e+17
19335.0	3.912922384302081e+17
19336.0	3.9140647344537594e+17
19337.0	3.9134154729717754e+17
19338.0	3.912720058766677e+17
19339.0	3.9120761548090016e+17
19340.0	3.9113428674368845e+17
19341.0	3.910104203482455e+17
19342.0	3.909880655467861e+17
19343.0	3.909442751255891e+17
19344.0	3.9081142068619955e+17
19345.0	3.907463457800191e+17
19346.0	3.907364579879595e+17
19347.0	3.905974995779582e+17
19348.0	3.906142050014549e+17
19349.0	3.9054729648537594e+17
19350.0	3.904519654080512e+17
19351.0	3.9041470509875194e+17
19352.0	3.902609757481641e+17
19353.0	3.902828544262144e+17
19354.0	3.9021772226778445e+17
19355.0	3.901502500372479e+17
19356.0	3.900847106818046e+17
19357.0	3.900193273544704e+17
19358.0	3.8995340491926163e+17
19359.0	3.8986901636164256e+17
19360.0	3.8975114949864096e+17
19361.0	3.897546042070357e+17
19362.0	3.8968906177576954e+17
19363.0	3.896232330832554e+17
19364.0	3.895577976067412e+17
19365.0	3.8949145245559456e+17
19366.0	3.894234857865216e+17
19367.0	3.893591499866111e+17
19368.0	3.892938629884586e+17
19369.0	3.892278686209365e+17
19370.0	3.891625112982868e+17
19371.0	3.890948208241321e+17
19372.0	3.8903004874670074e+17
19373.0	3.889633930772478e+17
19374.0	3.888971229342378e+17
19375.0	3.888328268404053e+17
19376.0	3.8876701191918925e+17
19377.0	3.8870121775977805e+17
19378.0	3.886355905336661e+17
19379.0	3.88569748209664e+17
19380.0	3.885013893032618e+17
19381.0	3.8843574306297165e+17
19382.0	3.883704538278569e+17
19383.0	3.8830412293734394e+17
19384.0	3.8823727488914765e+17
19385.0	3.881742121304064e+17
19386.0	3.8810796114138445e+17
19387.0	3.880421073529514e+17
19388.0	3.87975915573521e+17
19389.0	3.879106928181247e+17
19390.0	3.878447849231701e+17
19391.0	3.877061812114772e+17
19392.0	3.877128941251242e+17
19393.0	3.8764670269521914e+17
19394.0	3.875814724599808e+17
19395.0	3.874891887542272e+17
19396.0	3.8744395884789754e+17
19397.0	3.873827090770602e+17
19398.0	3.8729640134574074e+17
19399.0	3.872073083868499e+17
19400.0	3.8716734163298976e+17
19401.0	3.8711941276194125e+17
19402.0	3.8705419077550074e+17
19403.0	3.86988204167441e+17
19404.0	3.869203888428374e+17
19405.0	3.86853636354867e+17
19406.0	3.8678935857616205e+17
19407.0	3.8669035769255226e+17
19408.0	3.866436729918804e+17
19409.0	3.865901926099627e+17
19410.0	3.865239026838187e+17
19411.0	3.8645688273906336e+17
19412.0	3.8638993430719136e+17
19413.0	3.8629054880590496e+17
19414.0	3.86256912584977e+17
19415.0	3.861899607976619e+17
19416.0	3.8611990445643085e+17
19417.0	3.860554319921151e+17
19418.0	3.8598813864864416e+17
19419.0	3.85920281940241e+17
19420.0	3.858524199889578e+17
19421.0	3.857838986930859e+17
19422.0	3.8571437027491834e+17
19423.0	3.8564658521920845e+17
19424.0	3.855773215315284e+17
19425.0	3.855067769034068e+17
19426.0	3.854370113672533e+17
19427.0	3.8536607450180256e+17
19428.0	3.8529278358323194e+17
19429.0	3.852213020874069e+17
19430.0	3.851460008389291e+17
19431.0	3.850525931995136e+17
19432.0	3.8499348783650125e+17
19433.0	3.8491386372860576e+17
19434.0	3.8483296518143994e+17
19435.0	3.8474587458327885e+17
19436.0	3.846483384205312e+17
19437.0	3.845642842887508e+17
19438.0	3.842949841070761e+17
19439.0	3.8435311079915514e+17
19440.0	3.8422961636857165e+17
19441.0	3.8408900498336416e+17
19442.0	3.83922339909905e+17
19443.0	3.837166466979157e+17
19444.0	3.834440547565568e+17
19445.0	3.8307570895202976e+17
19446.0	3.825312148226047e+17
19447.0	3.8165472307664205e+17
19448.0	3.800947332830549e+17
19449.0	3.771326968539818e+17
19450.0	3.7225122884485094e+17
19451.0	3.695747184022869e+17
19452.0	3.7345596262754976e+17
19453.0	3.7781165918126086e+17
19454.0	3.801936709724841e+17
19455.0	3.8139568775495674e+17
19456.0	3.820317490632021e+17
19457.0	3.823781823556266e+17
19458.0	3.8094321336975597e+17
19459.0	3.826084386002264e+17
19460.0	3.82780957454063e+17
19461.0	3.828178049739434e+17
19462.0	3.828256297975808e+17
19463.0	3.828165841518591e+17
19464.0	3.8279415734818125e+17
19465.0	3.8276477051644576e+17
19466.0	3.827286576988159e+17
19467.0	3.8268747194040326e+17
19468.0	3.826425339576319e+17
19469.0	3.8252615642207565e+17
19470.0	3.825435707528533e+17
19471.0	3.8249059082130765e+17
19472.0	3.824358291494229e+17
19473.0	3.823802426676565e+17
19474.0	3.8225746112894266e+17
19475.0	3.8224980959996576e+17
19476.0	3.822078863430997e+17
19477.0	3.8214811506442234e+17
19478.0	3.820899798439253e+17
19479.0	3.8196653714309094e+17
19480.0	3.819690386959019e+17
19481.0	3.819058856897195e+17
19482.0	3.818456480044372e+17
19483.0	3.817857395720192e+17
19484.0	3.8172296649987405e+17
19485.0	3.8166133169192954e+17
19486.0	3.815321650244268e+17
19487.0	3.81537312903441e+17
19488.0	3.814761755399508e+17
19489.0	3.814135605231616e+17
19490.0	3.8132404435899725e+17
19491.0	3.812867566469119e+17
19492.0	3.812249869920938e+17
19493.0	3.8116164971615565e+17
19494.0	3.810984338653183e+17
19495.0	3.810368393226923e+17
19496.0	3.8096450114027514e+17
19497.0	3.8091052960535885e+17
19498.0	3.808469040409259e+17
19499.0	3.806619472581971e+17
19500.0	3.807209496510464e+17
19501.0	3.806691305630378e+17
19502.0	3.8061125944388256e+17
19503.0	3.8054755831207245e+17
19504.0	3.804832773177344e+17
19505.0	3.8041766994466125e+17
19506.0	3.803559775349417e+17
19507.0	3.8029172932607994e+17
19508.0	3.8022795052974074e+17
19509.0	3.801643114037248e+17
19510.0	3.8009085068574714e+17
19511.0	3.793677139487392e+17
19512.0	3.799610322234025e+17
19513.0	3.798659177818793e+17
19514.0	3.7981831508787194e+17
19515.0	3.7977298969122125e+17
19516.0	3.79709102821649e+17
19517.0	3.7965098346960205e+17
19518.0	3.795722966488404e+17
19519.0	3.7950825025590605e+17
19520.0	3.794022482400595e+17
19521.0	3.7939922044190714e+17
19522.0	3.7932669470419616e+17
19523.0	3.7925848022166195e+17
19524.0	3.791608352167254e+17
19525.0	3.7914326178201594e+17
19526.0	3.790793576458923e+17
19527.0	3.790165598273535e+17
19528.0	3.7894845139080525e+17
19529.0	3.788830938584406e+17
19530.0	3.7882602832527354e+17
19531.0	3.787618698046121e+17
19532.0	3.7869799523833165e+17
19533.0	3.786331848529237e+17
19534.0	3.7857143861630285e+17
19535.0	3.785083046242986e+17
19536.0	3.784439338019498e+17
19537.0	3.7838083238570656e+17
19538.0	3.782608051765248e+17
19539.0	3.782441837090133e+17
19540.0	3.78190634750225e+17
19541.0	3.7811524472231245e+17
19542.0	3.7805856653312e+17
19543.0	3.7794006346410675e+17
19544.0	3.779328257032191e+17
19545.0	3.778680507596799e+17
19546.0	3.7779305220014074e+17
19547.0	3.7774740971410765e+17
19548.0	3.77683746750464e+17
19549.0	3.776183737690795e+17
19550.0	3.7755463404967245e+17
19551.0	3.77493833908224e+17
19552.0	3.77429089653009e+17
19553.0	3.7736697795269965e+17
19554.0	3.773015565970091e+17
19555.0	3.772328773156864e+17
19556.0	3.7717172051858765e+17
19557.0	3.771129697140736e+17
19558.0	3.7705029052443296e+17
19559.0	3.769870200777385e+17
19560.0	3.76902856544529e+17
19561.0	3.768604208835242e+17
19562.0	3.767778756526079e+17
19563.0	3.76734824197871e+17
19564.0	3.766683291003561e+17
19565.0	3.7660733818798074e+17
19566.0	3.7654266908071245e+17
19567.0	3.764818052557482e+17
19568.0	3.764187342482091e+17
19569.0	3.7635567945864525e+17
19570.0	3.762926085210111e+17
19571.0	3.7622931137058125e+17
19572.0	3.7616592355327994e+17
19573.0	3.760971093551786e+17
19574.0	3.760372289546921e+17
19575.0	3.7597766151918925e+17
19576.0	3.759118984675327e+17
19577.0	3.7584309720186874e+17
19578.0	3.7578797279259296e+17
19579.0	3.7572583949161805e+17
19580.0	3.756617222149461e+17
19581.0	3.755971275565738e+17
19582.0	3.7553678319616e+17
19583.0	3.754745138599252e+17
19584.0	3.7541019301969914e+17
19585.0	3.7534713172896416e+17
19586.0	3.75283870999074e+17
19587.0	3.7522256446532256e+17
19588.0	3.751520237518848e+17
19589.0	3.7509716693920416e+17
19590.0	3.7503180010946554e+17
19591.0	3.749710795199829e+17
19592.0	3.7490822962216954e+17
19593.0	3.748405357226665e+17
19594.0	3.747752254461269e+17
19595.0	3.7471983378978125e+17
19596.0	3.7465574755095885e+17
19597.0	3.745946235393365e+17
19598.0	3.7451797801642656e+17
19599.0	3.7446913352881485e+17
19600.0	3.7440570754334714e+17
19601.0	3.7434262381308576e+17
19602.0	3.742799889432576e+17
19603.0	3.742110361933142e+17
19604.0	3.7415550193063245e+17
19605.0	3.7408830932036256e+17
19606.0	3.7402948099112954e+17
19607.0	3.7396804764958714e+17
19608.0	3.739027983302655e+17
19609.0	3.738416812392446e+17
19610.0	3.73751685316608e+17
19611.0	3.7367301191761914e+17
19612.0	3.7365508944691194e+17
19613.0	3.7359080362912416e+17
19614.0	3.735292701136213e+17
19615.0	3.7346788906106874e+17
19616.0	3.733763766179157e+17
19617.0	3.732987043293866e+17
19618.0	3.7326895448063994e+17
19619.0	3.731987174348116e+17
19620.0	3.731293561596585e+17
19621.0	3.730268040986623e+17
19622.0	3.7303039770842445e+17
19623.0	3.729659198614186e+17
19624.0	3.7289881134694394e+17
19625.0	3.7284333629385376e+17
19626.0	3.7277994959503354e+17
19627.0	3.727188007671125e+17
19628.0	3.726550404257108e+17
19629.0	3.724431896259241e+17
19630.0	3.7253137249075194e+17
19631.0	3.7242786993056416e+17
19632.0	3.7240712860794874e+17
19633.0	3.723446780777813e+17
19634.0	3.722825576393387e+17
19635.0	3.722137295301289e+17
19636.0	3.720843163773609e+17
19637.0	3.72021169173299e+17
19638.0	3.720285940700499e+17
19639.0	3.7197033826331296e+17
19640.0	3.719083660236117e+17
19641.0	3.718142712872961e+17
19642.0	3.717812596681386e+17
19643.0	3.717188542966442e+17
19644.0	3.716596040903338e+17
19645.0	3.715942723529387e+17
19646.0	3.714592864381609e+17
19647.0	3.7147109298449056e+17
19648.0	3.714126262741674e+17
19649.0	3.713496405508095e+17
19650.0	3.712877013762046e+17
19651.0	3.712261170397184e+17
19652.0	3.711641524895744e+17
19653.0	3.7110133355970554e+17
19654.0	3.7104031776112634e+17
19655.0	3.7097736538248525e+17
