# Flux units: erg / (cm m2 s)
# Wavelength units: Angstrom
wave	flux
19000.0	7.13112202388002e+17
19001.0	7.129817655454377e+17
19002.0	7.12863365796113e+17
19003.0	7.127328101149356e+17
19004.0	7.1260233021085e+17
19005.0	7.124719157379071e+17
19006.0	7.123412835805865e+17
19007.0	7.122096089989119e+17
19008.0	7.120766608867327e+17
19009.0	7.1193814106112e+17
19010.0	7.117951144558591e+17
19011.0	7.116838048978259e+17
19012.0	7.115423739456169e+17
19013.0	7.114256305269417e+17
19014.0	7.112911049370281e+17
19015.0	7.111618369071786e+17
19016.0	7.110319697909076e+17
19017.0	7.109032591840595e+17
19018.0	7.107716553463123e+17
19019.0	7.106412766647636e+17
19020.0	7.105094822658047e+17
19021.0	7.103800798784169e+17
19022.0	7.102493294417236e+17
19023.0	7.101151841353727e+17
19024.0	7.099859335817898e+17
19025.0	7.098548018828628e+17
19026.0	7.097219573699923e+17
19027.0	7.095848808043858e+17
19028.0	7.094621342182057e+17
19029.0	7.093316596269055e+17
19030.0	7.092018330555731e+17
19031.0	7.090705316271446e+17
19032.0	7.08938805874961e+17
19033.0	7.087996251668479e+17
19034.0	7.086689187703466e+17
19035.0	7.084962552130217e+17
19036.0	7.0773549067578e+17
19037.0	7.082466794449577e+17
19038.0	7.081448968290301e+17
19039.0	7.080202347042131e+17
19040.0	7.078907406013782e+17
19041.0	7.077597652101802e+17
19042.0	7.07619563189043e+17
19043.0	7.074988055418198e+17
19044.0	7.073669219439956e+17
19045.0	7.072358797235539e+17
19046.0	7.071026486356649e+17
19047.0	7.069704883535871e+17
19048.0	7.068325978133844e+17
19049.0	7.066980725030911e+17
19050.0	7.065706970830164e+17
19051.0	7.063508116744872e+17
19052.0	7.062719561028948e+17
19053.0	7.06183197499938e+17
19054.0	7.060556868834644e+17
19055.0	7.059062702560598e+17
19056.0	7.057924329308159e+17
19057.0	7.056634281634472e+17
19058.0	7.055285891192148e+17
19059.0	7.054004037790377e+17
19060.0	7.052700634054655e+17
19061.0	7.051398530553172e+17
19062.0	7.050085221269501e+17
19063.0	7.048771559664297e+17
19064.0	7.047399953749331e+17
19065.0	7.046029582357844e+17
19066.0	7.044784683570516e+17
19067.0	7.043534567069012e+17
19068.0	7.042224572683604e+17
19069.0	7.04091393237538e+17
19070.0	7.039589169845587e+17
19071.0	7.038287914991615e+17
19072.0	7.036968490412713e+17
19073.0	7.035670242874708e+17
19074.0	7.034361482313728e+17
19075.0	7.033050349873833e+17
19076.0	7.031731299287039e+17
19077.0	7.030416644330836e+17
19078.0	7.029099468597929e+17
19079.0	7.027806607944362e+17
19080.0	7.026486262715731e+17
19081.0	7.025153047265279e+17
19082.0	7.023855679133012e+17
19083.0	7.022478320730111e+17
19084.0	7.021075658091177e+17
19085.0	7.019929373682345e+17
19086.0	7.018298031297876e+17
19087.0	7.017192235204607e+17
19088.0	7.015876241566377e+17
19089.0	7.014500329499306e+17
19090.0	7.013334984075945e+17
19091.0	7.012044106629119e+17
19092.0	7.010682650230783e+17
19093.0	7.009454214086655e+17
19094.0	7.008152137848148e+17
19095.0	7.006845246548649e+17
19096.0	7.005530683867135e+17
19097.0	7.004225835193686e+17
19098.0	7.002904758758058e+17
19099.0	7.00159289720832e+17
19100.0	7.000282973427028e+17
19101.0	6.998977251639295e+17
19102.0	6.997628175428265e+17
19103.0	6.996370927211859e+17
19104.0	6.995060558135295e+17
19105.0	6.993711326735018e+17
19106.0	6.992419733460308e+17
19107.0	6.991094520042836e+17
19108.0	6.989743872365908e+17
19109.0	6.988180562990419e+17
19110.0	6.987063075973802e+17
19111.0	6.985858984968191e+17
19112.0	6.984569951617023e+17
19113.0	6.983279989227519e+17
19114.0	6.981962948411391e+17
19115.0	6.980623001802068e+17
19116.0	6.979334938034175e+17
19117.0	6.978020846512809e+17
19118.0	6.976604425158655e+17
19119.0	6.972867080093692e+17
19120.0	6.97401342112563e+17
19121.0	6.972756799957673e+17
19122.0	6.97150501482223e+17
19123.0	6.970201188859904e+17
19124.0	6.968837775818751e+17
19125.0	6.967569508466687e+17
19126.0	6.966188517097472e+17
19127.0	6.964061082921642e+17
19128.0	6.963510764371967e+17
19129.0	6.96227891126818e+17
19130.0	6.961036501101225e+17
19131.0	6.959743344749225e+17
19132.0	6.958435193760425e+17
19133.0	6.9570896344733e+17
19134.0	6.955797095383039e+17
19135.0	6.954513867647657e+17
19136.0	6.953203614613503e+17
19137.0	6.951829909449385e+17
19138.0	6.950579112072532e+17
19139.0	6.949289565618175e+17
19140.0	6.947986029761876e+17
19141.0	6.946679627098793e+17
19142.0	6.945353997746175e+17
19143.0	6.944040250856787e+17
19144.0	6.942725776255657e+17
19145.0	6.941450140210516e+17
19146.0	6.93971035689233e+17
19147.0	6.938795494604799e+17
19148.0	6.937514973593599e+17
19149.0	6.936207660766548e+17
19150.0	6.934914015079081e+17
19151.0	6.933607762012842e+17
19152.0	6.932288477943123e+17
19153.0	6.930945080819711e+17
19154.0	6.929619724096852e+17
19155.0	6.928356445869395e+17
19156.0	6.927041057609044e+17
19157.0	6.925676084286804e+17
19158.0	6.924264313716735e+17
19159.0	6.923068421876393e+17
19160.0	6.92177886982963e+17
19161.0	6.920414589266601e+17
19162.0	6.918690422740308e+17
19163.0	6.917693833041236e+17
19164.0	6.916559396143103e+17
19165.0	6.915248993512105e+17
19166.0	6.913911493580116e+17
19167.0	6.912631325589501e+17
19168.0	6.911361041476266e+17
19169.0	6.910067299319807e+17
19170.0	6.908766510732628e+17
19171.0	6.907449819441833e+17
19172.0	6.906149001494525e+17
19173.0	6.904851272652115e+17
19174.0	6.903523026053802e+17
19175.0	6.90224096083968e+17
19176.0	6.900936219820031e+17
19177.0	6.899517137879039e+17
19178.0	6.898298380790442e+17
19179.0	6.896982589876905e+17
19180.0	6.895689496439465e+17
19181.0	6.894335110938623e+17
19182.0	6.893073681001129e+17
19183.0	6.89178450993698e+17
19184.0	6.890475221592746e+17
19185.0	6.889166214965929e+17
19186.0	6.887857841679017e+17
19187.0	6.886495738658815e+17
19188.0	6.885234804348244e+17
19189.0	6.883922439482025e+17
19190.0	6.882604089343999e+17
19191.0	6.881266404862633e+17
19192.0	6.879972947219795e+17
19193.0	6.878642606964735e+17
19194.0	6.877294074615123e+17
19195.0	6.875951772904106e+17
19196.0	6.874541012462249e+17
19197.0	6.873030835131732e+17
19198.0	6.871080377516032e+17
19199.0	6.866774313489748e+17
19200.0	6.865878168982868e+17
19201.0	6.867236311881044e+17
19202.0	6.866473580494847e+17
19203.0	6.865327618348371e+17
19204.0	6.864110892001961e+17
19205.0	6.862845167796223e+17
19206.0	6.861565470266707e+17
19207.0	6.860179713469097e+17
19208.0	6.858868974594729e+17
19209.0	6.857661714093395e+17
19210.0	6.856360662663167e+17
19211.0	6.855057367979347e+17
19212.0	6.85374082978065e+17
19213.0	6.852346143309823e+17
19214.0	6.851036297822207e+17
19215.0	6.849784644108287e+17
19216.0	6.848485452152831e+17
19217.0	6.847138001234602e+17
19218.0	6.845486939329875e+17
19219.0	6.844380348415999e+17
19220.0	6.84320663605521e+17
19221.0	6.841789430366207e+17
19222.0	6.840571154224468e+17
19223.0	6.839279523900073e+17
19224.0	6.837939308855293e+17
19225.0	6.83660607103522e+17
19226.0	6.835329808640681e+17
19227.0	6.834015640223741e+17
19228.0	6.832719811401043e+17
19229.0	6.83140019458321e+17
19230.0	6.830079933240659e+17
19231.0	6.828750261977087e+17
19232.0	6.827434202628095e+17
19233.0	6.826070008048297e+17
19234.0	6.824776181306708e+17
19235.0	6.823427632179881e+17
19236.0	6.822126612206932e+17
19237.0	6.820795772829695e+17
19238.0	6.819416663304873e+17
19239.0	6.818155487821823e+17
19240.0	6.816829485176148e+17
19241.0	6.815489242868393e+17
19242.0	6.81416749883938e+17
19243.0	6.812730314981375e+17
19244.0	6.811525401193129e+17
19245.0	6.810191092427434e+17
19246.0	6.808816113593001e+17
19247.0	6.807461147880105e+17
19248.0	6.806131908629844e+17
19249.0	6.804798833688575e+17
19250.0	6.803446137094143e+17
19251.0	6.802059830143657e+17
19252.0	6.800574116091219e+17
19253.0	6.799445948279465e+17
19254.0	6.798125059888467e+17
19255.0	6.796641923235839e+17
19256.0	6.795435452661759e+17
19257.0	6.794110069374973e+17
19258.0	6.792768196182015e+17
19259.0	6.791363063797076e+17
19260.0	6.789934159495167e+17
19261.0	6.788722228636329e+17
19262.0	6.78734320439569e+17
19263.0	6.785963664255657e+17
19264.0	6.784403846638249e+17
19265.0	6.783217157100883e+17
19266.0	6.781879439764138e+17
19267.0	6.780641515405311e+17
19268.0	6.779287910045012e+17
19269.0	6.77793091428898e+17
19270.0	6.776547811087699e+17
19271.0	6.775046536167423e+17
19272.0	6.773822631968767e+17
19273.0	6.772171122671615e+17
19274.0	6.770690678762153e+17
19275.0	6.769660138269353e+17
19276.0	6.768286302382762e+17
19277.0	6.76692279496977e+17
19278.0	6.765555201605632e+17
19279.0	6.764163776206163e+17
19280.0	6.762772053710164e+17
19281.0	6.761417445911209e+17
19282.0	6.760047245787136e+17
19283.0	6.758643372392447e+17
19284.0	6.757231914298025e+17
19285.0	6.755825210447187e+17
19286.0	6.754448975418708e+17
19287.0	6.753008231295657e+17
19288.0	6.749220834902013e+17
19289.0	6.746013165420539e+17
19290.0	6.748748248689322e+17
19291.0	6.747188335301972e+17
19292.0	6.746001326298452e+17
19293.0	6.744607526223871e+17
19294.0	6.743200249850537e+17
19295.0	6.741804746189482e+17
19296.0	6.740379429415594e+17
19297.0	6.738972928289449e+17
19298.0	6.737548621643775e+17
19299.0	6.736112607996585e+17
19300.0	6.73467210015266e+17
19301.0	6.733244993110015e+17
19302.0	6.7318049683101e+17
19303.0	6.730302112836266e+17
19304.0	6.728735515825492e+17
19305.0	6.727293386883071e+17
19306.0	6.725851578804906e+17
19307.0	6.72437083709986e+17
19308.0	6.722910934095188e+17
19309.0	6.721351930172756e+17
19310.0	6.719829295060308e+17
19311.0	6.7184867934208e+17
19312.0	6.717067013827242e+17
19313.0	6.715550668073642e+17
19314.0	6.70698622366515e+17
19315.0	6.706026815771996e+17
19316.0	6.71093611438626e+17
19317.0	6.709539376201728e+17
19318.0	6.708056979843753e+17
19319.0	6.706574697431039e+17
19320.0	6.705058880858794e+17
19321.0	6.703527534875988e+17
19322.0	6.701974141534208e+17
19323.0	6.700448689247571e+17
19324.0	6.698930027539113e+17
19325.0	6.697354224031059e+17
19326.0	6.695823510689108e+17
19327.0	6.694202284266835e+17
19328.0	6.692616810091859e+17
19329.0	6.691075556463956e+17
19330.0	6.689478241768788e+17
19331.0	6.687868127455914e+17
19332.0	6.686304948103849e+17
19333.0	6.684693152574121e+17
19334.0	6.68308208615424e+17
19335.0	6.681392339484672e+17
19336.0	6.679790748696575e+17
19337.0	6.678145042219007e+17
19338.0	6.676349304788307e+17
19339.0	6.674826945800873e+17
19340.0	6.673097184073044e+17
19341.0	6.671395914252287e+17
19342.0	6.669541258734249e+17
19343.0	6.667878710728019e+17
19344.0	6.66611501638178e+17
19345.0	6.663469545117011e+17
19346.0	6.662054802882559e+17
19347.0	6.66090147483921e+17
19348.0	6.659239046370644e+17
19349.0	6.657459352851795e+17
19350.0	6.655675065171965e+17
19351.0	6.653885624789673e+17
19352.0	6.652015000857258e+17
19353.0	6.650217353620137e+17
19354.0	6.648134229469865e+17
19355.0	6.646187435578708e+17
19356.0	6.644357899048276e+17
19357.0	6.642442096170323e+17
19358.0	6.64050239414818e+17
19359.0	6.638518681294164e+17
19360.0	6.636517864068436e+17
19361.0	6.634551174496256e+17
19362.0	6.632470183848617e+17
19363.0	6.630146466731347e+17
19364.0	6.628079185166335e+17
19365.0	6.625980419757395e+17
19366.0	6.623798779095721e+17
19367.0	6.621583649013759e+17
19368.0	6.619391615565823e+17
19369.0	6.617146293485568e+17
19370.0	6.614495282943315e+17
19371.0	6.612144516759551e+17
19372.0	6.60988317733137e+17
19373.0	6.607535419861674e+17
19374.0	6.605181087820458e+17
19375.0	6.602779272063657e+17
19376.0	6.600013699001002e+17
19377.0	6.597288936516266e+17
19378.0	6.594801089292969e+17
19379.0	6.59227221758225e+17
19380.0	6.589714215731199e+17
19381.0	6.586919214732628e+17
19382.0	6.583640295910058e+17
19383.0	6.580814623364435e+17
19384.0	6.578081902886911e+17
19385.0	6.575255120248831e+17
19386.0	6.57236548526626e+17
19387.0	6.568806472919721e+17
19388.0	6.565579195067049e+17
19389.0	6.562487009454761e+17
19390.0	6.559069415058089e+17
19391.0	6.55028601260168e+17
19392.0	6.551324817970516e+17
19393.0	6.548565813187923e+17
19394.0	6.545164870877183e+17
19395.0	6.541589875436201e+17
19396.0	6.537923859404116e+17
19397.0	6.534145733121363e+17
19398.0	6.529729893673642e+17
19399.0	6.525473597161471e+17
19400.0	6.521633116258304e+17
19401.0	6.517587155703123e+17
19402.0	6.513346464098985e+17
19403.0	6.50897939112482e+17
19404.0	6.50398006387234e+17
19405.0	6.499302672520531e+17
19406.0	6.494539843196244e+17
19407.0	6.48922341118225e+17
19408.0	6.483691639406591e+17
19409.0	6.478421097971711e+17
19410.0	6.47220683743778e+17
19411.0	6.466433717021353e+17
19412.0	6.4604296722077e+17
19413.0	6.45415074599185e+17
19414.0	6.447628690653183e+17
19415.0	6.440108193830228e+17
19416.0	6.432188268543999e+17
19417.0	6.42484913901841e+17
19418.0	6.417100815291734e+17
19419.0	6.408895738150911e+17
19420.0	6.400328279435946e+17
19421.0	6.391378356819284e+17
19422.0	6.380817852224852e+17
19423.0	6.37079862256162e+17
19424.0	6.360650459294378e+17
19425.0	6.349844397774163e+17
19426.0	6.338132437893119e+17
19427.0	6.325881586843647e+17
19428.0	6.312160748284586e+17
19429.0	6.298092071900499e+17
19430.0	6.28296555569698e+17
19431.0	6.266565903253503e+17
19432.0	6.250488958462633e+17
19433.0	6.232145754324992e+17
19434.0	6.213000847425535e+17
19435.0	6.191983143944191e+17
19436.0	6.169089779870378e+17
19437.0	6.144411851991721e+17
19438.0	6.109419205733033e+17
19439.0	6.0867148251136e+17
19440.0	6.055568791131476e+17
19441.0	6.019554373970601e+17
19442.0	5.979334449823744e+17
19443.0	5.934007885059412e+17
19444.0	5.882691139054248e+17
19445.0	5.823174490980353e+17
19446.0	5.753378321727487e+17
19447.0	5.669096634974203e+17
19448.0	5.563706110203226e+17
19449.0	5.4235289850565965e+17
19450.0	5.210524509099333e+17
19451.0	5.0683527183728704e+17
19452.0	5.331924044218368e+17
19453.0	5.497577413804038e+17
19454.0	5.615278966702075e+17
19455.0	5.7064962524883616e+17
19456.0	5.780538874221911e+17
19457.0	5.842438734217213e+17
19458.0	5.88088541638385e+17
19459.0	5.940289311779501e+17
19460.0	5.98134554379332e+17
19461.0	6.01730700017664e+17
19462.0	6.049032614270294e+17
19463.0	6.077559602500946e+17
19464.0	6.103558556483583e+17
19465.0	6.127130386279082e+17
19466.0	6.148461453901823e+17
19467.0	6.167799653203967e+17
19468.0	6.18527755075584e+17
19469.0	6.201544944910333e+17
19470.0	6.216857161127252e+17
19471.0	6.230858648955561e+17
19472.0	6.243793500809897e+17
19473.0	6.255662287814655e+17
19474.0	6.267302751589716e+17
19475.0	6.277336714444797e+17
19476.0	6.287276170543103e+17
19477.0	6.296173384040447e+17
19478.0	6.304186926191956e+17
19479.0	6.311649046691839e+17
19480.0	6.319929635285674e+17
19481.0	6.327001728155647e+17
19482.0	6.333336451896662e+17
19483.0	6.339304637508266e+17
19484.0	6.344879233127763e+17
19485.0	6.350012829138943e+17
19486.0	6.354835922922156e+17
19487.0	6.360742039126015e+17
19488.0	6.364949284651007e+17
19489.0	6.368724168736767e+17
19490.0	6.371989177849171e+17
19491.0	6.376010013824339e+17
19492.0	6.37957772865263e+17
19493.0	6.383178775614803e+17
19494.0	6.386031609075027e+17
19495.0	6.388810249491795e+17
19496.0	6.391190482758313e+17
19497.0	6.393427155484671e+17
19498.0	6.394117350577491e+17
19499.0	6.389621606143314e+17
19500.0	6.399868684380842e+17
19501.0	6.401860634148863e+17
19502.0	6.403566579919529e+17
19503.0	6.405156023304191e+17
19504.0	6.4068637963933e+17
19505.0	6.408517978860202e+17
19506.0	6.409794862011731e+17
19507.0	6.410963584548863e+17
19508.0	6.412032341442559e+17
19509.0	6.412939231756287e+17
19510.0	6.413869928939519e+17
19511.0	6.402819158441975e+17
19512.0	6.413985673554602e+17
19513.0	6.414009275602258e+17
19514.0	6.415199187064146e+17
19515.0	6.418275054037674e+17
19516.0	6.419231799246847e+17
19517.0	6.419669177073663e+17
19518.0	6.420067999460009e+17
19519.0	6.42037314626082e+17
19520.0	6.420979520984406e+17
19521.0	6.421505274194602e+17
19522.0	6.421751747575805e+17
19523.0	6.421871998271487e+17
19524.0	6.42192588808738e+17
19525.0	6.421972179921578e+17
19526.0	6.422459516103338e+17
19527.0	6.422504297988095e+17
19528.0	6.422437689644372e+17
19529.0	6.422349024854015e+17
19530.0	6.422224901417642e+17
19531.0	6.422065965258068e+17
19532.0	6.422087604371455e+17
19533.0	6.422105569274538e+17
19534.0	6.42186282672674e+17
19535.0	6.421585795044692e+17
19536.0	6.421311468688724e+17
19537.0	6.421051715442004e+17
19538.0	6.420553823595177e+17
19539.0	6.420061335410004e+17
19540.0	6.420195031646207e+17
19541.0	6.419789878657023e+17
19542.0	6.419333564945748e+17
19543.0	6.418834899249833e+17
19544.0	6.418341862309887e+17
19545.0	6.41751128875554e+17
19546.0	6.416857979071146e+17
19547.0	6.416737203388415e+17
19548.0	6.416188064137215e+17
19549.0	6.415754587013119e+17
19550.0	6.415232840761343e+17
19551.0	6.414600063593129e+17
19552.0	6.413947768231252e+17
19553.0	6.413269705861801e+17
19554.0	6.412589221980842e+17
19555.0	6.411908874414761e+17
19556.0	6.411219506298879e+17
19557.0	6.410505289028947e+17
19558.0	6.409782039325353e+17
19559.0	6.409049513918463e+17
19560.0	6.408342922592255e+17
19561.0	6.407686883115007e+17
19562.0	6.406937259627862e+17
19563.0	6.406174359770452e+17
19564.0	6.405393002878292e+17
19565.0	6.404602530365437e+17
19566.0	6.403786499162111e+17
19567.0	6.402992689381375e+17
19568.0	6.402157184723625e+17
19569.0	6.401355415551999e+17
19570.0	6.400546260211028e+17
19571.0	6.399703339324756e+17
19572.0	6.398831164566186e+17
19573.0	6.397990199623679e+17
19574.0	6.397063524777983e+17
19575.0	6.396262853115903e+17
19576.0	6.395380449148928e+17
19577.0	6.394540867627689e+17
19578.0	6.393662647478953e+17
19579.0	6.392756151429801e+17
19580.0	6.391848344660649e+17
19581.0	6.390946247737343e+17
19582.0	6.390032046052694e+17
19583.0	6.389104389739862e+17
19584.0	6.388169336771924e+17
19585.0	6.387147470099795e+17
19586.0	6.386179497437865e+17
19587.0	6.385300897704617e+17
19588.0	6.384145773800105e+17
19589.0	6.38347964981794e+17
19590.0	6.382509754766675e+17
19591.0	6.381599945217364e+17
19592.0	6.380635718767956e+17
19593.0	6.379645640725844e+17
19594.0	6.378506853635411e+17
19595.0	6.377678995892906e+17
19596.0	6.376577671626751e+17
19597.0	6.375701965264212e+17
19598.0	6.374504547396265e+17
19599.0	6.373711574379177e+17
19600.0	6.372887091653289e+17
19601.0	6.37183754047761e+17
19602.0	6.370798415642623e+17
19603.0	6.369620230755667e+17
19604.0	6.368837608581801e+17
19605.0	6.367800614453247e+17
19606.0	6.367004614546771e+17
19607.0	6.365999511808682e+17
19608.0	6.364964378553001e+17
19609.0	6.363918371564201e+17
19610.0	6.362906562833065e+17
19611.0	6.361868947947519e+17
19612.0	6.360855485961555e+17
19613.0	6.359932220385962e+17
19614.0	6.358869426394452e+17
19615.0	6.357848170692607e+17
19616.0	6.356746410218836e+17
19617.0	6.355720479266134e+17
19618.0	6.354344185517395e+17
19619.0	6.353197933264895e+17
19620.0	6.35225037148433e+17
19621.0	6.351506663363924e+17
19622.0	6.350494873507155e+17
19623.0	6.34943964184576e+17
19624.0	6.34836989579537e+17
19625.0	6.347308183235241e+17
19626.0	6.346229355817641e+17
19627.0	6.345119597505193e+17
19628.0	6.343930339655679e+17
19629.0	6.342630173922644e+17
19630.0	6.340310794414762e+17
19631.0	6.337049611905705e+17
19632.0	6.339386243284991e+17
19633.0	6.338668580394324e+17
19634.0	6.337717814864554e+17
19635.0	6.336645525667839e+17
19636.0	6.33558698959394e+17
19637.0	6.334250081058815e+17
19638.0	6.333465237301929e+17
19639.0	6.332382667167059e+17
19640.0	6.331204700383914e+17
19641.0	6.329765860474879e+17
19642.0	6.329133629265236e+17
19643.0	6.328050311845204e+17
19644.0	6.326912762773503e+17
19645.0	6.325752746912425e+17
19646.0	6.324767487426559e+17
19647.0	6.323712171180031e+17
19648.0	6.322623925452799e+17
19649.0	6.321532638855168e+17
19650.0	6.320441993986047e+17
19651.0	6.319344428515327e+17
19652.0	6.318254144356351e+17
19653.0	6.317160414576639e+17
19654.0	6.31605897147187e+17
19655.0	6.31496134238754e+17
19656.0	6.313869140732586e+17
19657.0	6.312774785302527e+17
19658.0	6.311676392854868e+17
19659.0	6.310576641452714e+17
19660.0	6.309497052069887e+17
19661.0	6.30843330667042e+17
19662.0	6.307329032410452e+17
19663.0	6.306203193136467e+17
19664.0	6.305108198774102e+17
19665.0	6.304022786998271e+17
