# Flux units: erg / (cm m2 s)
# Wavelength units: Angstrom
wave	flux
19000.0	6.734431664472063e+17
19001.0	6.732951722480979e+17
19002.0	6.731911391783593e+17
19003.0	6.730627919380479e+17
19004.0	6.729353699611988e+17
19005.0	6.728100693934079e+17
19006.0	6.726840037845674e+17
19007.0	6.724786650611713e+17
19008.0	6.724169785234771e+17
19009.0	6.723000337083049e+17
19010.0	6.72068403549525e+17
19011.0	6.720457475970388e+17
19012.0	6.718079202841939e+17
19013.0	6.717977130958848e+17
19014.0	6.71658961534976e+17
19015.0	6.715377297915901e+17
19016.0	6.714093155822249e+17
19017.0	6.712735778384553e+17
19018.0	6.711565066349225e+17
19019.0	6.710382736091818e+17
19020.0	6.709025664838314e+17
19021.0	6.707820681145001e+17
19022.0	6.706609866670079e+17
19023.0	6.705263878864895e+17
19024.0	6.704040039677951e+17
19025.0	6.702725014224895e+17
19026.0	6.701404431319039e+17
19027.0	6.699416274599933e+17
19028.0	6.699040510399827e+17
19029.0	6.697733168911702e+17
19030.0	6.696539937658196e+17
19031.0	6.695293011623935e+17
19032.0	6.694020822597631e+17
19033.0	6.692561003479037e+17
19034.0	6.691466038476797e+17
19035.0	6.690158915791529e+17
19036.0	6.627650054739233e+17
19037.0	6.687687658438655e+17
19038.0	6.686412298518527e+17
19039.0	6.685193731571711e+17
19040.0	6.683945422815231e+17
19041.0	6.682667587556692e+17
19042.0	6.681220847676074e+17
19043.0	6.680167430750208e+17
19044.0	6.678882543468543e+17
19045.0	6.677616700424191e+17
19046.0	6.676250222744916e+17
19047.0	6.675134597999274e+17
19048.0	6.673397243183101e+17
19049.0	6.672457646385833e+17
19050.0	6.671250819994964e+17
19051.0	6.659930083819498e+17
19052.0	6.66825594293453e+17
19053.0	6.667390773362687e+17
19054.0	6.666314179411968e+17
19055.0	6.664513932405421e+17
19056.0	6.663757704287572e+17
19057.0	6.662532884332543e+17
19058.0	6.661070035528361e+17
19059.0	6.660038396826964e+17
19060.0	6.658729835495423e+17
19061.0	6.657539645112319e+17
19062.0	6.656269837052585e+17
19063.0	6.655025796699476e+17
19064.0	6.653476651488598e+17
19065.0	6.652114863041193e+17
19066.0	6.651122815074301e+17
19067.0	6.649976871103146e+17
19068.0	6.648747969391273e+17
19069.0	6.647496900782761e+17
19070.0	6.646178152185856e+17
19071.0	6.644937628756649e+17
19072.0	6.64373225988642e+17
19073.0	6.6424665028253e+17
19074.0	6.641236528769705e+17
19075.0	6.639983664300032e+17
19076.0	6.638679794996564e+17
19077.0	6.637451741932202e+17
19078.0	6.636103960363005e+17
19079.0	6.63496836653602e+17
19080.0	6.633689071659689e+17
19081.0	6.632360160264191e+17
19082.0	6.63108403278643e+17
19083.0	6.629720981154473e+17
19084.0	6.628182012024148e+17
19085.0	6.627430004774228e+17
19086.0	6.625298399363071e+17
19087.0	6.62297434460433e+17
19088.0	6.623516436725759e+17
19089.0	6.621007144725161e+17
19090.0	6.62112574775842e+17
19091.0	6.61990153457937e+17
19092.0	6.618094966057641e+17
19093.0	6.617449169070761e+17
19094.0	6.616198387073023e+17
19095.0	6.614954274018644e+17
19096.0	6.61360639807761e+17
19097.0	6.61245506162961e+17
19098.0	6.611205313527805e+17
19099.0	6.60994934317602e+17
19100.0	6.608608222161578e+17
19101.0	6.607437546476884e+17
19102.0	6.606016881885183e+17
19103.0	6.60496456037171e+17
19104.0	6.603735799169023e+17
19105.0	6.602473315762176e+17
19106.0	6.600864261909161e+17
19107.0	6.599949144468138e+17
19108.0	6.598743460326057e+17
19109.0	6.591094380123466e+17
19110.0	6.596221109359955e+17
19111.0	6.594985360446803e+17
19112.0	6.593765444332201e+17
19113.0	6.592518244270079e+17
19114.0	6.591267583907156e+17
19115.0	6.58979918184448e+17
19116.0	6.588738079555583e+17
19117.0	6.587502282407935e+17
19118.0	6.585788871475199e+17
19119.0	6.578442173328032e+17
19120.0	6.58322601681442e+17
19121.0	6.582231062194857e+17
19122.0	6.581326966685695e+17
19123.0	6.580062968436052e+17
19124.0	6.578477520125951e+17
19125.0	6.577543085118804e+17
19126.0	6.576219966057129e+17
19127.0	6.571428711235578e+17
19128.0	6.569012981574307e+17
19129.0	6.572424780141908e+17
19130.0	6.571358065175209e+17
19131.0	6.569973422664361e+17
19132.0	6.568897512385193e+17
19133.0	6.566225580654596e+17
19134.0	6.56402111039625e+17
19135.0	6.565147980769962e+17
19136.0	6.563944179870377e+17
19137.0	6.562346004643837e+17
19138.0	6.560990440543572e+17
19139.0	6.560215786149203e+17
19140.0	6.558982640500735e+17
19141.0	6.557747255093929e+17
19142.0	6.556426370897235e+17
19143.0	6.55512665395473e+17
19144.0	6.553939111575551e+17
19145.0	6.552762521223167e+17
19146.0	6.550110645256192e+17
19147.0	6.550116406132735e+17
19148.0	6.54902751727889e+17
19149.0	6.54779688751377e+17
19150.0	6.546564890405546e+17
19151.0	6.545352084335274e+17
19152.0	6.544032471012692e+17
19153.0	6.542836719681535e+17
19154.0	6.54137462235682e+17
19155.0	6.540396447749459e+17
19156.0	6.539168875631956e+17
19157.0	6.537864067503444e+17
19158.0	6.532282548486136e+17
19159.0	6.535410952612522e+17
19160.0	6.534092134110548e+17
19161.0	6.532512333430784e+17
19162.0	6.521944086850227e+17
19163.0	6.530469242514089e+17
19164.0	6.5292937475741e+17
19165.0	6.527868559425535e+17
19166.0	6.526374739880617e+17
19167.0	6.524648320314025e+17
19168.0	6.524099105565353e+17
19169.0	6.522831151387988e+17
19170.0	6.521881911186771e+17
19171.0	6.52008440865314e+17
19172.0	6.51936600756497e+17
19173.0	6.518164966517417e+17
19174.0	6.516829714033322e+17
19175.0	6.515714842864298e+17
19176.0	6.514480911482879e+17
19177.0	6.512931375502676e+17
19178.0	6.51191331586048e+17
19179.0	6.509942616533676e+17
19180.0	6.508745317504342e+17
19181.0	6.508070955210067e+17
19182.0	6.506951188589225e+17
19183.0	6.505774236827647e+17
19184.0	6.50433941226564e+17
19185.0	6.503365769603753e+17
19186.0	6.502170363603625e+17
19187.0	6.500744834318336e+17
19188.0	6.49963985052194e+17
19189.0	6.498264682244777e+17
19190.0	6.496985745981437e+17
19191.0	6.495821493174272e+17
19192.0	6.494745415122943e+17
19193.0	6.49307166482978e+17
19194.0	6.492068036389546e+17
19195.0	6.491017446424575e+17
19196.0	6.489814963235497e+17
19197.0	6.488587352670207e+17
19198.0	6.487303408407891e+17
19199.0	6.431433084108785e+17
19200.0	6.449785083002904e+17
19201.0	6.483631874768896e+17
19202.0	6.482469933023231e+17
19203.0	6.4811240011421e+17
19204.0	6.479947607222953e+17
19205.0	6.478778108739583e+17
19206.0	6.477538701694291e+17
19207.0	6.476161010543274e+17
19208.0	6.474636957756072e+17
19209.0	6.473815448791722e+17
19210.0	6.47263709892881e+17
19211.0	6.471436190700884e+17
19212.0	6.470208335467859e+17
19213.0	6.468271542195539e+17
19214.0	6.466762658108758e+17
19215.0	6.466320357567145e+17
19216.0	6.465254521307135e+17
19217.0	6.464053279632042e+17
19218.0	6.46106693728119e+17
19219.0	6.46127113487428e+17
19220.0	6.460298697375743e+17
19221.0	6.458386471540054e+17
19222.0	6.457930134760106e+17
19223.0	6.45665532219665e+17
19224.0	6.455314476608169e+17
19225.0	6.453912683588265e+17
19226.0	6.452967636991997e+17
19227.0	6.451741107858089e+17
19228.0	6.450572697097556e+17
19229.0	6.449346030250666e+17
19230.0	6.447914308075519e+17
19231.0	6.446727386453331e+17
19232.0	6.445589461292372e+17
19233.0	6.444268105935529e+17
19234.0	6.443151201927167e+17
19235.0	6.441901971122858e+17
19236.0	6.440761131619668e+17
19237.0	6.439490992209919e+17
19238.0	6.438021689769983e+17
19239.0	6.437070064407891e+17
19240.0	6.435372966521514e+17
19241.0	6.434450786571604e+17
19242.0	6.433342042581674e+17
19243.0	6.431776480165885e+17
19244.0	6.430938505762132e+17
19245.0	6.429704475115519e+17
19246.0	6.428452702562985e+17
19247.0	6.427231664472063e+17
19248.0	6.426021286204756e+17
19249.0	6.424782384573097e+17
19250.0	6.42353445400303e+17
19251.0	6.422162328693416e+17
19252.0	6.420385446756351e+17
19253.0	6.4198419166877e+17
19254.0	6.418588329399636e+17
19255.0	6.416975432865108e+17
19256.0	6.416041113900372e+17
19257.0	6.414967678260564e+17
19258.0	6.413746275964244e+17
19259.0	6.41234049835554e+17
19260.0	6.41027693434197e+17
19261.0	6.410031835993428e+17
19262.0	6.408697892831232e+17
19263.0	6.407490973466623e+17
19264.0	6.405241169772541e+17
19265.0	6.404711611629565e+17
19266.0	6.403560842810708e+17
19267.0	6.40267716727057e+17
19268.0	6.401421744275455e+17
19269.0	6.400196359487487e+17
19270.0	6.398961858379775e+17
19271.0	6.397016472376664e+17
19272.0	6.396427992651092e+17
19273.0	6.382600618071363e+17
19274.0	6.387766581526518e+17
19275.0	6.392808769672532e+17
19276.0	6.391530437388969e+17
19277.0	6.390290022312617e+17
19278.0	6.389064345321471e+17
19279.0	6.387622764434772e+17
19280.0	6.386403840972116e+17
19281.0	6.385350134639274e+17
19282.0	6.384138542120959e+17
19283.0	6.381964223315965e+17
19284.0	6.379943343336102e+17
19285.0	6.379935588767059e+17
19286.0	6.379111508694356e+17
19287.0	6.377948761642324e+17
19288.0	6.363078909580625e+17
19289.0	6.332303963149564e+17
19290.0	6.374221438866772e+17
19291.0	6.372399802307927e+17
19292.0	6.37172950569233e+17
19293.0	6.370469047435263e+17
19294.0	6.369214270362963e+17
19295.0	6.367992711479296e+17
19296.0	6.366727202581162e+17
19297.0	6.36540481053218e+17
19298.0	6.364095701843968e+17
19299.0	6.362551923944106e+17
19300.0	6.361303150318931e+17
19301.0	6.360028584520361e+17
19302.0	6.358767910256637e+17
19303.0	6.357299297080659e+17
19304.0	6.3561283417757e+17
19305.0	6.354952273614164e+17
19306.0	6.353663017964883e+17
19307.0	6.352270936855891e+17
19308.0	6.351087801292116e+17
19309.0	6.347976349144403e+17
19310.0	6.345805206825638e+17
19311.0	6.347189163567784e+17
19312.0	6.346086269233833e+17
19313.0	6.34471372099857e+17
19314.0	6.310391237137683e+17
19315.0	6.311962726105161e+17
19316.0	6.340898559011497e+17
19317.0	6.339734394284714e+17
19318.0	6.338446619224744e+17
19319.0	6.337200185322154e+17
19320.0	6.335879836598271e+17
19321.0	6.334626013730132e+17
19322.0	6.333022052461226e+17
19323.0	6.331030622786903e+17
19324.0	6.330702071070719e+17
19325.0	6.327704090225321e+17
19326.0	6.328126038605823e+17
19327.0	6.326800673494356e+17
19328.0	6.325542696867156e+17
19329.0	6.324234087301119e+17
19330.0	6.322824329996969e+17
19331.0	6.321509841414825e+17
19332.0	6.320264010792959e+17
19333.0	6.318896094467411e+17
19334.0	6.317579882026323e+17
19335.0	6.316289515585535e+17
19336.0	6.314930308033193e+17
19337.0	6.31360724279842e+17
19338.0	6.311822167288489e+17
19339.0	6.310908223553535e+17
19340.0	6.309415553247914e+17
19341.0	6.308196691301715e+17
19342.0	6.305901904396285e+17
19343.0	6.305478614537556e+17
19344.0	6.304072248328191e+17
19345.0	6.298043234822815e+17
19346.0	6.300217852821505e+17
19347.0	6.299243455883946e+17
19348.0	6.29797042659874e+17
19349.0	6.296467351622996e+17
19350.0	6.295061902568105e+17
19351.0	6.293636211802111e+17
19352.0	6.292143036781908e+17
19353.0	6.29087526785297e+17
19354.0	6.289425824743423e+17
19355.0	6.287756784653654e+17
19356.0	6.286501841207295e+17
19357.0	6.285025438509738e+17
19358.0	6.28342775611392e+17
19359.0	6.281378972827648e+17
19360.0	6.280461028425727e+17
19361.0	6.278928175289684e+17
19362.0	6.277520392803668e+17
19363.0	6.275978629567828e+17
19364.0	6.274409001473363e+17
19365.0	6.272331336209748e+17
19366.0	6.270538952824148e+17
19367.0	6.268929762656255e+17
19368.0	6.267333394475689e+17
19369.0	6.265407439983956e+17
19370.0	6.262518172002985e+17
19371.0	6.262270914286931e+17
19372.0	6.260709587419133e+17
19373.0	6.258936776054102e+17
19374.0	6.257264422464169e+17
19375.0	6.255146908516352e+17
19376.0	6.252836330056361e+17
19377.0	6.251025037350228e+17
19378.0	6.249148516925437e+17
19379.0	6.24703061430545e+17
19380.0	6.245160073560063e+17
19381.0	6.243233173951828e+17
19382.0	6.240488754162345e+17
19383.0	6.237986282100052e+17
19384.0	6.236199867908095e+17
19385.0	6.234148144414719e+17
19386.0	6.232061814418089e+17
19387.0	6.229137642837334e+17
19388.0	6.226406481941844e+17
19389.0	6.224182140469247e+17
19390.0	6.221868617607849e+17
19391.0	6.164592146601213e+17
19392.0	6.215514833551357e+17
19393.0	6.213154839898793e+17
19394.0	6.20946822074641e+17
19395.0	6.20609559278387e+17
19396.0	6.203337853982035e+17
19397.0	6.199807968979626e+17
19398.0	6.196919098059434e+17
19399.0	6.192243476703912e+17
19400.0	6.190455167385599e+17
19401.0	6.187443590004735e+17
19402.0	6.184262564839421e+17
19403.0	6.180926265840979e+17
19404.0	6.177549642803882e+17
19405.0	6.173963902255104e+17
19406.0	6.170302945951743e+17
19407.0	6.166026952288937e+17
19408.0	6.160239981581656e+17
19409.0	6.157478686010026e+17
19410.0	6.153315540096339e+17
19411.0	6.148776129462271e+17
19412.0	6.143033935746388e+17
19413.0	6.138133339613866e+17
19414.0	6.132911864545279e+17
19415.0	6.126257908132521e+17
19416.0	6.119911573858985e+17
19417.0	6.112343839386282e+17
19418.0	6.106541314801664e+17
19419.0	6.097891853249194e+17
19420.0	6.089913121723731e+17
19421.0	6.080421000729939e+17
19422.0	6.069553910688422e+17
19423.0	6.0574165106688e+17
19424.0	6.043581230525094e+17
19425.0	6.027925708428628e+17
19426.0	6.013304050810879e+17
19427.0	6.001504346789204e+17
19428.0	5.989534998549844e+17
19429.0	5.975858264495443e+17
19430.0	5.960590985352534e+17
19431.0	5.935737313340101e+17
19432.0	5.930043941322751e+17
19433.0	5.91250758565888e+17
19434.0	5.892874427520342e+17
19435.0	5.870104244562598e+17
19436.0	5.841235151421431e+17
19437.0	5.81682921227332e+17
19438.0	5.71597392690108e+17
19439.0	5.734281661906944e+17
19440.0	5.69372067373602e+17
19441.0	5.6549812403350176e+17
19442.0	5.610726991331328e+17
19443.0	5.5591137178200723e+17
19444.0	5.496526532334925e+17
19445.0	5.413315586381143e+17
19446.0	5.3271704542467405e+17
19447.0	5.227065583686993e+17
19448.0	5.0948848907277734e+17
19449.0	4.920719005013334e+17
19450.0	4.592004372976969e+17
19451.0	4.4811278684432954e+17
19452.0	4.7726410652276115e+17
19453.0	5.0178293739028563e+17
19454.0	5.161130852876283e+17
19455.0	5.274426590713172e+17
19456.0	5.3613758205569754e+17
19457.0	5.4476858915990106e+17
19458.0	5.4689063610177786e+17
19459.0	5.571000057987077e+17
19460.0	5.6163168458287763e+17
19461.0	5.655729038600873e+17
19462.0	5.6909699373247123e+17
19463.0	5.735374315148621e+17
19464.0	5.773610433467735e+17
19465.0	5.803554905609556e+17
19466.0	5.826174565482491e+17
19467.0	5.848985294077951e+17
19468.0	5.867253906014207e+17
19469.0	5.881933354150569e+17
19470.0	5.898387591266303e+17
19471.0	5.912035065156948e+17
19472.0	5.924200298577919e+17
19473.0	5.935689393416873e+17
19474.0	5.946373821519188e+17
19475.0	5.954452082480467e+17
19476.0	5.965865017147391e+17
19477.0	5.9794423007587e+17
19478.0	5.992121095247188e+17
19479.0	6.002371851190273e+17
19480.0	6.011172955007661e+17
19481.0	6.018859003805693e+17
19482.0	6.02586763825425e+17
19483.0	6.031630417614163e+17
19484.0	6.036562092141225e+17
19485.0	6.041579639450281e+17
19486.0	6.045471454440106e+17
19487.0	6.049354712350719e+17
19488.0	6.053008320932521e+17
19489.0	6.055674483397972e+17
19490.0	6.055596645504337e+17
19491.0	6.061387465184595e+17
19492.0	6.063549935080788e+17
19493.0	6.065426922471423e+17
19494.0	6.06714387759104e+17
19495.0	6.069084280061951e+17
19496.0	6.070036219996841e+17
19497.0	6.072063663363412e+17
19498.0	6.071166701666313e+17
19499.0	5.989586529069641e+17
19500.0	6.075187533447168e+17
19501.0	6.075973369156948e+17
19502.0	6.076660694646783e+17
19503.0	6.077444915549524e+17
19504.0	6.078292562717353e+17
19505.0	6.07897195258402e+17
19506.0	6.080197040275455e+17
19507.0	6.080459082214057e+17
19508.0	6.08160887725534e+17
19509.0	6.082609119494143e+17
19510.0	6.082308502541652e+17
19511.0	6.00308464589203e+17
19512.0	6.073704026996685e+17
19513.0	6.058974044487633e+17
19514.0	6.06731451446065e+17
19515.0	6.082219442088623e+17
19516.0	6.084885944292692e+17
19517.0	6.084499832744618e+17
19518.0	6.084360142148948e+17
19519.0	6.083997591404544e+17
19520.0	6.083599628850515e+17
19521.0	6.084218175444307e+17
19522.0	6.08379402854946e+17
19523.0	6.08343606567458e+17
19524.0	6.082943149670399e+17
19525.0	6.082337478191786e+17
19526.0	6.08188818924066e+17
19527.0	6.081580690134355e+17
19528.0	6.081407779951956e+17
19529.0	6.08127463736388e+17
19530.0	6.080667029514921e+17
19531.0	6.080034599774889e+17
19532.0	6.079365745999872e+17
19533.0	6.078689420072275e+17
19534.0	6.077994442074794e+17
19535.0	6.077229517067604e+17
19536.0	6.076467414127956e+17
19537.0	6.075804265305428e+17
19538.0	6.074983207927808e+17
19539.0	6.073013801844742e+17
19540.0	6.073829742870525e+17
19541.0	6.073377985571498e+17
19542.0	6.072557001594196e+17
19543.0	6.071733446508543e+17
19544.0	6.070914689007615e+17
19545.0	6.069370117685242e+17
19546.0	6.06714062700544e+17
19547.0	6.068372814255444e+17
19548.0	6.067523947244201e+17
19549.0	6.066417889705983e+17
19550.0	6.065769785851903e+17
19551.0	6.064886248723795e+17
19552.0	6.063985991002794e+17
19553.0	6.063045000298495e+17
19554.0	6.062078643841706e+17
19555.0	6.061225260963156e+17
19556.0	6.060328015451476e+17
19557.0	6.059395857951402e+17
19558.0	6.058459602616319e+17
19559.0	6.057480544408916e+17
19560.0	6.056524686994089e+17
19561.0	6.055572256325631e+17
19562.0	6.054664234248873e+17
19563.0	6.053716598368937e+17
19564.0	6.053070667164329e+17
19565.0	6.052293256413183e+17
19566.0	6.051263666629289e+17
19567.0	6.050351781598547e+17
19568.0	6.049309144033961e+17
19569.0	6.048338245844991e+17
19570.0	6.047400830784852e+17
19571.0	6.046410615029759e+17
19572.0	6.0453307809792e+17
19573.0	6.044389686116351e+17
19574.0	6.043189307768831e+17
19575.0	6.042404561879039e+17
19576.0	6.041396639170559e+17
19577.0	6.0402348589056e+17
19578.0	6.039292582647124e+17
19579.0	6.03830512324881e+17
19580.0	6.037297808015359e+17
19581.0	6.036298535359828e+17
19582.0	6.035316478225066e+17
19583.0	6.03429241233954e+17
19584.0	6.033240861179903e+17
19585.0	6.031979666123433e+17
19586.0	6.03082141396719e+17
19587.0	6.029725176692735e+17
19588.0	6.028087874202282e+17
19589.0	6.027889921228799e+17
19590.0	6.026849924677631e+17
19591.0	6.026010537492479e+17
19592.0	6.024982214388393e+17
19593.0	6.023890435659092e+17
19594.0	6.022251585470461e+17
19595.0	6.021805324107775e+17
19596.0	6.009935601074181e+17
19597.0	6.019702641917951e+17
19598.0	6.01807241032499e+17
19599.0	6.017652028517033e+17
19600.0	6.016619001501012e+17
19601.0	6.015424768507903e+17
19602.0	6.014423767799124e+17
19603.0	6.011643526556325e+17
19604.0	6.012274330304512e+17
19605.0	6.01067687440111e+17
19606.0	6.010262038162089e+17
19607.0	6.009219536912383e+17
19608.0	6.00813342958114e+17
19609.0	6.006967120865961e+17
19610.0	6.006054341050368e+17
19611.0	6.004968651052371e+17
19612.0	6.003936654437034e+17
19613.0	6.002842591909204e+17
19614.0	6.001717617360895e+17
19615.0	6.000739277777578e+17
19616.0	5.999166408884223e+17
19617.0	5.998601431242068e+17
19618.0	5.996470292097705e+17
19619.0	5.994970822825297e+17
19620.0	5.994016155194707e+17
19621.0	5.9943185036957e+17
19622.0	5.993273109774335e+17
19623.0	5.99220617810193e+17
19624.0	5.991119482869076e+17
19625.0	5.99005885034223e+17
19626.0	5.988971892266324e+17
19627.0	5.987923842651476e+17
19628.0	5.985461737269935e+17
19629.0	5.985572770982569e+17
19630.0	5.983999560952494e+17
19631.0	5.925571146022879e+17
19632.0	5.98251786084898e+17
19633.0	5.981350618901161e+17
19634.0	5.980418552277674e+17
19635.0	5.979260411969535e+17
19636.0	5.978241816155475e+17
19637.0	5.976337602139479e+17
19638.0	5.976097994134868e+17
19639.0	5.974996697830739e+17
19640.0	5.973841866129407e+17
19641.0	5.971443537936389e+17
19642.0	5.971801345622015e+17
19643.0	5.970676874390185e+17
19644.0	5.969542410229076e+17
19645.0	5.968028170715133e+17
19646.0	5.967522324370771e+17
19647.0	5.966451069769044e+17
19648.0	5.965364422071635e+17
19649.0	5.964281310871552e+17
19650.0	5.963219125054121e+17
19651.0	5.962128380220758e+17
19652.0	5.961046486067882e+17
19653.0	5.959960903024637e+17
19654.0	5.958887374411092e+17
19655.0	5.957797085358762e+17
19656.0	5.956733697873236e+17
19657.0	5.955657660366847e+17
19658.0	5.95458620793378e+17
19659.0	5.953512336086356e+17
19660.0	5.952447859479892e+17
19661.0	5.951359883586217e+17
19662.0	5.950292126334976e+17
19663.0	5.949105554937174e+17
19664.0	5.947846793276073e+17
19665.0	5.947058315853823e+17
