# Flux units: erg / (cm m2 s)
# Wavelength units: Angstrom
wave	flux
19000.0	6.255459128311807e+17
19001.0	6.253473353957373e+17
19002.0	6.253212093557418e+17
19003.0	6.252015190889812e+17
19004.0	6.250883230728191e+17
19005.0	6.249632111788031e+17
19006.0	6.248483499540477e+17
19007.0	6.247300981238442e+17
19008.0	6.245888723430057e+17
19009.0	6.243838038026921e+17
19010.0	6.24240557695522e+17
19011.0	6.242010497286144e+17
19012.0	6.239994392521384e+17
19013.0	6.240398014589609e+17
19014.0	6.238998481600511e+17
19015.0	6.237983620814164e+17
19016.0	6.237155769363114e+17
19017.0	6.236001936605183e+17
19018.0	6.234835476895059e+17
19019.0	6.233743777857536e+17
19020.0	6.232547537889962e+17
19021.0	6.2315403163293e+17
19022.0	6.230344493694975e+17
19023.0	6.228828219244541e+17
19024.0	6.227632123281407e+17
19025.0	6.226449805606911e+17
19026.0	6.224987836907517e+17
19027.0	6.223717480792063e+17
19028.0	6.222962380242944e+17
19029.0	6.221819677769727e+17
19030.0	6.220838640549887e+17
19031.0	6.219518755296596e+17
19032.0	6.217890922146473e+17
19033.0	6.215026299895805e+17
19034.0	6.211669035668819e+17
19035.0	6.196598024088233e+17
19036.0	6.149277126492159e+17
19037.0	6.197122066721448e+17
19038.0	6.207479688637098e+17
19039.0	6.209040582093482e+17
19040.0	6.208848663325353e+17
19041.0	6.208093160822099e+17
19042.0	6.202158860992504e+17
19043.0	6.206235379848532e+17
19044.0	6.205061926136489e+17
19045.0	6.203820572934143e+17
19046.0	6.202481253373268e+17
19047.0	6.201152794263551e+17
19048.0	6.198815525350057e+17
19049.0	6.188528618001737e+17
19050.0	6.194774910435327e+17
19051.0	6.187442976238249e+17
19052.0	6.188899121845587e+17
19053.0	6.192614088201556e+17
19054.0	6.192946159637844e+17
19055.0	6.189195906602332e+17
19056.0	6.190965946930515e+17
19057.0	6.190568073155924e+17
19058.0	6.184817049032012e+17
19059.0	6.186738017195346e+17
19060.0	6.187339222439252e+17
19061.0	6.186262104899584e+17
19062.0	6.185124318849705e+17
19063.0	6.183981818402132e+17
19064.0	6.182465438395052e+17
19065.0	6.18068191547665e+17
19066.0	6.178549478894252e+17
19067.0	6.179468431327231e+17
19068.0	6.178472305098751e+17
19069.0	6.177358427979773e+17
19070.0	6.176080851369983e+17
19071.0	6.174975834019156e+17
19072.0	6.172304038603433e+17
19073.0	6.172855731486719e+17
19074.0	6.171756966445055e+17
19075.0	6.170618043039743e+17
19076.0	6.169443796604244e+17
19077.0	6.168217279354195e+17
19078.0	6.166958935725395e+17
19079.0	6.1660398616576e+17
19080.0	6.164798895729322e+17
19081.0	6.163336594281811e+17
19082.0	6.162526556738902e+17
19083.0	6.160660483626323e+17
19084.0	6.15843668042274e+17
19085.0	6.15885763055889e+17
19086.0	6.152155663346344e+17
19087.0	6.152304705841829e+17
19088.0	6.152212465407311e+17
19089.0	6.152732044602029e+17
19090.0	6.152938055532543e+17
19091.0	6.151712639986349e+17
19092.0	6.146967277841075e+17
19093.0	6.150064760859305e+17
19094.0	6.149025106143913e+17
19095.0	6.147971934584831e+17
19096.0	6.146868808865108e+17
19097.0	6.145775272722431e+17
19098.0	6.142689718304765e+17
19099.0	6.141159002865664e+17
19100.0	6.142058430114473e+17
19101.0	6.141007227781119e+17
19102.0	6.139726211142996e+17
19103.0	6.13888442901026e+17
19104.0	6.137814792710826e+17
19105.0	6.132287978602506e+17
19106.0	6.135220979193172e+17
19107.0	6.132827159177897e+17
19108.0	6.13076287094784e+17
19109.0	6.130527253124438e+17
19110.0	6.129881457535658e+17
19111.0	6.128040761360381e+17
19112.0	6.127023230200486e+17
19113.0	6.127512329388031e+17
19114.0	6.125471646700882e+17
19115.0	6.124770631002796e+17
19116.0	6.123844242767871e+17
19117.0	6.122324513609044e+17
19118.0	6.117268246582614e+17
19119.0	6.087249710721684e+17
19120.0	6.116574708629503e+17
19121.0	6.117580138523305e+17
19122.0	6.117240829815465e+17
19123.0	6.11629848924433e+17
19124.0	6.11415722505011e+17
19125.0	6.11364107330082e+17
19126.0	6.111298274896553e+17
19127.0	6.106952417411072e+17
19128.0	6.108606999734953e+17
19129.0	6.108606908159315e+17
19130.0	6.108470034038783e+17
19131.0	6.107631430489427e+17
19132.0	6.106582430165674e+17
19133.0	6.105189960384511e+17
19134.0	6.104241290608639e+17
19135.0	6.103249536942079e+17
19136.0	6.102095329492991e+17
19137.0	6.100743905170772e+17
19138.0	6.099798835505834e+17
19139.0	6.09885262848546e+17
19140.0	6.097788421013503e+17
19141.0	6.096677719681706e+17
19142.0	6.095300877877245e+17
19143.0	6.094269670490112e+17
19144.0	6.092981746532351e+17
19145.0	6.092131056396969e+17
19146.0	6.086190310621188e+17
19147.0	6.089711115654484e+17
19148.0	6.087271321873066e+17
19149.0	6.085897329399124e+17
19150.0	6.086540832800767e+17
19151.0	6.085363207853395e+17
19152.0	6.084033081507839e+17
19153.0	6.07969192094378e+17
19154.0	6.081335177947818e+17
19155.0	6.080469656753492e+17
19156.0	6.079307898159104e+17
19157.0	6.076910199111683e+17
19158.0	6.07423240654029e+17
19159.0	6.075392452460543e+17
19160.0	6.074019908419583e+17
19161.0	6.072350353129472e+17
19162.0	6.070052897947647e+17
19163.0	6.069725705185961e+17
19164.0	6.069547861103956e+17
19165.0	6.06539219573145e+17
19166.0	6.067558434209791e+17
19167.0	6.066789335870121e+17
19168.0	6.065937634907476e+17
19169.0	6.064977371376298e+17
19170.0	6.063974863514282e+17
19171.0	6.062850488052393e+17
19172.0	6.061678393993898e+17
19173.0	6.060702725483178e+17
19174.0	6.059499637615274e+17
19175.0	6.058461614484138e+17
19176.0	6.057379844762282e+17
19177.0	6.055085954738856e+17
19178.0	6.05504396136721e+17
19179.0	6.053915248994986e+17
19180.0	6.052734957169321e+17
19181.0	6.05124953182481e+17
19182.0	6.050276817502207e+17
19183.0	6.049459558765907e+17
19184.0	6.048325260978857e+17
19185.0	6.047069396183722e+17
19186.0	6.045957937081002e+17
19187.0	6.044136573151914e+17
19188.0	6.043407020807508e+17
19189.0	6.042060165480447e+17
19190.0	6.040671644636499e+17
19191.0	6.038948767858687e+17
19192.0	6.037542099659433e+17
19193.0	6.035195634035372e+17
19194.0	6.032637497966593e+17
19195.0	6.03076030505506e+17
19196.0	6.027092860862463e+17
19197.0	6.0220839048861e+17
19198.0	6.014497461021353e+17
19199.0	6.002293619032064e+17
19200.0	6.002474370465792e+17
19201.0	6.01177518505984e+17
19202.0	6.016957063102464e+17
19203.0	6.019348442731859e+17
19204.0	6.020879304272553e+17
19205.0	6.021303798595583e+17
19206.0	6.021233263684266e+17
19207.0	6.019851939566931e+17
19208.0	6.019666285690877e+17
19209.0	6.019432980327082e+17
19210.0	6.018728184862036e+17
19211.0	6.017959250100223e+17
19212.0	6.016916074266623e+17
19213.0	6.015071656345597e+17
19214.0	6.014378769907711e+17
19215.0	6.013731611869183e+17
19216.0	6.012649349316608e+17
19217.0	6.011074530071892e+17
19218.0	6.008966831494484e+17
19219.0	6.007720756204882e+17
19220.0	6.00804624887535e+17
19221.0	6.006965801757353e+17
19222.0	6.00622963359744e+17
19223.0	6.00533029233186e+17
19224.0	6.00412066624307e+17
19225.0	6.003268080282282e+17
19226.0	6.002258233087316e+17
19227.0	6.00128622760209e+17
19228.0	6.000429485785087e+17
19229.0	5.99936238494242e+17
19230.0	5.998265749908137e+17
19231.0	5.997107135643647e+17
19232.0	5.99608984146193e+17
19233.0	5.994566022157652e+17
19234.0	5.993896987328511e+17
19235.0	5.99257186968098e+17
19236.0	5.991771588788223e+17
19237.0	5.990606183246506e+17
19238.0	5.98903912346419e+17
19239.0	5.988509122123092e+17
19240.0	5.98742314062097e+17
19241.0	5.986193617453055e+17
19242.0	5.985144236146688e+17
19243.0	5.98288500156006e+17
19244.0	5.983102453153792e+17
19245.0	5.981944088450388e+17
19246.0	5.980872812178089e+17
19247.0	5.979712915854676e+17
19248.0	5.97868173992482e+17
19249.0	5.977406445016403e+17
19250.0	5.975661624339113e+17
19251.0	5.9740327055633e+17
19252.0	5.971877045119658e+17
19253.0	5.973086918672383e+17
19254.0	5.972115311646036e+17
19255.0	5.969432707508902e+17
19256.0	5.969811653088598e+17
19257.0	5.968780526092287e+17
19258.0	5.967623261694633e+17
19259.0	5.965489537460905e+17
19260.0	5.963206293979133e+17
19261.0	5.963786103379284e+17
19262.0	5.962371303123625e+17
19263.0	5.960952754558292e+17
19264.0	5.958926063370239e+17
19265.0	5.95844275441937e+17
19266.0	5.957405865148415e+17
19267.0	5.957567749903702e+17
19268.0	5.95652435386914e+17
19269.0	5.955382105778858e+17
19270.0	5.953970140872704e+17
19271.0	5.952305311165097e+17
19272.0	5.951827284940116e+17
19273.0	5.949614328905727e+17
19274.0	5.946933767394637e+17
19275.0	5.948924758065151e+17
19276.0	5.947696473615018e+17
19277.0	5.946609026203647e+17
19278.0	5.945354307851604e+17
19279.0	5.944067888949929e+17
19280.0	5.942938328629248e+17
19281.0	5.941892118915753e+17
19282.0	5.940795323798867e+17
19283.0	5.939483286787412e+17
19284.0	5.937820103344127e+17
19285.0	5.936141197552298e+17
19286.0	5.933701148617385e+17
19287.0	5.928403481220436e+17
19288.0	5.897953575174138e+17
19289.0	5.887436523569143e+17
19290.0	5.923909996118015e+17
19291.0	5.926356311343112e+17
19292.0	5.928815085748223e+17
19293.0	5.928370781727401e+17
19294.0	5.927445953074516e+17
19295.0	5.926671935515306e+17
19296.0	5.923456771511642e+17
19297.0	5.92397602914304e+17
19298.0	5.923317754101759e+17
19299.0	5.919996214160045e+17
19300.0	5.921288240846166e+17
19301.0	5.920229058150399e+17
19302.0	5.918975270234793e+17
19303.0	5.917445643916628e+17
19304.0	5.916709654014633e+17
19305.0	5.915413124044116e+17
19306.0	5.914187538628605e+17
19307.0	5.912601231884287e+17
19308.0	5.911211465332051e+17
19309.0	5.909497659435689e+17
19310.0	5.907736137039872e+17
19311.0	5.906281613929129e+17
19312.0	5.903874348373331e+17
19313.0	5.89585859023121e+17
19314.0	5.7351884291878054e+17
19315.0	5.741792541190882e+17
19316.0	5.890031725401432e+17
19317.0	5.898652491623082e+17
19318.0	5.89941389341491e+17
19319.0	5.899157699035135e+17
19320.0	5.897502735029587e+17
19321.0	5.895429636663978e+17
19322.0	5.89625468911616e+17
19323.0	5.89511835918882e+17
19324.0	5.894039661095593e+17
19325.0	5.892999846297599e+17
19326.0	5.89207157482018e+17
19327.0	5.89106344169745e+17
19328.0	5.88630842706057e+17
19329.0	5.889046418380116e+17
19330.0	5.88791098253858e+17
19331.0	5.886551942758399e+17
19332.0	5.885750012805119e+17
19333.0	5.884491895668735e+17
19334.0	5.883453476874922e+17
19335.0	5.874729311272969e+17
19336.0	5.881137078818131e+17
19337.0	5.880109269516287e+17
19338.0	5.87737567033207e+17
19339.0	5.877609792886099e+17
19340.0	5.875669947558569e+17
19341.0	5.87167255983992e+17
19342.0	5.871964936383148e+17
19343.0	5.872117041419604e+17
19344.0	5.867016340635652e+17
19345.0	5.862442794658477e+17
19346.0	5.863369670131711e+17
19347.0	5.863050321417556e+17
19348.0	5.866682260826793e+17
19349.0	5.865624249739945e+17
19350.0	5.86322747134225e+17
19351.0	5.863483609098921e+17
19352.0	5.858349672650061e+17
19353.0	5.861575845303638e+17
19354.0	5.860452264662356e+17
19355.0	5.858481155691864e+17
19356.0	5.858077637083136e+17
19357.0	5.856875770456746e+17
19358.0	5.855584323982676e+17
19359.0	5.8534417966039e+17
19360.0	5.850020883114665e+17
19361.0	5.851944332208809e+17
19362.0	5.850831821733887e+17
19363.0	5.84962782719727e+17
19364.0	5.848395644141567e+17
19365.0	5.847102524140202e+17
19366.0	5.84587455636002e+17
19367.0	5.844573265854464e+17
19368.0	5.84331715149824e+17
19369.0	5.841780670988287e+17
19370.0	5.84056922247441e+17
19371.0	5.839047890392403e+17
19372.0	5.838165904457727e+17
19373.0	5.8366976079517e+17
19374.0	5.835517484597248e+17
19375.0	5.834209644685993e+17
19376.0	5.832880237663572e+17
19377.0	5.831461421361834e+17
19378.0	5.830044792389631e+17
19379.0	5.828679761046186e+17
19380.0	5.827240041731412e+17
19381.0	5.825766520520701e+17
19382.0	5.823663915925504e+17
19383.0	5.822492642552488e+17
19384.0	5.82126858805794e+17
19385.0	5.819795349962751e+17
19386.0	5.818172108177407e+17
19387.0	5.816291709419519e+17
19388.0	5.81401762140433e+17
19389.0	5.810597002215423e+17
19390.0	5.801426388604243e+17
19391.0	5.75488187205767e+17
19392.0	5.785260720302761e+17
19393.0	5.802096332898304e+17
19394.0	5.803690708085418e+17
19395.0	5.801987373268995e+17
19396.0	5.801561097065814e+17
19397.0	5.800208385092266e+17
19398.0	5.79692390182639e+17
19399.0	5.793638898466815e+17
19400.0	5.792833755676673e+17
19401.0	5.792956892752554e+17
19402.0	5.791354463802708e+17
19403.0	5.789385181451603e+17
19404.0	5.787541436716372e+17
19405.0	5.785298381657428e+17
19406.0	5.783122322216275e+17
19407.0	5.779290208949587e+17
19408.0	5.776662578156884e+17
19409.0	5.775346975287978e+17
19410.0	5.773846249821524e+17
19411.0	5.771623091142655e+17
19412.0	5.76903469736482e+17
19413.0	5.765078940909568e+17
19414.0	5.763476371450537e+17
19415.0	5.760439852640939e+17
19416.0	5.756380577966759e+17
19417.0	5.754307312528042e+17
19418.0	5.7512347303936e+17
19419.0	5.748004280948052e+17
19420.0	5.7446151504964256e+17
19421.0	5.7409784295806285e+17
19422.0	5.736813814262441e+17
19423.0	5.7330472698511354e+17
19424.0	5.7287691084322125e+17
19425.0	5.724126236901375e+17
19426.0	5.7191378574813856e+17
19427.0	5.7137173431145805e+17
19428.0	5.7076999135778125e+17
19429.0	5.70047074542114e+17
19430.0	5.69040716169216e+17
19431.0	5.681362959510188e+17
19432.0	5.679795810948436e+17
19433.0	5.673691527861588e+17
19434.0	5.664986047883945e+17
19435.0	5.652946723274751e+17
19436.0	5.639360045121535e+17
19437.0	5.618918414614528e+17
19438.0	5.527093427306505e+17
19439.0	5.570448534274042e+17
19440.0	5.595308851462143e+17
19441.0	5.587841012727807e+17
19442.0	5.5742408163328e+17
19443.0	5.5578623940580685e+17
19444.0	5.537966011886249e+17
19445.0	5.514651940246869e+17
19446.0	5.4870780572685645e+17
19447.0	5.4534461837366586e+17
19448.0	5.4106892837847046e+17
19449.0	5.353158089900032e+17
19450.0	5.2610093736263616e+17
19451.0	5.18996345417455e+17
19452.0	5.313376011943935e+17
19453.0	5.3809360621185715e+17
19454.0	5.4269814620815334e+17
19455.0	5.461184264273919e+17
19456.0	5.485829935857665e+17
19457.0	5.492152452775938e+17
19458.0	5.1473221834945306e+17
19459.0	5.442896343160221e+17
19460.0	5.5538110955519974e+17
19461.0	5.5753890196357114e+17
19462.0	5.589426797281279e+17
19463.0	5.6007667846130336e+17
19464.0	5.610086035969364e+17
19465.0	5.618628382687231e+17
19466.0	5.626024802910207e+17
19467.0	5.6331200853879456e+17
19468.0	5.639117582194005e+17
19469.0	5.6417519238731046e+17
19470.0	5.649386932884821e+17
19471.0	5.65406075068962e+17
19472.0	5.657971063958185e+17
19473.0	5.6615199337786016e+17
19474.0	5.66189993981815e+17
19475.0	5.6649266607336083e+17
19476.0	5.66983438718293e+17
19477.0	5.673300667662335e+17
19478.0	5.6758720766061216e+17
19479.0	5.675387295454544e+17
19480.0	5.679480519524351e+17
19481.0	5.6811845079531514e+17
19482.0	5.682815922339839e+17
19483.0	5.684106295771135e+17
19484.0	5.6851087505053005e+17
19485.0	5.6860141406562976e+17
19486.0	5.6841813989785664e+17
19487.0	5.687567267659774e+17
19488.0	5.6878427306721274e+17
19489.0	5.686396945694719e+17
19490.0	5.6852388529220256e+17
19491.0	5.688447092828841e+17
19492.0	5.6896832485894816e+17
19493.0	5.689882452863658e+17
19494.0	5.6896173924242765e+17
19495.0	5.688551846969343e+17
19496.0	5.685259730769236e+17
19497.0	5.679769740552874e+17
19498.0	5.6436124297461696e+17
19499.0	5.603575024233131e+17
19500.0	5.673371448639487e+17
19501.0	5.68463160648226e+17
19502.0	5.687435195318271e+17
19503.0	5.6883234076972365e+17
19504.0	5.6884344449051296e+17
19505.0	5.6881150339754656e+17
19506.0	5.687717434927786e+17
19507.0	5.6866703164484256e+17
19508.0	5.685009838331221e+17
19509.0	5.6807213002042016e+17
19510.0	5.66149311260262e+17
19511.0	5.440055819982118e+17
19512.0	5.6276768546706746e+17
19513.0	5.642766312101198e+17
19514.0	5.650634995575459e+17
19515.0	5.675555224201898e+17
19516.0	5.679825822591657e+17
19517.0	5.681368404415828e+17
19518.0	5.6809564447703014e+17
19519.0	5.6806369821108883e+17
19520.0	5.678216157768358e+17
19521.0	5.68082397536802e+17
19522.0	5.6794862090977274e+17
19523.0	5.6788482918099635e+17
19524.0	5.6767912604248794e+17
19525.0	5.678237718588074e+17
19526.0	5.677732160951636e+17
19527.0	5.6768951358586874e+17
19528.0	5.6759451602561696e+17
19529.0	5.675014620359339e+17
19530.0	5.674710466210474e+17
19531.0	5.6739776038611616e+17
19532.0	5.673168307311956e+17
19533.0	5.672354341803347e+17
19534.0	5.6715456632149325e+17
19535.0	5.670505546427049e+17
19536.0	5.6694864123439776e+17
19537.0	5.6686065627081363e+17
19538.0	5.664204990185476e+17
19539.0	5.665680579188053e+17
19540.0	5.665812170582698e+17
19541.0	5.6646879775730336e+17
19542.0	5.6642032111015245e+17
19543.0	5.660544828702722e+17
19544.0	5.6619125003605325e+17
19545.0	5.659143490764799e+17
19546.0	5.6580557029157536e+17
19547.0	5.6594869769994234e+17
19548.0	5.659182203491668e+17
19549.0	5.657684779641513e+17
19550.0	5.6577101293158394e+17
19551.0	5.656853657332394e+17
19552.0	5.6559508718441805e+17
19553.0	5.65499718148642e+17
19554.0	5.654045129004372e+17
19555.0	5.652778166080854e+17
19556.0	5.652085393588223e+17
19557.0	5.651423821823999e+17
19558.0	5.65053271257907e+17
19559.0	5.649632720497322e+17
19560.0	5.647472553973073e+17
19561.0	5.6476449908981754e+17
19562.0	5.645801365001556e+17
19563.0	5.646004449006932e+17
19564.0	5.645044741920083e+17
19565.0	5.6441010661621754e+17
19566.0	5.643043972928853e+17
19567.0	5.642214280178345e+17
19568.0	5.6410731533653325e+17
19569.0	5.6401973819910816e+17
19570.0	5.6393279754731514e+17
19571.0	5.638404862290602e+17
19572.0	5.6371899716512435e+17
19573.0	5.636090602629802e+17
19574.0	5.6346671663022054e+17
19575.0	5.634598007821652e+17
19576.0	5.633409274260138e+17
19577.0	5.631901369543338e+17
19578.0	5.631614737798483e+17
19579.0	5.63050844468019e+17
19580.0	5.629583667757055e+17
19581.0	5.6287949554537805e+17
19582.0	5.627866644130474e+17
19583.0	5.6268846212491936e+17
19584.0	5.6258217014285645e+17
19585.0	5.6239227876147174e+17
19586.0	5.6226934657733997e+17
19587.0	5.6224132282449914e+17
19588.0	5.6205925969210016e+17
19589.0	5.620281501898069e+17
19590.0	5.6191855043979936e+17
19591.0	5.618915868671999e+17
19592.0	5.61808710565888e+17
19593.0	5.6166833336265363e+17
19594.0	5.613900484924752e+17
19595.0	5.614998697716393e+17
19596.0	5.613536317276158e+17
19597.0	5.612894934095188e+17
19598.0	5.609879533606228e+17
19599.0	5.6108170241638394e+17
19600.0	5.6100842338167456e+17
19601.0	5.608679683741013e+17
19602.0	5.6073654698857805e+17
19603.0	5.605801122420052e+17
19604.0	5.6052703486279686e+17
19605.0	5.603424629773658e+17
19606.0	5.6041160558946976e+17
19607.0	5.60327905317137e+17
19608.0	5.602289453279913e+17
19609.0	5.6011410612333216e+17
19610.0	5.599062678044673e+17
19611.0	5.5974096643904864e+17
19612.0	5.59846606835985e+17
19613.0	5.5973539912963405e+17
19614.0	5.5960536941417805e+17
19615.0	5.595089778070868e+17
19616.0	5.592270722039809e+17
19617.0	5.5903598139146246e+17
19618.0	5.5889228977930214e+17
19619.0	5.586912033811113e+17
19620.0	5.586749185764007e+17
19621.0	5.5853836923480723e+17
19622.0	5.587783835975678e+17
19623.0	5.5866562092291405e+17
19624.0	5.585111328926379e+17
19625.0	5.584377517965311e+17
19626.0	5.5826789639563936e+17
19627.0	5.580618259060052e+17
19628.0	5.5774339902996474e+17
19629.0	5.5654508043523366e+17
19630.0	5.563190587599529e+17
19631.0	5.555917159049898e+17
19632.0	5.567213972313428e+17
19633.0	5.571293355180032e+17
19634.0	5.573423815546196e+17
19635.0	5.573131868919122e+17
19636.0	5.570244812035409e+17
19637.0	5.567058190270466e+17
19638.0	5.5718628479904403e+17
19639.0	5.5711136830805325e+17
19640.0	5.568273688384853e+17
19641.0	5.564902355064151e+17
19642.0	5.5679927518057805e+17
19643.0	5.567205047533566e+17
19644.0	5.5661615067955194e+17
19645.0	5.565176476598271e+17
19646.0	5.561422564731557e+17
19647.0	5.563955953707689e+17
19648.0	5.5630865059457696e+17
19649.0	5.562136575082494e+17
19650.0	5.561221459738623e+17
19651.0	5.560210192072703e+17
19652.0	5.559224731260245e+17
19653.0	5.5582766305116154e+17
19654.0	5.5572675466799776e+17
19655.0	5.5562518952673274e+17
19656.0	5.555370831380479e+17
19657.0	5.554340917936126e+17
19658.0	5.5533998419476474e+17
19659.0	5.552426873170602e+17
19660.0	5.5514724243428685e+17
19661.0	5.550432681547094e+17
19662.0	5.549437696868351e+17
