# Flux units: erg / (cm m2 s)
# Wavelength units: Angstrom
wave	flux
19000.0	6.81421145444625e+17
19001.0	6.812875161075711e+17
19002.0	6.811687266374995e+17
19003.0	6.810418679556777e+17
19004.0	6.809150711398399e+17
19005.0	6.80789719331635e+17
19006.0	6.806633262874623e+17
19007.0	6.805277590421503e+17
19008.0	6.804059109457919e+17
19009.0	6.802778418577407e+17
19010.0	6.801226972091731e+17
19011.0	6.800271243302227e+17
19012.0	6.798639134758227e+17
19013.0	6.797770041414996e+17
19014.0	6.796462351100585e+17
19015.0	6.795212256968703e+17
19016.0	6.793936672653311e+17
19017.0	6.792706059665407e+17
19018.0	6.791416055332863e+17
19019.0	6.790169886370474e+17
19020.0	6.788889080845652e+17
19021.0	6.787638237331455e+17
19022.0	6.786381467964755e+17
19023.0	6.785082928922623e+17
19024.0	6.783823378033321e+17
19025.0	6.782542769640788e+17
19026.0	6.781248030638079e+17
19027.0	6.77968379711761e+17
19028.0	6.778766346245459e+17
19029.0	6.777495967061331e+17
19030.0	6.77624008548898e+17
19031.0	6.774971709085011e+17
19032.0	6.773702823772159e+17
19033.0	6.772365537749673e+17
19034.0	6.771150114433705e+17
19035.0	6.769886287451476e+17
19036.0	6.745116463071228e+17
19037.0	6.767435034132479e+17
19038.0	6.766182247956479e+17
19039.0	6.764935293960191e+17
19040.0	6.763667319510355e+17
19041.0	6.762398150382932e+17
19042.0	6.761042142385494e+17
19043.0	6.759861336757588e+17
19044.0	6.758581000295764e+17
19045.0	6.75730908389922e+17
19046.0	6.756014860096852e+17
19047.0	6.754772101802665e+17
19048.0	6.753355898552319e+17
19049.0	6.752155308392447e+17
19050.0	6.750936429669034e+17
19051.0	6.746059425797455e+17
19052.0	6.747819019512489e+17
19053.0	6.747139155689471e+17
19054.0	6.745894696605012e+17
19055.0	6.744430496535894e+17
19056.0	6.743338682155007e+17
19057.0	6.742078778944168e+17
19058.0	6.740767938707455e+17
19059.0	6.739540417620649e+17
19060.0	6.738261096879444e+17
19061.0	6.737009246033236e+17
19062.0	6.735735948312575e+17
19063.0	6.734467746671274e+17
19064.0	6.733113970742612e+17
19065.0	6.731798365077504e+17
19066.0	6.730609161054889e+17
19067.0	6.729390122947924e+17
19068.0	6.728121356473684e+17
19069.0	6.726852478850388e+17
19070.0	6.725564783482195e+17
19071.0	6.724302383961428e+17
19072.0	6.72303365104162e+17
19073.0	6.721771106817366e+17
19074.0	6.720505820217343e+17
19075.0	6.719236488211114e+17
19076.0	6.717951524033875e+17
19077.0	6.716687866221908e+17
19078.0	6.715408764982612e+17
19079.0	6.714158101124435e+17
19080.0	6.712877679378432e+17
19081.0	6.711589298940585e+17
19082.0	6.710318192743763e+17
19083.0	6.709000345223165e+17
19084.0	6.707638224726698e+17
19085.0	6.706541399550633e+17
19086.0	6.704954966977193e+17
19087.0	6.703316590045866e+17
19088.0	6.702618371948543e+17
19089.0	6.700973534390953e+17
19090.0	6.700159097722195e+17
19091.0	6.698901383938047e+17
19092.0	6.697450423189503e+17
19093.0	6.696391174782973e+17
19094.0	6.695123235984723e+17
19095.0	6.693854692507647e+17
19096.0	6.692577013836457e+17
19097.0	6.691320640132436e+17
19098.0	6.690046641963008e+17
19099.0	6.688777098144425e+17
19100.0	6.687478070465876e+17
19101.0	6.686236147537236e+17
19102.0	6.684908360914259e+17
19103.0	6.683715197468671e+17
19104.0	6.682446906348883e+17
19105.0	6.681158000224937e+17
19106.0	6.679786596335615e+17
19107.0	6.678621775899306e+17
19108.0	6.677357535778131e+17
19109.0	6.674136099192828e+17
19110.0	6.674761483201194e+17
19111.0	6.673556642813267e+17
19112.0	6.672298515890175e+17
19113.0	6.671039723470847e+17
19114.0	6.669771198169085e+17
19115.0	6.668421185929215e+17
19116.0	6.667221083706708e+17
19117.0	6.665951714650793e+17
19118.0	6.66453016506095e+17
19119.0	6.660358019568977e+17
19120.0	6.661958318511444e+17
19121.0	6.660756147798015e+17
19122.0	6.65963748008482e+17
19123.0	6.658370443061929e+17
19124.0	6.656980991781544e+17
19125.0	6.655822175491411e+17
19126.0	6.654562672836608e+17
19127.0	6.652011039337128e+17
19128.0	6.651478004815187e+17
19129.0	6.650709760016383e+17
19130.0	6.649490726103721e+17
19131.0	6.648219220748969e+17
19132.0	6.646969827764906e+17
19133.0	6.645538247497046e+17
19134.0	6.644185734752938e+17
19135.0	6.643162929954815e+17
19136.0	6.641908540156586e+17
19137.0	6.640521869000703e+17
19138.0	6.639349440795988e+17
19139.0	6.63810899845666e+17
19140.0	6.636845291012095e+17
19141.0	6.635579545135785e+17
19142.0	6.634295142995284e+17
19143.0	6.633007851678378e+17
19144.0	6.631754035101695e+17
19145.0	6.630512047161343e+17
19146.0	6.6287989962397e+17
19147.0	6.627911392733865e+17
19148.0	6.626699912762708e+17
19149.0	6.625436602378921e+17
19150.0	6.624180235665407e+17
19151.0	6.622920658911232e+17
19152.0	6.621627833909247e+17
19153.0	6.620361829384191e+17
19154.0	6.619026316853248e+17
19155.0	6.61784805646882e+17
19156.0	6.616582667807402e+17
19157.0	6.615258773498538e+17
19158.0	6.612744319008765e+17
19159.0	6.612751995983188e+17
19160.0	6.611491091032745e+17
19161.0	6.610192852582399e+17
19162.0	6.605942650393943e+17
19163.0	6.607613515705001e+17
19164.0	6.606455852848468e+17
19165.0	6.605122691923967e+17
19166.0	6.603771714994176e+17
19167.0	6.60237384225041e+17
19168.0	6.601372920534355e+17
19169.0	6.600068779999231e+17
19170.0	6.598862378631167e+17
19171.0	6.597421595361279e+17
19172.0	6.596312428445695e+17
19173.0	6.595059587743743e+17
19174.0	6.593764342628351e+17
19175.0	6.592540958523392e+17
19176.0	6.59127416267298e+17
19177.0	6.589892512098985e+17
19178.0	6.588655225274368e+17
19179.0	6.587222549594111e+17
19180.0	6.586169632489471e+17
19181.0	6.584852128202751e+17
19182.0	6.583647700953769e+17
19183.0	6.582397639677268e+17
19184.0	6.58111297888802e+17
19185.0	6.579863922147327e+17
19186.0	6.578599407299242e+17
19187.0	6.577273420032682e+17
19188.0	6.576055190727337e+17
19189.0	6.574771874212522e+17
19190.0	6.573490101900627e+17
19191.0	6.572201480989353e+17
19192.0	6.57098773889024e+17
19193.0	6.569701833091753e+17
19194.0	6.568431388196863e+17
19195.0	6.567172808987988e+17
19196.0	6.565883371585536e+17
19197.0	6.564583318399657e+17
19198.0	6.563178611037524e+17
19199.0	6.544097461054117e+17
19200.0	6.548218507340463e+17
19201.0	6.559393827695274e+17
19202.0	6.558247248986111e+17
19203.0	6.556959870986921e+17
19204.0	6.555721444709716e+17
19205.0	6.554475011506175e+17
19206.0	6.553206147164842e+17
19207.0	6.551872956880212e+17
19208.0	6.55052172829218e+17
19209.0	6.549397445804031e+17
19210.0	6.546204249467562e+17
19211.0	6.544337434662227e+17
19212.0	6.54306235785762e+17
19213.0	6.54157662003746e+17
19214.0	6.540221006304596e+17
19215.0	6.539165620153002e+17
19216.0	6.53796388634624e+17
19217.0	6.536690445320191e+17
19218.0	6.534805307697833e+17
19219.0	6.534022254908755e+17
19220.0	6.532836772631892e+17
19221.0	6.531345165582335e+17
19222.0	6.530303724792489e+17
19223.0	6.529014665576447e+17
19224.0	6.527716596995412e+17
19225.0	6.526367538260649e+17
19226.0	6.525177135366143e+17
19227.0	6.523895170815316e+17
19228.0	6.522635498990249e+17
19229.0	6.521353958763178e+17
19230.0	6.520049369437524e+17
19231.0	6.518765600636927e+17
19232.0	6.517497175299412e+17
19233.0	6.51616758862097e+17
19234.0	6.514922569596927e+17
19235.0	6.51363897066564e+17
19236.0	6.512369965815123e+17
19237.0	6.511072217399295e+17
19238.0	6.50970319028224e+17
19239.0	6.508510995720873e+17
19240.0	6.507193636836691e+17
19241.0	6.505908589472425e+17
19242.0	6.504631939104767e+17
19243.0	6.503230692742484e+17
19244.0	6.502064496574463e+17
19245.0	6.500772525812393e+17
19246.0	6.499468095870291e+17
19247.0	6.498185439259305e+17
19248.0	6.496891685918035e+17
19249.0	6.495585225932797e+17
19250.0	6.494284260485802e+17
19251.0	6.492911835982505e+17
19252.0	6.491495583099562e+17
19253.0	6.490386495176701e+17
19254.0	6.489099655446527e+17
19255.0	6.487666174459901e+17
19256.0	6.486457784991743e+17
19257.0	6.485195066703871e+17
19258.0	6.483891208585215e+17
19259.0	6.482531865417044e+17
19260.0	6.480845440636243e+17
19261.0	6.479958982874452e+17
19262.0	6.478615759814655e+17
19263.0	6.477303381666473e+17
19264.0	6.475642159060308e+17
19265.0	6.474578833790291e+17
19266.0	6.473266071863295e+17
19267.0	6.472090916661929e+17
19268.0	6.470772802803027e+17
19269.0	6.467021526357334e+17
19270.0	6.465027688453459e+17
19271.0	6.463457355016874e+17
19272.0	6.462344250348884e+17
19273.0	6.460077175209981e+17
19274.0	6.459042094383101e+17
19275.0	6.458370085093375e+17
19276.0	6.457018963460095e+17
19277.0	6.455683146842111e+17
19278.0	6.454344585052159e+17
19279.0	6.452976377921533e+17
19280.0	6.451599214553769e+17
19281.0	6.45030059512081e+17
19282.0	6.448957505579689e+17
19283.0	6.447348152532992e+17
19284.0	6.446043813467476e+17
19285.0	6.444756375349929e+17
19286.0	6.443509688390996e+17
19287.0	6.442168161228116e+17
19288.0	6.434318030558541e+17
19289.0	6.424273228223804e+17
19290.0	6.43806366077201e+17
19291.0	6.436508594601984e+17
19292.0	6.435325205282815e+17
19293.0	6.43394089132578e+17
19294.0	6.432556063566505e+17
19295.0	6.431179160245588e+17
19296.0	6.426939752797521e+17
19297.0	6.424601977771348e+17
19298.0	6.423196663633235e+17
19299.0	6.421796035231743e+17
19300.0	6.420389153122986e+17
19301.0	6.418966331260927e+17
19302.0	6.41753597223458e+17
19303.0	6.416064746007209e+17
19304.0	6.414660457376425e+17
19305.0	6.413236333882026e+17
19306.0	6.411794579630761e+17
19307.0	6.410305103986687e+17
19308.0	6.40886805434641e+17
19309.0	6.406811420022099e+17
19310.0	6.405141276131324e+17
19311.0	6.404423850917885e+17
19312.0	6.401762397257728e+17
19313.0	6.39705780654353e+17
19314.0	6.376713808947895e+17
19315.0	6.376291471895235e+17
19316.0	6.392458443926185e+17
19317.0	6.391010860990463e+17
19318.0	6.389478928504148e+17
19319.0	6.387956546448041e+17
19320.0	6.386407279602346e+17
19321.0	6.384851832449706e+17
19322.0	6.383200084077225e+17
19323.0	6.38145793097728e+17
19324.0	6.377530761499988e+17
19325.0	6.37531805852194e+17
19326.0	6.374264833835007e+17
19327.0	6.37265312289041e+17
19328.0	6.371022307590144e+17
19329.0	6.369400010921302e+17
19330.0	6.367722320079529e+17
19331.0	6.366057293938688e+17
19332.0	6.364415307808768e+17
19333.0	6.362725053628415e+17
19334.0	6.361040800098985e+17
19335.0	6.359309055164416e+17
19336.0	6.357610887730516e+17
19337.0	6.355889029469524e+17
19338.0	6.353999482235561e+17
19339.0	6.352391236485119e+17
19340.0	6.350564373823487e+17
19341.0	6.348808499058004e+17
19342.0	6.346738298956457e+17
19343.0	6.34521991057681e+17
19344.0	6.343378147650217e+17
19345.0	6.34015745275767e+17
19346.0	6.339075730571261e+17
19347.0	6.337736838829395e+17
19348.0	6.335903642069673e+17
19349.0	6.333965866631167e+17
19350.0	6.332023511012692e+17
19351.0	6.330072173292202e+17
19352.0	6.32804493894178e+17
19353.0	6.326115487099561e+17
19354.0	6.324096990183423e+17
19355.0	6.321985660736852e+17
19356.0	6.319987583090687e+17
19357.0	6.317900644919978e+17
19358.0	6.315779730789716e+17
19359.0	6.313606368985087e+17
19360.0	6.311468440660649e+17
19361.0	6.309302416091818e+17
19362.0	6.30712204071185e+17
19363.0	6.30488466264337e+17
19364.0	6.30261722260002e+17
19365.0	6.300321066953386e+17
19366.0	6.297993602924543e+17
19367.0	6.295635244351487e+17
19368.0	6.293244518334463e+17
19369.0	6.290769662967807e+17
19370.0	6.288252134053204e+17
19371.0	6.285827281081684e+17
19372.0	6.283332821538134e+17
19373.0	6.280750420022612e+17
19374.0	6.278155836850176e+17
19375.0	6.27550574416145e+17
19376.0	6.272819311323818e+17
19377.0	6.270103202387284e+17
19378.0	6.267357601202173e+17
19379.0	6.26446862192913e+17
19380.0	6.261509273419773e+17
19381.0	6.258624837277012e+17
19382.0	6.255637770709672e+17
19383.0	6.252631083887274e+17
19384.0	6.249676934916778e+17
19385.0	6.24659597955345e+17
19386.0	6.243466664564052e+17
19387.0	6.240280898437119e+17
19388.0	6.237039360649897e+17
19389.0	6.233740473445033e+17
19390.0	6.230374007614121e+17
19391.0	6.207472419209187e+17
19392.0	6.223151014871036e+17
19393.0	6.219893837922303e+17
19394.0	6.216255597969407e+17
19395.0	6.212547575283712e+17
19396.0	6.208830876680191e+17
19397.0	6.20511809835281e+17
19398.0	6.200972639120042e+17
19399.0	6.19644571422993e+17
19400.0	6.19299124351249e+17
19401.0	6.189099594896724e+17
19402.0	6.185118257381375e+17
19403.0	6.181074526098772e+17
19404.0	6.176942946516991e+17
19405.0	6.172549044677289e+17
19406.0	6.167338722962089e+17
19407.0	6.162875011825663e+17
19408.0	6.157822577694038e+17
19409.0	6.153674095067135e+17
19410.0	6.147835338686463e+17
19411.0	6.142600750825471e+17
19412.0	6.137607549353984e+17
19413.0	6.13089328444211e+17
19414.0	6.125033449586687e+17
19415.0	6.11806914473711e+17
19416.0	6.110873661734912e+17
19417.0	6.101971797453481e+17
19418.0	6.093526348245673e+17
19419.0	6.083288316422831e+17
19420.0	6.071004017896109e+17
19421.0	6.056124743330474e+17
19422.0	6.038433516486651e+17
19423.0	6.017170353247579e+17
19424.0	5.9982152728576e+17
19425.0	5.986506650244436e+17
19426.0	5.973906045971114e+17
19427.0	5.960800616666452e+17
19428.0	5.947437599074986e+17
19429.0	5.933699294035967e+17
19430.0	5.91931419656192e+17
19431.0	5.901054473054894e+17
19432.0	5.888411186845012e+17
19433.0	5.871614662366548e+17
19434.0	5.853881250611199e+17
19435.0	5.833798030371496e+17
19436.0	5.810452326689449e+17
19437.0	5.785216568262655e+17
19438.0	5.724548367734109e+17
19439.0	5.700196992985774e+17
19440.0	5.6454255777327776e+17
19441.0	5.605898477808296e+17
19442.0	5.564025203763884e+17
19443.0	5.516911089549311e+17
19444.0	5.462434575111504e+17
19445.0	5.390895915117226e+17
19446.0	5.2875994756109626e+17
19447.0	5.17398965570764e+17
19448.0	5.035407174183601e+17
19449.0	4.821192619851774e+17
19450.0	4.441991785305407e+17
19451.0	4.30820800698775e+17
19452.0	4.6494182626645414e+17
19453.0	4.9419077305412365e+17
19454.0	5.107926666575865e+17
19455.0	5.2243025202162336e+17
19456.0	5.336204687267155e+17
19457.0	5.419386629608791e+17
19458.0	5.4436233418725203e+17
19459.0	5.5252469933233606e+17
19460.0	5.568313572720638e+17
19461.0	5.6064093020924576e+17
19462.0	5.650523952076131e+17
19463.0	5.7040026429904224e+17
19464.0	5.742897307582469e+17
19465.0	5.771141896121006e+17
19466.0	5.792777291956223e+17
19467.0	5.811255863061162e+17
19468.0	5.82746074391074e+17
19469.0	5.842697614349652e+17
19470.0	5.856677332342099e+17
19471.0	5.870422676821332e+17
19472.0	5.882567964928681e+17
19473.0	5.894167429382144e+17
19474.0	5.905481444185428e+17
19475.0	5.915905189303635e+17
19476.0	5.927025788671316e+17
19477.0	5.936883978032467e+17
19478.0	5.948363121885184e+17
19479.0	5.967883475615754e+17
19480.0	5.985694893735942e+17
19481.0	5.998792998387717e+17
19482.0	6.009447914668031e+17
19483.0	6.017960225275904e+17
19484.0	6.025875085241002e+17
19485.0	6.032222211538945e+17
19486.0	6.036718171280724e+17
19487.0	6.04270470487518e+17
19488.0	6.045865672179712e+17
19489.0	6.050225621128532e+17
19490.0	6.05265465791829e+17
19491.0	6.056180187135999e+17
19492.0	6.059715593939625e+17
19493.0	6.062513551223465e+17
19494.0	6.064793195992403e+17
19495.0	6.066976942194687e+17
19496.0	6.0690848036509e+17
19497.0	6.071959880204287e+17
19498.0	6.0716376639843e+17
19499.0	6.044738979364849e+17
19500.0	6.077294601480874e+17
19501.0	6.078940876985684e+17
19502.0	6.080512159733076e+17
19503.0	6.082071392944127e+17
19504.0	6.083879113501353e+17
19505.0	6.08550643564544e+17
19506.0	6.086902051154601e+17
19507.0	6.088235316237652e+17
19508.0	6.089551200124928e+17
19509.0	6.090802483341993e+17
19510.0	6.091843176846676e+17
19511.0	6.05614590708939e+17
19512.0	6.08921794100155e+17
19513.0	6.086397157616284e+17
19514.0	6.089586771318092e+17
19515.0	6.096266792534017e+17
19516.0	6.097631370193578e+17
19517.0	6.098349342763689e+17
19518.0	6.099088214851583e+17
19519.0	6.099716973876564e+17
19520.0	6.100294429573119e+17
19521.0	6.100870390699348e+17
19522.0	6.101345709501098e+17
19523.0	6.101816768288082e+17
19524.0	6.102351875495252e+17
19525.0	6.102780690650452e+17
19526.0	6.103127421878271e+17
19527.0	6.103426685468671e+17
19528.0	6.103682663841791e+17
19529.0	6.103907772836521e+17
19530.0	6.104094674518015e+17
19531.0	6.104240329413972e+17
19532.0	6.104349895120212e+17
19533.0	6.104424429300393e+17
19534.0	6.104462615642111e+17
19535.0	6.104463801232041e+17
19536.0	6.104418838992211e+17
19537.0	6.104392004534272e+17
19538.0	6.104222914663764e+17
19539.0	6.103809180827648e+17
19540.0	6.104026064792234e+17
19541.0	6.10387252879906e+17
19542.0	6.103671534256127e+17
19543.0	6.103437635398313e+17
19544.0	6.103199108126036e+17
19545.0	6.102602971698514e+17
19546.0	6.102019854390612e+17
19547.0	6.102333526114303e+17
19548.0	6.101998504684201e+17
19549.0	6.10157450109474e+17
19550.0	6.101266616112468e+17
19551.0	6.100871090449065e+17
19552.0	6.10045329093427e+17
19553.0	6.100000791243433e+17
19554.0	6.099536232229545e+17
19555.0	6.099080214915753e+17
19556.0	6.098601112851796e+17
19557.0	6.098091235781289e+17
19558.0	6.097569415430143e+17
19559.0	6.097030011158527e+17
19560.0	6.096453221657257e+17
19561.0	6.095888094418259e+17
19562.0	6.095321589350399e+17
19563.0	6.094729069111978e+17
19564.0	6.094118773413203e+17
19565.0	6.093495181770752e+17
19566.0	6.092836708199082e+17
19567.0	6.092209513649492e+17
19568.0	6.091530831222099e+17
19569.0	6.090872361844735e+17
19570.0	6.090198138661545e+17
19571.0	6.089503659087188e+17
19572.0	6.08878310002961e+17
19573.0	6.088076543655935e+17
19574.0	6.08730365366545e+17
19575.0	6.086637471662079e+17
19576.0	6.085896326960467e+17
19577.0	6.085137247414953e+17
19578.0	6.084356150569641e+17
19579.0	6.08359620350225e+17
19580.0	6.082820324371114e+17
19581.0	6.082918777268905e+17
19582.0	6.083650494573226e+17
19583.0	6.082837028186793e+17
19584.0	6.082004079258282e+17
19585.0	6.081108691823273e+17
19586.0	6.080244646324906e+17
19587.0	6.079407082962943e+17
19588.0	6.07833302376994e+17
19589.0	6.077792416432127e+17
19590.0	6.076880496448852e+17
19591.0	6.076087826819753e+17
19592.0	6.075218109923327e+17
19593.0	6.074328414857897e+17
19594.0	6.073824497194324e+17
19595.0	6.076555286893907e+17
19596.0	6.074466385788927e+17
19597.0	6.074724040485546e+17
19598.0	6.073592439635967e+17
19599.0	6.072920507940863e+17
19600.0	6.072001491894271e+17
19601.0	6.071022516174847e+17
19602.0	6.070101655333546e+17
19603.0	6.068631359542612e+17
19604.0	6.068191418297001e+17
19605.0	6.067101334066516e+17
19606.0	6.066368430473215e+17
19607.0	6.065420362579967e+17
19608.0	6.064458858932906e+17
19609.0	6.063469293294932e+17
19610.0	6.062541891436543e+17
19611.0	6.061571629383679e+17
19612.0	6.060617794322431e+17
19613.0	6.059640545957204e+17
19614.0	6.058645802450944e+17
19615.0	6.058634816170665e+17
19616.0	6.059826365508265e+17
19617.0	6.059010792882175e+17
19618.0	6.057619721901396e+17
19619.0	6.056527476905299e+17
19620.0	6.055552388606634e+17
19621.0	6.055029314158591e+17
19622.0	6.054040259526655e+17
19623.0	6.053037256736768e+17
19624.0	6.052024609144832e+17
19625.0	6.05102341689617e+17
19626.0	6.05001357529361e+17
19627.0	6.048995823233706e+17
19628.0	6.047550345838593e+17
19629.0	6.046852778557437e+17
19630.0	6.04473763299328e+17
19631.0	6.025589542617088e+17
19632.0	6.043860148944895e+17
19633.0	6.042844051537919e+17
19634.0	6.041876926125396e+17
19635.0	6.040826295615487e+17
19636.0	6.039821599025833e+17
19637.0	6.038522600707412e+17
19638.0	6.037772687114239e+17
19639.0	6.036769875864233e+17
19640.0	6.035781749571583e+17
19641.0	6.034240270150316e+17
19642.0	6.033780547867987e+17
19643.0	6.032743426512212e+17
19644.0	6.031670795479721e+17
19645.0	6.030480172384255e+17
19646.0	6.029628864987135e+17
19647.0	6.028603003939498e+17
19648.0	6.027563393963348e+17
19649.0	6.026520082513919e+17
19650.0	6.025479702882986e+17
19651.0	6.024436345296212e+17
19652.0	6.023392006242301e+17
19653.0	6.022336605410643e+17
19654.0	6.021300527737514e+17
19655.0	6.021577534952791e+17
19656.0	6.021826052358144e+17
19657.0	6.020778353666729e+17
19658.0	6.019724730520916e+17
19659.0	6.018669205957289e+17
19660.0	6.017615352823808e+17
19661.0	6.016559536756051e+17
19662.0	6.015502849671167e+17
19663.0	6.014405331036842e+17
19664.0	6.013315810940244e+17
19665.0	6.01232956789009e+17
