# Flux units: erg / (cm m2 s)
# Wavelength units: Angstrom
wave	flux
19000.0	6.327736232574975e+17
19001.0	6.326456420401151e+17
19002.0	6.325392646340607e+17
19003.0	6.324214833348608e+17
19004.0	6.323044597366783e+17
19005.0	6.321865692457642e+17
19006.0	6.320702715417939e+17
19007.0	6.319517740651859e+17
19008.0	6.318289101083988e+17
19009.0	6.31706761699874e+17
19010.0	6.315513332367359e+17
19011.0	6.314794286754474e+17
19012.0	6.313388853777747e+17
19013.0	6.312484589098323e+17
19014.0	6.31125683802385e+17
19015.0	6.310101568716797e+17
19016.0	6.308921819354452e+17
19017.0	6.307800917475327e+17
19018.0	6.306614987106985e+17
19019.0	6.305455239681364e+17
19020.0	6.304269828008618e+17
19021.0	6.30311882850304e+17
19022.0	6.301942827450367e+17
19023.0	6.300735274745855e+17
19024.0	6.299583621627903e+17
19025.0	6.298418527862783e+17
19026.0	6.297213133127679e+17
19027.0	6.295900821389311e+17
19028.0	6.294918739787776e+17
19029.0	6.293733745448275e+17
19030.0	6.292595033156265e+17
19031.0	6.291423966003199e+17
19032.0	6.290246147418793e+17
19033.0	6.288976792343891e+17
19034.0	6.287869721182208e+17
19035.0	6.286499058286591e+17
19036.0	6.272079060008955e+17
19037.0	6.284237609107455e+17
19038.0	6.28318636483106e+17
19039.0	6.282062965942953e+17
19040.0	6.280901030488745e+17
19041.0	6.279726813413375e+17
19042.0	6.278346790229331e+17
19043.0	6.27740245037329e+17
19044.0	6.276221690183679e+17
19045.0	6.275057640101203e+17
19046.0	6.273845142312276e+17
19047.0	6.272702170005501e+17
19048.0	6.271320027998889e+17
19049.0	6.270065471127551e+17
19050.0	6.26914637259298e+17
19051.0	6.265987045960358e+17
19052.0	6.26641037566498e+17
19053.0	6.265714056189268e+17
19054.0	6.264561469838676e+17
19055.0	6.263088923803647e+17
19056.0	6.262190156458665e+17
19057.0	6.261061289596244e+17
19058.0	6.259763957814612e+17
19059.0	6.258684230019753e+17
19060.0	6.257551450570751e+17
19061.0	6.256409817645055e+17
19062.0	6.255239838214825e+17
19063.0	6.254075858736468e+17
19064.0	6.25278617317103e+17
19065.0	6.251560498976084e+17
19066.0	6.250477215110484e+17
19067.0	6.249408958038015e+17
19068.0	6.248259078411604e+17
19069.0	6.247096706050729e+17
19070.0	6.245901440559785e+17
19071.0	6.24475628511778e+17
19072.0	6.243558497452032e+17
19073.0	6.242439696919209e+17
19074.0	6.241282017984512e+17
19075.0	6.240119255553363e+17
19076.0	6.238937035046911e+17
19077.0	6.237776674553855e+17
19078.0	6.236596036698112e+17
19079.0	6.235469367650985e+17
19080.0	6.234293578410665e+17
19081.0	6.233097427921578e+17
19082.0	6.231943595862697e+17
19083.0	6.230711252025344e+17
19084.0	6.22942028440098e+17
19085.0	6.22848238489873e+17
19086.0	6.226845880025087e+17
19087.0	6.225782709245267e+17
19088.0	6.224792971640831e+17
19089.0	6.223503454546601e+17
19090.0	6.222635676816726e+17
19091.0	6.221490879987712e+17
19092.0	6.220160438370303e+17
19093.0	6.219214870282239e+17
19094.0	6.21806312558865e+17
19095.0	6.216905727672319e+17
19096.0	6.215731456070995e+17
19097.0	6.214586030795433e+17
19098.0	6.213377189041491e+17
19099.0	6.212209067687935e+17
19100.0	6.211082956483242e+17
19101.0	6.209944085506729e+17
19102.0	6.208681736317609e+17
19103.0	6.207637881006762e+17
19104.0	6.206483987431423e+17
19105.0	6.20520309452527e+17
19106.0	6.204113403161258e+17
19107.0	6.202949971039572e+17
19108.0	6.201778066423808e+17
19109.0	6.19985338839859e+17
19110.0	6.199417620485459e+17
19111.0	6.198337313876649e+17
19112.0	6.197188737979732e+17
19113.0	6.196073854926847e+17
19114.0	6.194895767906985e+17
19115.0	6.19368669127202e+17
19116.0	6.192585740997972e+17
19117.0	6.191426206782804e+17
19118.0	6.190136749806934e+17
19119.0	6.182963063204512e+17
19120.0	6.187842363457535e+17
19121.0	6.186747414533459e+17
19122.0	6.185685560066047e+17
19123.0	6.184533775526569e+17
19124.0	6.183304985662803e+17
19125.0	6.182217770336255e+17
19126.0	6.181034144737961e+17
19127.0	6.178092699615231e+17
19128.0	6.178648389670227e+17
19129.0	6.177520481905321e+17
19130.0	6.176447510435156e+17
19131.0	6.175310623364438e+17
19132.0	6.174156921328979e+17
19133.0	6.17293612580864e+17
19134.0	6.171813244917076e+17
19135.0	6.170699652311721e+17
19136.0	6.16955342242884e+17
19137.0	6.168243316894377e+17
19138.0	6.167235243190954e+17
19139.0	6.166103471773011e+17
19140.0	6.164955728445439e+17
19141.0	6.163805726485162e+17
19142.0	6.162627947047594e+17
19143.0	6.161446959666516e+17
19144.0	6.160311209951231e+17
19145.0	6.159205705362089e+17
19146.0	6.15739338924578e+17
19147.0	6.156815282733055e+17
19148.0	6.155710607917055e+17
19149.0	6.154549233800532e+17
19150.0	6.153453274049193e+17
19151.0	6.152304276624724e+17
19152.0	6.15114504020514e+17
19153.0	6.149902085477716e+17
19154.0	6.148728077418495e+17
19155.0	6.14770806952209e+17
19156.0	6.146552226993492e+17
19157.0	6.145306415945044e+17
19158.0	6.143696944758783e+17
19159.0	6.143054055123625e+17
19160.0	6.141936386353833e+17
19161.0	6.140769180057599e+17
19162.0	6.13835959365359e+17
19163.0	6.138348066308095e+17
19164.0	6.137367704371199e+17
19165.0	6.136107397808127e+17
19166.0	6.134935282079059e+17
19167.0	6.133820742260052e+17
19168.0	6.132783035798867e+17
19169.0	6.13163322258227e+17
19170.0	6.130508408116563e+17
19171.0	6.129300806478505e+17
19172.0	6.128205201844906e+17
19173.0	6.127077380762282e+17
19174.0	6.125882031385257e+17
19175.0	6.124792404333908e+17
19176.0	6.123645959842474e+17
19177.0	6.122339106291711e+17
19178.0	6.121306525270015e+17
19179.0	6.120115003195391e+17
19180.0	6.119053556973565e+17
19181.0	6.117794421320361e+17
19182.0	6.116769803883859e+17
19183.0	6.115645387177983e+17
19184.0	6.114497091600381e+17
19185.0	6.113346532496724e+17
19186.0	6.112213239245482e+17
19187.0	6.110998967965012e+17
19188.0	6.10992384971025e+17
19189.0	6.108781989593087e+17
19190.0	6.107628974724438e+17
19191.0	6.106448493456041e+17
19192.0	6.105348981129215e+17
19193.0	6.104181272215551e+17
19194.0	6.10301492854784e+17
19195.0	6.101889844248573e+17
19196.0	6.100696352249172e+17
19197.0	6.099482684948479e+17
19198.0	6.097991029664425e+17
19199.0	6.088661992297811e+17
19200.0	6.089408135211692e+17
19201.0	6.094624626049023e+17
19202.0	6.093794610337108e+17
19203.0	6.092703330030932e+17
19204.0	6.091590849615188e+17
19205.0	6.090483031867391e+17
19206.0	6.089352601927679e+17
19207.0	6.088104521760767e+17
19208.0	6.086856849140393e+17
19209.0	6.085941742185129e+17
19210.0	6.084802474846889e+17
19211.0	6.083678137832788e+17
19212.0	6.082534340646227e+17
19213.0	6.081243753305427e+17
19214.0	6.080067293675519e+17
19215.0	6.079075011526655e+17
19216.0	6.077973994143743e+17
19217.0	6.076813683982335e+17
19218.0	6.074877147261609e+17
19219.0	6.074371763688788e+17
19220.0	6.073384702050303e+17
19221.0	6.071964636545024e+17
19222.0	6.071114646159359e+17
19223.0	6.0699792389789e+17
19224.0	6.068811583892137e+17
19225.0	6.067578967425023e+17
19226.0	6.066560848363519e+17
19227.0	6.065422418487978e+17
19228.0	6.064312109323604e+17
19229.0	6.06317147464226e+17
19230.0	6.06202911330577e+17
19231.0	6.060878640185344e+17
19232.0	6.059745104363519e+17
19233.0	6.058539399249919e+17
19234.0	6.057452168544255e+17
19235.0	6.056302527993172e+17
19236.0	6.055194373302953e+17
19237.0	6.054039250796543e+17
19238.0	6.052807856269993e+17
19239.0	6.051777633146195e+17
19240.0	6.050631536082944e+17
19241.0	6.049473722930516e+17
19242.0	6.048341976678399e+17
19243.0	6.047046036007594e+17
19244.0	6.046081076254036e+17
19245.0	6.044934238197076e+17
19246.0	6.043783677695316e+17
19247.0	6.042653983855956e+17
19248.0	6.041520652156927e+17
19249.0	6.040372013345448e+17
19250.0	6.039197185998847e+17
19251.0	6.037968441573375e+17
19252.0	6.036641481228288e+17
19253.0	6.035789860656468e+17
19254.0	6.034675430588415e+17
19255.0	6.033325895101097e+17
19256.0	6.03236899889698e+17
19257.0	6.031252538785791e+17
19258.0	6.03010976780561e+17
19259.0	6.028884830410068e+17
19260.0	6.027527954890751e+17
19261.0	6.026665229200042e+17
19262.0	6.02547435864064e+17
19263.0	6.024311671007914e+17
19264.0	6.022682929091924e+17
19265.0	6.021890705457151e+17
19266.0	6.020709897732096e+17
19267.0	6.01982266192691e+17
19268.0	6.01867156455424e+17
19269.0	6.017529998038356e+17
19270.0	6.016375328516778e+17
19271.0	6.014894841965225e+17
19272.0	6.013987296641023e+17
19273.0	6.012419853079892e+17
19274.0	6.011199270770003e+17
19275.0	6.01057052852224e+17
19276.0	6.009404212816553e+17
19277.0	6.008262668670292e+17
19278.0	6.00711834439953e+17
19279.0	6.005948487303167e+17
19280.0	6.004735862986068e+17
19281.0	6.003657684287487e+17
19282.0	6.002519000656553e+17
19283.0	6.001278252133034e+17
19284.0	6.000152187764736e+17
19285.0	5.998902357874004e+17
19286.0	5.997862411654484e+17
19287.0	5.99671818874607e+17
19288.0	5.991805511619921e+17
19289.0	5.985471545649819e+17
19290.0	5.993234817176916e+17
19291.0	5.991816094547969e+17
19292.0	5.990944923626153e+17
19293.0	5.989786414918313e+17
19294.0	5.988625123289769e+17
19295.0	5.98748022439936e+17
19296.0	5.986256488671914e+17
19297.0	5.985123756758356e+17
19298.0	5.983970395859625e+17
19299.0	5.982771771430228e+17
19300.0	5.98166699245568e+17
19301.0	5.980504103496361e+17
19302.0	5.979328601565865e+17
19303.0	5.978094731700906e+17
19304.0	5.976975355150335e+17
19305.0	5.975816743682047e+17
19306.0	5.974651733803005e+17
19307.0	5.973427918383786e+17
19308.0	5.972267124479316e+17
19309.0	5.970825161211904e+17
19310.0	5.969417457019561e+17
19311.0	5.96855328219682e+17
19312.0	5.967447806967808e+17
19313.0	5.966249611755519e+17
19314.0	5.947238609409352e+17
19315.0	5.947671995656904e+17
19316.0	5.96257528750626e+17
19317.0	5.961535856487082e+17
19318.0	5.9603583762432e+17
19319.0	5.959193824242345e+17
19320.0	5.957978038119082e+17
19321.0	5.956753316031146e+17
19322.0	5.955507505681748e+17
19323.0	5.954289704894464e+17
19324.0	5.953168679283369e+17
19325.0	5.951763377728169e+17
19326.0	5.950771089287849e+17
19327.0	5.949578403293865e+17
19328.0	5.948283843947178e+17
19329.0	5.947055830029652e+17
19330.0	5.945732458610687e+17
19331.0	5.944498498568191e+17
19332.0	5.943329023852543e+17
19333.0	5.942085221875711e+17
19334.0	5.940874087934633e+17
19335.0	5.939436026068992e+17
19336.0	5.938399365387604e+17
19337.0	5.937164806957738e+17
19338.0	5.935700492943359e+17
19339.0	5.934674831824212e+17
19340.0	5.933283964966228e+17
19341.0	5.931894701730474e+17
19342.0	5.930223629500415e+17
19343.0	5.929364801716223e+17
19344.0	5.928007729763668e+17
19345.0	5.924712337812134e+17
19346.0	5.924577169375231e+17
19347.0	5.924095048111444e+17
19348.0	5.922987646298793e+17
19349.0	5.921656322479443e+17
19350.0	5.920011821165225e+17
19351.0	5.918686539939837e+17
19352.0	5.917156905233065e+17
19353.0	5.915987001999359e+17
19354.0	5.914663706776916e+17
19355.0	5.913224920694783e+17
19356.0	5.91181517038114e+17
19357.0	5.910170945890986e+17
19358.0	5.908805567818409e+17
19359.0	5.90738144432401e+17
19360.0	5.905945251719849e+17
19361.0	5.904582496485375e+17
19362.0	5.903000026830163e+17
19363.0	5.901596469406376e+17
19364.0	5.900181439862099e+17
19365.0	5.898756930491732e+17
19366.0	5.897321633371476e+17
19367.0	5.895875264686761e+17
19368.0	5.894417014237865e+17
19369.0	5.892895928920746e+17
19370.0	5.89131222753826e+17
19371.0	5.889687597438292e+17
19372.0	5.888234147370324e+17
19373.0	5.886686939228842e+17
19374.0	5.885156316763476e+17
19375.0	5.883599310028799e+17
19376.0	5.882024623603711e+17
19377.0	5.880353992474623e+17
19378.0	5.878732887687167e+17
19379.0	5.877099564193108e+17
19380.0	5.875233294647295e+17
19381.0	5.873389315730089e+17
19382.0	5.871602357676714e+17
19383.0	5.869848738048681e+17
19384.0	5.868190991821482e+17
19385.0	5.866416553066495e+17
19386.0	5.864472295331158e+17
19387.0	5.862206942653098e+17
19388.0	5.860322711699455e+17
19389.0	5.858395939318441e+17
19390.0	5.856373956236628e+17
19391.0	5.841799297193284e+17
19392.0	5.851188846482771e+17
19393.0	5.849549903320404e+17
19394.0	5.847193564304724e+17
19395.0	5.844166814728192e+17
19396.0	5.841979093723818e+17
19397.0	5.839587312839337e+17
19398.0	5.835973992644608e+17
19399.0	5.83288093811234e+17
19400.0	5.830123648101033e+17
19401.0	5.826686897618943e+17
19402.0	5.823299189036371e+17
19403.0	5.819256080607914e+17
19404.0	5.815184383803393e+17
19405.0	5.811061405341012e+17
19406.0	5.806817795200342e+17
19407.0	5.803551755687252e+17
19408.0	5.799418503976279e+17
19409.0	5.796674034554196e+17
19410.0	5.793416225663657e+17
19411.0	5.790014579408896e+17
19412.0	5.786471841660927e+17
19413.0	5.78186525155874e+17
19414.0	5.778081453877929e+17
19415.0	5.774164888999252e+17
19416.0	5.768869031444479e+17
19417.0	5.764075559234218e+17
19418.0	5.759251214849364e+17
19419.0	5.752915297828862e+17
19420.0	5.746963826518694e+17
19421.0	5.739780867708243e+17
19422.0	5.731291453106853e+17
19423.0	5.7224761326960685e+17
19424.0	5.712047076889941e+17
19425.0	5.6994037109882944e+17
19426.0	5.684491149028012e+17
19427.0	5.667506172373674e+17
19428.0	5.6503875798739584e+17
19429.0	5.6387718513076896e+17
19430.0	5.6282166839650995e+17
19431.0	5.616184414874285e+17
19432.0	5.6066412512979616e+17
19433.0	5.5946014485381114e+17
19434.0	5.580966463886677e+17
19435.0	5.56473804879735e+17
19436.0	5.545209029634733e+17
19437.0	5.523285866796372e+17
19438.0	5.4752621226885037e+17
19439.0	5.455779050029071e+17
19440.0	5.411973303544496e+17
19441.0	5.377017299424595e+17
19442.0	5.345749637616982e+17
19443.0	5.309742694006784e+17
19444.0	5.268391322102439e+17
19445.0	5.21746655268045e+17
19446.0	5.151334646240596e+17
19447.0	5.0636387575835264e+17
19448.0	4.9434828154252045e+17
19449.0	4.7648557861874336e+17
19450.0	4.420598669945513e+17
19451.0	4.194443252290934e+17
19452.0	4.6261666595908224e+17
19453.0	4.864170881187849e+17
19454.0	5.0052036995754566e+17
19455.0	5.104727949137235e+17
19456.0	5.178636965511174e+17
19457.0	5.234137057897127e+17
19458.0	5.234115181106591e+17
19459.0	5.3128347474985056e+17
19460.0	5.345139148281171e+17
19461.0	5.374220083833511e+17
19462.0	5.4143012443259046e+17
19463.0	5.4538455905293645e+17
19464.0	5.484231744552965e+17
19465.0	5.5086331133078246e+17
19466.0	5.526796155311442e+17
19467.0	5.5416428771846835e+17
19468.0	5.553985823965184e+17
19469.0	5.5645241707506323e+17
19470.0	5.57471231901696e+17
19471.0	5.583306419950933e+17
19472.0	5.5916057696665574e+17
19473.0	5.5991509310941856e+17
19474.0	5.612443417269591e+17
19475.0	5.627223265159846e+17
19476.0	5.6414453118621024e+17
19477.0	5.6525101004226566e+17
19478.0	5.6616440984589664e+17
19479.0	5.669589293028692e+17
19480.0	5.676122561140049e+17
19481.0	5.680796622913533e+17
19482.0	5.686111772169556e+17
19483.0	5.689420729199274e+17
19484.0	5.693330927124478e+17
19485.0	5.695528228618239e+17
19486.0	5.698843660255232e+17
19487.0	5.701002150455979e+17
19488.0	5.7027167232109216e+17
19489.0	5.704552807049898e+17
19490.0	5.7051934723058323e+17
19491.0	5.7078980441101645e+17
19492.0	5.709153450328062e+17
19493.0	5.7102600454362445e+17
19494.0	5.7117728274295456e+17
19495.0	5.71270084165632e+17
19496.0	5.714055928304978e+17
19497.0	5.715643287120553e+17
19498.0	5.7171028140359686e+17
19499.0	5.700459577387679e+17
19500.0	5.7218808791695354e+17
19501.0	5.722414672860499e+17
19502.0	5.724584357658622e+17
19503.0	5.7249200082343245e+17
19504.0	5.725570718149291e+17
19505.0	5.7265759928538445e+17
19506.0	5.726668198335828e+17
19507.0	5.7268768418911565e+17
19508.0	5.7277032672788474e+17
19509.0	5.7276136329052154e+17
19510.0	5.727185291706368e+17
19511.0	5.696537057296358e+17
19512.0	5.724737098831183e+17
19513.0	5.72198190177757e+17
19514.0	5.72337551939993e+17
19515.0	5.726583897019733e+17
19516.0	5.7273295554914976e+17
19517.0	5.726947510321151e+17
19518.0	5.726617652079274e+17
19519.0	5.726195892442453e+17
19520.0	5.725688030035967e+17
19521.0	5.7253435567418016e+17
19522.0	5.72499009085986e+17
19523.0	5.7246734852205216e+17
19524.0	5.7241104243752954e+17
19525.0	5.7236134175266125e+17
19526.0	5.723058367102975e+17
19527.0	5.72252516201267e+17
19528.0	5.721922404876288e+17
19529.0	5.721299359891455e+17
19530.0	5.720694322451796e+17
19531.0	5.7200479962835616e+17
19532.0	5.7194285535068154e+17
19533.0	5.718913498568021e+17
19534.0	5.718225084656298e+17
19535.0	5.7175101075182925e+17
19536.0	5.716774032332116e+17
19537.0	5.716092952859988e+17
19538.0	5.715158383635115e+17
19539.0	5.714051433409195e+17
19540.0	5.7138365655067296e+17
19541.0	5.7132979896101536e+17
19542.0	5.712594065162239e+17
19543.0	5.711743663035732e+17
19544.0	5.711022798493013e+17
19545.0	5.7097101148596896e+17
19546.0	5.708671478661119e+17
19547.0	5.7090476084647245e+17
19548.0	5.708237507308202e+17
19549.0	5.707307734269951e+17
19550.0	5.706579529695231e+17
19551.0	5.705742615052287e+17
19552.0	5.7049215989186554e+17
19553.0	5.704295852102996e+17
19554.0	5.703574495428607e+17
19555.0	5.702727510960809e+17
19556.0	5.701880132927487e+17
19557.0	5.7010097680110925e+17
19558.0	5.700130993515177e+17
19559.0	5.699251148073642e+17
19560.0	5.6983082244942496e+17
19561.0	5.697444696992426e+17
19562.0	5.6966012860716365e+17
19563.0	5.695922417696767e+17
19564.0	5.6950194728250016e+17
19565.0	5.6941126132695034e+17
19566.0	5.6931706627686394e+17
19567.0	5.69228691452723e+17
19568.0	5.6913437022399136e+17
19569.0	5.6904274089956685e+17
19570.0	5.6895280796139514e+17
19571.0	5.6885992698675194e+17
19572.0	5.6876320885309434e+17
19573.0	5.686712445435903e+17
19574.0	5.6856991337458336e+17
19575.0	5.684868424575658e+17
19576.0	5.684063042710186e+17
19577.0	5.683115957682176e+17
19578.0	5.6821692333643085e+17
19579.0	5.6812322817747616e+17
19580.0	5.680324396711935e+17
19581.0	5.6794065222150816e+17
19582.0	5.6784711490819405e+17
19583.0	5.677516279425705e+17
19584.0	5.6765521130946554e+17
19585.0	5.675476040635732e+17
19586.0	5.674478861636949e+17
19587.0	5.673622362390528e+17
19588.0	5.67223168078097e+17
19589.0	5.671714175669588e+17
19590.0	5.670663292802389e+17
19591.0	5.669804565681492e+17
19592.0	5.668842503492947e+17
19593.0	5.667843558692179e+17
19594.0	5.6666220494411085e+17
19595.0	5.665899063279615e+17
19596.0	5.6647520630429005e+17
19597.0	5.6639585377757856e+17
19598.0	5.662643528400894e+17
19599.0	5.662124291741011e+17
19600.0	5.6611567406066336e+17
19601.0	5.6601035187159034e+17
19602.0	5.6591206793434445e+17
19603.0	5.657677055830698e+17
19604.0	5.657147078257321e+17
19605.0	5.655925680854358e+17
19606.0	5.655252390903807e+17
19607.0	5.6542775172136954e+17
19608.0	5.6532728157306874e+17
19609.0	5.652248365367294e+17
19610.0	5.651276513673215e+17
19611.0	5.6502610761700685e+17
19612.0	5.6493388109359776e+17
19613.0	5.6483369615796896e+17
19614.0	5.6473137604198394e+17
19615.0	5.646360180512084e+17
19616.0	5.6452282476134394e+17
19617.0	5.644306774403753e+17
19618.0	5.642755241235795e+17
19619.0	5.6415909457865363e+17
19620.0	5.640676351235411e+17
19621.0	5.640315960557567e+17
19622.0	5.63940617687313e+17
19623.0	5.638406750426452e+17
19624.0	5.6373905090150394e+17
19625.0	5.636415446581247e+17
19626.0	5.6354129701765114e+17
19627.0	5.634393607503871e+17
19628.0	5.6331837807875405e+17
19629.0	5.632026250750635e+17
19630.0	5.629990494273535e+17
19631.0	5.621363446382592e+17
19632.0	5.629199110897662e+17
19633.0	5.6283225558876154e+17
19634.0	5.627411741103443e+17
19635.0	5.62637540897587e+17
19636.0	5.625339259300522e+17
19637.0	5.623975775655254e+17
19638.0	5.623418637167274e+17
19639.0	5.6224232022999014e+17
19640.0	5.621324776297814e+17
19641.0	5.6193582272348186e+17
19642.0	5.6194143938587296e+17
19643.0	5.618412122275839e+17
19644.0	5.61735340724497e+17
19645.0	5.616144726971732e+17
19646.0	5.615333795343017e+17
19647.0	5.614425085400404e+17
19648.0	5.6134255729704954e+17
19649.0	5.612415699910656e+17
19650.0	5.611420947316735e+17
19651.0	5.6104112776806394e+17
19652.0	5.6094366081133216e+17
19653.0	5.6084608480269645e+17
19654.0	5.607510262153215e+17
19655.0	5.6065032992413e+17
19656.0	5.605505580575402e+17
19657.0	5.604509162143743e+17
19658.0	5.6035055973171194e+17
19659.0	5.6025003988090874e+17
19660.0	5.6014983082803194e+17
19661.0	5.6004943282176e+17
19662.0	5.599489070290262e+17
