# Flux units: erg / (cm m2 s)
# Wavelength units: Angstrom
wave	flux
19000.0	6.374918624466262e+17
19001.0	6.373681337641642e+17
19002.0	6.372602733920255e+17
19003.0	6.371442379019603e+17
19004.0	6.370285652191913e+17
19005.0	6.369117909723817e+17
19006.0	6.367959281478314e+17
19007.0	6.366796363158867e+17
19008.0	6.365606381092863e+17
19009.0	6.364366105127593e+17
19010.0	6.363179216360788e+17
19011.0	6.362104618898771e+17
19012.0	6.360884476990804e+17
19013.0	6.359839015261524e+17
19014.0	6.35865035579938e+17
19015.0	6.357505631671636e+17
19016.0	6.356375134623059e+17
19017.0	6.355224132321279e+17
19018.0	6.354061100755625e+17
19019.0	6.352909217650003e+17
19020.0	6.351742904041471e+17
19021.0	6.350599050930857e+17
19022.0	6.349436782029481e+17
19023.0	6.348247468255914e+17
19024.0	6.347097580939945e+17
19025.0	6.345945774030847e+17
19026.0	6.344766868422655e+17
19027.0	6.343601552359424e+17
19028.0	6.342467768374612e+17
19029.0	6.341308473234772e+17
19030.0	6.340170778760532e+17
19031.0	6.339002495926272e+17
19032.0	6.337817374359551e+17
19033.0	6.336537830621183e+17
19034.0	6.335271024984063e+17
19035.0	6.33324572840209e+17
19036.0	6.329060352677204e+17
19037.0	6.331122292796073e+17
19038.0	6.330669794503338e+17
19039.0	6.329685200513704e+17
19040.0	6.328585333768191e+17
19041.0	6.327449832914943e+17
19042.0	6.326008768626687e+17
19043.0	6.325167073176233e+17
19044.0	6.324006703595519e+17
19045.0	6.322848944969044e+17
19046.0	6.321683094831104e+17
19047.0	6.320503927078911e+17
19048.0	6.319274817748991e+17
19049.0	6.317628208097961e+17
19050.0	6.316872301543423e+17
19051.0	6.315339463087444e+17
19052.0	6.314361772922196e+17
19053.0	6.31350616007202e+17
19054.0	6.31244279915042e+17
19055.0	6.311066650804224e+17
19056.0	6.310144649811284e+17
19057.0	6.309039909284521e+17
19058.0	6.307640572728659e+17
19059.0	6.306654196159827e+17
19060.0	6.305597923611988e+17
19061.0	6.304450861159766e+17
19062.0	6.303298947994964e+17
19063.0	6.302143369008467e+17
19064.0	6.300957300927146e+17
19065.0	6.299744059348308e+17
19066.0	6.298565731155967e+17
19067.0	6.297544672586409e+17
19068.0	6.296407724698281e+17
19069.0	6.295259544464042e+17
19070.0	6.294094423435946e+17
19071.0	6.292952179539967e+17
19072.0	6.291723245671763e+17
19073.0	6.29066557432354e+17
19074.0	6.289517327679485e+17
19075.0	6.288367948573353e+17
19076.0	6.287215698466131e+17
19077.0	6.286060897523027e+17
19078.0	6.284908174857556e+17
19079.0	6.28377315774737e+17
19080.0	6.282616253360809e+17
19081.0	6.281440535423657e+17
19082.0	6.28032141402658e+17
19083.0	6.279105702002687e+17
19084.0	6.277856550890154e+17
19085.0	6.276865620006228e+17
19086.0	6.275302362360489e+17
19087.0	6.274344195981311e+17
19088.0	6.273230741787988e+17
19089.0	6.272137541888682e+17
19090.0	6.271115081023487e+17
19091.0	6.269970299573588e+17
19092.0	6.268625252690602e+17
19093.0	6.267719655620608e+17
19094.0	6.266579928307028e+17
19095.0	6.265438119919615e+17
19096.0	6.264293467794089e+17
19097.0	6.263151776847188e+17
19098.0	6.261905017886035e+17
19099.0	6.260736765810003e+17
19100.0	6.259698623141204e+17
19101.0	6.258556350584148e+17
19102.0	6.25739499184674e+17
19103.0	6.25628227235567e+17
19104.0	6.255143213334527e+17
19105.0	6.253765456472746e+17
19106.0	6.25284216852753e+17
19107.0	6.251623106652842e+17
19108.0	6.250427031661225e+17
19109.0	6.249325170524159e+17
19110.0	6.248214627177811e+17
19111.0	6.247041058122408e+17
19112.0	6.245908236730367e+17
19113.0	6.244854419947519e+17
19114.0	6.243665041162239e+17
19115.0	6.242535655604223e+17
19116.0	6.241401534676991e+17
19117.0	6.240229853757439e+17
19118.0	6.238743726566058e+17
19119.0	6.23497069286741e+17
19120.0	6.236619877122047e+17
19121.0	6.235660553814015e+17
19122.0	6.234576233955327e+17
19123.0	6.233449736175615e+17
19124.0	6.232246313462441e+17
19125.0	6.231131167566505e+17
19126.0	6.229871636949674e+17
19127.0	6.228420451805866e+17
19128.0	6.227572040575657e+17
19129.0	6.22652020560145e+17
19130.0	6.225475345055743e+17
19131.0	6.224363726569471e+17
19132.0	6.223232824770559e+17
19133.0	6.222070571947348e+17
19134.0	6.220955281347924e+17
19135.0	6.219825025471827e+17
19136.0	6.218683934310399e+17
19137.0	6.217524379822761e+17
19138.0	6.21640567366178e+17
19139.0	6.215285776318463e+17
19140.0	6.214155645572436e+17
19141.0	6.213021351979689e+17
19142.0	6.21186591629858e+17
19143.0	6.21073509978385e+17
19144.0	6.209583236251645e+17
19145.0	6.208476409058644e+17
19146.0	6.206880624585385e+17
19147.0	6.206187114594301e+17
19148.0	6.204992420926804e+17
19149.0	6.203842811833002e+17
19150.0	6.202806956457983e+17
19151.0	6.201666864239956e+17
19152.0	6.200521273988436e+17
19153.0	6.199205583738195e+17
19154.0	6.198219418282665e+17
19155.0	6.19710803747362e+17
19156.0	6.195972266786815e+17
19157.0	6.194770149201236e+17
19158.0	6.193552061104127e+17
19159.0	6.192539565206185e+17
19160.0	6.191391646416896e+17
19161.0	6.190227798360063e+17
19162.0	6.189016412061695e+17
19163.0	6.187937503554217e+17
19164.0	6.186863677145087e+17
19165.0	6.185571103102292e+17
19166.0	6.184604948671146e+17
19167.0	6.183505189579434e+17
19168.0	6.182396249156266e+17
19169.0	6.18127624835345e+17
19170.0	6.180152132239359e+17
19171.0	6.17902387634722e+17
19172.0	6.177890467053565e+17
19173.0	6.176765640004948e+17
19174.0	6.175628741749418e+17
19175.0	6.174505915383808e+17
19176.0	6.173378538897407e+17
19177.0	6.172141124845567e+17
19178.0	6.171119494452564e+17
19179.0	6.169986870891859e+17
19180.0	6.168851424564563e+17
19181.0	6.167689072476159e+17
19182.0	6.166581328128682e+17
19183.0	6.165474695271763e+17
19184.0	6.164346238752084e+17
19185.0	6.163210110151337e+17
19186.0	6.162082944778239e+17
19187.0	6.160899762378068e+17
19188.0	6.159811136367274e+17
19189.0	6.158672591847423e+17
19190.0	6.157528667433641e+17
19191.0	6.156356899132756e+17
19192.0	6.155222560800767e+17
19193.0	6.154023061858985e+17
19194.0	6.152811036628308e+17
19195.0	6.151637913567231e+17
19196.0	6.150352687245993e+17
19197.0	6.148986187197097e+17
19198.0	6.147452829346473e+17
19199.0	6.145614704279551e+17
19200.0	6.144580430157139e+17
19201.0	6.144118265391785e+17
19202.0	6.143387217778004e+17
19203.0	6.142479113213267e+17
19204.0	6.141513727038804e+17
19205.0	6.1404790929053e+17
19206.0	6.139420482732031e+17
19207.0	6.138239547779753e+17
19208.0	6.137183681380351e+17
19209.0	6.136133687705599e+17
19210.0	6.135034199146495e+17
19211.0	6.133934241524393e+17
19212.0	6.132815745078611e+17
19213.0	6.131624961900541e+17
19214.0	6.130543659144531e+17
19215.0	6.129445312834217e+17
19216.0	6.128318420090879e+17
19217.0	6.127148148457472e+17
19218.0	6.125923988406272e+17
19219.0	6.124785662689277e+17
19220.0	6.123799958607188e+17
19221.0	6.122674117236052e+17
19222.0	6.121590267139412e+17
19223.0	6.120485064540159e+17
19224.0	6.119349539919188e+17
19225.0	6.118249444584106e+17
19226.0	6.117138227352916e+17
19227.0	6.116025484793171e+17
19228.0	6.114929718678867e+17
19229.0	6.113810776238761e+17
19230.0	6.112691076726783e+17
19231.0	6.111559914181972e+17
19232.0	6.110447885352959e+17
19233.0	6.109288465083049e+17
19234.0	6.108206484247892e+17
19235.0	6.107066498984617e+17
19236.0	6.105969229911379e+17
19237.0	6.104844349734911e+17
19238.0	6.103676591887702e+17
19239.0	6.102610108306771e+17
19240.0	6.101493119014227e+17
19241.0	6.100358095612585e+17
19242.0	6.099241383843156e+17
19243.0	6.098012057108479e+17
19244.0	6.097015136758442e+17
19245.0	6.095889648407894e+17
19246.0	6.094771365871615e+17
19247.0	6.093650256374441e+17
19248.0	6.092534831557289e+17
19249.0	6.091402153470634e+17
19250.0	6.090242006188031e+17
19251.0	6.089072042835967e+17
19252.0	6.087818799480831e+17
19253.0	6.086920279599786e+17
19254.0	6.085813859254271e+17
19255.0	6.084540564329812e+17
19256.0	6.083562609224361e+17
19257.0	6.082450893570047e+17
19258.0	6.081325600953683e+17
19259.0	6.080123268060499e+17
19260.0	6.078949498377556e+17
19261.0	6.077925423404372e+17
19262.0	6.07676662878481e+17
19263.0	6.075610145226751e+17
19264.0	6.074390495450452e+17
19265.0	6.073329175057748e+17
19266.0	6.072217284640767e+17
19267.0	6.071211203930794e+17
19268.0	6.070094813025619e+17
19269.0	6.068971285512191e+17
19270.0	6.067820761361066e+17
19271.0	6.066647334212948e+17
19272.0	6.065581796447572e+17
19273.0	6.064349839185235e+17
19274.0	6.063078900061523e+17
19275.0	6.06225214612002e+17
19276.0	6.061119025534292e+17
19277.0	6.060000453591039e+17
19278.0	6.058869840500052e+17
19279.0	6.057732900301482e+17
19280.0	6.056604873697961e+17
19281.0	6.055486470225919e+17
19282.0	6.054369966773588e+17
19283.0	6.053230509992618e+17
19284.0	6.052071453229055e+17
19285.0	6.050907904365907e+17
19286.0	6.04970203287825e+17
19287.0	6.04833707982848e+17
19288.0	6.045327804421459e+17
19289.0	6.043577975046141e+17
19290.0	6.044889505944916e+17
19291.0	6.043906123410092e+17
19292.0	6.0430631305216e+17
19293.0	6.041973508363604e+17
19294.0	6.040856344308394e+17
19295.0	6.039747315804842e+17
19296.0	6.03850331389952e+17
19297.0	6.037461097862484e+17
19298.0	6.036350232952831e+17
19299.0	6.035109002084352e+17
19300.0	6.034105141559295e+17
19301.0	6.032976525656063e+17
19302.0	6.031832293659988e+17
19303.0	6.030665540348586e+17
19304.0	6.029565823898966e+17
19305.0	6.028417034092541e+17
19306.0	6.02727876989201e+17
19307.0	6.026109298671615e+17
19308.0	6.024957958029312e+17
19309.0	6.023790611922943e+17
19310.0	6.02259902833186e+17
19311.0	6.021438974022996e+17
19312.0	6.020243368793428e+17
19313.0	6.018745081615702e+17
19314.0	6.007414743979351e+17
19315.0	6.006818154567e+17
19316.0	6.01518381343266e+17
19317.0	6.014556398682112e+17
19318.0	6.013506638490281e+17
19319.0	6.012413019160576e+17
19320.0	6.011235299142314e+17
19321.0	6.010033902277972e+17
19322.0	6.008980562946729e+17
19323.0	6.007829415242409e+17
19324.0	6.006678529682089e+17
19325.0	6.005532474561876e+17
19326.0	6.004386882912255e+17
19327.0	6.003234295163561e+17
19328.0	6.001878921205075e+17
19329.0	6.000925551012521e+17
19330.0	5.999759917580288e+17
19331.0	5.998568908608852e+17
19332.0	5.997436450024106e+17
19333.0	5.996254255382527e+17
19334.0	5.995077763596287e+17
19335.0	5.99348403573009e+17
19336.0	5.9927101453981e+17
19337.0	5.991535239058774e+17
19338.0	5.990197151924223e+17
19339.0	5.989145609153193e+17
19340.0	5.987884797176489e+17
19341.0	5.986541616059732e+17
19342.0	5.985410238906367e+17
19343.0	5.984297515220992e+17
19344.0	5.982849227642196e+17
19345.0	5.981245606111912e+17
19346.0	5.980189077711529e+17
19347.0	5.979221869111978e+17
19348.0	5.978320297175721e+17
19349.0	5.977117356807508e+17
19350.0	5.975845412448937e+17
19351.0	5.974663427522559e+17
19352.0	5.973221566316543e+17
19353.0	5.972251719499776e+17
19354.0	5.971025263067135e+17
19355.0	5.969716154378921e+17
19356.0	5.968545491976191e+17
19357.0	5.967294997288276e+17
19358.0	5.966032592874154e+17
19359.0	5.964712380465151e+17
19360.0	5.963326554461524e+17
19361.0	5.962225809708371e+17
19362.0	5.960952054109524e+17
19363.0	5.959666478962004e+17
19364.0	5.958321376154963e+17
19365.0	5.957013032927231e+17
19366.0	5.955699228715689e+17
19367.0	5.954376951311018e+17
19368.0	5.95304016650786e+17
19369.0	5.951672511627263e+17
19370.0	5.950325007581183e+17
19371.0	5.948943241663827e+17
19372.0	5.947620070173354e+17
19373.0	5.94623165628416e+17
19374.0	5.944854747370838e+17
19375.0	5.943432548362922e+17
19376.0	5.942026264641535e+17
19377.0	5.940601476349951e+17
19378.0	5.939171780722687e+17
19379.0	5.937730767465129e+17
19380.0	5.936276224081919e+17
19381.0	5.934799251658067e+17
19382.0	5.933239225024511e+17
19383.0	5.931746067480573e+17
19384.0	5.930237728653311e+17
19385.0	5.928685832678057e+17
19386.0	5.927071539440297e+17
19387.0	5.925454400367273e+17
19388.0	5.923792396921514e+17
19389.0	5.922032018172586e+17
19390.0	5.919893602609833e+17
19391.0	5.91526690501427e+17
19392.0	5.915648142082048e+17
19393.0	5.915030579052543e+17
19394.0	5.91343316509218e+17
19395.0	5.911612138804563e+17
19396.0	5.90983348757026e+17
19397.0	5.907967956221952e+17
19398.0	5.905946914761386e+17
19399.0	5.903823974782292e+17
19400.0	5.90190663049762e+17
19401.0	5.900036812570623e+17
19402.0	5.897968612453033e+17
19403.0	5.89580524847104e+17
19404.0	5.89359557378048e+17
19405.0	5.891302027689983e+17
19406.0	5.888960550491476e+17
19407.0	5.886466793493844e+17
19408.0	5.883906600818006e+17
19409.0	5.881433774096383e+17
19410.0	5.878861522796543e+17
19411.0	5.87612252274688e+17
19412.0	5.873283154400595e+17
19413.0	5.870255490465791e+17
19414.0	5.86728604766481e+17
19415.0	5.864167207949652e+17
19416.0	5.860864127139839e+17
19417.0	5.857573125925546e+17
19418.0	5.854036534231039e+17
19419.0	5.850349393586857e+17
19420.0	5.846596725331284e+17
19421.0	5.84255519326208e+17
19422.0	5.838259841488212e+17
19423.0	5.833807884888746e+17
19424.0	5.8291046580224e+17
19425.0	5.824161816859988e+17
19426.0	5.818977316678313e+17
19427.0	5.813488417680042e+17
19428.0	5.807660407106218e+17
19429.0	5.801499588995753e+17
19430.0	5.794818904380756e+17
19431.0	5.787680240216746e+17
19432.0	5.780543448809471e+17
19433.0	5.772633805160448e+17
19434.0	5.7639865665890976e+17
19435.0	5.7545310814426426e+17
19436.0	5.7445449658094925e+17
19437.0	5.7334174311601485e+17
19438.0	5.7162932916933965e+17
19439.0	5.707219123306496e+17
19440.0	5.695458579404116e+17
19441.0	5.680321954228905e+17
19442.0	5.663425165612374e+17
19443.0	5.6439584563309216e+17
19444.0	5.621579769708542e+17
19445.0	5.5957940121982285e+17
19446.0	5.5647933129468576e+17
19447.0	5.526899308625917e+17
19448.0	5.478074553117356e+17
19449.0	5.4101027544104954e+17
19450.0	5.294712767731023e+17
19451.0	5.20323776223642e+17
19452.0	5.361775291662334e+17
19453.0	5.444287426723841e+17
19454.0	5.498778308749991e+17
19455.0	5.5393022926738765e+17
19456.0	5.5711379163709434e+17
19457.0	5.5962333585517216e+17
19458.0	5.590850537695934e+17
19459.0	5.6319227437165274e+17
19460.0	5.653584182684329e+17
19461.0	5.668169045071188e+17
19462.0	5.681035731795968e+17
19463.0	5.692418671596884e+17
19464.0	5.7025575745399456e+17
19465.0	5.7116593099898874e+17
19466.0	5.7194455103788365e+17
19467.0	5.726912942964735e+17
19468.0	5.73370933514513e+17
19469.0	5.739693536007508e+17
19470.0	5.745438692999167e+17
19471.0	5.7505462360910496e+17
19472.0	5.755136342578515e+17
19473.0	5.7591579111587834e+17
19474.0	5.762829379087018e+17
19475.0	5.766187966616916e+17
19476.0	5.769581801679529e+17
19477.0	5.772583217659903e+17
19478.0	5.775299604818601e+17
19479.0	5.777616504094719e+17
19480.0	5.779966867625299e+17
19481.0	5.781992724146857e+17
19482.0	5.783758702990676e+17
19483.0	5.785353568911359e+17
19484.0	5.786826585407487e+17
19485.0	5.78814615748608e+17
19486.0	5.789146972946431e+17
19487.0	5.790299669047978e+17
19488.0	5.791186400837631e+17
19489.0	5.791838807348563e+17
19490.0	5.792455766398294e+17
19491.0	5.793390335623167e+17
19492.0	5.794055416621738e+17
19493.0	5.794540422168575e+17
19494.0	5.794910319236436e+17
19495.0	5.795106052025001e+17
19496.0	5.795100095414271e+17
19497.0	5.794978283738451e+17
19498.0	5.792789026220713e+17
19499.0	5.790138906968063e+17
19500.0	5.794796487923028e+17
19501.0	5.79541718339857e+17
19502.0	5.795463644403028e+17
19503.0	5.795386163724285e+17
19504.0	5.795237256145578e+17
19505.0	5.795004650531497e+17
19506.0	5.794741153169407e+17
19507.0	5.794399308305748e+17
19508.0	5.794003813400576e+17
19509.0	5.793427996278783e+17
19510.0	5.791992885805055e+17
19511.0	5.777352033654098e+17
19512.0	5.789049841254399e+17
19513.0	5.789405921585833e+17
19514.0	5.789420383546025e+17
19515.0	5.790510680287913e+17
19516.0	5.790288161974953e+17
19517.0	5.789877005538644e+17
19518.0	5.789324896021161e+17
19519.0	5.788741333417984e+17
19520.0	5.788022830967466e+17
19521.0	5.787559485505536e+17
19522.0	5.786847690446163e+17
19523.0	5.786182020846934e+17
19524.0	5.785418858845524e+17
19525.0	5.784830463006035e+17
19526.0	5.784124773455188e+17
19527.0	5.78339559580194e+17
19528.0	5.782655334700372e+17
19529.0	5.781913534988287e+17
19530.0	5.781190109822975e+17
19531.0	5.780424745811967e+17
19532.0	5.779649051929257e+17
19533.0	5.778863363719168e+17
19534.0	5.778067577722198e+17
19535.0	5.777261034034516e+17
19536.0	5.776436663855786e+17
19537.0	5.775620338352127e+17
19538.0	5.774563475805524e+17
19539.0	5.773842730101418e+17
19540.0	5.773136817553408e+17
19541.0	5.772291230487892e+17
19542.0	5.771456903031466e+17
19543.0	5.770442751082495e+17
19544.0	5.769676964145833e+17
19545.0	5.768613769598292e+17
19546.0	5.767713947385853e+17
19547.0	5.767054332264448e+17
19548.0	5.766220652128937e+17
19549.0	5.765269999146324e+17
19550.0	5.7644549158557005e+17
19551.0	5.7635566720996685e+17
19552.0	5.7626509121508685e+17
19553.0	5.761756231456084e+17
19554.0	5.7608545714394445e+17
19555.0	5.7599178889844045e+17
19556.0	5.759019163582463e+17
19557.0	5.758107024097279e+17
19558.0	5.7571830944235514e+17
19559.0	5.756256488084819e+17
19560.0	5.7552479893585914e+17
19561.0	5.7543718377007776e+17
19562.0	5.7533998797509965e+17
19563.0	5.752519709949951e+17
19564.0	5.751582067698345e+17
19565.0	5.7507112190388896e+17
19566.0	5.7497539865914016e+17
19567.0	5.7488185267759776e+17
19568.0	5.74785039053619e+17
19569.0	5.7469132432124576e+17
19570.0	5.745972362958164e+17
19571.0	5.745036106224979e+17
19572.0	5.7440514444274336e+17
19573.0	5.743092198014975e+17
19574.0	5.7420746962152096e+17
19575.0	5.741193026950484e+17
19576.0	5.740211105431551e+17
19577.0	5.7392091826749434e+17
19578.0	5.7382808140294816e+17
19579.0	5.737295102956883e+17
19580.0	5.7363279943215776e+17
19581.0	5.735372255745364e+17
19582.0	5.7344009793699834e+17
19583.0	5.7334249746158925e+17
19584.0	5.732441674569043e+17
19585.0	5.731376172455252e+17
19586.0	5.7303728474030074e+17
19587.0	5.7294587030405114e+17
19588.0	5.72839592932147e+17
19589.0	5.7274772096723616e+17
19590.0	5.726487814602751e+17
19591.0	5.725565782152532e+17
19592.0	5.7245960380962125e+17
19593.0	5.7235810871323296e+17
19594.0	5.722423594844158e+17
19595.0	5.721624089897641e+17
19596.0	5.7206043182803616e+17
19597.0	5.719635071249066e+17
19598.0	5.7184700865358496e+17
19599.0	5.7176615295822496e+17
19600.0	5.716695187106473e+17
19601.0	5.7156643341380256e+17
19602.0	5.714644806489428e+17
19603.0	5.713602474409983e+17
19604.0	5.7126522289739085e+17
19605.0	5.7115754141231776e+17
19606.0	5.710739861929983e+17
19607.0	5.7097636299844256e+17
19608.0	5.7087637987874125e+17
19609.0	5.7077564136488954e+17
19610.0	5.7067119424744096e+17
19611.0	5.70567912796979e+17
19612.0	5.7047958550828365e+17
19613.0	5.7037893766130336e+17
19614.0	5.702764278229673e+17
19615.0	5.7017781847763616e+17
19616.0	5.7006708745393485e+17
19617.0	5.6996026433317536e+17
19618.0	5.698485563162623e+17
19619.0	5.697395598469802e+17
19620.0	5.6965004256433485e+17
19621.0	5.695563234279424e+17
19622.0	5.694765664305151e+17
19623.0	5.693766130204671e+17
19624.0	5.6927351388241914e+17
19625.0	5.691752481204906e+17
19626.0	5.6907129103755936e+17
19627.0	5.6896464729320096e+17
19628.0	5.6885108546382496e+17
19629.0	5.6868496669846176e+17
19630.0	5.6856990225967776e+17
19631.0	5.6842678303020365e+17
19632.0	5.684103164024149e+17
19633.0	5.683431609816404e+17
19634.0	5.6826307123609594e+17
19635.0	5.681665262572883e+17
19636.0	5.6805801702632096e+17
19637.0	5.679346352128e+17
19638.0	5.6787756254931616e+17
19639.0	5.677779839702358e+17
19640.0	5.676603350013268e+17
19641.0	5.67538125845299e+17
19642.0	5.674762089704105e+17
19643.0	5.673781940278613e+17
19644.0	5.672755945712298e+17
19645.0	5.671751837024255e+17
19646.0	5.670627776135167e+17
19647.0	5.669824309668521e+17
19648.0	5.6688334689621325e+17
19649.0	5.667832306073599e+17
19650.0	5.6668375164299936e+17
19651.0	5.665832972932436e+17
19652.0	5.664832376274943e+17
19653.0	5.663838080860158e+17
19654.0	5.662831340945406e+17
19655.0	5.6618308106977274e+17
19656.0	5.6608357337442976e+17
19657.0	5.6598367036593485e+17
19658.0	5.6588364138850976e+17
19659.0	5.657835699787092e+17
19660.0	5.656834968911871e+17
19661.0	5.655833245384703e+17
19662.0	5.6548291912226125e+17
