# Flux units: erg / (cm m2 s)
# Wavelength units: Angstrom
wave	flux
19000.0	5.87373854326784e+17
19001.0	5.872542310290772e+17
19002.0	5.87158528336418e+17
19003.0	5.870504203605332e+17
19004.0	5.869429278288554e+17
19005.0	5.868342173412009e+17
19006.0	5.8672748153187e+17
19007.0	5.866195290248532e+17
19008.0	5.865053353235795e+17
19009.0	5.863892172756308e+17
19010.0	5.862439656620031e+17
19011.0	5.861847659970559e+17
19012.0	5.860596425687037e+17
19013.0	5.859733451134292e+17
19014.0	5.858600471057748e+17
19015.0	5.857536850089299e+17
19016.0	5.856456558160554e+17
19017.0	5.855436179767295e+17
19018.0	5.854349288101203e+17
19019.0	5.853280049561599e+17
19020.0	5.852196716063401e+17
19021.0	5.851142755276116e+17
19022.0	5.850063209933482e+17
19023.0	5.848948170992298e+17
19024.0	5.847884493400745e+17
19025.0	5.846830484378964e+17
19026.0	5.845729755004927e+17
19027.0	5.844576007531178e+17
19028.0	5.843623118285481e+17
19029.0	5.842534989998762e+17
19030.0	5.841489836550825e+17
19031.0	5.840421874477737e+17
19032.0	5.83933947281408e+17
19033.0	5.838161812215124e+17
19034.0	5.837153653926569e+17
19035.0	5.835876958120617e+17
19036.0	5.825844673686182e+17
19037.0	5.833814365088426e+17
19038.0	5.832866249659732e+17
19039.0	5.831837989470207e+17
19040.0	5.830780028015956e+17
19041.0	5.829703641683284e+17
19042.0	5.828290545014099e+17
19043.0	5.827575931382442e+17
19044.0	5.826493133357055e+17
19045.0	5.825429442483542e+17
19046.0	5.824300156190719e+17
19047.0	5.823255248109567e+17
19048.0	5.821957001969664e+17
19049.0	5.820565740847101e+17
19050.0	5.82000156221986e+17
19051.0	5.817638274640552e+17
19052.0	5.817562800237225e+17
19053.0	5.816871797740884e+17
19054.0	5.815818478682111e+17
19055.0	5.814387919727274e+17
19056.0	5.813630715734697e+17
19057.0	5.812614786099881e+17
19058.0	5.811284157136895e+17
19059.0	5.810384003574442e+17
19060.0	5.809401662625107e+17
19061.0	5.808358616115882e+17
19062.0	5.807287294405289e+17
19063.0	5.806221318335145e+17
19064.0	5.805028214308864e+17
19065.0	5.803893847315798e+17
19066.0	5.802870199462569e+17
19067.0	5.801951639197012e+17
19068.0	5.800901733602644e+17
19069.0	5.799838435595604e+17
19070.0	5.798740690468863e+17
19071.0	5.797698415012522e+17
19072.0	5.796549503571283e+17
19073.0	5.795578763367764e+17
19074.0	5.794520262246399e+17
19075.0	5.793456822332073e+17
19076.0	5.792374137552895e+17
19077.0	5.791308981469183e+17
19078.0	5.790219622154239e+17
19079.0	5.789202812414633e+17
19080.0	5.788128212855465e+17
19081.0	5.78702680330513e+17
19082.0	5.78597819584785e+17
19083.0	5.784842135754067e+17
19084.0	5.783644830433279e+17
19085.0	5.782812368044032e+17
19086.0	5.781201487571625e+17
19087.0	5.780321175164244e+17
19088.0	5.779374826236585e+17
19089.0	5.778289126451882e+17
19090.0	5.777472919087786e+17
19091.0	5.776416340355754e+17
19092.0	5.775117740496212e+17
19093.0	5.774347310465023e+17
19094.0	5.773294141702144e+17
19095.0	5.7722362410653e+17
19096.0	5.771161506589354e+17
19097.0	5.770115036829012e+17
19098.0	5.768952228959572e+17
19099.0	5.7678671918749e+17
19100.0	5.766914315212115e+17
19101.0	5.765872557053268e+17
19102.0	5.764696931390803e+17
19103.0	5.763766943044949e+17
19104.0	5.7627138008459936e+17
19105.0	5.761416227192832e+17
19106.0	5.760565182638762e+17
19107.0	5.759452482721108e+17
19108.0	5.7583668759101434e+17
19109.0	5.756940974030846e+17
19110.0	5.7562743180711245e+17
19111.0	5.755240715037353e+17
19112.0	5.754179173045588e+17
19113.0	5.7532032633623885e+17
19114.0	5.7521024263345485e+17
19115.0	5.751019029222741e+17
19116.0	5.7500128226836474e+17
19117.0	5.748951314246313e+17
19118.0	5.747739066018475e+17
19119.0	5.738531197900105e+17
19120.0	5.745687320854526e+17
19121.0	5.744701172875263e+17
19122.0	5.743715972808703e+17
19123.0	5.7426654170972154e+17
19124.0	5.7415608058948256e+17
19125.0	5.740548630861141e+17
19126.0	5.739443250003966e+17
19127.0	5.7365063626915834e+17
19128.0	5.737298921870675e+17
19129.0	5.736247004408489e+17
19130.0	5.735282584322047e+17
19131.0	5.7342475097866234e+17
19132.0	5.7331945863905274e+17
19133.0	5.732086938512043e+17
19134.0	5.731078047618388e+17
19135.0	5.730041319129087e+17
19136.0	5.7289924369448954e+17
19137.0	5.72777932329233e+17
19138.0	5.7268741239821645e+17
19139.0	5.725846826385407e+17
19140.0	5.724800496435199e+17
19141.0	5.723751549239296e+17
19142.0	5.72267219333939e+17
19143.0	5.7215919873938765e+17
19144.0	5.720554848561834e+17
19145.0	5.7195548894385485e+17
19146.0	5.717781050469035e+17
19147.0	5.7173632572456954e+17
19148.0	5.7163227573780474e+17
19149.0	5.715254478635006e+17
19150.0	5.714308927324158e+17
19151.0	5.713260037450409e+17
19152.0	5.712206960263167e+17
19153.0	5.710967932802388e+17
19154.0	5.709976625130153e+17
19155.0	5.7090674615036576e+17
19156.0	5.708017511869098e+17
19157.0	5.706863100297215e+17
19158.0	5.705522232339115e+17
19159.0	5.7048313766434125e+17
19160.0	5.703812868909737e+17
19161.0	5.7027531157886285e+17
19162.0	5.700982593814528e+17
19163.0	5.700559624121002e+17
19164.0	5.6996451644866554e+17
19165.0	5.6983967229105485e+17
19166.0	5.6974131984684365e+17
19167.0	5.696452886003711e+17
19168.0	5.695471094508202e+17
19169.0	5.694427270654634e+17
19170.0	5.6933958710285645e+17
19171.0	5.6923092408074234e+17
19172.0	5.691280666045098e+17
19173.0	5.690249947294377e+17
19174.0	5.689146616752811e+17
19175.0	5.6881643841563296e+17
19176.0	5.687122340784809e+17
19177.0	5.685905606748842e+17
19178.0	5.685006343776938e+17
19179.0	5.6839404613795834e+17
19180.0	5.682941325038932e+17
19181.0	5.6817633631491405e+17
19182.0	5.680854349119487e+17
19183.0	5.6798377700666016e+17
19184.0	5.678793556841814e+17
19185.0	5.6777438085338445e+17
19186.0	5.67671329530402e+17
19187.0	5.675601178394623e+17
19188.0	5.6746292414163616e+17
19189.0	5.673594205328726e+17
19190.0	5.672547955769343e+17
19191.0	5.6714686404143776e+17
19192.0	5.670467878081877e+17
19193.0	5.669392486498303e+17
19194.0	5.66832103895859e+17
19195.0	5.667320452087807e+17
19196.0	5.666233264723284e+17
19197.0	5.665133244885674e+17
19198.0	5.663787566759934e+17
19199.0	5.657828930180436e+17
19200.0	5.657796829074774e+17
19201.0	5.660724727993684e+17
19202.0	5.65996112978466e+17
19203.0	5.65897370603793e+17
19204.0	5.6579570752552954e+17
19205.0	5.656945613253289e+17
19206.0	5.6559191251572045e+17
19207.0	5.654754239709183e+17
19208.0	5.653609389053267e+17
19209.0	5.652818813779967e+17
19210.0	5.651784557832873e+17
19211.0	5.650765650242218e+17
19212.0	5.6497225792662176e+17
19213.0	5.6485566780975776e+17
19214.0	5.647500420229802e+17
19215.0	5.646594345708202e+17
19216.0	5.645582610377385e+17
19217.0	5.6445155130299725e+17
19218.0	5.642668907779411e+17
19219.0	5.6422720259577165e+17
19220.0	5.6414086648299514e+17
19221.0	5.64009318219776e+17
19222.0	5.639341200113663e+17
19223.0	5.6383234774138874e+17
19224.0	5.637257807527935e+17
19225.0	5.6361341996236794e+17
19226.0	5.6352238252414285e+17
19227.0	5.634193927875243e+17
19228.0	5.633190716768255e+17
19229.0	5.6321563545654605e+17
19230.0	5.631115530338303e+17
19231.0	5.6300764677188256e+17
19232.0	5.629049723770196e+17
19233.0	5.627948049978708e+17
19234.0	5.6269720815752506e+17
19235.0	5.625922709356543e+17
19236.0	5.6249286830762656e+17
19237.0	5.6238811395741e+17
19238.0	5.6227560580710394e+17
19239.0	5.621836407286442e+17
19240.0	5.6208023254029645e+17
19241.0	5.6197494977768096e+17
19242.0	5.618725173242537e+17
19243.0	5.6175268060637856e+17
19244.0	5.616682973615443e+17
19245.0	5.615644749157717e+17
19246.0	5.614604161209684e+17
19247.0	5.613578551121237e+17
19248.0	5.612560363552768e+17
19249.0	5.6115172869843616e+17
19250.0	5.6104368867027616e+17
19251.0	5.609319001926313e+17
19252.0	5.608101005404842e+17
19253.0	5.607379052440234e+17
19254.0	5.6063791702125216e+17
19255.0	5.605125828291241e+17
19256.0	5.6042964389287264e+17
19257.0	5.603290670694399e+17
19258.0	5.6022600575003296e+17
19259.0	5.601141754691583e+17
19260.0	5.599969734033407e+17
19261.0	5.5991520167198714e+17
19262.0	5.598066157551616e+17
19263.0	5.5970028322816e+17
19264.0	5.595465684877311e+17
19265.0	5.59480691770436e+17
19266.0	5.5936924051483296e+17
19267.0	5.592979964865193e+17
19268.0	5.5919446197971616e+17
19269.0	5.590918264520703e+17
19270.0	5.5898720093689165e+17
19271.0	5.588487917709995e+17
19272.0	5.5877908432595616e+17
19273.0	5.5864515223005856e+17
19274.0	5.5852716792654483e+17
19275.0	5.584749573701632e+17
19276.0	5.5836995017332045e+17
19277.0	5.5826776029047456e+17
19278.0	5.581646310932478e+17
19279.0	5.5805991015765325e+17
19280.0	5.5795070033810765e+17
19281.0	5.5785499512886605e+17
19282.0	5.5775372533650765e+17
19283.0	5.576458571350015e+17
19284.0	5.5754227621123405e+17
19285.0	5.574288216861353e+17
19286.0	5.5733599614621005e+17
19287.0	5.572342331037013e+17
19288.0	5.568615790499155e+17
19289.0	5.5642255908317766e+17
19290.0	5.5692449340020045e+17
19291.0	5.567976642183169e+17
19292.0	5.5672485138049696e+17
19293.0	5.56621793136913e+17
19294.0	5.565183439841962e+17
19295.0	5.564167773749247e+17
19296.0	5.563015263595179e+17
19297.0	5.562050041697621e+17
19298.0	5.561010033961641e+17
19299.0	5.55988417721139e+17
19300.0	5.5589734630905165e+17
19301.0	5.557947145562794e+17
19302.0	5.556903321709226e+17
19303.0	5.5557999471274656e+17
19304.0	5.5548222912157005e+17
19305.0	5.553798890127358e+17
19306.0	5.5527732115319456e+17
19307.0	5.5516881255137274e+17
19308.0	5.5506692759442765e+17
19309.0	5.5494803892906656e+17
19310.0	5.5483637488244045e+17
19311.0	5.54752081535522e+17
19312.0	5.546541082563924e+17
19313.0	5.5454740215671456e+17
19314.0	5.5280661122689574e+17
19315.0	5.528569189673668e+17
19316.0	5.542181810296149e+17
19317.0	5.5413631981977594e+17
19318.0	5.540340013116073e+17
19319.0	5.5393300750445216e+17
19320.0	5.538245665707349e+17
19321.0	5.537147492761599e+17
19322.0	5.536122074912083e+17
19323.0	5.5350981740025165e+17
19324.0	5.5340929922717005e+17
19325.0	5.5329480367581856e+17
19326.0	5.532023486327466e+17
19327.0	5.5309878078122656e+17
19328.0	5.5297529816459936e+17
19329.0	5.528916568222379e+17
19330.0	5.5277933126396576e+17
19331.0	5.5267255826513914e+17
19332.0	5.525736716763135e+17
19333.0	5.5246704282173434e+17
19334.0	5.523634038767615e+17
19335.0	5.522164350451712e+17
19336.0	5.521525272739838e+17
19337.0	5.5204758816467616e+17
19338.0	5.5191820968482125e+17
19339.0	5.5183633127833594e+17
19340.0	5.517111642292223e+17
19341.0	5.5160150485019296e+17
19342.0	5.5147401527514445e+17
19343.0	5.514103885922302e+17
19344.0	5.512857361143123e+17
19345.0	5.5096946434157184e+17
19346.0	5.509726127958697e+17
19347.0	5.5094995677347834e+17
19348.0	5.5087157795444045e+17
19349.0	5.5076123881854285e+17
19350.0	5.506472416903168e+17
19351.0	5.5054560412740256e+17
19352.0	5.504131347251199e+17
19353.0	5.503344823675562e+17
19354.0	5.502264273098068e+17
19355.0	5.5010627650846726e+17
19356.0	5.500063876207956e+17
19357.0	5.4989001910299296e+17
19358.0	5.4977900174813856e+17
19359.0	5.496583599336105e+17
19360.0	5.4953549450881696e+17
19361.0	5.4944250622989645e+17
19362.0	5.4933541411444045e+17
19363.0	5.4922406100555085e+17
19364.0	5.4910746879153485e+17
19365.0	5.489935510055594e+17
19366.0	5.488807723925502e+17
19367.0	5.4876755176980474e+17
19368.0	5.4865386110539085e+17
19369.0	5.4853462284479136e+17
19370.0	5.484205694429866e+17
19371.0	5.483029297714517e+17
19372.0	5.4819329241251834e+17
19373.0	5.4807450594836474e+17
19374.0	5.4795844927706445e+17
19375.0	5.478406028962475e+17
19376.0	5.4772202824444576e+17
19377.0	5.4760103243066003e+17
19378.0	5.4747560218897043e+17
19379.0	5.473537651376126e+17
19380.0	5.472314724450303e+17
19381.0	5.471073237729279e+17
19382.0	5.4697415678798496e+17
19383.0	5.468463970997588e+17
19384.0	5.467288618663934e+17
19385.0	5.466020647010303e+17
19386.0	5.4647291655837005e+17
19387.0	5.4634127280482976e+17
19388.0	5.46198611173922e+17
19389.0	5.460628753175892e+17
19390.0	5.459176527844692e+17
19391.0	5.4495296475190496e+17
19392.0	5.456002903528788e+17
19393.0	5.4550094176146765e+17
19394.0	5.453424831234047e+17
19395.0	5.451900064716117e+17
19396.0	5.450459498850986e+17
19397.0	5.4489684328666445e+17
19398.0	5.4471531639603194e+17
19399.0	5.444726290033321e+17
19400.0	5.443806600800938e+17
19401.0	5.442258457329664e+17
19402.0	5.4403497064748365e+17
19403.0	5.4386031437632845e+17
19404.0	5.43676172546867e+17
19405.0	5.4345787817765536e+17
19406.0	5.432664252568917e+17
19407.0	5.430111153859243e+17
19408.0	5.4273008268738566e+17
19409.0	5.425375271540051e+17
19410.0	5.4232037845893114e+17
19411.0	5.4206937858484896e+17
19412.0	5.418394109083647e+17
19413.0	5.415824614140586e+17
19414.0	5.413412070053204e+17
19415.0	5.410884740448256e+17
19416.0	5.4080533161137485e+17
19417.0	5.4051272326294176e+17
19418.0	5.4023193593118714e+17
19419.0	5.399256943471274e+17
19420.0	5.39557790622242e+17
19421.0	5.392172062867456e+17
19422.0	5.387908526986579e+17
19423.0	5.383832013023913e+17
19424.0	5.3787701542912e+17
19425.0	5.37366745981474e+17
19426.0	5.3680290751228576e+17
19427.0	5.3616852315668474e+17
19428.0	5.3543639327266144e+17
19429.0	5.345986099194538e+17
19430.0	5.336975522747733e+17
19431.0	5.328047583177386e+17
19432.0	5.3221283730554854e+17
19433.0	5.313913086279679e+17
19434.0	5.304727366882644e+17
19435.0	5.2937479869344403e+17
19436.0	5.281403782561791e+17
19437.0	5.2681933306811757e+17
19438.0	5.236008554244779e+17
19439.0	5.230677375057916e+17
19440.0	5.2077747471646656e+17
19441.0	5.180222903156739e+17
19442.0	5.152751807190356e+17
19443.0	5.125328722023764e+17
19444.0	5.090803868587349e+17
19445.0	5.045231344943101e+17
19446.0	4.98835471973307e+17
19447.0	4.9132150064851584e+17
19448.0	4.811535923456692e+17
19449.0	4.657187614534315e+17
19450.0	4.3378535203252826e+17
19451.0	4.1077078669394323e+17
19452.0	4.533244322818748e+17
19453.0	4.7434783631168915e+17
19454.0	4.86266141199564e+17
19455.0	4.947912068956157e+17
19456.0	5.0104182757130246e+17
19457.0	5.059194991061671e+17
19458.0	5.04862905903795e+17
19459.0	5.124222110837427e+17
19460.0	5.149557435749715e+17
19461.0	5.1767857276518374e+17
19462.0	5.199938829593253e+17
19463.0	5.2204275285797536e+17
19464.0	5.2362062220055904e+17
19465.0	5.249435040743423e+17
19466.0	5.2601047440424954e+17
19467.0	5.2693431592768845e+17
19468.0	5.27715630387473e+17
19469.0	5.283834624999423e+17
19470.0	5.289698152939519e+17
19471.0	5.2953176038440966e+17
19472.0	5.301654830885545e+17
19473.0	5.308235284217855e+17
19474.0	5.3139443520197965e+17
19475.0	5.31774074659362e+17
19476.0	5.3226455440206496e+17
19477.0	5.326431259197438e+17
19478.0	5.3292294995968e+17
19479.0	5.33169494504243e+17
19480.0	5.3340510009425914e+17
19481.0	5.335820663783423e+17
19482.0	5.3373950468205216e+17
19483.0	5.3388309528139085e+17
19484.0	5.3398144828484256e+17
19485.0	5.34074570641681e+17
19486.0	5.341472751266474e+17
19487.0	5.3422782967098016e+17
19488.0	5.3428023064876365e+17
19489.0	5.343035860713472e+17
19490.0	5.342138954241363e+17
19491.0	5.344031590580223e+17
19492.0	5.344593376357034e+17
19493.0	5.3450474300375046e+17
19494.0	5.345413673866579e+17
19495.0	5.345660275174057e+17
19496.0	5.345392273129471e+17
19497.0	5.3457738618197325e+17
19498.0	5.344508494129834e+17
19499.0	5.332330166091768e+17
19500.0	5.345450057356628e+17
19501.0	5.345522257406634e+17
19502.0	5.345198141865983e+17
19503.0	5.344842539685204e+17
19504.0	5.344572931222185e+17
19505.0	5.3442166299907405e+17
19506.0	5.3437652424895136e+17
19507.0	5.343243879317503e+17
19508.0	5.342784730256725e+17
19509.0	5.342327109320702e+17
19510.0	5.3413850966043296e+17
19511.0	5.314042154101395e+17
19512.0	5.3381647197798355e+17
19513.0	5.3358436038300954e+17
19514.0	5.3364244303489664e+17
19515.0	5.3382634767646726e+17
19516.0	5.338139538576724e+17
19517.0	5.337446891913215e+17
19518.0	5.3368020742963194e+17
19519.0	5.336091951366142e+17
19520.0	5.3352490689276563e+17
19521.0	5.3347170738940576e+17
19522.0	5.333918451149481e+17
19523.0	5.333196967247872e+17
19524.0	5.3323687459990176e+17
19525.0	5.3317402008835405e+17
19526.0	5.33100890231057e+17
19527.0	5.3302223088298656e+17
19528.0	5.329419883948715e+17
19529.0	5.3286170424333645e+17
19530.0	5.327854585774079e+17
19531.0	5.327048894229161e+17
19532.0	5.326237097175722e+17
19533.0	5.325419488215039e+17
19534.0	5.3245934738691405e+17
19535.0	5.3237437700942496e+17
19536.0	5.322886814367743e+17
19537.0	5.3220881112323405e+17
19538.0	5.3209374591549446e+17
19539.0	5.3198414183137286e+17
19540.0	5.319574547333119e+17
19541.0	5.318719574813354e+17
19542.0	5.317877608131242e+17
19543.0	5.316875892992681e+17
19544.0	5.316147091428692e+17
19545.0	5.314691955250515e+17
19546.0	5.31343382553122e+17
19547.0	5.3136192592063136e+17
19548.0	5.312802481416873e+17
19549.0	5.3118105914354323e+17
19550.0	5.3110472903229434e+17
19551.0	5.310167398744062e+17
19552.0	5.309280794181632e+17
19553.0	5.308366516300457e+17
19554.0	5.3074903303891616e+17
19555.0	5.3066077880101523e+17
19556.0	5.305739439854932e+17
19557.0	5.304850081731924e+17
19558.0	5.3039657399965005e+17
19559.0	5.3031183305058976e+17
19560.0	5.3021334380216314e+17
19561.0	5.3012865800820045e+17
19562.0	5.3003521604539725e+17
19563.0	5.2995138155533645e+17
19564.0	5.2986084058289485e+17
19565.0	5.297701397375657e+17
19566.0	5.296760595415039e+17
19567.0	5.295882192115028e+17
19568.0	5.294946614160042e+17
19569.0	5.294038009774079e+17
19570.0	5.2931495443387725e+17
19571.0	5.2922329693771085e+17
19572.0	5.291281429998251e+17
19573.0	5.2903729849958394e+17
19574.0	5.2893770887550285e+17
19575.0	5.2885777900284576e+17
19576.0	5.2876443742371834e+17
19577.0	5.2866865979282765e+17
19578.0	5.2858023442732365e+17
19579.0	5.284908825400659e+17
19580.0	5.283990984458239e+17
19581.0	5.283084532449279e+17
19582.0	5.282181647695871e+17
19583.0	5.281259871797247e+17
19584.0	5.2803355674323616e+17
19585.0	5.279278788072788e+17
19586.0	5.278319539563178e+17
19587.0	5.2775231125367456e+17
19588.0	5.276125283134122e+17
19589.0	5.275673349674324e+17
19590.0	5.274651976531966e+17
19591.0	5.273855132871338e+17
19592.0	5.272937214334292e+17
19593.0	5.271976027357183e+17
19594.0	5.270776790559402e+17
19595.0	5.270131324922538e+17
19596.0	5.269146809925632e+17
19597.0	5.2682857018381645e+17
19598.0	5.266828280463359e+17
19599.0	5.266434884108287e+17
19600.0	5.265521442291711e+17
19601.0	5.2645151483712845e+17
19602.0	5.2635724701586765e+17
19603.0	5.262230462747988e+17
19604.0	5.261724839400789e+17
19605.0	5.2605345008189446e+17
19606.0	5.2599377674021536e+17
19607.0	5.259021551053481e+17
19608.0	5.258073193054207e+17
19609.0	5.257104463320405e+17
19610.0	5.2561558054283936e+17
19611.0	5.2551817377437e+17
19612.0	5.2543736973885434e+17
19613.0	5.253430918512639e+17
19614.0	5.252466085287253e+17
19615.0	5.25157560029457e+17
19616.0	5.250500643520511e+17
19617.0	5.249580073484287e+17
19618.0	5.24807853781811e+17
19619.0	5.246957173167444e+17
19620.0	5.246127588769789e+17
19621.0	5.245816690879145e+17
19622.0	5.245060222287871e+17
19623.0	5.2441231015280634e+17
19624.0	5.243164791144447e+17
19625.0	5.2422677148030285e+17
19626.0	5.2413265255683405e+17
19627.0	5.240404193924437e+17
19628.0	5.2393365722890234e+17
19629.0	5.237985159850666e+17
19630.0	5.236486839817557e+17
19631.0	5.231289641380522e+17
19632.0	5.2355616944947194e+17
19633.0	5.234741537494357e+17
19634.0	5.233896897642496e+17
19635.0	5.2329190473946445e+17
19636.0	5.2318745978907296e+17
19637.0	5.23057075654929e+17
19638.0	5.2301723207379616e+17
19639.0	5.229253717830315e+17
19640.0	5.228191570460671e+17
19641.0	5.2260628898775066e+17
19642.0	5.2264485771018234e+17
19643.0	5.225518713186985e+17
19644.0	5.224527302055253e+17
19645.0	5.223385080528894e+17
19646.0	5.222570157320874e+17
19647.0	5.221827061568853e+17
19648.0	5.2208971305451514e+17
19649.0	5.2199648353320954e+17
19650.0	5.219043516612607e+17
19651.0	5.218106771243007e+17
19652.0	5.2171757636812794e+17
19653.0	5.216253620781055e+17
19654.0	5.215317013823487e+17
19655.0	5.214383639975253e+17
19656.0	5.2134606092806816e+17
19657.0	5.2125311654952954e+17
