# Flux units: erg / (cm m2 s)
# Wavelength units: Angstrom
wave	flux
19000.0	6.142373782355967e+17
19001.0	6.141152251434324e+17
19002.0	6.140130521077076e+17
19003.0	6.139005694727507e+17
19004.0	6.137884890016425e+17
19005.0	6.136755483486889e+17
19006.0	6.135639595199146e+17
19007.0	6.134511432280746e+17
19008.0	6.133348736259412e+17
19009.0	6.132102699417599e+17
19010.0	6.130834524340223e+17
19011.0	6.12997401813538e+17
19012.0	6.128706412784298e+17
19013.0	6.127783145810602e+17
19014.0	6.126618244284413e+17
19015.0	6.125510035068244e+17
19016.0	6.124402191455572e+17
19017.0	6.123307665457151e+17
19018.0	6.122181933836969e+17
19019.0	6.121067797370196e+17
19020.0	6.119939498835965e+17
19021.0	6.118836894608041e+17
19022.0	6.117712621906602e+17
19023.0	6.116557957977428e+17
19024.0	6.115444045905919e+17
19025.0	6.114335526311252e+17
19026.0	6.113185826340863e+17
19027.0	6.111994697132714e+17
19028.0	6.110983726563327e+17
19029.0	6.109862208820564e+17
19030.0	6.108768111340202e+17
19031.0	6.107647510751914e+17
19032.0	6.106513516352852e+17
19033.0	6.105287983366144e+17
19034.0	6.104158986480297e+17
19035.0	6.102391101325311e+17
19036.0	6.092822521664851e+17
19037.0	6.100346546596522e+17
19038.0	6.099698728654166e+17
19039.0	6.098673695981565e+17
19040.0	6.097588404442452e+17
19041.0	6.096476028185257e+17
19042.0	6.094988704219135e+17
19043.0	6.094263463619242e+17
19044.0	6.093138684106067e+17
19045.0	6.092021110407167e+17
19046.0	6.090870830224724e+17
19047.0	6.089743877363028e+17
19048.0	6.088494111085908e+17
19049.0	6.086854074608297e+17
19050.0	6.086295868669951e+17
19051.0	6.084034955662675e+17
19052.0	6.083562945467731e+17
19053.0	6.083047750019753e+17
19054.0	6.081990499500031e+17
19055.0	6.08056753782784e+17
19056.0	6.07973139283968e+17
19057.0	6.078671316058112e+17
19058.0	6.077240447423827e+17
19059.0	6.076330714071037e+17
19060.0	6.075333548354217e+17
19061.0	6.07423352082705e+17
19062.0	6.073118934171645e+17
19063.0	6.072003290551636e+17
19064.0	6.070812124992852e+17
19065.0	6.069630647577257e+17
19066.0	6.068508219670527e+17
19067.0	6.067557234638847e+17
19068.0	6.066460333266259e+17
19069.0	6.065350731541161e+17
19070.0	6.064217410327892e+17
19071.0	6.063118830534655e+17
19072.0	6.061905714784937e+17
19073.0	6.06091158294801e+17
19074.0	6.059804729191082e+17
19075.0	6.058695035890346e+17
19076.0	6.057575657242623e+17
19077.0	6.056458902132052e+17
19078.0	6.055336342104746e+17
19079.0	6.054257479734611e+17
19080.0	6.053139855704063e+17
19081.0	6.051997153929898e+17
19082.0	6.050911958859775e+17
19083.0	6.04972822700578e+17
19084.0	6.048503275629225e+17
19085.0	6.047580772018857e+17
19086.0	6.045943428983465e+17
19087.0	6.04500627886353e+17
19088.0	6.043969453905236e+17
19089.0	6.042931978130772e+17
19090.0	6.042006599325012e+17
19091.0	6.04090796151057e+17
19092.0	6.039544327569408e+17
19093.0	6.038752788305235e+17
19094.0	6.037657934452052e+17
19095.0	6.036556804521983e+17
19096.0	6.035445482433193e+17
19097.0	6.034346553114623e+17
19098.0	6.033114579774121e+17
19099.0	6.03197897056802e+17
19100.0	6.031009092293972e+17
19101.0	6.029912062296063e+17
19102.0	6.028747663387305e+17
19103.0	6.027721340966227e+17
19104.0	6.026620751402324e+17
19105.0	6.025221231695188e+17
19106.0	6.024385597713065e+17
19107.0	6.023196144828415e+17
19108.0	6.022015197992276e+17
19109.0	6.0207435101853e+17
19110.0	6.019837073555455e+17
19111.0	6.018780598282921e+17
19112.0	6.017691523481597e+17
19113.0	6.016696512937983e+17
19114.0	6.015535363915776e+17
19115.0	6.014432043859967e+17
19116.0	6.013366422907562e+17
19117.0	6.012251223184724e+17
19118.0	6.010931616153599e+17
19119.0	6.004650142597112e+17
19120.0	6.008802595831807e+17
19121.0	6.007808273853097e+17
19122.0	6.00679070634257e+17
19123.0	6.005699633654441e+17
19124.0	6.004529398371668e+17
19125.0	6.003479317315583e+17
19126.0	6.002267004775082e+17
19127.0	6.000098502071636e+17
19128.0	6.000020871097002e+17
19129.0	5.999011592929279e+17
19130.0	5.9980006831773e+17
19131.0	5.996922013745151e+17
19132.0	5.995825073924778e+17
19133.0	5.994689329801897e+17
19134.0	5.99361845268753e+17
19135.0	5.992535550503593e+17
19136.0	5.991433488738986e+17
19137.0	5.990253849127594e+17
19138.0	5.989230342482601e+17
19139.0	5.988159696754004e+17
19140.0	5.987069143460521e+17
19141.0	5.985974637035519e+17
19142.0	5.984854597784916e+17
19143.0	5.983748107534336e+17
19144.0	5.982645071293098e+17
19145.0	5.981592291901437e+17
19146.0	5.97990668570897e+17
19147.0	5.979349972243796e+17
19148.0	5.97820523413504e+17
19149.0	5.977090123191636e+17
19150.0	5.97612115857681e+17
19151.0	5.975022894754474e+17
19152.0	5.973918409381203e+17
19153.0	5.972596203978751e+17
19154.0	5.971647921476948e+17
19155.0	5.970623832522751e+17
19156.0	5.969525026237098e+17
19157.0	5.968304763393364e+17
19158.0	5.967032422673066e+17
19159.0	5.966185287909375e+17
19160.0	5.965114978424148e+17
19161.0	5.963959683951274e+17
19162.0	5.962420174454783e+17
19163.0	5.961647375340884e+17
19164.0	5.960756404507988e+17
19165.0	5.95945615139362e+17
19166.0	5.958520305003178e+17
19167.0	5.957480937597609e+17
19168.0	5.956433496156841e+17
19169.0	5.95535899656192e+17
19170.0	5.954275428182697e+17
19171.0	5.953175040644435e+17
19172.0	5.952091112254121e+17
19173.0	5.951014524594858e+17
19174.0	5.949896348314282e+17
19175.0	5.948838869904042e+17
19176.0	5.947751669257556e+17
19177.0	5.946525228204031e+17
19178.0	5.945557721109844e+17
19179.0	5.944460896632832e+17
19180.0	5.943389785336489e+17
19181.0	5.942226402148351e+17
19182.0	5.9412086521856e+17
19183.0	5.940151115055101e+17
19184.0	5.939063451637076e+17
19185.0	5.93796861595921e+17
19186.0	5.93688798429184e+17
19187.0	5.935737660069203e+17
19188.0	5.934706609968468e+17
19189.0	5.933618051765588e+17
19190.0	5.932521085381289e+17
19191.0	5.931397091601066e+17
19192.0	5.930328353581738e+17
19193.0	5.929185465161044e+17
19194.0	5.928041268117503e+17
19195.0	5.926958664428201e+17
19196.0	5.925746737064618e+17
19197.0	5.924405953691647e+17
19198.0	5.922496045208915e+17
19199.0	5.917947925102591e+17
19200.0	5.917314422319786e+17
19201.0	5.919351502099796e+17
19202.0	5.91901980815087e+17
19203.0	5.918158891603283e+17
19204.0	5.917189556491603e+17
19205.0	5.91616833364514e+17
19206.0	5.915124894269437e+17
19207.0	5.913931586120361e+17
19208.0	5.912848658770601e+17
19209.0	5.911916012634111e+17
19210.0	5.91084382200354e+17
19211.0	5.909777978753023e+17
19212.0	5.908691579218601e+17
19213.0	5.907500663919956e+17
19214.0	5.906428627779583e+17
19215.0	5.905424506508627e+17
19216.0	5.90435988869393e+17
19217.0	5.903222645107369e+17
19218.0	5.901722148929535e+17
19219.0	5.900905735345492e+17
19220.0	5.900003388162047e+17
19221.0	5.898797409719635e+17
19222.0	5.897841254509226e+17
19223.0	5.896797908806314e+17
19224.0	5.895687742947327e+17
19225.0	5.89458412020258e+17
19226.0	5.893562942095359e+17
19227.0	5.892491635064831e+17
19228.0	5.891439252733951e+17
19229.0	5.890359624204287e+17
19230.0	5.889274255769599e+17
19231.0	5.888189126410239e+17
19232.0	5.887115359420415e+17
19233.0	5.885982190600191e+17
19234.0	5.884953730482175e+17
19235.0	5.883855939218089e+17
19236.0	5.882806684439892e+17
19237.0	5.881718349234176e+17
19238.0	5.880569153978367e+17
19239.0	5.879571826780842e+17
19240.0	5.87848459887138e+17
19241.0	5.877387970128553e+17
19242.0	5.876312511436116e+17
19243.0	5.875097887834112e+17
19244.0	5.874173641490431e+17
19245.0	5.873089378953898e+17
19246.0	5.872008926942548e+17
19247.0	5.870930902734164e+17
19248.0	5.86986387808802e+17
19249.0	5.86877154501154e+17
19250.0	5.86764184068642e+17
19251.0	5.866500365746173e+17
19252.0	5.865272150502058e+17
19253.0	5.864466209396052e+17
19254.0	5.863411218208084e+17
19255.0	5.862145786205524e+17
19256.0	5.861242268811264e+17
19257.0	5.860179689428308e+17
19258.0	5.859100691442345e+17
19259.0	5.857938035965951e+17
19260.0	5.856698899453267e+17
19261.0	5.855842801461929e+17
19262.0	5.85471909569058e+17
19263.0	5.853588694411946e+17
19264.0	5.852231880409087e+17
19265.0	5.851365309939712e+17
19266.0	5.850267293581312e+17
19267.0	5.849400903467007e+17
19268.0	5.848321939734528e+17
19269.0	5.84724540170786e+17
19270.0	5.846132054469289e+17
19271.0	5.844863919237802e+17
19272.0	5.843978790371327e+17
19273.0	5.842715173803347e+17
19274.0	5.841470177847977e+17
19275.0	5.840789035461289e+17
19276.0	5.839696756910762e+17
19277.0	5.838624053177002e+17
19278.0	5.837540103116116e+17
19279.0	5.836442357989373e+17
19280.0	5.835338132662954e+17
19281.0	5.834292034797568e+17
19282.0	5.833224394986838e+17
19283.0	5.832119194484736e+17
19284.0	5.831019538852522e+17
19285.0	5.829903353468244e+17
19286.0	5.828825575325696e+17
19287.0	5.827650413133823e+17
19288.0	5.823198062968828e+17
19289.0	5.819736800275108e+17
19290.0	5.824372677804032e+17
19291.0	5.823220686345558e+17
19292.0	5.822423172994388e+17
19293.0	5.821359210889215e+17
19294.0	5.820276902898345e+17
19295.0	5.819214606630912e+17
19296.0	5.817985293178196e+17
19297.0	5.81700607349009e+17
19298.0	5.81593824493568e+17
19299.0	5.814723548632406e+17
19300.0	5.813797399472809e+17
19301.0	5.812720664313855e+17
19302.0	5.811633566427818e+17
19303.0	5.81050042556962e+17
19304.0	5.809468275862186e+17
19305.0	5.808380406224212e+17
19306.0	5.807291374764031e+17
19307.0	5.806157018955775e+17
19308.0	5.805059331151188e+17
19309.0	5.803850525747881e+17
19310.0	5.802689082425343e+17
19311.0	5.80172257497361e+17
19312.0	5.800673030788436e+17
19313.0	5.799429947435689e+17
19314.0	5.781358953627642e+17
19315.0	5.781659061671274e+17
19316.0	5.79592403427874e+17
19317.0	5.795207157820073e+17
19318.0	5.794165872918527e+17
19319.0	5.793112649629695e+17
19320.0	5.791962033203881e+17
19321.0	5.790787016414548e+17
19322.0	5.789768311548586e+17
19323.0	5.788673373110271e+17
19324.0	5.787582719153492e+17
19325.0	5.786454321354067e+17
19326.0	5.785410247240361e+17
19327.0	5.784329749790719e+17
19328.0	5.782988997875028e+17
19329.0	5.782108691759104e+17
19330.0	5.780986196044457e+17
19331.0	5.779856834953215e+17
19332.0	5.778803663394132e+17
19333.0	5.777679595514537e+17
19334.0	5.776584033523027e+17
19335.0	5.774962110147242e+17
19336.0	5.774363942977535e+17
19337.0	5.773250074946218e+17
19338.0	5.771938805492392e+17
19339.0	5.770995307293354e+17
19340.0	5.769727804003668e+17
19341.0	5.768439468305066e+17
19342.0	5.767299187343359e+17
19343.0	5.766425796236628e+17
19344.0	5.765048941849257e+17
19345.0	5.76272956863283e+17
19346.0	5.762083443092137e+17
19347.0	5.7615776149230925e+17
19348.0	5.760765451567103e+17
19349.0	5.7596080145039354e+17
19350.0	5.7583808827883514e+17
19351.0	5.757317272305664e+17
19352.0	5.755895952703487e+17
19353.0	5.7550731106495136e+17
19354.0	5.7539253820020045e+17
19355.0	5.7526749586172576e+17
19356.0	5.751592454193151e+17
19357.0	5.7504007741330765e+17
19358.0	5.749217539304105e+17
19359.0	5.747960832851966e+17
19360.0	5.746624073913683e+17
19361.0	5.7456615776146765e+17
19362.0	5.7444947662820685e+17
19363.0	5.743315021813075e+17
19364.0	5.7421110098001914e+17
19365.0	5.740869695744681e+17
19366.0	5.739655728551252e+17
19367.0	5.7384345632331085e+17
19368.0	5.73717471105297e+17
19369.0	5.735879077265407e+17
19370.0	5.7346555582436685e+17
19371.0	5.733416753780052e+17
19372.0	5.7322094212765005e+17
19373.0	5.730900107766441e+17
19374.0	5.729633453823315e+17
19375.0	5.728308197064703e+17
19376.0	5.7269643455583565e+17
19377.0	5.725688647996756e+17
19378.0	5.724363501688149e+17
19379.0	5.7230326049887565e+17
19380.0	5.721689610518528e+17
19381.0	5.7203564495940256e+17
19382.0	5.718911132980565e+17
19383.0	5.7174387603101005e+17
19384.0	5.716099372242262e+17
19385.0	5.7146875932835834e+17
19386.0	5.713362202307242e+17
19387.0	5.711865480303956e+17
19388.0	5.710304789572266e+17
19389.0	5.7087294914778445e+17
19390.0	5.706982363234302e+17
19391.0	5.697754410691236e+17
19392.0	5.702929465999358e+17
19393.0	5.702367405495636e+17
19394.0	5.7007946183912096e+17
19395.0	5.6990760456683514e+17
19396.0	5.697472820499797e+17
19397.0	5.6955064461994656e+17
19398.0	5.693590590193664e+17
19399.0	5.6914156960699725e+17
19400.0	5.6897913574741325e+17
19401.0	5.6879421049186963e+17
19402.0	5.6860567436001274e+17
19403.0	5.6840311618054816e+17
19404.0	5.6820016219859616e+17
19405.0	5.67984949104913e+17
19406.0	5.6777307062272e+17
19407.0	5.675285934505983e+17
19408.0	5.672663215243264e+17
19409.0	5.6707661287478605e+17
19410.0	5.6682884058753696e+17
19411.0	5.6656173822115834e+17
19412.0	5.663085115211775e+17
19413.0	5.6601354604380154e+17
19414.0	5.6572091595489274e+17
19415.0	5.654179913662464e+17
19416.0	5.650951872446463e+17
19417.0	5.647795880984574e+17
19418.0	5.644191781268138e+17
19419.0	5.6406186704677536e+17
19420.0	5.6370233235647136e+17
19421.0	5.6327222780231686e+17
19422.0	5.628372864466943e+17
19423.0	5.624040173600766e+17
19424.0	5.618608655477418e+17
19425.0	5.6138244785438714e+17
19426.0	5.608401869821267e+17
19427.0	5.6022020132263245e+17
19428.0	5.595887784951807e+17
19429.0	5.589073612417705e+17
19430.0	5.5811792080732154e+17
19431.0	5.5728118630973434e+17
19432.0	5.565391029927935e+17
19433.0	5.555920942312105e+17
19434.0	5.546024967165268e+17
19435.0	5.534700707774462e+17
19436.0	5.522592184838826e+17
19437.0	5.508954048167935e+17
19438.0	5.4797793244829024e+17
19439.0	5.4749774021481805e+17
19440.0	5.458836159376041e+17
19441.0	5.437883567570942e+17
19442.0	5.4133912586158086e+17
19443.0	5.384346401767423e+17
19444.0	5.350690253701119e+17
19445.0	5.310292970613419e+17
19446.0	5.2600846316557645e+17
19447.0	5.1971752544174035e+17
19448.0	5.1122263412790637e+17
19449.0	4.9876207997201056e+17
19450.0	4.7561212480716774e+17
19451.0	4.571557426189672e+17
19452.0	4.8953556251006336e+17
19453.0	5.055200577803608e+17
19454.0	5.153941086710439e+17
19455.0	5.2240784199516154e+17
19456.0	5.277641981908311e+17
19457.0	5.320161582820008e+17
19458.0	5.3066373277942426e+17
19459.0	5.3806439924585914e+17
19460.0	5.408991107263145e+17
19461.0	5.429554740286804e+17
19462.0	5.4478111412060154e+17
19463.0	5.463250973316436e+17
19464.0	5.476986899486036e+17
19465.0	5.489612077487444e+17
19466.0	5.499967628115966e+17
19467.0	5.509286785799508e+17
19468.0	5.5177147419634336e+17
19469.0	5.5249326029755725e+17
19470.0	5.532225066674858e+17
19471.0	5.538451686424575e+17
19472.0	5.5436220028682214e+17
19473.0	5.548779536471382e+17
19474.0	5.5529499993483936e+17
19475.0	5.556656953185619e+17
19476.0	5.561007051112447e+17
19477.0	5.563978458245802e+17
19478.0	5.567109367070719e+17
19479.0	5.5698522727164576e+17
19480.0	5.5721336161785165e+17
19481.0	5.574507283262121e+17
19482.0	5.5762920428011514e+17
19483.0	5.577859438826837e+17
19484.0	5.5794325307173536e+17
19485.0	5.5807553240214176e+17
19486.0	5.581683565439658e+17
19487.0	5.5828258023451296e+17
19488.0	5.583849075507199e+17
19489.0	5.584347735610709e+17
19490.0	5.584374371538259e+17
19491.0	5.585700392359252e+17
19492.0	5.5864464814462285e+17
19493.0	5.586806711342421e+17
19494.0	5.586949378495828e+17
19495.0	5.587148853302613e+17
19496.0	5.5869566940610534e+17
19497.0	5.587048501783209e+17
19498.0	5.584095727146323e+17
19499.0	5.5747565199906106e+17
19500.0	5.586749765277011e+17
19501.0	5.587039583294804e+17
19502.0	5.5872018811890323e+17
19503.0	5.5869661955577165e+17
19504.0	5.586660519575551e+17
19505.0	5.586476611229013e+17
19506.0	5.5862981086412794e+17
19507.0	5.585868274969259e+17
19508.0	5.585440539847337e+17
19509.0	5.5849745995093325e+17
19510.0	5.583912709390335e+17
19511.0	5.5566363032289094e+17
19512.0	5.5799183527553683e+17
19513.0	5.578727127078225e+17
19514.0	5.579102645212499e+17
19515.0	5.58149809541393e+17
19516.0	5.581273863028735e+17
19517.0	5.5806416353143456e+17
19518.0	5.5800210195305805e+17
19519.0	5.579345091362814e+17
19520.0	5.578640823681023e+17
19521.0	5.578126953633108e+17
19522.0	5.577368083802793e+17
19523.0	5.5766691911215776e+17
19524.0	5.575853566066688e+17
19525.0	5.57525816713762e+17
19526.0	5.5744604992962554e+17
19527.0	5.573758836277247e+17
19528.0	5.573013359558656e+17
19529.0	5.5722379334123514e+17
19530.0	5.571501166166016e+17
19531.0	5.57070527181619e+17
19532.0	5.5698675931108685e+17
19533.0	5.569044159660031e+17
19534.0	5.568240978406058e+17
19535.0	5.5674219993060685e+17
19536.0	5.566574474472106e+17
19537.0	5.5657542210027514e+17
19538.0	5.564570807216809e+17
19539.0	5.5637429389885434e+17
19540.0	5.5631911461410125e+17
19541.0	5.562314103193599e+17
19542.0	5.561471292058281e+17
19543.0	5.560421181642069e+17
19544.0	5.559698800858452e+17
19545.0	5.558378519942484e+17
19546.0	5.557363817141589e+17
19547.0	5.557086832994986e+17
19548.0	5.5562490801902925e+17
19549.0	5.5552860099706874e+17
19550.0	5.5544913019098445e+17
19551.0	5.553588614987775e+17
19552.0	5.552672250440362e+17
19553.0	5.551747896442879e+17
19554.0	5.550834776189609e+17
19555.0	5.54991594119714e+17
19556.0	5.5490302132442445e+17
19557.0	5.548133337530366e+17
19558.0	5.547228566039211e+17
19559.0	5.546311645746515e+17
19560.0	5.545294596931583e+17
19561.0	5.5444400186763936e+17
19562.0	5.54346518553122e+17
19563.0	5.542610447892479e+17
19564.0	5.54170419581201e+17
19565.0	5.5407711966549325e+17
19566.0	5.539848111434409e+17
19567.0	5.5389434643742714e+17
19568.0	5.53799969144832e+17
19569.0	5.5370602106934605e+17
19570.0	5.5361305404156576e+17
19571.0	5.5351885297964365e+17
19572.0	5.5342113765021005e+17
19573.0	5.533266380936532e+17
19574.0	5.5322476236417696e+17
19575.0	5.5313992795204256e+17
19576.0	5.530467168856745e+17
19577.0	5.5294756976066554e+17
19578.0	5.528561611964414e+17
19579.0	5.527608336842751e+17
19580.0	5.526659767031124e+17
19581.0	5.525724777676799e+17
19582.0	5.524787246574249e+17
19583.0	5.523836464966313e+17
19584.0	5.52287584981265e+17
19585.0	5.5218174444612256e+17
19586.0	5.520828676440062e+17
19587.0	5.519961660675411e+17
19588.0	5.518734020749994e+17
19589.0	5.5180355055561363e+17
19590.0	5.5170340357843616e+17
19591.0	5.516169635867306e+17
19592.0	5.5152398921891834e+17
19593.0	5.5142494974771194e+17
19594.0	5.513069931266047e+17
19595.0	5.512345322607957e+17
19596.0	5.5113261899229856e+17
19597.0	5.510421175861246e+17
19598.0	5.509105329722708e+17
19599.0	5.508494056052053e+17
19600.0	5.5075480916022605e+17
19601.0	5.5065248841509536e+17
19602.0	5.5055122792011085e+17
19603.0	5.504339810451455e+17
19604.0	5.503579856393556e+17
19605.0	5.502464726575786e+17
19606.0	5.50174034441011e+17
19607.0	5.50078928527906e+17
19608.0	5.49980713656866e+17
19609.0	5.4988163454948685e+17
19610.0	5.497795021286058e+17
19611.0	5.4967860618854406e+17
19612.0	5.495964902446422e+17
19613.0	5.494986839687167e+17
19614.0	5.493989026649428e+17
19615.0	5.493044089105066e+17
19616.0	5.491920084140032e+17
19617.0	5.490934129098751e+17
19618.0	5.489616066969599e+17
19619.0	5.488494900150271e+17
19620.0	5.48767443067426e+17
19621.0	5.487012445072041e+17
19622.0	5.4862808626845005e+17
19623.0	5.4853047188193274e+17
19624.0	5.484301244869289e+17
19625.0	5.48335634157841e+17
19626.0	5.482358913717589e+17
19627.0	5.481338020823039e+17
19628.0	5.480215304907434e+17
19629.0	5.478547139330047e+17
19630.0	5.476483392165204e+17
19631.0	5.4731476083671046e+17
19632.0	5.475882130298196e+17
19633.0	5.4753709047589536e+17
19634.0	5.474570595205119e+17
19635.0	5.473592019342676e+17
19636.0	5.4724835207195296e+17
19637.0	5.4712122621296634e+17
19638.0	5.4707594737309e+17
19639.0	5.4698027984267936e+17
19640.0	5.468663494737919e+17
19641.0	5.4670325445208755e+17
19642.0	5.466875239945557e+17
19643.0	5.465912845008896e+17
19644.0	5.464890954569044e+17
19645.0	5.4638298578725536e+17
19646.0	5.462806055529129e+17
19647.0	5.462075152618836e+17
19648.0	5.461111417602047e+17
19649.0	5.460141042302975e+17
19650.0	5.459178782982143e+17
19651.0	5.458204827844607e+17
19652.0	5.457235620659199e+17
19653.0	5.456269195695444e+17
19654.0	5.45529901682961e+17
19655.0	5.454328645724842e+17
19656.0	5.453366546486613e+17
19657.0	5.452397805567999e+17
19658.0	5.4514319293590176e+17
19659.0	5.450466441123156e+17
19660.0	5.449499388411904e+17
19661.0	5.448530774720511e+17
