# Flux units: erg / (cm m2 s)
# Wavelength units: Angstrom
wave	flux
19000.0	7.67728404345651e+17
19001.0	7.675822759127721e+17
19002.0	7.674373368446973e+17
19003.0	7.672917849888084e+17
19004.0	7.671462377466538e+17
19005.0	7.670007148314621e+17
19006.0	7.668551768167766e+17
19007.0	7.66708164923665e+17
19008.0	7.665636215182675e+17
19009.0	7.664183969579005e+17
19010.0	7.662702165316947e+17
19011.0	7.661272982792874e+17
19012.0	7.65979968877363e+17
19013.0	7.658364329437866e+17
19014.0	7.656908999622655e+17
19015.0	7.655453745304915e+17
19016.0	7.653995429145257e+17
19017.0	7.652519127810047e+17
19018.0	7.651087105742163e+17
19019.0	7.649633621420713e+17
19020.0	7.648174743224319e+17
19021.0	7.64672082269525e+17
19022.0	7.645269301308074e+17
19023.0	7.643814533529599e+17
19024.0	7.642359350515028e+17
19025.0	7.64090560614673e+17
19026.0	7.639448946737151e+17
19027.0	7.637984901158228e+17
19028.0	7.636542728874668e+17
19029.0	7.635088678322173e+17
19030.0	7.633634678101332e+17
19031.0	7.632180652714666e+17
19032.0	7.630726627327999e+17
19033.0	7.629267707188564e+17
19034.0	7.627819415415466e+17
19035.0	7.626365891947177e+17
19036.0	7.623863612123817e+17
19037.0	7.623459264441e+17
19038.0	7.622006337961983e+17
19039.0	7.620553424065875e+17
19040.0	7.619100644387498e+17
19041.0	7.617647923429375e+17
19042.0	7.616190534210899e+17
19043.0	7.614743035161257e+17
19044.0	7.613290528112637e+17
19045.0	7.611838599877974e+17
19046.0	7.610383169399466e+17
19047.0	7.608934725233322e+17
19048.0	7.607471085103786e+17
19049.0	7.606027627965097e+17
19050.0	7.604580200218621e+17
19051.0	7.602999532016978e+17
19052.0	7.601669871938217e+17
19053.0	7.600226848210944e+17
19054.0	7.598776337651028e+17
19055.0	7.59731045077265e+17
19056.0	7.595875366862848e+17
19057.0	7.594425120544083e+17
19058.0	7.592975004248748e+17
19059.0	7.591525110251519e+17
19060.0	7.590073895048531e+17
19061.0	7.588625762658986e+17
19062.0	7.587176153874432e+17
19063.0	7.585727149069654e+17
19064.0	7.584271359279101e+17
19065.0	7.582821128339455e+17
19066.0	7.581376534544381e+17
19067.0	7.579932119706281e+17
19068.0	7.578483798573055e+17
19069.0	7.57703567876642e+17
19070.0	7.57558697595153e+17
19071.0	7.574140001189888e+17
19072.0	7.572692447614291e+17
19073.0	7.571244772403881e+17
19074.0	7.569797827002368e+17
19075.0	7.568350869017938e+17
19076.0	7.56690261639168e+17
19077.0	7.565456972622504e+17
19078.0	7.564005783983442e+17
19079.0	7.562564739967657e+17
19080.0	7.561118696341503e+17
19081.0	7.559672841459027e+17
19082.0	7.558224018407424e+17
19083.0	7.556775392488105e+17
19084.0	7.555320844211539e+17
19085.0	7.553891342920361e+17
19086.0	7.552425360971091e+17
19087.0	7.550974776311807e+17
19088.0	7.549552471048191e+17
19089.0	7.548085928460289e+17
19090.0	7.546652151775232e+17
19091.0	7.545206672982015e+17
19092.0	7.54375519633408e+17
19093.0	7.542321449009151e+17
19094.0	7.54085294907938e+17
19095.0	7.539402743305556e+17
19096.0	7.53798845755119e+17
19097.0	7.536549011565226e+17
19098.0	7.53510722515763e+17
19099.0	7.533664495031636e+17
19100.0	7.53222293651456e+17
19101.0	7.530781264751272e+17
19102.0	7.529334916339028e+17
19103.0	7.527898231603199e+17
19104.0	7.526456993251327e+17
19105.0	7.525015931060224e+17
19106.0	7.523570186627753e+17
19107.0	7.522133534048255e+17
19108.0	7.520693999981908e+17
19109.0	7.519134283726845e+17
19110.0	7.517812829104809e+17
19111.0	7.516374131103062e+17
19112.0	7.514934585851903e+17
19113.0	7.513495216761513e+17
19114.0	7.512056015443283e+17
19115.0	7.510614069652138e+17
19116.0	7.509178213990399e+17
19117.0	7.507739325846867e+17
19118.0	7.506294332194815e+17
19119.0	7.504748055887872e+17
19120.0	7.503418142752765e+17
19121.0	7.501982935810045e+17
19122.0	7.500549791066794e+17
19123.0	7.499110371644755e+17
19124.0	7.4976697820119e+17
19125.0	7.496236107388244e+17
19126.0	7.494796074199721e+17
19127.0	7.49326883304243e+17
19128.0	7.491839236680361e+17
19129.0	7.490486463190355e+17
19130.0	7.489056233488383e+17
19131.0	7.487620435148799e+17
19132.0	7.486184661975037e+17
19133.0	7.484697226160809e+17
19134.0	7.483266525298688e+17
19135.0	7.481879059322195e+17
19136.0	7.480444495506089e+17
19137.0	7.479000284790781e+17
19138.0	7.477555042276692e+17
19139.0	7.476140675432445e+17
19140.0	7.474707112656893e+17
19141.0	7.473273310806015e+17
19142.0	7.471839550898173e+17
19143.0	7.470402601921196e+17
19144.0	7.468972552574291e+17
19145.0	7.467539646906368e+17
19146.0	7.466072981285545e+17
19147.0	7.464668957594964e+17
19148.0	7.463240518860799e+17
19149.0	7.461808280087209e+17
19150.0	7.460374598473046e+17
19151.0	7.45894438974259e+17
19152.0	7.457510231375871e+17
19153.0	7.456080791601152e+17
19154.0	7.454641721704445e+17
19155.0	7.453217734524925e+17
19156.0	7.451786247929855e+17
19157.0	7.450353463896748e+17
19158.0	7.448840996476244e+17
19159.0	7.44749198947123e+17
19160.0	7.446058724491263e+17
19161.0	7.444620503242068e+17
19162.0	7.443018095962794e+17
19163.0	7.441770807820288e+17
19164.0	7.440342236266496e+17
19165.0	7.438910078582781e+17
19166.0	7.437474288631807e+17
19167.0	7.4360359499421e+17
19168.0	7.43461195157777e+17
19169.0	7.433186543927296e+17
19170.0	7.431765382310569e+17
19171.0	7.430328571745619e+17
19172.0	7.428907653398527e+17
19173.0	7.42747881620548e+17
19174.0	7.426047353378132e+17
19175.0	7.424622014234624e+17
19176.0	7.423193685950461e+17
19177.0	7.421756599959551e+17
19178.0	7.420335108390911e+17
19179.0	7.418897481334783e+17
19180.0	7.417446189236224e+17
19181.0	7.41604716375791e+17
19182.0	7.414614814534313e+17
19183.0	7.413194750427135e+17
19184.0	7.411760284478121e+17
19185.0	7.410343040341331e+17
19186.0	7.40891624158003e+17
19187.0	7.407484901785599e+17
19188.0	7.406062068039679e+17
19189.0	7.404630891823101e+17
19190.0	7.403202248966143e+17
19191.0	7.401779117424639e+17
19192.0	7.400350449401855e+17
19193.0	7.398887643938815e+17
19194.0	7.397483915247615e+17
19195.0	7.396071101693952e+17
19196.0	7.394647068377088e+17
19197.0	7.393219977412608e+17
19198.0	7.391791640739839e+17
19199.0	7.389250521661439e+17
19200.0	7.388224759878996e+17
19201.0	7.387513088551593e+17
19202.0	7.386089060827135e+17
19203.0	7.384663588863997e+17
19204.0	7.383235914891263e+17
19205.0	7.381811436978177e+17
19206.0	7.380384568311807e+17
19207.0	7.378958517534719e+17
19208.0	7.377520076783615e+17
19209.0	7.376106369843199e+17
19210.0	7.374680017076223e+17
19211.0	7.373252947083263e+17
19212.0	7.371827546423293e+17
19213.0	7.370368033488893e+17
19214.0	7.368937166252713e+17
19215.0	7.367523596326228e+17
19216.0	7.366096772399103e+17
19217.0	7.364674739765247e+17
19218.0	7.363201125580799e+17
19219.0	7.361803914838016e+17
19220.0	7.360386709848064e+17
19221.0	7.358940875937108e+17
19222.0	7.357533013060266e+17
19223.0	7.356105751527424e+17
19224.0	7.354671593160701e+17
19225.0	7.353241398411261e+17
19226.0	7.351824331833343e+17
19227.0	7.350396913713152e+17
19228.0	7.348969306849279e+17
19229.0	7.347541501455017e+17
19230.0	7.34611315499554e+17
19231.0	7.34468511891456e+17
19232.0	7.34325049078579e+17
19233.0	7.341827269765802e+17
19234.0	7.34039835288098e+17
19235.0	7.338971000471552e+17
19236.0	7.337541829132287e+17
19237.0	7.336111550496768e+17
19238.0	7.334679560585215e+17
19239.0	7.333253084785322e+17
19240.0	7.331799597667668e+17
19241.0	7.330385956438015e+17
19242.0	7.328961780514816e+17
19243.0	7.327519485198335e+17
19244.0	7.326098983485439e+17
19245.0	7.324667530444799e+17
19246.0	7.323234668118015e+17
19247.0	7.321802174889981e+17
19248.0	7.320370472987306e+17
19249.0	7.318937202414931e+17
19250.0	7.317503306891263e+17
19251.0	7.316064362823679e+17
19252.0	7.314612508688383e+17
19253.0	7.313199752456874e+17
19254.0	7.311761335473491e+17
19255.0	7.310316006277119e+17
19256.0	7.308891627629225e+17
19257.0	7.307455604195328e+17
19258.0	7.306017705907539e+17
19259.0	7.304575112795476e+17
19260.0	7.303130481251668e+17
19261.0	7.30170222846498e+17
19262.0	7.300262379825834e+17
19263.0	7.298820410266964e+17
19264.0	7.297353220358141e+17
19265.0	7.295927914769064e+17
19266.0	7.294488967905279e+17
19267.0	7.293052537623892e+17
19268.0	7.291608377240233e+17
19269.0	7.290163377995773e+17
19270.0	7.288717460198739e+17
19271.0	7.28725261910016e+17
19272.0	7.285821118524074e+17
19273.0	7.283785667532116e+17
19274.0	7.282642922416808e+17
19275.0	7.28147486048256e+17
19276.0	7.280023506867539e+17
19277.0	7.278571100482217e+17
19278.0	7.277117439999999e+17
19279.0	7.275660168222036e+17
19280.0	7.274202524549117e+17
19281.0	7.272749884680872e+17
19282.0	7.271291548947795e+17
19283.0	7.269814790433449e+17
19284.0	7.268332745697961e+17
19285.0	7.266896041388713e+17
19286.0	7.265445569975636e+17
19287.0	7.263980624019455e+17
19288.0	7.262280427940522e+17
19289.0	7.260318944897705e+17
19290.0	7.259576548895402e+17
19291.0	7.258088934124202e+17
19292.0	7.256632246752595e+17
19293.0	7.255157139395926e+17
19294.0	7.253681021211987e+17
19295.0	7.252202675852628e+17
19296.0	7.250722429075456e+17
19297.0	7.249239992871594e+17
19298.0	7.247755665036628e+17
19299.0	7.246269192514217e+17
19300.0	7.24478039634739e+17
19301.0	7.243288982934867e+17
19302.0	7.241796175615314e+17
19303.0	7.240296481248598e+17
19304.0	7.238797508302163e+17
19305.0	7.237301187553961e+17
19306.0	7.235797346418687e+17
19307.0	7.234288734961663e+17
19308.0	7.232781327269887e+17
19309.0	7.231237919866879e+17
19310.0	7.229704138391552e+17
19311.0	7.22823420261171e+17
19312.0	7.226714136510461e+17
19313.0	7.225175447699455e+17
19314.0	7.22337648554803e+17
19315.0	7.221863570735104e+17
19316.0	7.22059238904081e+17
19317.0	7.219054895606441e+17
19318.0	7.217511265905322e+17
19319.0	7.215963634838186e+17
19320.0	7.214406176516778e+17
19321.0	7.212828023499433e+17
19322.0	7.211256206677331e+17
19323.0	7.209683030900736e+17
19324.0	7.20813037785361e+17
19325.0	7.206531264501075e+17
19326.0	7.204973572696745e+17
19327.0	7.203386478821373e+17
19328.0	7.201780186218496e+17
19329.0	7.200163676291071e+17
19330.0	7.198557144612863e+17
19331.0	7.196948799597225e+17
19332.0	7.195332068769791e+17
19333.0	7.193708291511636e+17
19334.0	7.192072844301651e+17
19335.0	7.190439216021504e+17
19336.0	7.188793243904681e+17
19337.0	7.187139042563411e+17
19338.0	7.185465227258536e+17
19339.0	7.183805106356223e+17
19340.0	7.182120834651476e+17
19341.0	7.180434246292819e+17
19342.0	7.178713327555923e+17
19343.0	7.177028299478356e+17
19344.0	7.1753082615453e+17
19345.0	7.173460641273172e+17
19346.0	7.17180931023394e+17
19347.0	7.170089806375594e+17
19348.0	7.168346147520511e+17
19349.0	7.166546821862739e+17
19350.0	7.164743076806655e+17
19351.0	7.16293997347908e+17
19352.0	7.161121135919104e+17
19353.0	7.159289005211647e+17
19354.0	7.157440378306557e+17
19355.0	7.155571213292884e+17
19356.0	7.153694281826301e+17
19357.0	7.151794613037736e+17
19358.0	7.149872230694911e+17
19359.0	7.147909311802025e+17
19360.0	7.1459817928349e+17
19361.0	7.144001406063956e+17
19362.0	7.142005181601106e+17
19363.0	7.139966095545684e+17
19364.0	7.13788886229538e+17
19365.0	7.135817062066857e+17
19366.0	7.133718917414911e+17
19367.0	7.131549011017727e+17
19368.0	7.129383754705578e+17
19369.0	7.127188077106516e+17
19370.0	7.124911227142143e+17
19371.0	7.122732016380585e+17
19372.0	7.120425432995155e+17
19373.0	7.118068413104127e+17
19374.0	7.11570896331298e+17
19375.0	7.113308640029353e+17
19376.0	7.110865326527828e+17
19377.0	7.108377703000745e+17
19378.0	7.105843614973952e+17
19379.0	7.103193077689002e+17
19380.0	7.100555135898964e+17
19381.0	7.097812361674751e+17
19382.0	7.095030584617641e+17
19383.0	7.092208668071251e+17
19384.0	7.089272267997181e+17
19385.0	7.0863339665053e+17
19386.0	7.083324510044159e+17
19387.0	7.080192445688489e+17
19388.0	7.076912850883926e+17
19389.0	7.073592701353983e+17
19390.0	7.070201043135145e+17
19391.0	7.065838589487785e+17
19392.0	7.063204120581459e+17
19393.0	7.059576566317053e+17
19394.0	7.055793889913513e+17
19395.0	7.051804918065833e+17
19396.0	7.047816239819433e+17
19397.0	7.043697633219923e+17
19398.0	7.039372822052863e+17
19399.0	7.034784342256298e+17
19400.0	7.0302478907037e+17
19401.0	7.025436961800191e+17
19402.0	7.020229098646185e+17
19403.0	7.015102565842941e+17
19404.0	7.009527140450303e+17
19405.0	7.003948751781887e+17
19406.0	6.997887600121171e+17
19407.0	6.991772864129706e+17
19408.0	6.984995358900223e+17
19409.0	6.978128717720233e+17
19410.0	6.970943051486548e+17
19411.0	6.963341094289407e+17
19412.0	6.955452385110698e+17
19413.0	6.947440461261481e+17
19414.0	6.939208088988329e+17
19415.0	6.930329528259923e+17
19416.0	6.921023526709929e+17
19417.0	6.911144402878463e+17
19418.0	6.900829747412991e+17
19419.0	6.889631472331433e+17
19420.0	6.877916572243284e+17
19421.0	6.86531127943714e+17
19422.0	6.8519042496157e+17
19423.0	6.837241346610516e+17
19424.0	6.821534418425172e+17
19425.0	6.804220058184361e+17
19426.0	6.786517708046335e+17
19427.0	6.769226818431657e+17
19428.0	6.750911221202943e+17
19429.0	6.731316715672915e+17
19430.0	6.710078802842964e+17
19431.0	6.687229042753535e+17
19432.0	6.662515646442152e+17
19433.0	6.635256753597098e+17
19434.0	6.605035039358973e+17
19435.0	6.571278854346066e+17
19436.0	6.535403235792214e+17
19437.0	6.50100186685986e+17
19438.0	6.462410289665362e+17
19439.0	6.42143521463774e+17
19440.0	6.37512630542882e+17
19441.0	6.322701448773631e+17
19442.0	6.264178675286019e+17
19443.0	6.204921547674963e+17
19444.0	6.138575813520038e+17
19445.0	6.062155512851117e+17
19446.0	5.978295991184042e+17
19447.0	5.883232296544932e+17
19448.0	5.772207949086724e+17
19449.0	5.6241213879091194e+17
19450.0	5.312624034054099e+17
19451.0	5.193912559861761e+17
19452.0	5.4901741743418074e+17
19453.0	5.7054129504474515e+17
19454.0	5.825361426950821e+17
19455.0	5.925758505582591e+17
19456.0	6.01135263759292e+17
19457.0	6.090078803023185e+17
19458.0	6.158194430006614e+17
19459.0	6.218326063011158e+17
19460.0	6.274472152312486e+17
19461.0	6.328049881929046e+17
19462.0	6.374546535874561e+17
19463.0	6.415952161101138e+17
19464.0	6.453017626804224e+17
19465.0	6.486513226001066e+17
19466.0	6.518439081061033e+17
19467.0	6.55147332149794e+17
19468.0	6.580615329611776e+17
19469.0	6.60657779594581e+17
19470.0	6.630048282269011e+17
19471.0	6.65101899276834e+17
19472.0	6.67024781161267e+17
19473.0	6.687927620162902e+17
19474.0	6.704370404731562e+17
19475.0	6.719186821360297e+17
19476.0	6.734053517208234e+17
19477.0	6.74905418122308e+17
19478.0	6.762640381924691e+17
19479.0	6.775291287786835e+17
19480.0	6.786474141111636e+17
19481.0	6.796694001811453e+17
19482.0	6.80627788788531e+17
19483.0	6.814906579943424e+17
19484.0	6.822810431957673e+17
19485.0	6.830367533869738e+17
19486.0	6.83707321094417e+17
19487.0	6.843544601187667e+17
19488.0	6.849321607626751e+17
19489.0	6.854641111968425e+17
19490.0	6.859891065662121e+17
19491.0	6.864857473919657e+17
19492.0	6.869558361762474e+17
19493.0	6.873942492271956e+17
19494.0	6.877979218367828e+17
19495.0	6.881644121511252e+17
19496.0	6.885019552666966e+17
19497.0	6.888095102271487e+17
19498.0	6.890920365173417e+17
19499.0	6.892120043771218e+17
19500.0	6.89593250882082e+17
19501.0	6.898342937580884e+17
19502.0	6.900280632628564e+17
19503.0	6.902055824261119e+17
19504.0	6.903860894018217e+17
19505.0	6.905343997116416e+17
19506.0	6.90668391506466e+17
19507.0	6.907894558272169e+17
19508.0	6.909122946181802e+17
19509.0	6.910117581335209e+17
19510.0	6.910973745736361e+17
19511.0	6.910799747831123e+17
19512.0	6.912298384534184e+17
19513.0	6.912683016191997e+17
19514.0	6.913399369760768e+17
19515.0	6.914118315409407e+17
19516.0	6.914584526979072e+17
19517.0	6.91485276250658e+17
19518.0	6.915058501506387e+17
19519.0	6.915245041079636e+17
19520.0	6.915351886779731e+17
19521.0	6.915372015943679e+17
19522.0	6.915395850775209e+17
19523.0	6.915323759777108e+17
19524.0	6.915211233591296e+17
19525.0	6.915061990468265e+17
19526.0	6.914835617589929e+17
19527.0	6.914563600198313e+17
19528.0	6.914251265059498e+17
19529.0	6.913899579659603e+17
19530.0	6.913511082950655e+17
19531.0	6.913112110967466e+17
19532.0	6.912683855751849e+17
19533.0	6.912195841490943e+17
19534.0	6.911677426914643e+17
19535.0	6.911130084223657e+17
19536.0	6.910554835430057e+17
19537.0	6.909954016062121e+17
19538.0	6.909371748799827e+17
19539.0	6.908695445940906e+17
19540.0	6.908054039691261e+17
19541.0	6.907370368139263e+17
19542.0	6.906685210405545e+17
19543.0	6.9059497440925e+17
19544.0	6.905195117499731e+17
19545.0	6.904403296518143e+17
19546.0	6.903578753673897e+17
19547.0	6.902822629714602e+17
19548.0	6.901997752724137e+17
19549.0	6.90115389231377e+17
19550.0	6.900309100767913e+17
19551.0	6.899441742468436e+17
19552.0	6.898560570228733e+17
19553.0	6.897666048917504e+17
19554.0	6.896758835642367e+17
19555.0	6.895842480881663e+17
19556.0	6.894912456185172e+17
19557.0	6.89397114741282e+17
19558.0	6.893019591955796e+17
19559.0	6.892075448532991e+17
19560.0	6.891117919688019e+17
19561.0	6.890137083095721e+17
19562.0	6.889147046297599e+17
19563.0	6.888147633132884e+17
19564.0	6.887141571996329e+17
19565.0	6.886126642703017e+17
19566.0	6.885102845951999e+17
19567.0	6.884072971654484e+17
19568.0	6.88303636549905e+17
19569.0	6.881991707678036e+17
19570.0	6.880941163151359e+17
19571.0	6.879883803579731e+17
19572.0	6.878820337800531e+17
19573.0	6.87774995980834e+17
19574.0	6.876671313444863e+17
19575.0	6.875594572693504e+17
19576.0	6.874508960989183e+17
19577.0	6.873412246962175e+17
19578.0	6.872319230214143e+17
19579.0	6.871220695859199e+17
19580.0	6.870115027692201e+17
19581.0	6.869004062818304e+17
19582.0	6.867890770105683e+17
19583.0	6.866772276456106e+17
19584.0	6.865649657708543e+17
19585.0	6.864518061053268e+17
19586.0	6.863378799307433e+17
19587.0	6.862245015322623e+17
19588.0	6.861092275180884e+17
19589.0	6.859968597371561e+17
19590.0	6.858834671479466e+17
19591.0	6.857691010607786e+17
19592.0	6.856541052687699e+17
19593.0	6.855388327925076e+17
19594.0	6.854218001765716e+17
19595.0	6.853081298545321e+17
19596.0	6.85167011238161e+17
19597.0	6.850776408959657e+17
19598.0	6.849600967147519e+17
19599.0	6.848442678640639e+17
19600.0	6.847271687684095e+17
19601.0	6.846096226997588e+17
19602.0	6.844920662152531e+17
19603.0	6.843706652317012e+17
19604.0	6.842564915931817e+17
19605.0	6.841367047176192e+17
19606.0	6.840199987680595e+17
19607.0	6.839033608361299e+17
19608.0	6.837851402534911e+17
19609.0	6.836661451926185e+17
19610.0	6.835472542902954e+17
19611.0	6.834280196647593e+17
19612.0	6.83308689199377e+17
19613.0	6.831891790080681e+17
19614.0	6.830695192199167e+17
19615.0	6.829497128408403e+17
19616.0	6.828290000726697e+17
19617.0	6.827096988975103e+17
19618.0	6.825867769894227e+17
19619.0	6.824653685959338e+17
19620.0	6.823451847294975e+17
19621.0	6.822281648362836e+17
19622.0	6.821074921237162e+17
19623.0	6.819867076329472e+17
19624.0	6.818658155582804e+17
19625.0	6.817447989127849e+17
19626.0	6.816237259937108e+17
19627.0	6.81502533746688e+17
19628.0	6.813787967455232e+17
19629.0	6.812593427578879e+17
19630.0	6.811365775769599e+17
19631.0	6.809011991085055e+17
19632.0	6.808951691673599e+17
19633.0	6.807735412719615e+17
19634.0	6.806517869182975e+17
19635.0	6.805299432259583e+17
19636.0	6.804080271818751e+17
19637.0	6.802834943115263e+17
19638.0	6.801639358158163e+17
19639.0	6.800418376690345e+17
19640.0	6.799196362724692e+17
19641.0	6.797945487753215e+17
19642.0	6.796751512709801e+17
19643.0	6.795526501214889e+17
19644.0	6.794302113273172e+17
19645.0	6.793064622325759e+17
19646.0	6.791854223086934e+17
19647.0	6.790628711071743e+17
19648.0	6.789402664282794e+17
19649.0	6.788176021902676e+17
19650.0	6.786949327093759e+17
19651.0	6.785722015722154e+17
19652.0	6.784494317076479e+17
19653.0	6.783266129794387e+17
19654.0	6.782037787323049e+17
19655.0	6.78080874090769e+17
19656.0	6.779579377822378e+17
19657.0	6.778350339795625e+17
19658.0	6.777120608310612e+17
19659.0	6.775890474172415e+17
19660.0	6.774660233079465e+17
19661.0	6.773429541098836e+17
19662.0	6.772198610042879e+17
19663.0	6.770964910746281e+17
19664.0	6.769731572159828e+17
19665.0	6.768504505455955e+17
