# Flux units: erg / (cm m2 s)
# Wavelength units: Angstrom
wave	flux
19000.0	5.770407769888084e+17
19001.0	5.769263219823955e+17
19002.0	5.76832130846993e+17
19003.0	5.767277366476799e+17
19004.0	5.766233710395391e+17
19005.0	5.765179114870099e+17
19006.0	5.764136940776106e+17
19007.0	5.7630945807346336e+17
19008.0	5.762005976394409e+17
19009.0	5.760826691201706e+17
19010.0	5.7596638812351136e+17
19011.0	5.75887541150242e+17
19012.0	5.7577609331998714e+17
19013.0	5.756834993056425e+17
19014.0	5.7557472723162445e+17
19015.0	5.7547134399938554e+17
19016.0	5.7536907414514336e+17
19017.0	5.7526724916674554e+17
19018.0	5.751626062452052e+17
19019.0	5.7505885125782176e+17
19020.0	5.749540818081108e+17
19021.0	5.748516611686398e+17
19022.0	5.747470900396031e+17
19023.0	5.746394286871892e+17
19024.0	5.7453630997572256e+17
19025.0	5.744342362051926e+17
19026.0	5.743287843422207e+17
19027.0	5.742233268169386e+17
19028.0	5.74122484773683e+17
19029.0	5.740176196938409e+17
19030.0	5.739159680800084e+17
19031.0	5.738122738401279e+17
19032.0	5.7370716374302714e+17
19033.0	5.735935312396287e+17
19034.0	5.7349232121610234e+17
19035.0	5.733537323242836e+17
19036.0	5.729428110486185e+17
19037.0	5.731568125476862e+17
19038.0	5.7307746176860154e+17
19039.0	5.7297969967267834e+17
19040.0	5.728778796575402e+17
19041.0	5.7277405427575456e+17
19042.0	5.7263583140686496e+17
19043.0	5.725679776344745e+17
19044.0	5.724633137414142e+17
19045.0	5.7236017615557965e+17
19046.0	5.722524508400298e+17
19047.0	5.7214699660028576e+17
19048.0	5.7203247112956576e+17
19049.0	5.71881981948723e+17
19050.0	5.7183148728210765e+17
19051.0	5.716870909569705e+17
19052.0	5.7160749005755725e+17
19053.0	5.715287807273642e+17
19054.0	5.7142842732052474e+17
19055.0	5.712933933809664e+17
19056.0	5.712175577082537e+17
19057.0	5.711190920877396e+17
19058.0	5.709873073356799e+17
19059.0	5.709018451061417e+17
19060.0	5.708089725900117e+17
19061.0	5.707066216458922e+17
19062.0	5.7060304939035296e+17
19063.0	5.704992063924906e+17
19064.0	5.703887036088319e+17
19065.0	5.702781096689664e+17
19066.0	5.701745042784255e+17
19067.0	5.700863618187262e+17
19068.0	5.699846454728021e+17
19069.0	5.698815936604842e+17
19070.0	5.697761657050451e+17
19071.0	5.696746435553962e+17
19072.0	5.695620916445184e+17
19073.0	5.694693857121621e+17
19074.0	5.6936656402732365e+17
19075.0	5.692634839733588e+17
19076.0	5.691595978440703e+17
19077.0	5.6905560811547296e+17
19078.0	5.6895127969682765e+17
19079.0	5.6885146351042554e+17
19080.0	5.6874762673411405e+17
19081.0	5.686411068615338e+17
19082.0	5.685411027703124e+17
19083.0	5.6843075971973114e+17
19084.0	5.6831604221979296e+17
19085.0	5.6823244960126285e+17
19086.0	5.6808085172606285e+17
19087.0	5.680012849403219e+17
19088.0	5.679021563401558e+17
19089.0	5.678037606946133e+17
19090.0	5.6771663199819085e+17
19091.0	5.6761397962342394e+17
19092.0	5.674882162840917e+17
19093.0	5.674128867240618e+17
19094.0	5.673106917381459e+17
19095.0	5.672082334897492e+17
19096.0	5.671050211054932e+17
19097.0	5.670028914808149e+17
19098.0	5.6688915160323405e+17
19099.0	5.667838292743509e+17
19100.0	5.666936534160724e+17
19101.0	5.665913449043284e+17
19102.0	5.664826438538581e+17
19103.0	5.663878005740885e+17
19104.0	5.662859660886015e+17
19105.0	5.66157779210513e+17
19106.0	5.6607995166283085e+17
19107.0	5.659701074548052e+17
19108.0	5.658631845795156e+17
19109.0	5.6576296063685965e+17
19110.0	5.6566589297786854e+17
19111.0	5.6556081629538976e+17
19112.0	5.6545807625966925e+17
19113.0	5.653646454816767e+17
19114.0	5.6525717091560096e+17
19115.0	5.651551208428884e+17
19116.0	5.650545749174953e+17
19117.0	5.6494966754508794e+17
19118.0	5.6481616627411616e+17
19119.0	5.6410952070157574e+17
19120.0	5.646285308690431e+17
19121.0	5.645416618699434e+17
19122.0	5.6444443056319136e+17
19123.0	5.6434316056111776e+17
19124.0	5.642378769596415e+17
19125.0	5.641361486599509e+17
19126.0	5.64019475845393e+17
19127.0	5.638238901370879e+17
19128.0	5.6381203186100896e+17
19129.0	5.6372077268391245e+17
19130.0	5.636285179887615e+17
19131.0	5.635288808292351e+17
19132.0	5.6342725808619514e+17
19133.0	5.633220466267477e+17
19134.0	5.632236484646228e+17
19135.0	5.6312217147364685e+17
19136.0	5.630196259837269e+17
19137.0	5.6291072206875296e+17
19138.0	5.628147846348799e+17
19139.0	5.627158592487424e+17
19140.0	5.626148086087679e+17
19141.0	5.625132955467775e+17
19142.0	5.6240909680203085e+17
19143.0	5.6230670978689696e+17
19144.0	5.622039947771903e+17
19145.0	5.621066884623017e+17
19146.0	5.6194371598417914e+17
19147.0	5.618988033070421e+17
19148.0	5.617931014635519e+17
19149.0	5.616897625511252e+17
19150.0	5.6159955097135776e+17
19151.0	5.6149761421475834e+17
19152.0	5.613958899695615e+17
19153.0	5.612728471257087e+17
19154.0	5.6118556072345594e+17
19155.0	5.610903049338879e+17
19156.0	5.609895806107647e+17
19157.0	5.6088049284546554e+17
19158.0	5.607688248142506e+17
19159.0	5.606830660474196e+17
19160.0	5.6058238674315936e+17
19161.0	5.6047890382629536e+17
19162.0	5.603649498294954e+17
19163.0	5.6027270324333216e+17
19164.0	5.6017829805861536e+17
19165.0	5.600567022496425e+17
19166.0	5.5996907226398714e+17
19167.0	5.598748490421588e+17
19168.0	5.597759426701994e+17
19169.0	5.5967547538800634e+17
19170.0	5.5957482208843085e+17
19171.0	5.5947362478762643e+17
19172.0	5.593726959921834e+17
19173.0	5.592719302852607e+17
19174.0	5.591678137488724e+17
19175.0	5.590695802830847e+17
19176.0	5.589691576003241e+17
19177.0	5.588539258787155e+17
19178.0	5.5876704254907725e+17
19179.0	5.5866585692241914e+17
19180.0	5.5856468073294496e+17
19181.0	5.584556911842645e+17
19182.0	5.583611436029268e+17
19183.0	5.5826384183186765e+17
19184.0	5.581630959779838e+17
19185.0	5.5806167749754874e+17
19186.0	5.579616242630656e+17
19187.0	5.578549622734848e+17
19188.0	5.57759800226611e+17
19189.0	5.576592413687807e+17
19190.0	5.575581705262422e+17
19191.0	5.574542037265066e+17
19192.0	5.573558266757119e+17
19193.0	5.572509752273577e+17
19194.0	5.5714611336314874e+17
19195.0	5.5704797832369485e+17
19196.0	5.5694063468980896e+17
19197.0	5.5682855344974496e+17
19198.0	5.5669410713217696e+17
19199.0	5.564875411554303e+17
19200.0	5.564013366738943e+17
19201.0	5.5639712118865914e+17
19202.0	5.5632817032615245e+17
19203.0	5.5623844486621856e+17
19204.0	5.5614324374241274e+17
19205.0	5.5604545298541216e+17
19206.0	5.5594741700143776e+17
19207.0	5.55834018959633e+17
19208.0	5.5573455124998816e+17
19209.0	5.556480897974271e+17
19210.0	5.555487931454804e+17
19211.0	5.554502090358784e+17
19212.0	5.5534940271411194e+17
19213.0	5.552398305067007e+17
19214.0	5.5514241325247136e+17
19215.0	5.5504775654932474e+17
19216.0	5.5494742621115725e+17
19217.0	5.5484000959638176e+17
19218.0	5.5470535258494285e+17
19219.0	5.546237182869503e+17
19220.0	5.5454248971796474e+17
19221.0	5.5443260908939936e+17
19222.0	5.5434260610635085e+17
19223.0	5.54246504255761e+17
19224.0	5.5414351263170554e+17
19225.0	5.540426248705364e+17
19226.0	5.539473773996715e+17
19227.0	5.53848511992081e+17
19228.0	5.5375136394226336e+17
19229.0	5.5365149120266234e+17
19230.0	5.535511575789567e+17
19231.0	5.534505332899838e+17
19232.0	5.5335137204415136e+17
19233.0	5.5324622923147936e+17
19234.0	5.5315141174667936e+17
19235.0	5.5304931120250874e+17
19236.0	5.5295276461588474e+17
19237.0	5.5285216129843194e+17
19238.0	5.527455989235711e+17
19239.0	5.5265390983031456e+17
19240.0	5.525544405128532e+17
19241.0	5.52452846850321e+17
19242.0	5.5235362625508685e+17
19243.0	5.522400424755198e+17
19244.0	5.521560690141866e+17
19245.0	5.5205576069611514e+17
19246.0	5.5195505475802445e+17
19247.0	5.518551734201002e+17
19248.0	5.517567108754089e+17
19249.0	5.516564022078121e+17
19250.0	5.515515435592362e+17
19251.0	5.5144566995899725e+17
19252.0	5.513291646369791e+17
19253.0	5.512568734307667e+17
19254.0	5.511596303799636e+17
19255.0	5.510409034749267e+17
19256.0	5.509593105607338e+17
19257.0	5.508612784914431e+17
19258.0	5.5076168991593805e+17
19259.0	5.506541240538452e+17
19260.0	5.5055126482998605e+17
19261.0	5.5046096670774605e+17
19262.0	5.5035609799284045e+17
19263.0	5.5025026430839456e+17
19264.0	5.501257479356414e+17
19265.0	5.500445664826709e+17
19266.0	5.499423110987775e+17
19267.0	5.498660199246506e+17
19268.0	5.4976676318849696e+17
19269.0	5.49667390689553e+17
19270.0	5.4956374985714336e+17
19271.0	5.494481181387434e+17
19272.0	5.493660061794304e+17
19273.0	5.4925049665508685e+17
19274.0	5.4913251654587706e+17
19275.0	5.4907298741835085e+17
19276.0	5.4897220227781965e+17
19277.0	5.488736150224894e+17
19278.0	5.487739584992597e+17
19279.0	5.4867273120918176e+17
19280.0	5.48571479801856e+17
19281.0	5.4847519186397856e+17
19282.0	5.483778209568085e+17
19283.0	5.4827741484154874e+17
19284.0	5.481750634779989e+17
19285.0	5.480720586418857e+17
19286.0	5.479730550319786e+17
19287.0	5.4787081006394016e+17
19288.0	5.4763396295994016e+17
19289.0	5.474570580525055e+17
19290.0	5.475717559091199e+17
19291.0	5.474585866665984e+17
19292.0	5.473861985719636e+17
19293.0	5.472879833513984e+17
19294.0	5.4718844755421856e+17
19295.0	5.4709074536693754e+17
19296.0	5.4697849174097914e+17
19297.0	5.4688879172648954e+17
19298.0	5.4679062536956576e+17
19299.0	5.4668024324205216e+17
19300.0	5.4659457940630176e+17
19301.0	5.4649601368173216e+17
19302.0	5.463953559781374e+17
19303.0	5.4629125558981965e+17
19304.0	5.461970605397332e+17
19305.0	5.460972948946943e+17
19306.0	5.459981741238954e+17
19307.0	5.4589507533537274e+17
19308.0	5.457961594563242e+17
19309.0	5.456941555209556e+17
19310.0	5.455913563455488e+17
19311.0	5.454944205275135e+17
19312.0	5.453965214875646e+17
19313.0	5.452867675968853e+17
19314.0	5.4432420195205094e+17
19315.0	5.4429063899163386e+17
19316.0	5.449724233165483e+17
19317.0	5.449006944965972e+17
19318.0	5.4480500424704e+17
19319.0	5.4470883983141536e+17
19320.0	5.446049142057642e+17
19321.0	5.444987737778858e+17
19322.0	5.444077138302294e+17
19323.0	5.443094174498815e+17
19324.0	5.442109222595241e+17
19325.0	5.441109479478613e+17
19326.0	5.440128354178389e+17
19327.0	5.4391352080029005e+17
19328.0	5.437921663036074e+17
19329.0	5.4371553958516045e+17
19330.0	5.4361386993582074e+17
19331.0	5.435111051537066e+17
19332.0	5.4341644970885114e+17
19333.0	5.433156858893651e+17
19334.0	5.4321661468125856e+17
19335.0	5.430709868385621e+17
19336.0	5.4301663690752e+17
19337.0	5.4291653977265485e+17
19338.0	5.427967814882645e+17
19339.0	5.42715362288162e+17
19340.0	5.426003191704234e+17
19341.0	5.424864371059371e+17
19342.0	5.423879972104874e+17
19343.0	5.4230735395662496e+17
19344.0	5.4218158935900154e+17
19345.0	5.419708498400596e+17
19346.0	5.4190928304974496e+17
19347.0	5.4187590303088634e+17
19348.0	5.418076809286996e+17
19349.0	5.4170633962345805e+17
19350.0	5.415987736215551e+17
19351.0	5.415048047143594e+17
19352.0	5.413788180982441e+17
19353.0	5.4130674926004896e+17
19354.0	5.412057867004585e+17
19355.0	5.410945653626198e+17
19356.0	5.4100221776363514e+17
19357.0	5.409002587073194e+17
19358.0	5.407977014034432e+17
19359.0	5.406877435996841e+17
19360.0	5.405712865121619e+17
19361.0	5.404880247543124e+17
19362.0	5.403870366793728e+17
19363.0	5.4028415550532256e+17
19364.0	5.4017955935027194e+17
19365.0	5.400757805252607e+17
19366.0	5.3997188908318714e+17
19367.0	5.398676853751807e+17
19368.0	5.397630855151615e+17
19369.0	5.396553701261311e+17
19370.0	5.395511028045141e+17
19371.0	5.394424042007209e+17
19372.0	5.3934225987993594e+17
19373.0	5.392344422896979e+17
19374.0	5.391290442536276e+17
19375.0	5.390224491631957e+17
19376.0	5.3891523093899936e+17
19377.0	5.388064096518143e+17
19378.0	5.386980866479444e+17
19379.0	5.385875535953919e+17
19380.0	5.3847761830106445e+17
19381.0	5.383667558558378e+17
19382.0	5.382480723618475e+17
19383.0	5.381379099459583e+17
19384.0	5.380301923898708e+17
19385.0	5.379188114587647e+17
19386.0	5.378050025149781e+17
19387.0	5.376898052565673e+17
19388.0	5.375701133120852e+17
19389.0	5.374498108866558e+17
19390.0	5.373163159071402e+17
19391.0	5.369115021672446e+17
19392.0	5.370304405351081e+17
19393.0	5.3696775505401165e+17
19394.0	5.368479217614847e+17
19395.0	5.367157568656726e+17
19396.0	5.365961115478698e+17
19397.0	5.364700811012778e+17
19398.0	5.363288434365781e+17
19399.0	5.361531998961662e+17
19400.0	5.3604262469085856e+17
19401.0	5.3592938344611834e+17
19402.0	5.357936672331092e+17
19403.0	5.3564729189553485e+17
19404.0	5.354969641953962e+17
19405.0	5.353467218493439e+17
19406.0	5.351966523086164e+17
19407.0	5.350261285453823e+17
19408.0	5.3483155128756896e+17
19409.0	5.34707072733457e+17
19410.0	5.3455513484001274e+17
19411.0	5.3438472271517e+17
19412.0	5.3420356736996685e+17
19413.0	5.34012680540433e+17
19414.0	5.3382817115013114e+17
19415.0	5.3362849103216634e+17
19416.0	5.334070233923583e+17
19417.0	5.3319604172226554e+17
19418.0	5.3297229112279046e+17
19419.0	5.327372420470101e+17
19420.0	5.324915813821098e+17
19421.0	5.322251149421225e+17
19422.0	5.31952059879697e+17
19423.0	5.316654402284202e+17
19424.0	5.3134310908450125e+17
19425.0	5.3100945024395936e+17
19426.0	5.306576856416255e+17
19427.0	5.302581696572074e+17
19428.0	5.298457455624191e+17
19429.0	5.293979842467157e+17
19430.0	5.288812108316672e+17
19431.0	5.2835453228810234e+17
19432.0	5.278307339730943e+17
19433.0	5.2720133363903136e+17
19434.0	5.2651946319107405e+17
19435.0	5.257491671678974e+17
19436.0	5.2487144068874234e+17
19437.0	5.239213593897642e+17
19438.0	5.223418328077654e+17
19439.0	5.216134020901546e+17
19440.0	5.203858929571158e+17
19441.0	5.188283399143423e+17
19442.0	5.1702378046423046e+17
19443.0	5.1496788084217165e+17
19444.0	5.1246051850103443e+17
19445.0	5.0941253428183046e+17
19446.0	5.0573817165469e+17
19447.0	5.0092523941178e+17
19448.0	4.9447639809611117e+17
19449.0	4.847667470751059e+17
19450.0	4.657632366646599e+17
19451.0	4.495785326542863e+17
19452.0	4.7734233609448096e+17
19453.0	4.899881404945752e+17
19454.0	4.9753367081123795e+17
19455.0	5.028429055393792e+17
19456.0	5.0681625779896326e+17
19457.0	5.099214460332713e+17
19458.0	5.0984095104805875e+17
19459.0	5.1432545202121434e+17
19460.0	5.163053658144766e+17
19461.0	5.17818510545169e+17
19462.0	5.1909133906302285e+17
19463.0	5.2016091042065056e+17
19464.0	5.2105997045814605e+17
19465.0	5.218518456860672e+17
19466.0	5.225647532146686e+17
19467.0	5.231790873291434e+17
19468.0	5.236981629277525e+17
19469.0	5.2413352154671763e+17
19470.0	5.2456970826110285e+17
19471.0	5.249124255399935e+17
19472.0	5.2521124040977056e+17
19473.0	5.2549126801326074e+17
19474.0	5.257041349530964e+17
19475.0	5.2587610421329914e+17
19476.0	5.261084045519529e+17
19477.0	5.2626737839035725e+17
19478.0	5.264110213485908e+17
19479.0	5.2650851493915296e+17
19480.0	5.2660871112949754e+17
19481.0	5.266825063432192e+17
19482.0	5.267512948861609e+17
19483.0	5.268012616996181e+17
19484.0	5.268391851982847e+17
19485.0	5.268683045033301e+17
19486.0	5.26876633272593e+17
19487.0	5.2690753305968634e+17
19488.0	5.2690826049181e+17
19489.0	5.26868773146897e+17
19490.0	5.268070769623039e+17
19491.0	5.2687269293370016e+17
19492.0	5.2685979006621005e+17
19493.0	5.268324292930217e+17
19494.0	5.2679893057536e+17
19495.0	5.2676273848538445e+17
19496.0	5.266933651166549e+17
19497.0	5.2666518869114874e+17
19498.0	5.264874555484841e+17
19499.0	5.261238447636479e+17
19500.0	5.2652605377085434e+17
19501.0	5.264958944182272e+17
19502.0	5.264449673887743e+17
19503.0	5.263949136134143e+17
19504.0	5.263366192889855e+17
19505.0	5.262739498161494e+17
19506.0	5.262106135887871e+17
19507.0	5.2614195416050336e+17
19508.0	5.260775224508415e+17
19509.0	5.260022350435668e+17
19510.0	5.258856752655017e+17
19511.0	5.2452996163829677e+17
19512.0	5.256189426270207e+17
19513.0	5.255351974756351e+17
19514.0	5.254996603961343e+17
19515.0	5.2554238238829216e+17
19516.0	5.254940573652309e+17
19517.0	5.254223193178111e+17
19518.0	5.2534643583003296e+17
19519.0	5.252683375400277e+17
19520.0	5.251766636860757e+17
19521.0	5.2511644997823136e+17
19522.0	5.2503031400366074e+17
19523.0	5.249511093261651e+17
19524.0	5.248625802914474e+17
19525.0	5.2479356211036154e+17
19526.0	5.2471205797560314e+17
19527.0	5.246283791641257e+17
19528.0	5.245432738698581e+17
19529.0	5.2445844812595194e+17
19530.0	5.243777945960447e+17
19531.0	5.242932082769919e+17
19532.0	5.2420828927972685e+17
19533.0	5.2412302376304634e+17
19534.0	5.240371957901993e+17
19535.0	5.2394922977088845e+17
19536.0	5.238609916810581e+17
19537.0	5.23778923831842e+17
19538.0	5.2365941433958406e+17
19539.0	5.235740623503359e+17
19540.0	5.235153911676926e+17
19541.0	5.2342977745387514e+17
19542.0	5.233442848855381e+17
19543.0	5.232405775035049e+17
19544.0	5.231646585738581e+17
19545.0	5.230332601171968e+17
19546.0	5.2293437842172576e+17
19547.0	5.229012601274366e+17
19548.0	5.2281797264452256e+17
19549.0	5.2272079845021005e+17
19550.0	5.226424982044671e+17
19551.0	5.2255398657611085e+17
19552.0	5.2246491899275936e+17
19553.0	5.223740602318847e+17
19554.0	5.2228450701803514e+17
19555.0	5.2219432528773114e+17
19556.0	5.221073592603988e+17
19557.0	5.2201887440568314e+17
19558.0	5.2192945464060576e+17
19559.0	5.218401495198378e+17
19560.0	5.217419407305386e+17
19561.0	5.216581951597225e+17
19562.0	5.215642983945556e+17
19563.0	5.2148135589314554e+17
19564.0	5.213913965308585e+17
19565.0	5.213012915563178e+17
19566.0	5.212092116937385e+17
19567.0	5.211207548709546e+17
19568.0	5.210285909824853e+17
19569.0	5.2093889075828045e+17
19570.0	5.208503005566294e+17
19571.0	5.2075980061846176e+17
19572.0	5.206663592148992e+17
19573.0	5.2057660712113485e+17
19574.0	5.2047906403778554e+17
19575.0	5.2039881826413216e+17
19576.0	5.2030662166009165e+17
19577.0	5.202121012019198e+17
19578.0	5.201246558355455e+17
19579.0	5.2003339155537914e+17
19580.0	5.1994309532057594e+17
19581.0	5.1985432860863136e+17
19582.0	5.1976458714043725e+17
19583.0	5.19673913348369e+17
19584.0	5.1958300474518176e+17
19585.0	5.1948064233663136e+17
19586.0	5.193870949569877e+17
19587.0	5.193053720193706e+17
19588.0	5.191903658115072e+17
19589.0	5.1912195978909005e+17
19590.0	5.190276261172564e+17
19591.0	5.189466575951189e+17
19592.0	5.1885706824034976e+17
19593.0	5.187629100302336e+17
19594.0	5.186491897959764e+17
19595.0	5.185825176289279e+17
19596.0	5.1849109948770976e+17
19597.0	5.184001926321492e+17
19598.0	5.182710680474964e+17
19599.0	5.1821785707970554e+17
19600.0	5.1812937935530656e+17
19601.0	5.1803268834481485e+17
19602.0	5.179366314431828e+17
19603.0	5.178313911129427e+17
19604.0	5.177570638517588e+17
19605.0	5.1765057557626874e+17
19606.0	5.1758315095108256e+17
19607.0	5.1749406687013536e+17
19608.0	5.1740198071610016e+17
19609.0	5.1730872288324256e+17
19610.0	5.17213375238417e+17
19611.0	5.171182259841706e+17
19612.0	5.170406384904873e+17
19613.0	5.1694864104598176e+17
19614.0	5.168546466234367e+17
19615.0	5.1676654163285325e+17
19616.0	5.166645202212181e+17
19617.0	5.165665974135466e+17
19618.0	5.16440027509555e+17
19619.0	5.163340526168747e+17
19620.0	5.1626102146553165e+17
19621.0	5.161980404957184e+17
19622.0	5.161294956418389e+17
19623.0	5.160387929789781e+17
19624.0	5.1594546258466125e+17
19625.0	5.158580135832234e+17
19626.0	5.1576585367934285e+17
19627.0	5.1567294656020474e+17
19628.0	5.1557570378902176e+17
19629.0	5.154276055711742e+17
19630.0	5.153270852310356e+17
19631.0	5.1516828958064634e+17
19632.0	5.151912927515989e+17
19633.0	5.1511878553873056e+17
19634.0	5.150379390009343e+17
19635.0	5.1494433863325005e+17
19636.0	5.148405972773546e+17
19637.0	5.147189431675562e+17
19638.0	5.146773431517183e+17
19639.0	5.1458698938504525e+17
19640.0	5.144739101802496e+17
19641.0	5.1431535626158086e+17
19642.0	5.143125951512575e+17
19643.0	5.142230453627562e+17
19644.0	5.1412657014920525e+17
19645.0	5.140288494370814e+17
19646.0	5.1393362531450874e+17
19647.0	5.1386464690940576e+17
19648.0	5.1377440946476365e+17
19649.0	5.1368393532156576e+17
19650.0	5.1359408550051834e+17
19651.0	5.13503021428463e+17
19652.0	5.1341248164440736e+17
19653.0	5.1332269935165434e+17
19654.0	5.1323153671345485e+17
19655.0	5.1314089374952083e+17
