# Flux units: erg / (cm m2 s)
# Wavelength units: Angstrom
wave	flux
19000.0	6.819696700205737e+17
19001.0	6.818359420474708e+17
19002.0	6.817170533122047e+17
19003.0	6.815898504178346e+17
19004.0	6.814627460896084e+17
19005.0	6.813377461136042e+17
19006.0	6.812112510779391e+17
19007.0	6.810702276722687e+17
19008.0	6.809536263006889e+17
19009.0	6.808254729770323e+17
19010.0	6.806702501746004e+17
19011.0	6.805736001284778e+17
19012.0	6.803901743366141e+17
19013.0	6.803242335862783e+17
19014.0	6.801933754957823e+17
19015.0	6.800682608754687e+17
19016.0	6.79940593951266e+17
19017.0	6.798173667677524e+17
19018.0	6.796871254496595e+17
19019.0	6.795635798485672e+17
19020.0	6.794354208626004e+17
19021.0	6.793102392033279e+17
19022.0	6.791844613936467e+17
19023.0	6.790545045891753e+17
19024.0	6.789283098656767e+17
19025.0	6.787972370268159e+17
19026.0	6.786684078609748e+17
19027.0	6.784931158731433e+17
19028.0	6.784222785525076e+17
19029.0	6.782946192479572e+17
19030.0	6.781694069003604e+17
19031.0	6.780425289946452e+17
19032.0	6.779154986958847e+17
19033.0	6.777815912065706e+17
19034.0	6.776596914503679e+17
19035.0	6.775302806044671e+17
19036.0	6.73718860565708e+17
19037.0	6.772863636515497e+17
19038.0	6.771625443022164e+17
19039.0	6.770379676712959e+17
19040.0	6.769111380000767e+17
19041.0	6.767841475472042e+17
19042.0	6.766474082735444e+17
19043.0	6.76530352099601e+17
19044.0	6.76402122789137e+17
19045.0	6.762741499603626e+17
19046.0	6.761453918879743e+17
19047.0	6.760210214770003e+17
19048.0	6.758791912270505e+17
19049.0	6.757569800437759e+17
19050.0	6.756367553527805e+17
19051.0	6.74940311306239e+17
19052.0	6.75288473211153e+17
19053.0	6.752555451984553e+17
19054.0	6.751324994185897e+17
19055.0	6.749857353389396e+17
19056.0	6.748766260428797e+17
19057.0	6.747505354779305e+17
19058.0	6.746170524521812e+17
19059.0	6.74496212247074e+17
19060.0	6.743685875455316e+17
19061.0	6.742433053627731e+17
19062.0	6.741158739487401e+17
19063.0	6.73988955078656e+17
19064.0	6.7385347290781e+17
19065.0	6.73721809441041e+17
19066.0	6.736023996334079e+17
19067.0	6.734807737652564e+17
19068.0	6.73353803375138e+17
19069.0	6.73226806141474e+17
19070.0	6.730979294401875e+17
19071.0	6.729709219304787e+17
19072.0	6.728439901279571e+17
19073.0	6.727182631392596e+17
19074.0	6.725916281536511e+17
19075.0	6.724645898857129e+17
19076.0	6.723359951814655e+17
19077.0	6.722095137073833e+17
19078.0	6.720815019414868e+17
19079.0	6.71956328391202e+17
19080.0	6.718281814289065e+17
19081.0	6.716992327254015e+17
19082.0	6.715720003310932e+17
19083.0	6.714400840876032e+17
19084.0	6.713037267053225e+17
19085.0	6.711937887546025e+17
19086.0	6.710327078376788e+17
19087.0	6.708311680352256e+17
19088.0	6.707972804356778e+17
19089.0	6.706156112183295e+17
19090.0	6.705540075181395e+17
19091.0	6.704287171564884e+17
19092.0	6.702735833432061e+17
19093.0	6.701778748484266e+17
19094.0	6.700512117609812e+17
19095.0	6.699242871586815e+17
19096.0	6.697963464862377e+17
19097.0	6.696706784974164e+17
19098.0	6.695427210477567e+17
19099.0	6.694155915537065e+17
19100.0	6.692840391660884e+17
19101.0	6.691611062829055e+17
19102.0	6.690289325091498e+17
19103.0	6.689095532500308e+17
19104.0	6.687825848172543e+17
19105.0	6.686523706223273e+17
19106.0	6.685082284720127e+17
19107.0	6.683991143525034e+17
19108.0	6.6827214927517e+17
19109.0	6.678352075860645e+17
19110.0	6.680087460752041e+17
19111.0	6.678918260763305e+17
19112.0	6.677664460264788e+17
19113.0	6.676409562955775e+17
19114.0	6.675140119800489e+17
19115.0	6.673757678600191e+17
19116.0	6.672587794240852e+17
19117.0	6.671315097004714e+17
19118.0	6.669825632545449e+17
19119.0	6.665722974786897e+17
19120.0	6.667203250225151e+17
19121.0	6.666032428438867e+17
19122.0	6.664998336768682e+17
19123.0	6.663730458787839e+17
19124.0	6.662268012636841e+17
19125.0	6.661171299308883e+17
19126.0	6.659917899366399e+17
19127.0	6.657366741221373e+17
19128.0	6.656485494183252e+17
19129.0	6.656063833811625e+17
19130.0	6.654843826820436e+17
19131.0	6.653560861928106e+17
19132.0	6.652320909623295e+17
19133.0	6.650837847769087e+17
19134.0	6.64937696469538e+17
19135.0	6.648506127919785e+17
19136.0	6.647255216597673e+17
19137.0	6.645866969781588e+17
19138.0	6.644683927191551e+17
19139.0	6.643451965035862e+17
19140.0	6.642188020613119e+17
19141.0	6.640921377155753e+17
19142.0	6.639624624887123e+17
19143.0	6.638346605079209e+17
19144.0	6.637092874485759e+17
19145.0	6.635847375213908e+17
19146.0	6.634125658161152e+17
19147.0	6.633247021378218e+17
19148.0	6.632023391207423e+17
19149.0	6.630760456213844e+17
19150.0	6.629512421485225e+17
19151.0	6.628251547293012e+17
19152.0	6.626944049916585e+17
19153.0	6.625683723780095e+17
19154.0	6.624352620161705e+17
19155.0	6.623169105013417e+17
19156.0	6.62190381142289e+17
19157.0	6.620544015968937e+17
19158.0	6.617301585494013e+17
19159.0	6.618057104774484e+17
19160.0	6.616790624894975e+17
19161.0	6.615472238406314e+17
19162.0	6.60948715604105e+17
19163.0	6.61286217126161e+17
19164.0	6.611766875608404e+17
19165.0	6.610394273546237e+17
19166.0	6.609039474207402e+17
19167.0	6.607515333339817e+17
19168.0	6.606677487561385e+17
19169.0	6.605347594698751e+17
19170.0	6.604168766685183e+17
19171.0	6.60262478885683e+17
19172.0	6.601605707202559e+17
19173.0	6.60035961094144e+17
19174.0	6.599071494045695e+17
19175.0	6.597847148746068e+17
19176.0	6.596578903064575e+17
19177.0	6.595194466773672e+17
19178.0	6.593906366655146e+17
19179.0	6.59237201125922e+17
19180.0	6.591444519223295e+17
19181.0	6.590146356969471e+17
19182.0	6.588941820668586e+17
19183.0	6.5876927198877e+17
19184.0	6.58640511050274e+17
19185.0	6.585159918813183e+17
19186.0	6.583894349097642e+17
19187.0	6.582564364659369e+17
19188.0	6.581343404862122e+17
19189.0	6.58004737331473e+17
19190.0	6.578756460216319e+17
19191.0	6.577467676426239e+17
19192.0	6.576272031350783e+17
19193.0	6.574975188205568e+17
19194.0	6.573706381186388e+17
19195.0	6.572444326996649e+17
19196.0	6.571150879140522e+17
19197.0	6.569830443734356e+17
19198.0	6.568341808349183e+17
19199.0	6.539167083266039e+17
19200.0	6.546287777633631e+17
19201.0	6.564567371655849e+17
19202.0	6.563491775949481e+17
19203.0	6.562193376717482e+17
19204.0	6.560984012073642e+17
19205.0	6.559744925892608e+17
19206.0	6.558477063989929e+17
19207.0	6.557144127460691e+17
19208.0	6.554063495058774e+17
19209.0	6.552142693269504e+17
19210.0	6.550879625456298e+17
19211.0	6.549605121873235e+17
19212.0	6.548327915061247e+17
19213.0	6.546749479627434e+17
19214.0	6.545342976404138e+17
19215.0	6.544384725439827e+17
19216.0	6.543226477477887e+17
19217.0	6.541953034354687e+17
19218.0	6.540062280559272e+17
19219.0	6.539282061022548e+17
19220.0	6.538091765781844e+17
19221.0	6.536601398149119e+17
19222.0	6.535561964333738e+17
19223.0	6.534272045285376e+17
19224.0	6.532972926031188e+17
19225.0	6.531622948743849e+17
19226.0	6.53043152523537e+17
19227.0	6.529148511409491e+17
19228.0	6.527887865806847e+17
19229.0	6.526605380463274e+17
19230.0	6.525287892953769e+17
19231.0	6.524006371601066e+17
19232.0	6.522743972779348e+17
19233.0	6.521412622396074e+17
19234.0	6.520168960229376e+17
19235.0	6.518884312023039e+17
19236.0	6.517614283063295e+17
19237.0	6.516315489566719e+17
19238.0	6.514928350046889e+17
19239.0	6.513752037916671e+17
19240.0	6.512433922659667e+17
19241.0	6.511147853982378e+17
19242.0	6.509870167621631e+17
19243.0	6.508467910432084e+17
19244.0	6.507300755865599e+17
19245.0	6.506007752605695e+17
19246.0	6.504702323720191e+17
19247.0	6.503418629718015e+17
19248.0	6.502115950198783e+17
19249.0	6.500810999463935e+17
19250.0	6.499509339160573e+17
19251.0	6.498135807361023e+17
19252.0	6.496723646021632e+17
19253.0	6.495613564747776e+17
19254.0	6.494325707898879e+17
19255.0	6.492891184627711e+17
19256.0	6.491673330013523e+17
19257.0	6.490417074449065e+17
19258.0	6.489113096093695e+17
19259.0	6.487752472963753e+17
19260.0	6.485819510489085e+17
19261.0	6.48517761770018e+17
19262.0	6.483833555080532e+17
19263.0	6.482520206650025e+17
19264.0	6.480857988595711e+17
19265.0	6.47979365179938e+17
19266.0	6.47847992098816e+17
19267.0	6.477303620741802e+17
19268.0	6.474420865116838e+17
19269.0	6.471563683561472e+17
19270.0	6.470234262558036e+17
19271.0	6.468662907808426e+17
19272.0	6.467548721010004e+17
19273.0	6.465270000386045e+17
19274.0	6.464235508858879e+17
19275.0	6.463571354102442e+17
19276.0	6.46221918249506e+17
19277.0	6.460882234114047e+17
19278.0	6.459542546153472e+17
19279.0	6.458160611065855e+17
19280.0	6.456794694025215e+17
19281.0	6.455494289216852e+17
19282.0	6.45414602739985e+17
19283.0	6.452386406421844e+17
19284.0	6.451118681533098e+17
19285.0	6.449944785321984e+17
19286.0	6.44869684007185e+17
19287.0	6.447350158808403e+17
19288.0	6.435801216843763e+17
19289.0	6.420889037264174e+17
19290.0	6.443241336122025e+17
19291.0	6.441690680262655e+17
19292.0	6.440507462909951e+17
19293.0	6.439122547070291e+17
19294.0	6.437736947559082e+17
19295.0	6.435813715170643e+17
19296.0	6.431187653012138e+17
19297.0	6.429766859096063e+17
19298.0	6.428368210406057e+17
19299.0	6.426960502019412e+17
19300.0	6.425558206382079e+17
19301.0	6.424134538668714e+17
19302.0	6.422703068151808e+17
19303.0	6.421224103433556e+17
19304.0	6.419825182812842e+17
19305.0	6.418398407819263e+17
19306.0	6.41694222656034e+17
19307.0	6.415452893522602e+17
19308.0	6.414013582453417e+17
19309.0	6.411597413788329e+17
19310.0	6.409807578442409e+17
19311.0	6.409530652317012e+17
19312.0	6.405696778141693e+17
19313.0	6.402198707634176e+17
19314.0	6.371337688492727e+17
19315.0	6.371706964104567e+17
19316.0	6.39755060580625e+17
19317.0	6.396149018307241e+17
19318.0	6.394618202204842e+17
19319.0	6.393095235742378e+17
19320.0	6.391542465254739e+17
19321.0	6.389983160041471e+17
19322.0	6.388308957462527e+17
19323.0	6.38601953856717e+17
19324.0	6.382572460310527e+17
19325.0	6.3801055510528e+17
19326.0	6.379376486645759e+17
19327.0	6.377774721794047e+17
19328.0	6.376135636025344e+17
19329.0	6.374521509860692e+17
19330.0	6.372842816580265e+17
19331.0	6.371176632112468e+17
19332.0	6.369523120734207e+17
19333.0	6.367835912317609e+17
19334.0	6.366155903423828e+17
19335.0	6.364405804914004e+17
19336.0	6.362717968749908e+17
19337.0	6.361000881509716e+17
19338.0	6.359109950155434e+17
19339.0	6.357493657632767e+17
19340.0	6.355672306286591e+17
19341.0	6.353908665068202e+17
19342.0	6.351824522401107e+17
19343.0	6.350323732621993e+17
19344.0	6.348474316488701e+17
19345.0	6.345255495750994e+17
19346.0	6.344175212909907e+17
19347.0	6.342826583392255e+17
19348.0	6.341000476404393e+17
19349.0	6.339050825493162e+17
19350.0	6.337103508712105e+17
19351.0	6.335164242897578e+17
19352.0	6.333126752774825e+17
19353.0	6.331205072278868e+17
19354.0	6.329185272332285e+17
19355.0	6.327072435033428e+17
19356.0	6.325072832757759e+17
19357.0	6.322984533535402e+17
19358.0	6.32085789418018e+17
19359.0	6.318684669389482e+17
19360.0	6.316540911681535e+17
19361.0	6.314374638250665e+17
19362.0	6.312198431309823e+17
19363.0	6.309959473386835e+17
19364.0	6.307690461877588e+17
19365.0	6.305392731269801e+17
19366.0	6.303063723737087e+17
19367.0	6.300703769231359e+17
19368.0	6.298311506001919e+17
19369.0	6.295831596498941e+17
19370.0	6.293310523397459e+17
19371.0	6.290889360714409e+17
19372.0	6.288393296150527e+17
19373.0	6.285803424579583e+17
19374.0	6.283213046895956e+17
19375.0	6.280561323322025e+17
19376.0	6.277873269385897e+17
19377.0	6.275155723201193e+17
19378.0	6.272408416332457e+17
19379.0	6.269421419670185e+17
19380.0	6.266559190269951e+17
19381.0	6.263673021879636e+17
19382.0	6.260684298562218e+17
19383.0	6.257675876696063e+17
19384.0	6.2547200325277e+17
19385.0	6.251637278507007e+17
19386.0	6.248506123616255e+17
19387.0	6.245318465159167e+17
19388.0	6.242074710682282e+17
19389.0	6.238772656777898e+17
19390.0	6.235394518198953e+17
19391.0	6.201454291320788e+17
19392.0	6.227985041107621e+17
19393.0	6.224917118145875e+17
19394.0	6.221275435368447e+17
19395.0	6.217542448884394e+17
19396.0	6.213824534631766e+17
19397.0	6.210138965453482e+17
19398.0	6.205907099364009e+17
19399.0	6.201463964084905e+17
19400.0	6.198005584276137e+17
19401.0	6.194118270473555e+17
19402.0	6.190135253139456e+17
19403.0	6.186089780521642e+17
19404.0	6.181955622141951e+17
19405.0	6.177447581406547e+17
19406.0	6.172351685896874e+17
19407.0	6.167883189059583e+17
19408.0	6.162831568622934e+17
19409.0	6.158680728797183e+17
19410.0	6.152755202053459e+17
19411.0	6.147606835800744e+17
19412.0	6.142611122640212e+17
19413.0	6.135769301254141e+17
19414.0	6.130034688043689e+17
19415.0	6.122984606881107e+17
19416.0	6.115803274062505e+17
19417.0	6.106679854759931e+17
19418.0	6.098381030031356e+17
19419.0	6.088100333049175e+17
19420.0	6.07578805781572e+17
19421.0	6.061079824171007e+17
19422.0	6.043115597070341e+17
19423.0	6.021627645001724e+17
19424.0	6.003085184860159e+17
19425.0	5.991369244584618e+17
19426.0	5.978742890779988e+17
19427.0	5.965642986771796e+17
19428.0	5.952277126840319e+17
19429.0	5.938522889038505e+17
19430.0	5.923914839141036e+17
19431.0	5.903936532425394e+17
19432.0	5.893224418421417e+17
19433.0	5.87638557970705e+17
19434.0	5.858624059124393e+17
19435.0	5.838329829042857e+17
19436.0	5.814357555063464e+17
19437.0	5.789972839093588e+17
19438.0	5.7146520570429504e+17
19439.0	5.704338090142382e+17
19440.0	5.6497593402436224e+17
19441.0	5.6104168148609683e+17
19442.0	5.568502721850027e+17
19443.0	5.521359989899262e+17
19444.0	5.46672435405346e+17
19445.0	5.39515973970603e+17
19446.0	5.291489060629154e+17
19447.0	5.178059311983269e+17
19448.0	5.0393271182732006e+17
19449.0	4.824909724603734e+17
19450.0	4.4464493245234976e+17
19451.0	4.313645812372794e+17
19452.0	4.653252022894599e+17
19453.0	4.945731924961971e+17
19454.0	5.1119286778156314e+17
19455.0	5.2284441171940685e+17
19456.0	5.34035010455688e+17
19457.0	5.4236779709289805e+17
19458.0	5.429639741352697e+17
19459.0	5.529019294416913e+17
19460.0	5.5728158791434214e+17
19461.0	5.6109393866915834e+17
19462.0	5.6549531440906323e+17
19463.0	5.7082836208844717e+17
19464.0	5.747470792742232e+17
19465.0	5.775901401459375e+17
19466.0	5.797366104500904e+17
19467.0	5.815968989183999e+17
19468.0	5.832207053968726e+17
19469.0	5.847475629850621e+17
19470.0	5.861466449466708e+17
19471.0	5.875194911173289e+17
19472.0	5.887364288566612e+17
19473.0	5.898969471254527e+17
19474.0	5.910283932052138e+17
19475.0	5.920718139861673e+17
19476.0	5.931822775009279e+17
19477.0	5.941705244497236e+17
19478.0	5.953196054806528e+17
19479.0	5.972740880902836e+17
19480.0	5.990370642318679e+17
19481.0	6.003699293880323e+17
19482.0	6.014369137688573e+17
19483.0	6.022887964147712e+17
19484.0	6.030807231627263e+17
19485.0	6.037052077725011e+17
19486.0	6.041647369071273e+17
19487.0	6.047476893788838e+17
19488.0	6.050801034199039e+17
19489.0	6.055038310241619e+17
19490.0	6.057588556824573e+17
19491.0	6.061114328612863e+17
19492.0	6.064562287673344e+17
19493.0	6.067444207233706e+17
19494.0	6.069723854798847e+17
19495.0	6.071906066584916e+17
19496.0	6.073929260422483e+17
19497.0	6.076878540505087e+17
19498.0	6.075255095995052e+17
19499.0	6.032608033680019e+17
19500.0	6.082207359696895e+17
19501.0	6.08386042438178e+17
19502.0	6.085426134996308e+17
19503.0	6.086992473358335e+17
19504.0	6.088724698540713e+17
19505.0	6.090429028106239e+17
19506.0	6.091824433201151e+17
19507.0	6.093157125062655e+17
19508.0	6.094472249081855e+17
19509.0	6.095721392504831e+17
19510.0	6.096752807510015e+17
19511.0	6.04034529423084e+17
19512.0	6.091331632540319e+17
19513.0	6.086509394395114e+17
19514.0	6.090862773665777e+17
19515.0	6.10102101025314e+17
19516.0	6.102550284249769e+17
19517.0	6.103269700359508e+17
19518.0	6.104002798987946e+17
19519.0	6.104624461250559e+17
19520.0	6.105209549881343e+17
19521.0	6.105791135569236e+17
19522.0	6.106266448079529e+17
19523.0	6.106736187757908e+17
19524.0	6.107169250344957e+17
19525.0	6.107698402339497e+17
19526.0	6.108044823887872e+17
19527.0	6.108343886151679e+17
19528.0	6.108599675781119e+17
19529.0	6.108824610712233e+17
19530.0	6.109011227181056e+17
19531.0	6.109156634613076e+17
19532.0	6.109265950758227e+17
19533.0	6.109340153588393e+17
19534.0	6.109378077786112e+17
19535.0	6.109379027096916e+17
19536.0	6.109333695758335e+17
19537.0	6.109306546727594e+17
19538.0	6.109130562819412e+17
19539.0	6.108723202228224e+17
19540.0	6.108939626916522e+17
19541.0	6.108785742796118e+17
19542.0	6.108584360280063e+17
19543.0	6.108343769410218e+17
19544.0	6.108110919128404e+17
19545.0	6.107514547819859e+17
19546.0	6.106931195630932e+17
19547.0	6.107244326289407e+17
19548.0	6.106908836495359e+17
19549.0	6.106484410679295e+17
19550.0	6.106176085994153e+17
19551.0	6.105780091966804e+17
19552.0	6.105361884905471e+17
19553.0	6.104908874208596e+17
19554.0	6.104443858714623e+17
19555.0	6.103987317811882e+17
19556.0	6.103507779540308e+17
19557.0	6.102997378880852e+17
19558.0	6.102475032843604e+17
19559.0	6.101935195160575e+17
19560.0	6.101355094955348e+17
19561.0	6.100792122190506e+17
19562.0	6.100222428053504e+17
19563.0	6.099632019647146e+17
19564.0	6.099021149328724e+17
19565.0	6.098397035495423e+17
19566.0	6.097737943962964e+17
19567.0	6.097110110481065e+17
19568.0	6.096430919144787e+17
19569.0	6.095771768892073e+17
19570.0	6.095097001148415e+17
19571.0	6.094401886836052e+17
19572.0	6.093680688147114e+17
19573.0	6.092973592805376e+17
19574.0	6.092199966714538e+17
19575.0	6.091533163954175e+17
19576.0	6.090791417369939e+17
19577.0	6.090031687707305e+17
19578.0	6.089249976396457e+17
19579.0	6.088489339366057e+17
19580.0	6.087712824797866e+17
19581.0	6.087307944438438e+17
19582.0	6.088546547575465e+17
19583.0	6.087732271688362e+17
19584.0	6.086893656255146e+17
19585.0	6.086001894795945e+17
19586.0	6.085131713729876e+17
19587.0	6.084238103281663e+17
19588.0	6.083223155813034e+17
19589.0	6.082680583443795e+17
19590.0	6.081765344367956e+17
19591.0	6.080976081212756e+17
19592.0	6.080106860642303e+17
19593.0	6.079216506372096e+17
19594.0	6.078163524255741e+17
19595.0	6.080543547108008e+17
19596.0	6.07865743011567e+17
19597.0	6.079599255486464e+17
19598.0	6.078483788726271e+17
19599.0	6.077811269828607e+17
19600.0	6.076891597373439e+17
19601.0	6.075911752034986e+17
19602.0	6.074989654573055e+17
19603.0	6.073350916232531e+17
19604.0	6.073057509987668e+17
19605.0	6.071987185123327e+17
19606.0	6.071253629315753e+17
19607.0	6.070304874954751e+17
19608.0	6.069342555515561e+17
19609.0	6.068352237000022e+17
19610.0	6.067420465375914e+17
19611.0	6.066448203339092e+17
19612.0	6.065498252902399e+17
19613.0	6.06452018245359e+17
19614.0	6.06352452948241e+17
19615.0	6.06257008345088e+17
19616.0	6.064054816036177e+17
19617.0	6.063886616057171e+17
19618.0	6.062499542947156e+17
19619.0	6.061406488450388e+17
19620.0	6.060428151663273e+17
19621.0	6.059899979038719e+17
19622.0	6.058916322476032e+17
19623.0	6.057912283693055e+17
19624.0	6.056898524610559e+17
19625.0	6.055895511334911e+17
19626.0	6.05488406471202e+17
19627.0	6.053861358480041e+17
19628.0	6.052161797838166e+17
19629.0	6.051686135802538e+17
19630.0	6.048892548284415e+17
19631.0	6.019507726319616e+17
19632.0	6.048688275892905e+17
19633.0	6.047689036092756e+17
19634.0	6.046738577446228e+17
19635.0	6.045687893109417e+17
19636.0	6.044677522325504e+17
19637.0	6.043378449907711e+17
19638.0	6.042634029454676e+17
19639.0	6.041623583173289e+17
19640.0	6.040642836758528e+17
19641.0	6.039101019695788e+17
19642.0	6.038640116716884e+17
19643.0	6.037594747262292e+17
19644.0	6.036528815931391e+17
19645.0	6.035337420384937e+17
19646.0	6.0344772343453e+17
19647.0	6.033458168769193e+17
19648.0	6.032418049884159e+17
19649.0	6.031373916351145e+17
19650.0	6.030332712539476e+17
19651.0	6.029283917037567e+17
19652.0	6.028241322115071e+17
19653.0	6.027181951374676e+17
19654.0	6.026150133017258e+17
19655.0	6.025098834214912e+17
19656.0	6.024612959049044e+17
19657.0	6.025627667442345e+17
19658.0	6.024571027193853e+17
19659.0	6.023516796573012e+17
19660.0	6.022462077315753e+17
19661.0	6.021405375550804e+17
19662.0	6.020347765719039e+17
19663.0	6.019243347454633e+17
19664.0	6.01810831286818e+17
