# Flux units: erg / (cm m2 s)
# Wavelength units: Angstrom
wave	flux
19000.0	6.884615762826579e+17
19001.0	6.883276714497364e+17
19002.0	6.882072723455999e+17
19003.0	6.880799199242921e+17
19004.0	6.879525572269396e+17
19005.0	6.878254432518144e+17
19006.0	6.876980864264873e+17
19007.0	6.875699485518505e+17
19008.0	6.874391234565459e+17
19009.0	6.873100224299007e+17
19010.0	6.871569843705171e+17
19011.0	6.870585628601002e+17
19012.0	6.869258917117951e+17
19013.0	6.868057186107391e+17
19014.0	6.866733376383657e+17
19015.0	6.865471956931923e+17
19016.0	6.864187194780329e+17
19017.0	6.862941982818301e+17
19018.0	6.861661022803284e+17
19019.0	6.860385609056255e+17
19020.0	6.859094321266687e+17
19021.0	6.857837686816768e+17
19022.0	6.856564372318889e+17
19023.0	6.85525677707537e+17
19024.0	6.85398841954577e+17
19025.0	6.852723295824553e+17
19026.0	6.851428052806313e+17
19027.0	6.850139143187113e+17
19028.0	6.848892693206355e+17
19029.0	6.847602272938665e+17
19030.0	6.846334071996415e+17
19031.0	6.845054604454569e+17
19032.0	6.84377483771904e+17
19033.0	6.84243333292578e+17
19034.0	6.841205166615209e+17
19035.0	6.839907079858857e+17
19036.0	6.836483372264104e+17
19037.0	6.837372036928852e+17
19038.0	6.836076819775487e+17
19039.0	6.834813393349289e+17
19040.0	6.833532749305171e+17
19041.0	6.83225146073634e+17
19042.0	6.830915539260755e+17
19043.0	6.82969007268386e+17
19044.0	6.828407353857364e+17
19045.0	6.827127581529427e+17
19046.0	6.825811939513684e+17
19047.0	6.824594071617535e+17
19048.0	6.823275037108905e+17
19049.0	6.822088044183551e+17
19050.0	6.820820581438804e+17
19051.0	6.819199503215273e+17
19052.0	6.818227808807593e+17
19053.0	6.817002876305407e+17
19054.0	6.815720339232083e+17
19055.0	6.814264232771583e+17
19056.0	6.813141275683498e+17
19057.0	6.811867529172308e+17
19058.0	6.810583603784361e+17
19059.0	6.809308033449983e+17
19060.0	6.808010178778451e+17
19061.0	6.806743812844202e+17
19062.0	6.805457897259007e+17
19063.0	6.804176542979412e+17
19064.0	6.802816884539391e+17
19065.0	6.801492147874473e+17
19066.0	6.800289010373972e+17
19067.0	6.799046205942442e+17
19068.0	6.797764368618835e+17
19069.0	6.796482137030655e+17
19070.0	6.795182807362217e+17
19071.0	6.793916970609321e+17
19072.0	6.792634169993898e+17
19073.0	6.791347783248553e+17
19074.0	6.790068693893119e+17
19075.0	6.788785861121363e+17
19076.0	6.787488908924243e+17
19077.0	6.786211210679636e+17
19078.0	6.784919396504916e+17
19079.0	6.783654695709354e+17
19080.0	6.782367038788948e+17
19081.0	6.781062705315839e+17
19082.0	6.7797757998749e+17
19083.0	6.778447558169939e+17
19084.0	6.777080336700758e+17
19085.0	6.77595800526302e+17
19086.0	6.77442016649762e+17
19087.0	6.773327626502143e+17
19088.0	6.772058602078207e+17
19089.0	6.770671953990996e+17
19090.0	6.76952379822353e+17
19091.0	6.768242827722751e+17
19092.0	6.76693486477858e+17
19093.0	6.765696707635881e+17
19094.0	6.764409794505385e+17
19095.0	6.763126223536128e+17
19096.0	6.761838091261267e+17
19097.0	6.760565173824169e+17
19098.0	6.759284689862655e+17
19099.0	6.7580020668061e+17
19100.0	6.756715726198099e+17
19101.0	6.755435477816659e+17
19102.0	6.754088913294676e+17
19103.0	6.752872704944809e+17
19104.0	6.751590380382889e+17
19105.0	6.75030781464849e+17
19106.0	6.749013890738857e+17
19107.0	6.747733103389353e+17
19108.0	6.746460260051625e+17
19109.0	6.744996900940457e+17
19110.0	6.743889541769897e+17
19111.0	6.742614525782698e+17
19112.0	6.741332683565737e+17
19113.0	6.740050679169023e+17
19114.0	6.73876853006882e+17
19115.0	6.737459192091987e+17
19116.0	6.736188684981587e+17
19117.0	6.734907559990611e+17
19118.0	6.733578774424233e+17
19119.0	6.72970562828151e+17
19120.0	6.731057389546154e+17
19121.0	6.729779850685098e+17
19122.0	6.728512671754922e+17
19123.0	6.727230120700586e+17
19124.0	6.725937495627092e+17
19125.0	6.724665042359636e+17
19126.0	6.723380008277331e+17
19127.0	6.720930257917267e+17
19128.0	6.720782403108863e+17
19129.0	6.719482765159081e+17
19130.0	6.718251250395817e+17
19131.0	6.716974147043327e+17
19132.0	6.715690739651923e+17
19133.0	6.71431546511906e+17
19134.0	6.713106862440447e+17
19135.0	6.711844448938665e+17
19136.0	6.710567072956415e+17
19137.0	6.709176512282623e+17
19138.0	6.707992701435903e+17
19139.0	6.706721087728297e+17
19140.0	6.705440375177215e+17
19141.0	6.704158479832404e+17
19142.0	6.702859800281087e+17
19143.0	6.701559501728425e+17
19144.0	6.700295100126547e+17
19145.0	6.699031009602218e+17
19146.0	6.697355274005162e+17
19147.0	6.696403657730729e+17
19148.0	6.695184346994003e+17
19149.0	6.693902687928319e+17
19150.0	6.692615221848746e+17
19151.0	6.691339333446313e+17
19152.0	6.69005349265954e+17
19153.0	6.68876121781043e+17
19154.0	6.687406630982995e+17
19155.0	6.68621046161954e+17
19156.0	6.684926251717971e+17
19157.0	6.683640255741951e+17
19158.0	6.682238074748927e+17
19159.0	6.679467533533187e+17
19160.0	6.676563679860052e+17
19161.0	6.675282717747881e+17
19162.0	6.673716895285247e+17
19163.0	6.672709043180883e+17
19164.0	6.671436153006762e+17
19165.0	6.670146871492607e+17
19166.0	6.668789915582463e+17
19167.0	6.667560282663593e+17
19168.0	6.66628640612898e+17
19169.0	6.665003760003753e+17
19170.0	6.663735394784596e+17
19171.0	6.662435769417727e+17
19172.0	6.661168266128041e+17
19173.0	6.659884511308457e+17
19174.0	6.65856258412817e+17
19175.0	6.657316930366121e+17
19176.0	6.656032566673407e+17
19177.0	6.654645910197588e+17
19178.0	6.653454780290388e+17
19179.0	6.652155296830804e+17
19180.0	6.650887046255955e+17
19181.0	6.649532764913663e+17
19182.0	6.648306409843369e+17
19183.0	6.647035477710163e+17
19184.0	6.645735035153066e+17
19185.0	6.644459519344639e+17
19186.0	6.643175944181076e+17
19187.0	6.641840304422911e+17
19188.0	6.64060149436689e+17
19189.0	6.639318182745427e+17
19190.0	6.638029683468969e+17
19191.0	6.636719748502868e+17
19192.0	6.635454661132287e+17
19193.0	6.634164090568704e+17
19194.0	6.632869062159017e+17
19195.0	6.63158850200098e+17
19196.0	6.630291353370624e+17
19197.0	6.629000979939328e+17
19198.0	6.627704937906175e+17
19199.0	6.624731895693311e+17
19200.0	6.623961594287444e+17
19201.0	6.623837477841578e+17
19202.0	6.622557783108265e+17
19203.0	6.621269399175168e+17
19204.0	6.619961549477203e+17
19205.0	6.618686960609961e+17
19206.0	6.617385590412628e+17
19207.0	6.616034821799933e+17
19208.0	6.614671325571753e+17
19209.0	6.613508096873812e+17
19210.0	6.612223545835519e+17
19211.0	6.610929026334719e+17
19212.0	6.609634540388351e+17
19213.0	6.608282141589504e+17
19214.0	6.606961657948841e+17
19215.0	6.605740688364884e+17
19216.0	6.604448721797119e+17
19217.0	6.603152454669652e+17
19218.0	6.601307564889427e+17
19219.0	6.600451285144916e+17
19220.0	6.599242225287168e+17
19221.0	6.59774481961233e+17
19222.0	6.596654135596372e+17
19223.0	6.595356955508736e+17
19224.0	6.594025243716265e+17
19225.0	6.592659102979411e+17
19226.0	6.591442354962432e+17
19227.0	6.590137163754153e+17
19228.0	6.588848265319764e+17
19229.0	6.587543420141565e+17
19230.0	6.586235766876842e+17
19231.0	6.584923317425491e+17
19232.0	6.583618342223872e+17
19233.0	6.582270415252138e+17
19234.0	6.580994391233876e+17
19235.0	6.57968623395362e+17
19236.0	6.578391348150271e+17
19237.0	6.575192623721133e+17
19238.0	6.571912431228244e+17
19239.0	6.570658530066432e+17
19240.0	6.569310703757993e+17
19241.0	6.567998360562345e+17
19242.0	6.566692021512874e+17
19243.0	6.565270911625897e+17
19244.0	6.564063287618218e+17
19245.0	6.562740747370495e+17
19246.0	6.561406523888979e+17
19247.0	6.560091518708393e+17
19248.0	6.558766300397567e+17
19249.0	6.557437074429268e+17
19250.0	6.556096574171817e+17
19251.0	6.554696723114666e+17
19252.0	6.553260863957674e+17
19253.0	6.552100483891199e+17
19254.0	6.550777990479871e+17
19255.0	6.549324282462205e+17
19256.0	6.548084083392511e+17
19257.0	6.546772384022528e+17
19258.0	6.545431926407167e+17
19259.0	6.544042899450538e+17
19260.0	6.542704256570707e+17
19261.0	6.541402666172415e+17
19262.0	6.540023448993791e+17
19263.0	6.5386670208669e+17
19264.0	6.537003880065705e+17
19265.0	6.535877424928084e+17
19266.0	6.534529814626304e+17
19267.0	6.533297507838634e+17
19268.0	6.53193996542498e+17
19269.0	6.530580336345087e+17
19270.0	6.528514044635816e+17
19271.0	6.525400661011116e+17
19272.0	6.524225270928723e+17
19273.0	6.52190665618227e+17
19274.0	6.520860934406141e+17
19275.0	6.520123573665791e+17
19276.0	6.518731039571967e+17
19277.0	6.517351457488895e+17
19278.0	6.515976519199401e+17
19279.0	6.514577583199572e+17
19280.0	6.513146888628905e+17
19281.0	6.511791411210921e+17
19282.0	6.510407242656425e+17
19283.0	6.508983866447188e+17
19284.0	6.507581451272192e+17
19285.0	6.506069879335593e+17
19286.0	6.504765218007721e+17
19287.0	6.503377705893887e+17
19288.0	6.501356725949779e+17
19289.0	6.499165311860732e+17
19290.0	6.499122665575763e+17
19291.0	6.497523848620714e+17
19292.0	6.496267747546452e+17
19293.0	6.494829091487743e+17
19294.0	6.493396997417641e+17
19295.0	6.491955454978729e+17
19296.0	6.490509644136445e+17
19297.0	6.489058007405907e+17
19298.0	6.48759281258769e+17
19299.0	6.486145939887444e+17
19300.0	6.484680849227775e+17
19301.0	6.483208598192128e+17
19302.0	6.481728456971604e+17
19303.0	6.480210147584682e+17
19304.0	6.478751021924351e+17
19305.0	6.477273799939412e+17
19306.0	6.475785576295081e+17
19307.0	6.474257270483625e+17
19308.0	6.472765082522963e+17
19309.0	6.471215745073151e+17
19310.0	6.469666098642943e+17
19311.0	6.468204994669226e+17
19312.0	6.466693041050964e+17
19313.0	6.465161489547264e+17
19314.0	6.46192797057024e+17
19315.0	6.460475436957697e+17
19316.0	6.460509932311894e+17
19317.0	6.458951545651199e+17
19318.0	6.457366313347753e+17
19319.0	6.455798066577408e+17
19320.0	6.454208440041471e+17
19321.0	6.452613534973951e+17
19322.0	6.450954669566634e+17
19323.0	6.449374424989695e+17
19324.0	6.447778030245204e+17
19325.0	6.44609791369762e+17
19326.0	6.444510292738047e+17
19327.0	6.442853339933353e+17
19328.0	6.441205269965481e+17
19329.0	6.439537885227689e+17
19330.0	6.437833410259626e+17
19331.0	6.436139704866132e+17
19332.0	6.434466178968233e+17
19333.0	6.432756877754367e+17
19334.0	6.431031350875476e+17
19335.0	6.429297530459476e+17
19336.0	6.427547373229395e+17
19337.0	6.425783500625236e+17
19338.0	6.423874075186516e+17
19339.0	6.422226124756308e+17
19340.0	6.420374993851732e+17
19341.0	6.41858950660096e+17
19342.0	6.416528881396393e+17
19343.0	6.414928526529876e+17
19344.0	6.413067940965034e+17
19345.0	6.409936164618237e+17
19346.0	6.408645525547689e+17
19347.0	6.407139011941716e+17
19348.0	6.405260385976317e+17
19349.0	6.403303488006826e+17
19350.0	6.401344220255572e+17
19351.0	6.399365778243583e+17
19352.0	6.39733729538867e+17
19353.0	6.395368842111657e+17
19354.0	6.393332193645908e+17
19355.0	6.391217869466282e+17
19356.0	6.389190839238655e+17
19357.0	6.387088449951059e+17
19358.0	6.38495346532898e+17
19359.0	6.382756409202004e+17
19360.0	6.380609120589139e+17
19361.0	6.378413317160957e+17
19362.0	6.376214342838953e+17
19363.0	6.373962650309971e+17
19364.0	6.371683362755924e+17
19365.0	6.369377333018623e+17
19366.0	6.367042192714409e+17
19367.0	6.364678273892351e+17
19368.0	6.362284607668223e+17
19369.0	6.359822043709439e+17
19370.0	6.357323296888148e+17
19371.0	6.354921687351293e+17
19372.0	6.352452583074474e+17
19373.0	6.349903447283027e+17
19374.0	6.347344050126847e+17
19375.0	6.344734541523625e+17
19376.0	6.342091923783679e+17
19377.0	6.339407554543615e+17
19378.0	6.336688984948735e+17
19379.0	6.333930037488298e+17
19380.0	6.331131662172159e+17
19381.0	6.328290926482771e+17
19382.0	6.325357363156308e+17
19383.0	6.322406969485994e+17
19384.0	6.319229464739839e+17
19385.0	6.316011213029376e+17
19386.0	6.31292899238434e+17
19387.0	6.309775850252969e+17
19388.0	6.306584340725759e+17
19389.0	6.303354263175167e+17
19390.0	6.300084694155263e+17
19391.0	6.294976459702268e+17
19392.0	6.293397923605162e+17
19393.0	6.290043080889683e+17
19394.0	6.286610142330879e+17
19395.0	6.282882161049599e+17
19396.0	6.278763228692479e+17
19397.0	6.27519903568145e+17
19398.0	6.271570012012544e+17
19399.0	6.267447606072659e+17
19400.0	6.264026226316627e+17
19401.0	6.259848146583553e+17
19402.0	6.254850353048233e+17
19403.0	6.250768478765055e+17
19404.0	6.246626608458408e+17
19405.0	6.241884241745235e+17
19406.0	6.236095333968553e+17
19407.0	6.231621220958208e+17
19408.0	6.225679657293139e+17
19409.0	6.219679959875583e+17
19410.0	6.214456844834127e+17
19411.0	6.206348702952106e+17
19412.0	6.199836517509801e+17
19413.0	6.191346192045396e+17
19414.0	6.181495630725119e+17
19415.0	6.171089470226432e+17
19416.0	6.158904383766524e+17
19417.0	6.144437713371144e+17
19418.0	6.127146021246294e+17
19419.0	6.110517570917711e+17
19420.0	6.099895280031059e+17
19421.0	6.089923574628351e+17
19422.0	6.079480497963007e+17
19423.0	6.06854966358835e+17
19424.0	6.057163505358164e+17
19425.0	6.0454469121693e+17
19426.0	6.033416817825107e+17
19427.0	6.020933517748905e+17
19428.0	6.007952809568937e+17
19429.0	5.994564387777193e+17
19430.0	5.979885487696553e+17
19431.0	5.964606233815722e+17
19432.0	5.94815652794641e+17
19433.0	5.930339196556632e+17
19434.0	5.909625616465915e+17
19435.0	5.884825314175665e+17
19436.0	5.851207508339369e+17
19437.0	5.806359835224749e+17
19438.0	5.756755334834859e+17
19439.0	5.7259098269286406e+17
19440.0	5.6907679004972365e+17
19441.0	5.6527745561832083e+17
19442.0	5.610301370837676e+17
19443.0	5.560473146971478e+17
19444.0	5.4973151167119277e+17
19445.0	5.406962325214561e+17
19446.0	5.310215417233407e+17
19447.0	5.205540129647268e+17
19448.0	5.05992439800355e+17
19449.0	4.8450177688316563e+17
19450.0	4.486079161827318e+17
19451.0	4.367096037244893e+17
19452.0	4.6795879808150336e+17
19453.0	4.963937157469535e+17
19454.0	5.1362555200798656e+17
19455.0	5.256182849601534e+17
19456.0	5.3486436325785696e+17
19457.0	5.4460194170251936e+17
19458.0	5.5158187033449837e+17
19459.0	5.57151410769101e+17
19460.0	5.614942831684264e+17
19461.0	5.6529594103453e+17
19462.0	5.687039609536513e+17
19463.0	5.71881369510434e+17
19464.0	5.754256095182848e+17
19465.0	5.802868720970418e+17
19466.0	5.838672029723309e+17
19467.0	5.865069487325179e+17
19468.0	5.884793817748818e+17
19469.0	5.901620306335058e+17
19470.0	5.916589013248682e+17
19471.0	5.929879157604351e+17
19472.0	5.942889115462313e+17
19473.0	5.954394856095743e+17
19474.0	5.965193512572244e+17
19475.0	5.975340312690685e+17
19476.0	5.985608107294719e+17
19477.0	5.995207875100671e+17
19478.0	6.00444698309427e+17
19479.0	6.013320272281599e+17
19480.0	6.021590871441408e+17
19481.0	6.029538844737536e+17
19482.0	6.036839687258111e+17
19483.0	6.047507874316288e+17
19484.0	6.063920808023384e+17
19485.0	6.076842928766976e+17
19486.0	6.087286958238377e+17
19487.0	6.097073486517591e+17
19488.0	6.104410976070314e+17
19489.0	6.109979916369921e+17
19490.0	6.115401129088339e+17
19491.0	6.120358527980886e+17
19492.0	6.124993498142036e+17
19493.0	6.127862303511894e+17
19494.0	6.132326972347732e+17
19495.0	6.134513670640979e+17
19496.0	6.136741359867219e+17
19497.0	6.140382345691135e+17
19498.0	6.14202878267665e+17
19499.0	6.141107034041e+17
19500.0	6.145920550830077e+17
19501.0	6.148560765932884e+17
19502.0	6.150056050687999e+17
19503.0	6.151458484038314e+17
19504.0	6.152742906451284e+17
19505.0	6.153976442869076e+17
19506.0	6.155160055884458e+17
19507.0	6.157061282856959e+17
19508.0	6.158194034343935e+17
19509.0	6.159232817343145e+17
19510.0	6.160103245174099e+17
19511.0	6.157901271924733e+17
19512.0	6.161637276210516e+17
19513.0	6.161957688879784e+17
19514.0	6.163173984610984e+17
19515.0	6.164290601309524e+17
19516.0	6.165316799299583e+17
19517.0	6.165953764480339e+17
19518.0	6.16670311883298e+17
19519.0	6.167617481299284e+17
19520.0	6.168119545080489e+17
19521.0	6.168614612063572e+17
19522.0	6.169027193864191e+17
19523.0	6.169438420904618e+17
19524.0	6.169790397109588e+17
19525.0	6.170092698075133e+17
19526.0	6.170375663998292e+17
19527.0	6.170612819034112e+17
19528.0	6.170806468651689e+17
19529.0	6.170973753573376e+17
19530.0	6.17110694859025e+17
19531.0	6.171202738804052e+17
19532.0	6.171265638683988e+17
19533.0	6.171301495788883e+17
19534.0	6.17131569979938e+17
19535.0	6.171296278074708e+17
19536.0	6.17123401572898e+17
19537.0	6.17118783644194e+17
19538.0	6.171019073028095e+17
19539.0	6.170613107042986e+17
19540.0	6.170784342299988e+17
19541.0	6.17061982282274e+17
19542.0	6.170411095381331e+17
19543.0	6.170181419488595e+17
19544.0	6.169926811953833e+17
19545.0	6.169347257008125e+17
19546.0	6.168784431043924e+17
19547.0	6.169029219013972e+17
19548.0	6.168684373125802e+17
19549.0	6.168257528594431e+17
19550.0	6.167936522431145e+17
19551.0	6.167534012552534e+17
19552.0	6.167110164152319e+17
19553.0	6.166653491828052e+17
19554.0	6.166186370793471e+17
19555.0	6.165729762781865e+17
19556.0	6.165252085383167e+17
19557.0	6.164745033875455e+17
19558.0	6.1642258776064e+17
19559.0	6.163689133222569e+17
19560.0	6.163121861995178e+17
19561.0	6.16255557013777e+17
19562.0	6.161995212521471e+17
19563.0	6.16151943094818e+17
19564.0	6.160971620592298e+17
19565.0	6.160350921621503e+17
19566.0	6.159704273190912e+17
19567.0	6.159070906023936e+17
19568.0	6.158396287178068e+17
19569.0	6.157738914611199e+17
19570.0	6.157064001465001e+17
19571.0	6.156369462471337e+17
19572.0	6.155650560163839e+17
19573.0	6.154943051683156e+17
19574.0	6.154174521671679e+17
19575.0	6.153502773127849e+17
19576.0	6.15276151448098e+17
19577.0	6.152002409070591e+17
19578.0	6.151223349957972e+17
19579.0	6.150465419651753e+17
19580.0	6.14968925950225e+17
19581.0	6.148909566350675e+17
19582.0	6.148129416019965e+17
19583.0	6.147330540918102e+17
19584.0	6.146520120295423e+17
19585.0	6.145637951908521e+17
19586.0	6.144796566137514e+17
19587.0	6.144049172621994e+17
19588.0	6.14292355354897e+17
19589.0	6.142372189219497e+17
19590.0	6.141480923387219e+17
19591.0	6.140682559291391e+17
19592.0	6.139821056240297e+17
19593.0	6.138942074825385e+17
19594.0	6.137930838616746e+17
19595.0	6.137180423105194e+17
19596.0	6.136192472973312e+17
19597.0	6.135422697952596e+17
19598.0	6.134319191949311e+17
19599.0	6.133645363030698e+17
19600.0	6.132742334272851e+17
19601.0	6.131789121366697e+17
19602.0	6.13088798773521e+17
19603.0	6.129722761849513e+17
19604.0	6.129047573277353e+17
19605.0	6.127961770732202e+17
19606.0	6.127226626681514e+17
19607.0	6.126295623314089e+17
19608.0	6.125351350566911e+17
19609.0	6.124380886488404e+17
19610.0	6.123471401298601e+17
19611.0	6.122518729457663e+17
19612.0	6.121570946078036e+17
19613.0	6.120615315854676e+17
19614.0	6.119628489796265e+17
19615.0	6.118693440323583e+17
19616.0	6.117712673636351e+17
19617.0	6.116757026635776e+17
19618.0	6.115418550829055e+17
19619.0	6.114358694248445e+17
19620.0	6.113403312887124e+17
19621.0	6.112858816031402e+17
19622.0	6.111877227959636e+17
19623.0	6.110892453614932e+17
19624.0	6.109904976041299e+17
19625.0	6.108914876328618e+17
19626.0	6.107922444582912e+17
19627.0	6.106927049561427e+17
19628.0	6.105890422434473e+17
19629.0	6.104870621457065e+17
19630.0	6.103814095153834e+17
19631.0	6.101106759303167e+17
19632.0	6.101914820629844e+17
19633.0	6.100887873956521e+17
19634.0	6.099901817552895e+17
19635.0	6.098864426363561e+17
19636.0	6.097877547177299e+17
19637.0	6.096611415425023e+17
19638.0	6.095839169959252e+17
19639.0	6.094814903446186e+17
19640.0	6.093738556260351e+17
19641.0	6.092277778044244e+17
19642.0	6.091758134536873e+17
19643.0	6.090725041111039e+17
19644.0	6.089663903170559e+17
19645.0	6.088497169432575e+17
19646.0	6.087647957789353e+17
19647.0	6.086616753897471e+17
19648.0	6.086242742916439e+17
19649.0	6.086454971902633e+17
19650.0	6.085417627549695e+17
19651.0	6.08437719409186e+17
19652.0	6.083429294669823e+17
19653.0	6.082441199135402e+17
19654.0	6.081398240007508e+17
19655.0	6.080349736009727e+17
19656.0	6.079301768183805e+17
19657.0	6.078258934185983e+17
19658.0	6.077210359584084e+17
19659.0	6.076159727676074e+17
19660.0	6.075110263881725e+17
19661.0	6.074058772840447e+17
19662.0	6.07300624720418e+17
19663.0	6.071924292233897e+17
19664.0	6.070892115263487e+17
19665.0	6.069843704239444e+17
