# Flux units: erg / (cm m2 s)
# Wavelength units: Angstrom
wave	flux
19000.0	4.329295282088618e+17
19001.0	4.3285532244268365e+17
19002.0	4.3278279034361165e+17
19003.0	4.327089504605523e+17
19004.0	4.326329754670421e+17
19005.0	4.3256051544009376e+17
19006.0	4.324865163132927e+17
19007.0	4.324141080160938e+17
19008.0	4.323403234279424e+17
19009.0	4.322668842407252e+17
19010.0	4.321878787926697e+17
19011.0	4.3211814995667616e+17
19012.0	4.320421338589866e+17
19013.0	4.31973310992657e+17
19014.0	4.318973908746238e+17
19015.0	4.318234978637141e+17
19016.0	4.3175062749402445e+17
19017.0	4.316789593516713e+17
19018.0	4.316048304111615e+17
19019.0	4.3153182582374394e+17
19020.0	4.314578773082111e+17
19021.0	4.3138473850306554e+17
19022.0	4.313119640431274e+17
19023.0	4.312366630043647e+17
19024.0	4.311637929842004e+17
19025.0	4.310910524282197e+17
19026.0	4.310174472863743e+17
19027.0	4.309434942270123e+17
19028.0	4.308700806949546e+17
19029.0	4.3079622487354016e+17
19030.0	4.307222669208233e+17
19031.0	4.3065081869981005e+17
19032.0	4.305782038331391e+17
19033.0	4.3050208651291296e+17
19034.0	4.304310449995775e+17
19035.0	4.303583116438186e+17
19036.0	4.3024641187730765e+17
19037.0	4.302113796521983e+17
19038.0	4.301379313773227e+17
19039.0	4.300650359117141e+17
19040.0	4.2999139120360083e+17
19041.0	4.2991834292551674e+17
19042.0	4.297934228510035e+17
19043.0	4.2977241204435616e+17
19044.0	4.29700538241297e+17
19045.0	4.296261010893482e+17
19046.0	4.2955222981891405e+17
19047.0	4.2947980789022714e+17
19048.0	4.293990472657579e+17
19049.0	4.292258012594174e+17
19050.0	4.2926104886203725e+17
19051.0	4.291764475833002e+17
19052.0	4.2911452176056314e+17
19053.0	4.2904242894493e+17
19054.0	4.289683608218281e+17
19055.0	4.2887883710791674e+17
19056.0	4.2881947533311994e+17
19057.0	4.287510733651968e+17
19058.0	4.286227252860244e+17
19059.0	4.2858160097416525e+17
19060.0	4.285322520515925e+17
19061.0	4.284585493222741e+17
19062.0	4.283847097887402e+17
19063.0	4.283138087845887e+17
19064.0	4.2824042223588685e+17
19065.0	4.281668429589162e+17
19066.0	4.280752309010431e+17
19067.0	4.2801971257671674e+17
19068.0	4.2795040449931936e+17
19069.0	4.278772993185108e+17
19070.0	4.2780277408617805e+17
19071.0	4.2773094390388045e+17
19072.0	4.2763838043805e+17
19073.0	4.275872929065642e+17
19074.0	4.275118461157375e+17
19075.0	4.2744140543645005e+17
19076.0	4.273676084751018e+17
19077.0	4.272956244317525e+17
19078.0	4.27222978736947e+17
19079.0	4.271497346547712e+17
19080.0	4.2707851040959136e+17
19081.0	4.2700531106665805e+17
19082.0	4.269335334529706e+17
19083.0	4.2686014424787616e+17
19084.0	4.26786653540625e+17
19085.0	4.2671557281054714e+17
19086.0	4.266123166657194e+17
19087.0	4.265246694135123e+17
19088.0	4.2647062384913056e+17
19089.0	4.264238764436138e+17
19090.0	4.263536900090538e+17
19091.0	4.26277982961664e+17
19092.0	4.261656260859222e+17
19093.0	4.26135933489425e+17
19094.0	4.260639001630036e+17
19095.0	4.259905494056959e+17
19096.0	4.259191917816489e+17
19097.0	4.2584691777208314e+17
19098.0	4.257535568991572e+17
19099.0	4.25676009181457e+17
19100.0	4.2563049587998714e+17
19101.0	4.2555791330945696e+17
19102.0	4.2548427167716685e+17
19103.0	4.254123485910357e+17
19104.0	4.2534186820567034e+17
19105.0	4.252209964034732e+17
19106.0	4.2519674864271354e+17
19107.0	4.251133259634004e+17
19108.0	4.250339023432362e+17
19109.0	4.249781474601642e+17
19110.0	4.24908012126208e+17
19111.0	4.248207936017748e+17
19112.0	4.247465876957865e+17
19113.0	4.2469234590788256e+17
19114.0	4.2461034348980896e+17
19115.0	4.245466345286314e+17
19116.0	4.2447464922699085e+17
19117.0	4.244035984162815e+17
19118.0	4.2433124625285126e+17
19119.0	4.2412927450699066e+17
19120.0	4.2418790577384096e+17
19121.0	4.241147901771775e+17
19122.0	4.240449819290281e+17
19123.0	4.2397354335491405e+17
19124.0	4.239007138097834e+17
19125.0	4.2382906580008954e+17
19126.0	4.2375698556736845e+17
19127.0	4.236667842636457e+17
19128.0	4.236124661394091e+17
19129.0	4.2354130809432736e+17
19130.0	4.2347030405010765e+17
19131.0	4.2339829106606074e+17
19132.0	4.233255822469802e+17
19133.0	4.2325445971367245e+17
19134.0	4.2318256186327034e+17
19135.0	4.231115454458538e+17
19136.0	4.23039019847953e+17
19137.0	4.229646022694229e+17
19138.0	4.2289576605122554e+17
19139.0	4.228247192251049e+17
19140.0	4.2275296964334925e+17
19141.0	4.2268115609845766e+17
19142.0	4.226090811785215e+17
19143.0	4.225367999687338e+17
19144.0	4.224652584244565e+17
19145.0	4.223939506427221e+17
19146.0	4.2231766016764576e+17
19147.0	4.2224962638970874e+17
19148.0	4.221624674942976e+17
19149.0	4.220862605557759e+17
19150.0	4.2203723962777594e+17
19151.0	4.21964955202355e+17
19152.0	4.2189409586162336e+17
19153.0	4.2178419656840525e+17
19154.0	4.217466964148223e+17
19155.0	4.2167980726244685e+17
19156.0	4.21607758696721e+17
19157.0	4.215248789001557e+17
19158.0	4.2143706702151674e+17
19159.0	4.213916488608425e+17
19160.0	4.2132166822679885e+17
19161.0	4.212504321676628e+17
19162.0	4.211763066525013e+17
19163.0	4.211085111110314e+17
19164.0	4.2103666638847994e+17
19165.0	4.2092392091047245e+17
19166.0	4.2089199666462714e+17
19167.0	4.20822897533474e+17
19168.0	4.207517790546602e+17
19169.0	4.2068016907332256e+17
19170.0	4.206094261245268e+17
19171.0	4.205368789958655e+17
19172.0	4.2046667389665274e+17
19173.0	4.2039633786525005e+17
19174.0	4.2032408818264736e+17
19175.0	4.2025332146612896e+17
19176.0	4.2018275649563296e+17
19177.0	4.201097930123947e+17
19178.0	4.2003929557019296e+17
19179.0	4.1996801015807994e+17
19180.0	4.1989770055079245e+17
19181.0	4.198250035456681e+17
19182.0	4.197542748575061e+17
19183.0	4.1968444605726714e+17
19184.0	4.1961387598370125e+17
19185.0	4.1954241643806714e+17
19186.0	4.1947154199784083e+17
19187.0	4.194005585057108e+17
19188.0	4.1933018926940154e+17
19189.0	4.1925927015983776e+17
19190.0	4.191884287847082e+17
19191.0	4.191173321162751e+17
19192.0	4.1904637008500045e+17
19193.0	4.189704618508287e+17
19194.0	4.188973893855914e+17
19195.0	4.1883418171364685e+17
19196.0	4.187629934695765e+17
19197.0	4.1869115042474656e+17
19198.0	4.186196437630974e+17
19199.0	4.185129515745279e+17
19200.0	4.184562831021396e+17
19201.0	4.1840841847384736e+17
19202.0	4.1833816639842976e+17
19203.0	4.1826708979275085e+17
19204.0	4.181970426789887e+17
19205.0	4.1812615404803405e+17
19206.0	4.180552905829034e+17
19207.0	4.179817939337215e+17
19208.0	4.179108005150719e+17
19209.0	4.1784331080826874e+17
19210.0	4.177716530118655e+17
19211.0	4.1770176919633914e+17
19212.0	4.176311392141311e+17
19213.0	4.1755981968834554e+17
19214.0	4.1748896656916474e+17
19215.0	4.174195479718571e+17
19216.0	4.173490369680725e+17
19217.0	4.1727901732700154e+17
19218.0	4.171995969923754e+17
19219.0	4.1713547475244365e+17
19220.0	4.1706729193690445e+17
19221.0	4.1699327225801376e+17
19222.0	4.169242855342079e+17
19223.0	4.168550475715923e+17
19224.0	4.167837697092266e+17
19225.0	4.1671369896755194e+17
19226.0	4.166449130110975e+17
19227.0	4.1657392448580256e+17
19228.0	4.1650372344108365e+17
19229.0	4.1643039589225805e+17
19230.0	4.1636227172706976e+17
19231.0	4.1629311869911034e+17
19232.0	4.162225775662422e+17
19233.0	4.161512295191893e+17
19234.0	4.160807656314196e+17
19235.0	4.160108253325994e+17
19236.0	4.1594086399235405e+17
19237.0	4.158692538712063e+17
19238.0	4.1579913174930765e+17
19239.0	4.1573031762111136e+17
19240.0	4.1565895021035526e+17
19241.0	4.15589828989201e+17
19242.0	4.1551778245072205e+17
19243.0	4.1544834770534394e+17
19244.0	4.1537848136608416e+17
19245.0	4.15309275070464e+17
19246.0	4.152393270121812e+17
19247.0	4.151692415904427e+17
19248.0	4.1509855344721914e+17
19249.0	4.150266397283668e+17
19250.0	4.149505183536467e+17
19251.0	4.1488063964119034e+17
19252.0	4.148165176109738e+17
19253.0	4.1474791193968634e+17
19254.0	4.1467868495216634e+17
19255.0	4.146065097883648e+17
19256.0	4.145374165991422e+17
19257.0	4.1446825189703674e+17
19258.0	4.1439777542635514e+17
19259.0	4.14328598630673e+17
19260.0	4.1425608876141216e+17
19261.0	4.141887106230954e+17
19262.0	4.141180686172159e+17
19263.0	4.1404721528831994e+17
19264.0	4.139735326916606e+17
19265.0	4.139059736390314e+17
19266.0	4.1383530576827725e+17
19267.0	4.1376944226303994e+17
19268.0	4.136985620206933e+17
19269.0	4.1362943073320954e+17
19270.0	4.1355957907401376e+17
19271.0	4.1348561923386016e+17
19272.0	4.1342027302611616e+17
19273.0	4.133497934097066e+17
19274.0	4.13277830058257e+17
19275.0	4.132113931916628e+17
19276.0	4.131414018621438e+17
19277.0	4.130723966134954e+17
19278.0	4.130017506230272e+17
19279.0	4.129328857437525e+17
19280.0	4.128627423008085e+17
19281.0	4.1279367707361274e+17
19282.0	4.1272371468479136e+17
19283.0	4.126537267806206e+17
19284.0	4.1258456885930656e+17
19285.0	4.125131665659222e+17
19286.0	4.124441208422399e+17
19287.0	4.123743333558954e+17
19288.0	4.122988757996884e+17
19289.0	4.1220772476573e+17
19290.0	4.1216703414490445e+17
19291.0	4.1209531490194765e+17
19292.0	4.1202756542791674e+17
19293.0	4.119579644482901e+17
19294.0	4.1188931557567136e+17
19295.0	4.118188323241983e+17
19296.0	4.117259955994625e+17
19297.0	4.1167673916129274e+17
19298.0	4.116104072222036e+17
19299.0	4.1151586145839776e+17
19300.0	4.114725027708927e+17
19301.0	4.114028239170217e+17
19302.0	4.113337152787797e+17
19303.0	4.1126251808686074e+17
19304.0	4.111939303811753e+17
19305.0	4.111252047527935e+17
19306.0	4.110562425656661e+17
19307.0	4.1098602600202234e+17
19308.0	4.1091685221225805e+17
19309.0	4.1084635679730336e+17
19310.0	4.107770602542421e+17
19311.0	4.1070874986195616e+17
19312.0	4.1063984282992634e+17
19313.0	4.105714492506111e+17
19314.0	4.1026222698441286e+17
19315.0	4.102120929580379e+17
19316.0	4.103343180524202e+17
19317.0	4.1029433745735674e+17
19318.0	4.1022542874760525e+17
19319.0	4.101549323539797e+17
19320.0	4.1007840755711994e+17
19321.0	4.099968653241002e+17
19322.0	4.0994831024346445e+17
19323.0	4.098797982449663e+17
19324.0	4.0981067157121696e+17
19325.0	4.097405767122943e+17
19326.0	4.0967231567298554e+17
19327.0	4.096036538679295e+17
19328.0	4.094901890667861e+17
19329.0	4.094652678406144e+17
19330.0	4.0939649894099616e+17
19331.0	4.0932743657990816e+17
19332.0	4.0925833947600205e+17
19333.0	4.0918997427814406e+17
19334.0	4.091178795051691e+17
19335.0	4.089621259834709e+17
19336.0	4.0898142048092154e+17
19337.0	4.089134558390954e+17
19338.0	4.088422502585684e+17
19339.0	4.0877426108006394e+17
19340.0	4.087016747346602e+17
19341.0	4.086047796712789e+17
19342.0	4.0855671280762874e+17
19343.0	4.084999050144427e+17
19344.0	4.083984613681835e+17
19345.0	4.083237165640361e+17
19346.0	4.0828727407411194e+17
19347.0	4.081832216406698e+17
19348.0	4.081560034039125e+17
19349.0	4.080864420604586e+17
19350.0	4.0800210823850656e+17
19351.0	4.079486709181098e+17
19352.0	4.0783612438992205e+17
19353.0	4.0781098778623994e+17
19354.0	4.07743001334033e+17
19355.0	4.076731342957227e+17
19356.0	4.076045372227583e+17
19357.0	4.0753625283515725e+17
19358.0	4.0746753650414925e+17
19359.0	4.07389320913442e+17
19360.0	4.0729493397394765e+17
19361.0	4.0726046455453e+17
19362.0	4.071918962125482e+17
19363.0	4.0712336855531514e+17
19364.0	4.0705500762166605e+17
19365.0	4.06985948336401e+17
19366.0	4.069153845542911e+17
19367.0	4.068479414741675e+17
19368.0	4.0677972531391136e+17
19369.0	4.067110974827179e+17
19370.0	4.066426364450133e+17
19371.0	4.0657225560446285e+17
19372.0	4.06504328012322e+17
19373.0	4.06434905919761e+17
19374.0	4.0636564111359994e+17
19375.0	4.062984153683284e+17
19376.0	4.0622967030633805e+17
19377.0	4.0616099137454074e+17
19378.0	4.0609231055530656e+17
19379.0	4.0602348992593914e+17
19380.0	4.059523727054165e+17
19381.0	4.058838062508714e+17
19382.0	4.0581549963345914e+17
19383.0	4.0574622671831034e+17
19384.0	4.05676325286707e+17
19385.0	4.056096369016832e+17
19386.0	4.0554047569483085e+17
19387.0	4.0547137509567136e+17
19388.0	4.054023477570218e+17
19389.0	4.0533376263782394e+17
19390.0	4.0526479751468365e+17
19391.0	4.0515876047639885e+17
19392.0	4.051262614011904e+17
19393.0	4.0505695227521696e+17
19394.0	4.0498825642639354e+17
19395.0	4.049067360037546e+17
19396.0	4.048469460604244e+17
19397.0	4.0477960993505274e+17
19398.0	4.0470004203083085e+17
19399.0	4.046176400353962e+17
19400.0	4.045622033601877e+17
19401.0	4.045019846191785e+17
19402.0	4.0443287206625274e+17
19403.0	4.043633232358059e+17
19404.0	4.042918301357397e+17
19405.0	4.042213935808512e+17
19406.0	4.0415284250542074e+17
19407.0	4.040664392138751e+17
19408.0	4.0400359553761274e+17
19409.0	4.0394145999967565e+17
19410.0	4.0387047510944416e+17
19411.0	4.0379915215831034e+17
19412.0	4.0372776908881914e+17
19413.0	4.0364089603522554e+17
19414.0	4.035850669129727e+17
19415.0	4.035131350887082e+17
19416.0	4.0343852142646605e+17
19417.0	4.0336790619422714e+17
19418.0	4.0329495753086285e+17
19419.0	4.0322122369378976e+17
19420.0	4.0314716186214394e+17
19421.0	4.0307224460219725e+17
19422.0	4.029962070436522e+17
19423.0	4.029211022983168e+17
19424.0	4.028443772933461e+17
19425.0	4.0276605985095674e+17
19426.0	4.026879072447146e+17
19427.0	4.0260801924519245e+17
19428.0	4.025254537418068e+17
19429.0	4.0244383279568205e+17
19430.0	4.023579730859349e+17
19431.0	4.022583401906176e+17
19432.0	4.021820580342442e+17
19433.0	4.0208961739161594e+17
19434.0	4.0199526715228154e+17
19435.0	4.0189475065692154e+17
19436.0	4.017855145530709e+17
19437.0	4.016848728577364e+17
19438.0	4.0148580657616205e+17
19439.0	4.0145068515218765e+17
19440.0	4.013214667549355e+17
19441.0	4.011839396511744e+17
19442.0	4.010359784472576e+17
19443.0	4.0087687528448e+17
19444.0	4.0070500990320634e+17
19445.0	4.005226897997823e+17
19446.0	4.0032932155009696e+17
19447.0	4.0013054558426445e+17
19448.0	3.999313721382229e+17
19449.0	3.9974574489599994e+17
19450.0	3.995788963916459e+17
19451.0	3.994682317078527e+17
19452.0	3.994701141114878e+17
19453.0	3.995074501279743e+17
19454.0	3.995615169434966e+17
19455.0	3.9962412636788045e+17
19456.0	3.996796077823316e+17
19457.0	3.997004491390976e+17
19458.0	3.9918021025027437e+17
19459.0	3.996305481968298e+17
19460.0	3.998229823750142e+17
19461.0	3.9985270531031034e+17
19462.0	3.9985874468863994e+17
19463.0	3.9985330901046605e+17
19464.0	3.998379781302953e+17
19465.0	3.998170413531136e+17
19466.0	3.997899838980095e+17
19467.0	3.9975779513139206e+17
19468.0	3.9972148042792954e+17
19469.0	3.9964749038878714e+17
19470.0	3.996382041997311e+17
19471.0	3.995919877931006e+17
19472.0	3.9954370023915514e+17
19473.0	3.9949336936011085e+17
19474.0	3.994088603560617e+17
19475.0	3.993769585497427e+17
19476.0	3.993332450241193e+17
19477.0	3.9927664009543674e+17
19478.0	3.9922070178146976e+17
19479.0	3.991317379372371e+17
19480.0	3.991039448711167e+17
19481.0	3.99043117256977e+17
19482.0	3.98983443845393e+17
19483.0	3.989239589677737e+17
19484.0	3.9886213415785805e+17
19485.0	3.988009960953172e+17
19486.0	3.98706008321775e+17
19487.0	3.986769269751808e+17
19488.0	3.9861530992312314e+17
19489.0	3.985525880913918e+17
19490.0	3.9847204032785056e+17
19491.0	3.984248264458238e+17
19492.0	3.9836206448858445e+17
19493.0	3.982978746504532e+17
19494.0	3.982337888310613e+17
19495.0	3.9817102820201805e+17
19496.0	3.981005296413354e+17
19497.0	3.9804243524539725e+17
19498.0	3.9797793887354886e+17
19499.0	3.978515653328895e+17
19500.0	3.9784869922515616e+17
19501.0	3.9781144506750285e+17
19502.0	3.9776153578591565e+17
19503.0	3.9769517120116045e+17
19504.0	3.976282840061268e+17
19505.0	3.975606382013098e+17
19506.0	3.974959308559701e+17
19507.0	3.974292802895872e+17
19508.0	3.973627512182102e+17
19509.0	3.9729659425150285e+17
19510.0	3.972243159078229e+17
19511.0	3.968116842648911e+17
19512.0	3.9709172305319245e+17
19513.0	3.970079957275988e+17
19514.0	3.969511125767508e+17
19515.0	3.968929640043861e+17
19516.0	3.968269381096788e+17
19517.0	3.967640334761983e+17
19518.0	3.966900189003776e+17
19519.0	3.9662354400542714e+17
19520.0	3.965352642521769e+17
19521.0	3.965010044780543e+17
19522.0	3.9642982706926925e+17
19523.0	3.963613753289386e+17
19524.0	3.962777261572096e+17
19525.0	3.962351935378772e+17
19526.0	3.961684643282943e+17
19527.0	3.961032074592255e+17
19528.0	3.9603424240599034e+17
19529.0	3.959673073958912e+17
19530.0	3.9590479800565754e+17
19531.0	3.958382086062078e+17
19532.0	3.957719384631979e+17
19533.0	3.9570482407669754e+17
19534.0	3.956401816032597e+17
19535.0	3.9557446189274445e+17
19536.0	3.9550752681274016e+17
19537.0	3.9544209958502394e+17
19538.0	3.953471865399979e+17
19539.0	3.953038444199935e+17
19540.0	3.9524435213243725e+17
19541.0	3.9517131804508166e+17
19542.0	3.951091174954323e+17
19543.0	3.950152755358378e+17
19544.0	3.949778090764971e+17
19545.0	3.949110633693183e+17
19546.0	3.948371391108436e+17
19547.0	3.947831549930154e+17
19548.0	3.947169628640596e+17
19549.0	3.946494000365567e+17
19550.0	3.945829856094891e+17
19551.0	3.9451948167987194e+17
19552.0	3.9445234695099725e+17
19553.0	3.943875546010965e+17
19554.0	3.9432017883955194e+17
19555.0	3.9425128180394656e+17
19556.0	3.941870158391978e+17
19557.0	3.941237220442111e+17
19558.0	3.9405834326070605e+17
19559.0	3.9399241006011725e+17
19560.0	3.939157345479337e+17
19561.0	3.9386074232913914e+17
19562.0	3.9378553831860896e+17
19563.0	3.937300615178921e+17
19564.0	3.936615762930346e+17
19565.0	3.935977136805206e+17
19566.0	3.935307714701995e+17
19567.0	3.934670433550336e+17
19568.0	3.934014217213269e+17
19569.0	3.933358737675604e+17
19570.0	3.932703417521493e+17
19571.0	3.932045436780543e+17
19572.0	3.9313876112288416e+17
19573.0	3.930701956470101e+17
19574.0	3.9300619650990074e+17
19575.0	3.929427288610133e+17
19576.0	3.928757923130025e+17
19577.0	3.9280692897163936e+17
19578.0	3.9274569045551776e+17
19579.0	3.9268090649422496e+17
19580.0	3.9261439804484256e+17
19581.0	3.925475023912959e+17
19582.0	3.9248425263650125e+17
19583.0	3.92419436658688e+17
19584.0	3.9235269374771194e+17
19585.0	3.922875142635518e+17
19586.0	3.922218794876927e+17
19587.0	3.921574869947732e+17
19588.0	3.9208706623842976e+17
19589.0	3.9202704532875936e+17
19590.0	3.919602859900927e+17
19591.0	3.91895936279074e+17
19592.0	3.918305958734506e+17
19593.0	3.9176251078519456e+17
19594.0	3.9169571712314016e+17
19595.0	3.9163473830434125e+17
19596.0	3.9156818476619085e+17
19597.0	3.915043386512725e+17
19598.0	3.914307221149012e+17
19599.0	3.9137377430186656e+17
19600.0	3.913078521462782e+17
19601.0	3.912427344581971e+17
19602.0	3.911775259634346e+17
19603.0	3.911083228135423e+17
19604.0	3.9104785751736314e+17
19605.0	3.9097955076014074e+17
19606.0	3.909167414771712e+17
19607.0	3.908528356633257e+17
19608.0	3.9078533449209165e+17
19609.0	3.907217789026304e+17
19610.0	3.906431105368064e+17
19611.0	3.905695392989183e+17
19612.0	3.905272321933311e+17
19613.0	3.904606685189462e+17
19614.0	3.903966228949674e+17
19615.0	3.903325399416831e+17
19616.0	3.902529533728085e+17
19617.0	3.9018048880203085e+17
19618.0	3.9013029556606285e+17
19619.0	3.9006069053194234e+17
19620.0	3.899924996074154e+17
19621.0	3.899083495658838e+17
19622.0	3.8987758756167674e+17
19623.0	3.89811714199825e+17
19624.0	3.8974416080950605e+17
19625.0	3.89683079160354e+17
19626.0	3.896172464832512e+17
19627.0	3.8955352962280096e+17
19628.0	3.894877918767786e+17
19629.0	3.893484762518868e+17
19630.0	3.8935874901114874e+17
19631.0	3.8927023514583034e+17
19632.0	3.892294255465813e+17
19633.0	3.8916463249762976e+17
19634.0	3.8909973186478074e+17
19635.0	3.8903158491054074e+17
19636.0	3.889332521795582e+17
19637.0	3.8886726731912525e+17
19638.0	3.8883798205945165e+17
19639.0	3.887752774243669e+17
19640.0	3.8871088129638394e+17
19641.0	3.8862892103106566e+17
19642.0	3.885804923387903e+17
19643.0	3.885157181642069e+17
19644.0	3.884522534513323e+17
19645.0	3.8838575101378566e+17
19646.0	3.882851383290538e+17
19647.0	3.882565860240042e+17
19648.0	3.881949819742889e+17
19649.0	3.8812961982818976e+17
19650.0	3.880652063637504e+17
19651.0	3.880010571404629e+17
19652.0	3.879366543015936e+17
19653.0	3.878715052960427e+17
19654.0	3.8780772824733e+17
19655.0	3.877425058414591e+17
