# Flux units: erg / (cm m2 s)
# Wavelength units: Angstrom
wave	flux
19000.0	5.972061223299754e+17
19001.0	5.970920867539625e+17
19002.0	5.969825989918719e+17
19003.0	5.968706128926035e+17
19004.0	5.96758663074065e+17
19005.0	5.966471949713405e+17
19006.0	5.96535642563106e+17
19007.0	5.964111622613674e+17
19008.0	5.963106199710377e+17
19009.0	5.962001124338346e+17
19010.0	5.96077110764066e+17
19011.0	5.959764572547754e+17
19012.0	5.958462003478525e+17
19013.0	5.957537212574378e+17
19014.0	5.956408105238528e+17
19015.0	5.955297287165268e+17
19016.0	5.9541788543331e+17
19017.0	5.953060364877823e+17
19018.0	5.951944329090388e+17
19019.0	5.950842758059348e+17
19020.0	5.949716901309098e+17
19021.0	5.948607941312512e+17
19022.0	5.947498076744362e+17
19023.0	5.946374833045503e+17
19024.0	5.94526474478114e+17
19025.0	5.944139987637588e+17
19026.0	5.943017181544447e+17
19027.0	5.941774365928106e+17
19028.0	5.94081352847633e+17
19029.0	5.939695352894806e+17
19030.0	5.93858932192051e+17
19031.0	5.937476108200618e+17
19032.0	5.936362379280383e+17
19033.0	5.935229511750995e+17
19034.0	5.934133865174356e+17
19035.0	5.933015616891561e+17
19036.0	5.920530228051956e+17
19037.0	5.93079697477905e+17
19038.0	5.929682402803712e+17
19039.0	5.928576349459795e+17
19040.0	5.92746475753745e+17
19041.0	5.926351339694761e+17
19042.0	5.925220127517353e+17
19043.0	5.924131469350228e+17
19044.0	5.923017457314473e+17
19045.0	5.921902864367615e+17
19046.0	5.920786994255188e+17
19047.0	5.919688579437908e+17
19048.0	5.918527151494483e+17
19049.0	5.917451483785897e+17
19050.0	5.916347506622464e+17
19051.0	5.913502564046161e+17
19052.0	5.914046284256598e+17
19053.0	5.912999726415872e+17
19054.0	5.91192186229009e+17
19055.0	5.910754729394176e+17
19056.0	5.909697474680148e+17
19057.0	5.908592243419818e+17
19058.0	5.9073697953437e+17
19059.0	5.905902516655444e+17
19060.0	5.904788605982035e+17
19061.0	5.903688609912148e+17
19062.0	5.902580316110845e+17
19063.0	5.901474010409642e+17
19064.0	5.900337259653802e+17
19065.0	5.899219972565673e+17
19066.0	5.898140161583786e+17
19067.0	5.897046533166419e+17
19068.0	5.895942035909289e+17
19069.0	5.894836573962239e+17
19070.0	5.893724988331347e+17
19071.0	5.89261807165986e+17
19072.0	5.891519291938132e+17
19073.0	5.890414107514195e+17
19074.0	5.889310605705215e+17
19075.0	5.888205826730666e+17
19076.0	5.887096259259049e+17
19077.0	5.885995236982783e+17
19078.0	5.884883374527828e+17
19079.0	5.88378955457058e+17
19080.0	5.882682988123476e+17
19081.0	5.881571912799572e+17
19082.0	5.880467401561428e+17
19083.0	5.879352522702848e+17
19084.0	5.878219587365546e+17
19085.0	5.877169576913578e+17
19086.0	5.875972516959572e+17
19087.0	5.874639393783808e+17
19088.0	5.873845878303402e+17
19089.0	5.872549737704105e+17
19090.0	5.871653454785193e+17
19091.0	5.870554907847337e+17
19092.0	5.869368259553961e+17
19093.0	5.868358191458986e+17
19094.0	5.867253645268308e+17
19095.0	5.866151863123968e+17
19096.0	5.865040977242793e+17
19097.0	5.863955444531199e+17
19098.0	5.862856724927828e+17
19099.0	5.861756805753513e+17
19100.0	5.860639682942292e+17
19101.0	5.859552485791062e+17
19102.0	5.858436991767892e+17
19103.0	5.857360374748499e+17
19104.0	5.856262657583786e+17
19105.0	5.855163440955391e+17
19106.0	5.854004586916521e+17
19107.0	5.852964479216297e+17
19108.0	5.851869942033065e+17
19109.0	5.849727971797673e+17
19110.0	5.849672119047508e+17
19111.0	5.848574239703039e+17
19112.0	5.847481430573055e+17
19113.0	5.846384930455551e+17
19114.0	5.845288291926015e+17
19115.0	5.844159529222143e+17
19116.0	5.843090889768959e+17
19117.0	5.841996870582272e+17
19118.0	5.840830501049684e+17
19119.0	5.838997969087144e+17
19120.0	5.838617698107391e+17
19121.0	5.837562153271295e+17
19122.0	5.836524071419904e+17
19123.0	5.835428064133119e+17
19124.0	5.834276513775615e+17
19125.0	5.833234530522452e+17
19126.0	5.832124394023594e+17
19127.0	5.830661163537747e+17
19128.0	5.829186720279208e+17
19129.0	5.828845322108928e+17
19130.0	5.827769924932948e+17
19131.0	5.826652890202111e+17
19132.0	5.825586451360426e+17
19133.0	5.824322251784191e+17
19134.0	5.823017942777856e+17
19135.0	5.82230545216307e+17
19136.0	5.821218521350143e+17
19137.0	5.82008908685858e+17
19138.0	5.81896267436305e+17
19139.0	5.817943358526803e+17
19140.0	5.816852889119402e+17
19141.0	5.815762159665151e+17
19142.0	5.81466195108386e+17
19143.0	5.813567057384788e+17
19144.0	5.812481596675412e+17
19145.0	5.811397504707242e+17
19146.0	5.810150805165396e+17
19147.0	5.809199931981821e+17
19148.0	5.808124694189395e+17
19149.0	5.807036428888746e+17
19150.0	5.805949438656511e+17
19151.0	5.804864477069311e+17
19152.0	5.803761608600234e+17
19153.0	5.802681576019284e+17
19154.0	5.801569824014335e+17
19155.0	5.800507403315881e+17
19156.0	5.799422111077716e+17
19157.0	5.798326357546324e+17
19158.0	5.796527001130322e+17
19159.0	5.796154221876563e+17
19160.0	5.795053969954132e+17
19161.0	5.793912209102164e+17
19162.0	5.791273360643415e+17
19163.0	5.791807798160041e+17
19164.0	5.790726865201834e+17
19165.0	5.789610446334633e+17
19166.0	5.788493315833856e+17
19167.0	5.787316919118505e+17
19168.0	5.786359211316563e+17
19169.0	5.785258804903935e+17
19170.0	5.784212603579048e+17
19171.0	5.78303499051554e+17
19172.0	5.782036163854335e+17
19173.0	5.780954398326783e+17
19174.0	5.779861849243647e+17
19175.0	5.778790205270697e+17
19176.0	5.777706592851284e+17
19177.0	5.776588398395391e+17
19178.0	5.77552218255087e+17
19179.0	5.774308987808426e+17
19180.0	5.773240815321088e+17
19181.0	5.772256765192874e+17
19182.0	5.77118645850385e+17
19183.0	5.770104183368361e+17
19184.0	5.769003124042409e+17
19185.0	5.76795032158208e+17
19186.0	5.766871220835668e+17
19187.0	5.765768789972308e+17
19188.0	5.764697483640831e+17
19189.0	5.763592033577641e+17
19190.0	5.7625031237522765e+17
19191.0	5.7614350659092474e+17
19192.0	5.7603763194210976e+17
19193.0	5.7592343027165856e+17
19194.0	5.758185602285567e+17
19195.0	5.757127244469588e+17
19196.0	5.7560532055490554e+17
19197.0	5.754973375692799e+17
19198.0	5.7538886133350394e+17
19199.0	5.743251719279954e+17
19200.0	5.7457909509215597e+17
19201.0	5.750562053510484e+17
19202.0	5.749387198201855e+17
19203.0	5.7482869973101216e+17
19204.0	5.747220459902292e+17
19205.0	5.746149292681898e+17
19206.0	5.7450705491503776e+17
19207.0	5.743974848047785e+17
19208.0	5.7428533708499616e+17
19209.0	5.7418282424074234e+17
19210.0	5.7407573499139405e+17
19211.0	5.7396430841227936e+17
19212.0	5.738536753954815e+17
19213.0	5.737354083259733e+17
19214.0	5.7362320622004896e+17
19215.0	5.735270506823679e+17
19216.0	5.7342215819973965e+17
19217.0	5.733148837718698e+17
19218.0	5.731882545184766e+17
19219.0	5.730958614811988e+17
19220.0	5.729904842069333e+17
19221.0	5.728755433603071e+17
19222.0	5.7277638337276576e+17
19223.0	5.7266820115770016e+17
19224.0	5.725593714819071e+17
19225.0	5.7244984408364365e+17
19226.0	5.7234525883378336e+17
19227.0	5.72237580144913e+17
19228.0	5.7213065936677536e+17
19229.0	5.7202304988392096e+17
19230.0	5.719125848489983e+17
19231.0	5.718055058756949e+17
19232.0	5.716994636644351e+17
19233.0	5.7159088725469856e+17
19234.0	5.7148458877146445e+17
19235.0	5.713769292365822e+17
19236.0	5.712701024807593e+17
19237.0	5.7116221100086605e+17
19238.0	5.7105152981947725e+17
19239.0	5.709475943372117e+17
19240.0	5.7083533358093645e+17
19241.0	5.7073086311519565e+17
19242.0	5.706246640369663e+17
19243.0	5.7051362745821856e+17
19244.0	5.704100363982164e+17
19245.0	5.7030247004678816e+17
19246.0	5.701947411660799e+17
19247.0	5.7008761514666656e+17
19248.0	5.6997998881669114e+17
19249.0	5.698723008304468e+17
19250.0	5.697648013781674e+17
19251.0	5.6965600889186976e+17
19252.0	5.695427599575722e+17
19253.0	5.6944233853310285e+17
19254.0	5.693347290502484e+17
19255.0	5.692231913919828e+17
19256.0	5.691180881455785e+17
19257.0	5.690129746231294e+17
19258.0	5.689055395534163e+17
19259.0	5.6879630079317325e+17
19260.0	5.686730117436756e+17
19261.0	5.6858286440666445e+17
19262.0	5.6847429477771936e+17
19263.0	5.6836702174795085e+17
19264.0	5.682489150406655e+17
19265.0	5.681486550969002e+17
19266.0	5.6804169020866554e+17
19267.0	5.679381793297747e+17
19268.0	5.678306536630954e+17
19269.0	5.677231191883775e+17
19270.0	5.676153947116884e+17
19271.0	5.675003750820522e+17
19272.0	5.673996357992447e+17
19273.0	5.671624555976019e+17
19274.0	5.6712062007159443e+17
19275.0	5.6707763467714554e+17
19276.0	5.6696954215028045e+17
19277.0	5.668618464045737e+17
19278.0	5.667542678896638e+17
19279.0	5.6664380725876045e+17
19280.0	5.665209328162132e+17
19281.0	5.664084126422356e+17
19282.0	5.663010233603411e+17
19283.0	5.6617801113490765e+17
19284.0	5.6605891205529594e+17
19285.0	5.6597281103325856e+17
19286.0	5.658690498243242e+17
19287.0	5.6576193240323405e+17
19288.0	5.654135705698303e+17
19289.0	5.647435490306712e+17
19290.0	5.654381115823443e+17
19291.0	5.6532415241256954e+17
19292.0	5.652220727700137e+17
19293.0	5.651137912897535e+17
19294.0	5.6500558216123725e+17
19295.0	5.648976792868179e+17
19296.0	5.647897475416064e+17
19297.0	5.64681289830673e+17
19298.0	5.6457312879684256e+17
19299.0	5.644654170428756e+17
19300.0	5.6435693164953594e+17
19301.0	5.6424830973160083e+17
19302.0	5.6413978651962016e+17
19303.0	5.6402882264214176e+17
19304.0	5.639213783449599e+17
19305.0	5.638134540795903e+17
19306.0	5.63704094733107e+17
19307.0	5.6359369415065594e+17
19308.0	5.634858221043711e+17
19309.0	5.633464028102655e+17
19310.0	5.6322284413692576e+17
19311.0	5.631571003091625e+17
19312.0	5.630502699182761e+17
19313.0	5.629399124672511e+17
19314.0	5.6210372994006854e+17
19315.0	5.6206678567157914e+17
19316.0	5.626105216106494e+17
19317.0	5.6250277888873805e+17
19318.0	5.6239284317498016e+17
19319.0	5.6228333835605325e+17
19320.0	5.621728791232511e+17
19321.0	5.6206302575766176e+17
19322.0	5.6194929440849914e+17
19323.0	5.6182588134741325e+17
19324.0	5.6173100465302176e+17
19325.0	5.615917519426901e+17
19326.0	5.615097634357247e+17
19327.0	5.6139848379706016e+17
19328.0	5.612876059727188e+17
19329.0	5.6117628180452685e+17
19330.0	5.6106373856187725e+17
19331.0	5.609519393188522e+17
19332.0	5.6084066163752954e+17
19333.0	5.6072817662580045e+17
19334.0	5.606160654663679e+17
19335.0	5.6050384840075936e+17
19336.0	5.6036029086651706e+17
19337.0	5.602232976277503e+17
19338.0	5.601053724639232e+17
19339.0	5.599963364982783e+17
19340.0	5.598808825484628e+17
19341.0	5.5976856440012794e+17
19342.0	5.5964409430452896e+17
19343.0	5.595397024120832e+17
19344.0	5.5942465321260365e+17
19345.0	5.5925895171058323e+17
19346.0	5.5918203020247034e+17
19347.0	5.590762850178388e+17
19348.0	5.5896163134122656e+17
19349.0	5.588436423540736e+17
19350.0	5.587266594406398e+17
19351.0	5.586091297996798e+17
19352.0	5.5849038576790176e+17
19353.0	5.5837368282426003e+17
19354.0	5.582547311045289e+17
19355.0	5.581330824473258e+17
19356.0	5.580152392122367e+17
19357.0	5.5789465604805965e+17
19358.0	5.577723226707284e+17
19359.0	5.576450535063551e+17
19360.0	5.5752855846038176e+17
19361.0	5.574052616514217e+17
19362.0	5.5728289087488e+17
19363.0	5.57158403023394e+17
19364.0	5.570330197579092e+17
19365.0	5.569071955312638e+17
19366.0	5.56780348313873e+17
19367.0	5.5665263532223136e+17
19368.0	5.5652400363820365e+17
19369.0	5.563408774594558e+17
19370.0	5.5617940080994976e+17
19371.0	5.560618717282303e+17
19372.0	5.5593018938709325e+17
19373.0	5.557952348596906e+17
19374.0	5.556604402051754e+17
19375.0	5.5552364025391776e+17
19376.0	5.553856789697877e+17
19377.0	5.5524577257717754e+17
19378.0	5.551046745828011e+17
19379.0	5.549618547567273e+17
19380.0	5.5481731987974816e+17
19381.0	5.5467073881156256e+17
19382.0	5.544930421593428e+17
19383.0	5.5428500642856954e+17
19384.0	5.5413465894529696e+17
19385.0	5.539794629864105e+17
19386.0	5.538219654032042e+17
19387.0	5.5366162890533536e+17
19388.0	5.5349881504180896e+17
19389.0	5.5333291417053856e+17
19390.0	5.5310978915150496e+17
19391.0	5.518643507669657e+17
19392.0	5.5271190705821005e+17
19393.0	5.525332754956287e+17
19394.0	5.5234884090374803e+17
19395.0	5.5212545793501856e+17
19396.0	5.518448162155177e+17
19397.0	5.5164923609961805e+17
19398.0	5.5144488688244045e+17
19399.0	5.511590647780694e+17
19400.0	5.5087929519418016e+17
19401.0	5.506580422328319e+17
19402.0	5.5035851223422285e+17
19403.0	5.500293498972841e+17
19404.0	5.497831445321044e+17
19405.0	5.493450273193983e+17
19406.0	5.49042964730129e+17
19407.0	5.485482773315584e+17
19408.0	5.4820751040402765e+17
19409.0	5.4783773678851405e+17
19410.0	5.4752731956510714e+17
19411.0	5.4720223632861856e+17
19412.0	5.468630132544852e+17
19413.0	5.465085732454399e+17
19414.0	5.461369349122729e+17
19415.0	5.457488605697363e+17
19416.0	5.452663832794454e+17
19417.0	5.4482314663908685e+17
19418.0	5.443901385779881e+17
19419.0	5.4391159491570336e+17
19420.0	5.4337232087722675e+17
19421.0	5.4277995184346445e+17
19422.0	5.4221656803682976e+17
19423.0	5.415352198496255e+17
19424.0	5.4085273102144845e+17
19425.0	5.4005719395642016e+17
19426.0	5.3922981058969594e+17
19427.0	5.382807982789974e+17
19428.0	5.3718106652016646e+17
19429.0	5.359379581414057e+17
19430.0	5.344690983403525e+17
19431.0	5.3249342016498355e+17
19432.0	5.305365381338457e+17
19433.0	5.287200794432853e+17
19434.0	5.272159184923306e+17
19435.0	5.255628788334591e+17
19436.0	5.236784616527188e+17
19437.0	5.218362955137024e+17
19438.0	5.1813929301224045e+17
19439.0	5.171701175637335e+17
19440.0	5.143082878806699e+17
19441.0	5.1066779593605075e+17
19442.0	5.055390585367204e+17
19443.0	4.9976930272105837e+17
19444.0	4.949773954056189e+17
19445.0	4.8935912750448666e+17
19446.0	4.8204563601162246e+17
19447.0	4.714639621357559e+17
19448.0	4.6001378610380845e+17
19449.0	4.421460160413695e+17
19450.0	4.076937087549426e+17
19451.0	3.980386312213837e+17
19452.0	4.2612497733823194e+17
19453.0	4.523874075017219e+17
19454.0	4.6567032660950976e+17
19455.0	4.7657199966617606e+17
19456.0	4.8526307780198426e+17
19457.0	4.913527416422397e+17
19458.0	4.9497409085331e+17
19459.0	5.011286742706853e+17
19460.0	5.068168303214589e+17
19461.0	5.108579904258047e+17
19462.0	5.1384083640483866e+17
19463.0	5.1629399365823136e+17
19464.0	5.183866083300692e+17
19465.0	5.2025796591616006e+17
19466.0	5.2187016151258426e+17
19467.0	5.2343741248525645e+17
19468.0	5.2479608554345805e+17
19469.0	5.2611688662302726e+17
19470.0	5.2808344190757536e+17
19471.0	5.2981884637238554e+17
19472.0	5.312034393904468e+17
19473.0	5.3236406922772454e+17
19474.0	5.333011843951274e+17
19475.0	5.34073272644403e+17
19476.0	5.3478967144174925e+17
19477.0	5.3540919020530336e+17
19478.0	5.3589776356693325e+17
19479.0	5.364127238542677e+17
19480.0	5.3681045313508685e+17
19481.0	5.371547980835497e+17
19482.0	5.375634729598975e+17
19483.0	5.378464250418517e+17
19484.0	5.3810323437649894e+17
19485.0	5.383363451245909e+17
19486.0	5.38575300215876e+17
19487.0	5.388118163892906e+17
19488.0	5.38986086085427e+17
19489.0	5.3914267930678605e+17
19490.0	5.392520445951998e+17
19491.0	5.394098175344639e+17
19492.0	5.3952371385958394e+17
19493.0	5.396302348506452e+17
19494.0	5.3982454332347725e+17
19495.0	5.399654230742358e+17
19496.0	5.401657265356799e+17
19497.0	5.4031619194879974e+17
19498.0	5.4046078240030726e+17
19499.0	5.388313244467179e+17
19500.0	5.4067266479718394e+17
19501.0	5.4073579683184634e+17
19502.0	5.4074881686022816e+17
19503.0	5.408385146377556e+17
19504.0	5.408921198002174e+17
19505.0	5.4088921195915936e+17
19506.0	5.408802950785706e+17
19507.0	5.409260570323625e+17
19508.0	5.409624414311765e+17
19509.0	5.409396704149503e+17
19510.0	5.4090853679540896e+17
19511.0	5.392394377756656e+17
19512.0	5.4066082078173754e+17
19513.0	5.4043474304259315e+17
19514.0	5.405618784086694e+17
19515.0	5.407988260361558e+17
19516.0	5.407797934030847e+17
19517.0	5.407303413006335e+17
19518.0	5.4068154322998605e+17
19519.0	5.406283174423209e+17
19520.0	5.405735725476522e+17
19521.0	5.4052988488690336e+17
19522.0	5.405372798642858e+17
19523.0	5.404776539881471e+17
19524.0	5.4041544882476365e+17
19525.0	5.40350853746961e+17
19526.0	5.4028644007280634e+17
19527.0	5.402198032777215e+17
19528.0	5.4015179054120954e+17
19529.0	5.4008277753309856e+17
19530.0	5.400124749862228e+17
19531.0	5.399409288282111e+17
19532.0	5.398683009591978e+17
19533.0	5.397946499596287e+17
19534.0	5.39719991697954e+17
19535.0	5.396441349838164e+17
19536.0	5.3956708547952634e+17
19537.0	5.394907355851434e+17
19538.0	5.3945720953460045e+17
19539.0	5.3938323725134496e+17
19540.0	5.393165741719551e+17
19541.0	5.392368087859199e+17
19542.0	5.3915563089810765e+17
19543.0	5.3907403735476896e+17
19544.0	5.389918101220009e+17
19545.0	5.389014276942506e+17
19546.0	5.3880305994082976e+17
19547.0	5.387416634392575e+17
19548.0	5.386574132936703e+17
19549.0	5.3857022440898554e+17
19550.0	5.3848723416241485e+17
19551.0	5.384015364227071e+17
19552.0	5.383153353665194e+17
19553.0	5.3822835710580045e+17
19554.0	5.381408846162602e+17
19555.0	5.3805418765352934e+17
19556.0	5.379668630831103e+17
19557.0	5.378787612382549e+17
19558.0	5.3779048721722016e+17
19559.0	5.3770148443586554e+17
19560.0	5.376123335955796e+17
19561.0	5.375231162755753e+17
19562.0	5.3743430817983136e+17
19563.0	5.3734451770818554e+17
19564.0	5.3725460706973e+17
19565.0	5.371644464507562e+17
19566.0	5.370733284818943e+17
19567.0	5.3698331466356045e+17
19568.0	5.3689184591107405e+17
19569.0	5.368009045224105e+17
19570.0	5.3671015733002214e+17
19571.0	5.366186727789909e+17
19572.0	5.365263064454485e+17
19573.0	5.364349123515732e+17
19574.0	5.3634094092779514e+17
19575.0	5.362511190687743e+17
19576.0	5.361587535740928e+17
19577.0	5.3606447820308474e+17
19578.0	5.359729110941696e+17
19579.0	5.358804348698623e+17
19580.0	5.357877353687721e+17
19581.0	5.356949223418538e+17
19582.0	5.3560226639162016e+17
19583.0	5.355090684674047e+17
19584.0	5.354153454163283e+17
19585.0	5.353197011643049e+17
19586.0	5.3522451038644896e+17
19587.0	5.3512814590252365e+17
19588.0	5.350303327059967e+17
19589.0	5.3494474933097805e+17
19590.0	5.3485127647013536e+17
19591.0	5.3475961282232314e+17
19592.0	5.346656776792745e+17
19593.0	5.345711663786666e+17
19594.0	5.34470131257617e+17
19595.0	5.3438266261285536e+17
19596.0	5.341165122835798e+17
19597.0	5.341936504274943e+17
19598.0	5.3409272163205114e+17
19599.0	5.340052789220692e+17
19600.0	5.339109170784938e+17
19601.0	5.338147321806847e+17
19602.0	5.337206370249385e+17
19603.0	5.336018772645204e+17
19604.0	5.335305220871508e+17
19605.0	5.3343020069683194e+17
19606.0	5.3334196708092576e+17
19607.0	5.3324736035990176e+17
19608.0	5.3316654409099936e+17
19609.0	5.331035072670377e+17
19610.0	5.330100046965419e+17
19611.0	5.329147257683967e+17
19612.0	5.328197494592852e+17
19613.0	5.327242356501162e+17
19614.0	5.3262839573381114e+17
19615.0	5.325340651378004e+17
19616.0	5.324299097341951e+17
19617.0	5.323433130852351e+17
19618.0	5.3223676622929914e+17
19619.0	5.3213655403069434e+17
19620.0	5.3204264468261536e+17
19621.0	5.3196191069197645e+17
19622.0	5.3186663784557216e+17
19623.0	5.3177121141773645e+17
19624.0	5.3167553165393914e+17
19625.0	5.3158005412549965e+17
19626.0	5.314847575812777e+17
19627.0	5.313892506927104e+17
19628.0	5.3127148617072634e+17
19629.0	5.3119601638113274e+17
19630.0	5.310927547138048e+17
19631.0	5.299713979624097e+17
19632.0	5.3091096679765325e+17
19633.0	5.308142638333951e+17
19634.0	5.3072030981597856e+17
19635.0	5.3062381083470496e+17
19636.0	5.3052876119517856e+17
19637.0	5.304248255031978e+17
19638.0	5.303376864608255e+17
19639.0	5.3024145123136845e+17
19640.0	5.3014519677801805e+17
19641.0	5.300340372362581e+17
19642.0	5.2995508512576845e+17
19643.0	5.2985889624337056e+17
19644.0	5.297626091443541e+17
19645.0	5.296622284046334e+17
19646.0	5.295726494657194e+17
19647.0	5.29477045199394e+17
19648.0	5.2938138514882554e+17
19649.0	5.292856594573994e+17
19650.0	5.2919006462825805e+17
19651.0	5.2909423785410554e+17
19652.0	5.2899870342294176e+17
19653.0	5.289026198175743e+17
19654.0	5.2880722135176525e+17
19655.0	5.287115141851819e+17
19656.0	5.286159557066751e+17
19657.0	5.285204802753876e+17
