# Flux units: erg / (cm m2 s)
# Wavelength units: Angstrom
wave	flux
19000.0	7.941227595606698e+17
19001.0	7.939767538810879e+17
19002.0	7.938413602100564e+17
19003.0	7.937003478493866e+17
19004.0	7.935592591523837e+17
19005.0	7.934181117351251e+17
19006.0	7.932767046904489e+17
19007.0	7.931343827282604e+17
19008.0	7.929911539575466e+17
19009.0	7.928437241719464e+17
19010.0	7.926937242566655e+17
19011.0	7.925654807554728e+17
19012.0	7.92418156945954e+17
19013.0	7.92283099098863e+17
19014.0	7.921376894298794e+17
19015.0	7.919967383060479e+17
19016.0	7.918550892500308e+17
19017.0	7.917137648331433e+17
19018.0	7.91570571014963e+17
19019.0	7.914279987926358e+17
19020.0	7.912842970442409e+17
19021.0	7.911430141509632e+17
19022.0	7.909999766405119e+17
19023.0	7.908542572920832e+17
19024.0	7.907119844032511e+17
19025.0	7.905689709401428e+17
19026.0	7.904243183430313e+17
19027.0	7.902784984711165e+17
19028.0	7.901388256313343e+17
19029.0	7.899945617063935e+17
19030.0	7.898850379431935e+17
19031.0	7.897495018056361e+17
19032.0	7.896050719260671e+17
19033.0	7.894552452355411e+17
19034.0	7.893125484423846e+17
19035.0	7.891476082764457e+17
19036.0	7.887290989456042e+17
19037.0	7.888659020425897e+17
19038.0	7.887346864575828e+17
19039.0	7.885937212129276e+17
19040.0	7.884498062540797e+17
19041.0	7.883054011209044e+17
19042.0	7.881563071752873e+17
19043.0	7.880159535999658e+17
19044.0	7.87870934001254e+17
19045.0	7.877257747322195e+17
19046.0	7.875787877253119e+17
19047.0	7.87432796725794e+17
19048.0	7.872833651387049e+17
19049.0	7.871403163036332e+17
19050.0	7.869938744164351e+17
19051.0	7.868093264385364e+17
19052.0	7.86687551672593e+17
19053.0	7.86561185821491e+17
19054.0	7.864174253528403e+17
19055.0	7.862584527028224e+17
19056.0	7.861256444007764e+17
19057.0	7.859807070104233e+17
19058.0	7.858347792050857e+17
19059.0	7.856894255999657e+17
19060.0	7.85543138762206e+17
19061.0	7.853977805433514e+17
19062.0	7.852516040157864e+17
19063.0	7.85105294528785e+17
19064.0	7.849553298456573e+17
19065.0	7.848038834547369e+17
19066.0	7.846634915714387e+17
19067.0	7.845210485336744e+17
19068.0	7.843748134256639e+17
19069.0	7.842284814292308e+17
19070.0	7.84081065484834e+17
19071.0	7.839356774864214e+17
19072.0	7.837892119713106e+17
19073.0	7.836425799423315e+17
19074.0	7.834961293869053e+17
19075.0	7.833494548556458e+17
19076.0	7.832022131146751e+17
19077.0	7.830552161812476e+17
19078.0	7.829083916337151e+17
19079.0	7.827624511056552e+17
19080.0	7.826153884614655e+17
19081.0	7.824661313574228e+17
19082.0	7.823203633550675e+17
19083.0	7.821677677248511e+17
19084.0	7.820136998939306e+17
19085.0	7.818799576601939e+17
19086.0	7.817105975366996e+17
19087.0	7.815823478838611e+17
19088.0	7.814325997666303e+17
19089.0	7.812787192812883e+17
19090.0	7.811413987469994e+17
19091.0	7.809952970178557e+17
19092.0	7.808462069869225e+17
19093.0	7.807022776276308e+17
19094.0	7.805551229883731e+17
19095.0	7.804077695391059e+17
19096.0	7.80259961427285e+17
19097.0	7.801127423355562e+17
19098.0	7.799654481657855e+17
19099.0	7.798178520061268e+17
19100.0	7.796701546239314e+17
19101.0	7.795217765061974e+17
19102.0	7.793711456277844e+17
19103.0	7.792267512599892e+17
19104.0	7.790788993875967e+17
19105.0	7.789307417504426e+17
19106.0	7.787821080597844e+17
19107.0	7.786335133761535e+17
19108.0	7.784836717259433e+17
19109.0	7.783236408530259e+17
19110.0	7.781841136954026e+17
19111.0	7.780414991106047e+17
19112.0	7.778945648121172e+17
19113.0	7.777467934703616e+17
19114.0	7.775985766935208e+17
19115.0	7.77448478491716e+17
19116.0	7.773006120790696e+17
19117.0	7.771521383312041e+17
19118.0	7.769971752959999e+17
19119.0	7.767217731010556e+17
19120.0	7.767029490647037e+17
19121.0	7.765574887844521e+17
19122.0	7.764115140029098e+17
19123.0	7.762631035890345e+17
19124.0	7.761116878165332e+17
19125.0	7.759645407270228e+17
19126.0	7.758100963874131e+17
19127.0	7.756049879313064e+17
19128.0	7.755080905610582e+17
19129.0	7.7536474169344e+17
19130.0	7.752215923348819e+17
19131.0	7.750731540987903e+17
19132.0	7.749240753924778e+17
19133.0	7.747720097824765e+17
19134.0	7.746244619971242e+17
19135.0	7.74477040460322e+17
19136.0	7.743257078748499e+17
19137.0	7.741672515436543e+17
19138.0	7.740218751494825e+17
19139.0	7.738738957702486e+17
19140.0	7.737248370567849e+17
19141.0	7.735755082301439e+17
19142.0	7.734247003521021e+17
19143.0	7.732748472374612e+17
19144.0	7.731245734341289e+17
19145.0	7.72977387057971e+17
19146.0	7.727958276614825e+17
19147.0	7.726754971342164e+17
19148.0	7.725282584690687e+17
19149.0	7.723786159084883e+17
19150.0	7.722287728601769e+17
19151.0	7.720789449113599e+17
19152.0	7.719288081219583e+17
19153.0	7.717772054233087e+17
19154.0	7.716245868642303e+17
19155.0	7.714774322249727e+17
19156.0	7.713271192748032e+17
19157.0	7.711747913809919e+17
19158.0	7.710203453636607e+17
19159.0	7.708737498251263e+17
19160.0	7.707244518965247e+17
19161.0	7.70570503463458e+17
19162.0	7.704013506783913e+17
19163.0	7.70264802734899e+17
19164.0	7.701224796542292e+17
19165.0	7.699730757495464e+17
19166.0	7.698186465094314e+17
19167.0	7.696702450434045e+17
19168.0	7.695210672117076e+17
19169.0	7.693708161974271e+17
19170.0	7.692202703235753e+17
19171.0	7.690688893637972e+17
19172.0	7.689182050779135e+17
19173.0	7.687670960488447e+17
19174.0	7.686141335568381e+17
19175.0	7.684644665294848e+17
19176.0	7.683132929081343e+17
19177.0	7.681536799277055e+17
19178.0	7.680093441403561e+17
19179.0	7.678574669944148e+17
19180.0	7.677063129464832e+17
19181.0	7.67550938170436e+17
19182.0	7.67401805357602e+17
19183.0	7.672510829035517e+17
19184.0	7.670988416920232e+17
19185.0	7.669466537481556e+17
19186.0	7.667944012120063e+17
19187.0	7.666376490265258e+17
19188.0	7.664891754184701e+17
19189.0	7.663363820967254e+17
19190.0	7.661831961881257e+17
19191.0	7.660283675104596e+17
19192.0	7.658766778499071e+17
19193.0	7.657226006517075e+17
19194.0	7.655671398924284e+17
19195.0	7.654117307230889e+17
19196.0	7.652528683832659e+17
19197.0	7.650882805388627e+17
19198.0	7.649016558212436e+17
19199.0	7.646173393321983e+17
19200.0	7.644817142753961e+17
19201.0	7.644428270654804e+17
19202.0	7.64317612970257e+17
19203.0	7.641732998321491e+17
19204.0	7.640241494032383e+17
19205.0	7.638730515589802e+17
19206.0	7.637199038185471e+17
19207.0	7.635601286583636e+17
19208.0	7.634054999091881e+17
19209.0	7.632496139872938e+17
19210.0	7.630928451644072e+17
19211.0	7.62937705828625e+17
19212.0	7.627821005056681e+17
19213.0	7.626216813800105e+17
19214.0	7.624662358600361e+17
19215.0	7.623142074395305e+17
19216.0	7.621586235075241e+17
19217.0	7.619997058028883e+17
19218.0	7.61820182880802e+17
19219.0	7.616767624303955e+17
19220.0	7.615311896029864e+17
19221.0	7.613676233512276e+17
19222.0	7.612173253607421e+17
19223.0	7.610631016415232e+17
19224.0	7.609029207523328e+17
19225.0	7.607446184919037e+17
19226.0	7.605896581130922e+17
19227.0	7.60432042320418e+17
19228.0	7.602758655934463e+17
19229.0	7.601176010817535e+17
19230.0	7.599591309093545e+17
19231.0	7.597997325374803e+17
19232.0	7.596413078033747e+17
19233.0	7.594791677547859e+17
19234.0	7.59323099800098e+17
19235.0	7.591631532326911e+17
19236.0	7.590048400670717e+17
19237.0	7.588446004576255e+17
19238.0	7.586806353275561e+17
19239.0	7.58525017980928e+17
19240.0	7.583643674694994e+17
19241.0	7.582026474105514e+17
19242.0	7.580422273062227e+17
19243.0	7.57864047260467e+17
19244.0	7.577047474547369e+17
19245.0	7.575430978600957e+17
19246.0	7.573808417690964e+17
19247.0	7.572189707152041e+17
19248.0	7.57056721335091e+17
19249.0	7.568939774465363e+17
19250.0	7.567299861719722e+17
19251.0	7.56562454065971e+17
19252.0	7.563872438670675e+17
19253.0	7.562392956654931e+17
19254.0	7.560762588747092e+17
19255.0	7.559007884891476e+17
19256.0	7.557459121362258e+17
19257.0	7.55582029074705e+17
19258.0	7.554163974078464e+17
19259.0	7.552456709199187e+17
19260.0	7.550778059259901e+17
19261.0	7.549162562955945e+17
19262.0	7.54746117010227e+17
19263.0	7.545756802088957e+17
19264.0	7.543933563305983e+17
19265.0	7.542361539564884e+17
19266.0	7.540516596656809e+17
19267.0	7.538840382210045e+17
19268.0	7.537118993711103e+17
19269.0	7.535416745219412e+17
19270.0	7.533691692296874e+17
19271.0	7.531884238077952e+17
19272.0	7.5302570033152e+17
19273.0	7.52833120121651e+17
19274.0	7.526558830952447e+17
19275.0	7.525083464947028e+17
19276.0	7.523288224541353e+17
19277.0	7.52155155898914e+17
19278.0	7.519810584488617e+17
19279.0	7.518041529122816e+17
19280.0	7.516269676156242e+17
19281.0	7.514511534369449e+17
19282.0	7.51274817486848e+17
19283.0	7.510958852625747e+17
19284.0	7.508854374574761e+17
19285.0	7.507052783992832e+17
19286.0	7.505267349869908e+17
19287.0	7.503452222870868e+17
19288.0	7.500584002606419e+17
19289.0	7.498023849776466e+17
19290.0	7.498008569926995e+17
19291.0	7.496096147658068e+17
19292.0	7.494418988094804e+17
19293.0	7.492584677747369e+17
19294.0	7.490742809264127e+17
19295.0	7.488891953785513e+17
19296.0	7.487033043845119e+17
19297.0	7.485165955011923e+17
19298.0	7.483034356591276e+17
19299.0	7.481032872471209e+17
19300.0	7.479143355296425e+17
19301.0	7.477250711967059e+17
19302.0	7.47534392684271e+17
19303.0	7.473411241891155e+17
19304.0	7.471521287110655e+17
19305.0	7.469596142119593e+17
19306.0	7.467666949625172e+17
19307.0	7.465640628234921e+17
19308.0	7.463588099435177e+17
19309.0	7.461595331078825e+17
19310.0	7.45930652455185e+17
19311.0	7.457210699350015e+17
19312.0	7.455253021939028e+17
19313.0	7.453237956662612e+17
19314.0	7.44911954719539e+17
19315.0	7.44723660529118e+17
19316.0	7.447126493626365e+17
19317.0	7.445087773873492e+17
19318.0	7.443017278073514e+17
19319.0	7.440942957068288e+17
19320.0	7.438841244461738e+17
19321.0	7.43659538620962e+17
19322.0	7.43429655949039e+17
19323.0	7.432161678327807e+17
19324.0	7.430012918213289e+17
19325.0	7.427827634099539e+17
19326.0	7.425652914039464e+17
19327.0	7.423428923490301e+17
19328.0	7.420956995048787e+17
19329.0	7.418718517373609e+17
19330.0	7.416449417084927e+17
19331.0	7.414153081782271e+17
19332.0	7.411851444879357e+17
19333.0	7.409507856547839e+17
19334.0	7.407146457803433e+17
19335.0	7.404766257392298e+17
19336.0	7.402364934466217e+17
19337.0	7.39994336703283e+17
19338.0	7.397400363313833e+17
19339.0	7.394901856965972e+17
19340.0	7.39239256007202e+17
19341.0	7.389881669342548e+17
19342.0	7.387257855366483e+17
19343.0	7.384427235639296e+17
19344.0	7.381839000545961e+17
19345.0	7.378631124145491e+17
19346.0	7.376218623399254e+17
19347.0	7.374010423006547e+17
19348.0	7.371404736812372e+17
19349.0	7.368725618141866e+17
19350.0	7.366031764881407e+17
19351.0	7.363311198098772e+17
19352.0	7.360548256262825e+17
19353.0	7.357818034192381e+17
19354.0	7.355032157902164e+17
19355.0	7.3518987359901e+17
19356.0	7.34878133072691e+17
19357.0	7.34580930842897e+17
19358.0	7.342794632855552e+17
19359.0	7.33972918383411e+17
19360.0	7.336634001391615e+17
19361.0	7.333508078895101e+17
19362.0	7.330342444728319e+17
19363.0	7.326995352387583e+17
19364.0	7.32351714890001e+17
19365.0	7.320205958403411e+17
19366.0	7.316490273423357e+17
19367.0	7.312802322579455e+17
19368.0	7.309347046555647e+17
19369.0	7.305818412154879e+17
19370.0	7.302253505413119e+17
19371.0	7.298623605134676e+17
19372.0	7.294969843460778e+17
19373.0	7.291215391926953e+17
19374.0	7.28741512880674e+17
19375.0	7.283534494433279e+17
19376.0	7.279564496218794e+17
19377.0	7.275175017272659e+17
19378.0	7.270702134591487e+17
19379.0	7.265910584071508e+17
19380.0	7.261619890771284e+17
19381.0	7.257244950680918e+17
19382.0	7.252717096053417e+17
19383.0	7.24814846300433e+17
19384.0	7.243514038102697e+17
19385.0	7.238669682693459e+17
19386.0	7.233833661366271e+17
19387.0	7.228903784098472e+17
19388.0	7.223879122550781e+17
19389.0	7.218753374082387e+17
19390.0	7.212972831845033e+17
19391.0	7.204807706148863e+17
19392.0	7.201024220244649e+17
19393.0	7.195800397763923e+17
19394.0	7.190212592183978e+17
19395.0	7.184436916737364e+17
19396.0	7.178403111239679e+17
19397.0	7.172211545385641e+17
19398.0	7.165841531469824e+17
19399.0	7.159143254545747e+17
19400.0	7.15258590204177e+17
19401.0	7.145668734178644e+17
19402.0	7.138413685768191e+17
19403.0	7.130256621524308e+17
19404.0	7.122618654130173e+17
19405.0	7.114868510075561e+17
19406.0	7.10685527970065e+17
19407.0	7.098551175741439e+17
19408.0	7.089792677664083e+17
19409.0	7.081171872994644e+17
19410.0	7.072155706239658e+17
19411.0	7.062853458591743e+17
19412.0	7.053303124852735e+17
19413.0	7.043167194972159e+17
19414.0	7.032750596947965e+17
19415.0	7.022161929000276e+17
19416.0	7.011092768576852e+17
19417.0	6.999546824840531e+17
19418.0	6.98752877863458e+17
19419.0	6.975022312019283e+17
19420.0	6.96201304692053e+17
19421.0	6.948510191233706e+17
19422.0	6.934502823690239e+17
19423.0	6.919827668424019e+17
19424.0	6.904454650178217e+17
19425.0	6.888537778902355e+17
19426.0	6.871910786793471e+17
19427.0	6.854395784331264e+17
19428.0	6.836100800708607e+17
19429.0	6.81667624907571e+17
19430.0	6.796048762667009e+17
19431.0	6.774427667311274e+17
19432.0	6.75230509048354e+17
19433.0	6.728473437536256e+17
19434.0	6.702922010897065e+17
19435.0	6.676060864599378e+17
19436.0	6.647540680927914e+17
19437.0	6.6169351976605e+17
19438.0	6.581579163893757e+17
19439.0	6.548612471324672e+17
19440.0	6.510964754437459e+17
19441.0	6.469754974546601e+17
19442.0	6.424678990086145e+17
19443.0	6.375218753481385e+17
19444.0	6.320410324194643e+17
19445.0	6.259162365995692e+17
19446.0	6.18997364171298e+17
19447.0	6.110814364762107e+17
19448.0	6.01881127472333e+17
19449.0	5.909329925723476e+17
19450.0	5.771042625333921e+17
19451.0	5.688630386709845e+17
19452.0	5.845153679234387e+17
19453.0	5.964004068775256e+17
19454.0	6.061534166559397e+17
19455.0	6.144229901686099e+17
19456.0	6.21564078640333e+17
19457.0	6.278170097483772e+17
19458.0	6.330669274409646e+17
19459.0	6.382953350649175e+17
19460.0	6.427871379718141e+17
19461.0	6.46844824752401e+17
19462.0	6.505579855304022e+17
19463.0	6.539526013627048e+17
19464.0	6.570948149553833e+17
19465.0	6.600200473455274e+17
19466.0	6.627110207968595e+17
19467.0	6.652045280935935e+17
19468.0	6.675661243198122e+17
19469.0	6.697756551457449e+17
19470.0	6.718218646672724e+17
19471.0	6.737534182752256e+17
19472.0	6.755863861657597e+17
19473.0	6.773249277602474e+17
19474.0	6.789346924778835e+17
19475.0	6.804399141683197e+17
19476.0	6.819017898939731e+17
19477.0	6.832612698663594e+17
19478.0	6.845597989819732e+17
19479.0	6.857974693756927e+17
19480.0	6.869601223355049e+17
19481.0	6.880650000160084e+17
19482.0	6.891228216601257e+17
19483.0	6.901282648358911e+17
19484.0	6.91085930415172e+17
19485.0	6.919951188579667e+17
19486.0	6.928545005699072e+17
19487.0	6.936662794480297e+17
19488.0	6.944277340880895e+17
19489.0	6.95199197176354e+17
19490.0	6.958703913730047e+17
19491.0	6.965751569885865e+17
19492.0	6.972241649947988e+17
19493.0	6.978441984693588e+17
19494.0	6.984386560567977e+17
19495.0	6.990073555845119e+17
19496.0	6.995368766778025e+17
19497.0	7.000553504636927e+17
19498.0	7.004705846023508e+17
19499.0	7.007454610412883e+17
19500.0	7.015507386783059e+17
19501.0	7.020093170341204e+17
19502.0	7.02414625981508e+17
19503.0	7.028011911435604e+17
19504.0	7.031701385510911e+17
19505.0	7.035232732927316e+17
19506.0	7.038604397598035e+17
19507.0	7.041777229190484e+17
19508.0	7.044699532208808e+17
19509.0	7.047503931943593e+17
19510.0	7.050102668176042e+17
19511.0	7.049597125918717e+17
19512.0	7.055781052547071e+17
19513.0	7.05798473986867e+17
19514.0	7.060555430188371e+17
19515.0	7.063548744171517e+17
19516.0	7.065837276670632e+17
19517.0	7.067913891960147e+17
19518.0	7.069959280656383e+17
19519.0	7.071819650214569e+17
19520.0	7.073584128196607e+17
19521.0	7.075272032168617e+17
19522.0	7.076813915641172e+17
19523.0	7.078598257846953e+17
19524.0	7.080370054889472e+17
19525.0	7.082271795664211e+17
19526.0	7.08352989672243e+17
19527.0	7.08469503243059e+17
19528.0	7.085776340779007e+17
19529.0	7.086799697827156e+17
19530.0	7.087758717048148e+17
19531.0	7.088653823464787e+17
19532.0	7.089489769223508e+17
19533.0	7.090268387235156e+17
19534.0	7.090990629606739e+17
19535.0	7.091655382051497e+17
19536.0	7.092859917653331e+17
19537.0	7.093455989768191e+17
19538.0	7.093902276296704e+17
19539.0	7.09457970532625e+17
19540.0	7.095205057877331e+17
19541.0	7.095622280675327e+17
19542.0	7.095974412069545e+17
19543.0	7.096285615445332e+17
19544.0	7.096544989806591e+17
19545.0	7.096567100779178e+17
19546.0	7.096678969857363e+17
19547.0	7.097547901020842e+17
19548.0	7.097618284238164e+17
19549.0	7.097592705974271e+17
19550.0	7.097647349366783e+17
19551.0	7.097625859151187e+17
19552.0	7.097579375078058e+17
19553.0	7.097501502231892e+17
19554.0	7.0974074533533e+17
19555.0	7.097298149791059e+17
19556.0	7.097169324539904e+17
19557.0	7.097008916179626e+17
19558.0	7.096827901203798e+17
19559.0	7.096744245810518e+17
19560.0	7.096752052808361e+17
19561.0	7.096506066665471e+17
19562.0	7.096252207813972e+17
19563.0	7.095964519104511e+17
19564.0	7.095741393316521e+17
19565.0	7.095459905186474e+17
19566.0	7.095106617562451e+17
19567.0	7.094744228298751e+17
19568.0	7.094344323781974e+17
19569.0	7.093953025977002e+17
19570.0	7.093532842000383e+17
19571.0	7.093077397908138e+17
19572.0	7.092575854220628e+17
19573.0	7.092088336285693e+17
19574.0	7.0915390977693e+17
19575.0	7.091286687350783e+17
19576.0	7.090732714863272e+17
19577.0	7.090158906114045e+17
19578.0	7.089562870349823e+17
19579.0	7.088959939149823e+17
19580.0	7.088430739619839e+17
19581.0	7.087965068416339e+17
19582.0	7.087326805797545e+17
19583.0	7.08666964783923e+17
19584.0	7.085997630859945e+17
19585.0	7.085253643818323e+17
19586.0	7.084541430027604e+17
19587.0	7.083885851923795e+17
19588.0	7.083026250290516e+17
19589.0	7.082425542071636e+17
19590.0	7.081664575089322e+17
19591.0	7.080998311297024e+17
19592.0	7.080562563656362e+17
19593.0	7.079765201300138e+17
19594.0	7.078855528065705e+17
19595.0	7.0782017353373e+17
19596.0	7.077407507524266e+17
19597.0	7.076676638867453e+17
19598.0	7.075726037614591e+17
19599.0	7.075016896850602e+17
19600.0	7.074173085373782e+17
19601.0	7.073287694363305e+17
19602.0	7.072408965305684e+17
19603.0	7.07147022414643e+17
19604.0	7.07100628099618e+17
19605.0	7.07004319469841e+17
19606.0	7.06929621152563e+17
19607.0	7.068410325587283e+17
19608.0	7.067509200344403e+17
19609.0	7.066585748821331e+17
19610.0	7.065694868865024e+17
19611.0	7.064776265957375e+17
19612.0	7.063853573603327e+17
19613.0	7.062921828543145e+17
19614.0	7.061959962787839e+17
19615.0	7.061034033829203e+17
19616.0	7.060062603662676e+17
19617.0	7.059112249873747e+17
19618.0	7.058084343403859e+17
19619.0	7.057134032956074e+17
19620.0	7.056241781462355e+17
19621.0	7.055488126550015e+17
19622.0	7.054523324781908e+17
19623.0	7.053538635022335e+17
19624.0	7.052545212721834e+17
19625.0	7.051542200844288e+17
19626.0	7.050526101340159e+17
19627.0	7.049489844011007e+17
19628.0	7.048410871889919e+17
19629.0	7.047323964145663e+17
19630.0	7.045703830339583e+17
19631.0	7.04365233054242e+17
19632.0	7.044175511246164e+17
19633.0	7.043320946971987e+17
19634.0	7.042670244047529e+17
19635.0	7.041875395477504e+17
19636.0	7.040856583656787e+17
19637.0	7.039587135608148e+17
19638.0	7.038746100760575e+17
19639.0	7.037678133095081e+17
19640.0	7.036546786699945e+17
19641.0	7.035284719927295e+17
19642.0	7.034475147253076e+17
19643.0	7.033394138098345e+17
19644.0	7.032300322335401e+17
19645.0	7.031166761347753e+17
19646.0	7.030165383151615e+17
19647.0	7.029078699802623e+17
19648.0	7.027983831269375e+17
19649.0	7.026884822958079e+17
19650.0	7.025784012494164e+17
19651.0	7.024679706077865e+17
19652.0	7.023572401433257e+17
19653.0	7.022462002790399e+17
19654.0	7.021349804791124e+17
19655.0	7.020232828780543e+17
19656.0	7.019114632227497e+17
19657.0	7.018103822439766e+17
19658.0	7.017004208750591e+17
19659.0	7.015879093693098e+17
19660.0	7.01475242254882e+17
19661.0	7.013622628745216e+17
19662.0	7.012488909772116e+17
19663.0	7.011340464597674e+17
19664.0	7.010214131793919e+17
19665.0	7.009082302354772e+17
19666.0	7.007938791778985e+17
