# Flux units: erg / (cm m2 s)
# Wavelength units: Angstrom
wave	flux
19000.0	4.0874132132331514e+17
19001.0	4.0865454431928314e+17
19002.0	4.0859141689835526e+17
19003.0	4.085143255908351e+17
19004.0	4.084387396190208e+17
19005.0	4.0836414601953274e+17
19006.0	4.082900525907967e+17
19007.0	4.082025221499562e+17
19008.0	4.0813314011299834e+17
19009.0	4.080478218179925e+17
19010.0	4.079338467098623e+17
19011.0	4.0789976889862816e+17
19012.0	4.077190754162003e+17
19013.0	4.0776462982184954e+17
19014.0	4.0768457656674976e+17
19015.0	4.076097984877908e+17
19016.0	4.075323494061398e+17
19017.0	4.074648627052543e+17
19018.0	4.073842350402219e+17
19019.0	4.0731436464646816e+17
19020.0	4.0723862110863354e+17
19021.0	4.071656810435925e+17
19022.0	4.0709006221639674e+17
19023.0	4.0701104062027085e+17
19024.0	4.069357255305897e+17
19025.0	4.0685618237276154e+17
19026.0	4.067773016353449e+17
19027.0	4.0662288483833165e+17
19028.0	4.066418819596287e+17
19029.0	4.065640688822955e+17
19030.0	4.0649225198196045e+17
19031.0	4.0641891282889376e+17
19032.0	4.0634266115112954e+17
19033.0	4.062582570046806e+17
19034.0	4.0619264760436045e+17
19035.0	4.060993214742527e+17
19036.0	3.9894353021938406e+17
19037.0	4.0596520098420045e+17
19038.0	4.05892798559027e+17
19039.0	4.058206194805418e+17
19040.0	4.057463693246464e+17
19041.0	4.056693463842815e+17
19042.0	4.0551248675471354e+17
19043.0	4.055233167272617e+17
19044.0	4.054461358713515e+17
19045.0	4.05370569822481e+17
19046.0	4.0529195360583674e+17
19047.0	4.052208868567721e+17
19048.0	4.0510781310457165e+17
19049.0	4.049242449160873e+17
19050.0	4.0498951157186554e+17
19051.0	4.040547814954318e+17
19052.0	4.0461649617879014e+17
19053.0	4.0477488246510925e+17
19054.0	4.047033495890602e+17
19055.0	4.045807471471274e+17
19056.0	4.0454218045194234e+17
19057.0	4.044794923144532e+17
19058.0	4.0432317661620896e+17
19059.0	4.0429962650801485e+17
19060.0	4.042539111809023e+17
19061.0	4.041832120625834e+17
19062.0	4.0410850850242554e+17
19063.0	4.040344265381204e+17
19064.0	4.0394479139553274e+17
19065.0	4.038672923317589e+17
19066.0	4.037772288109225e+17
19067.0	4.037357421811029e+17
19068.0	4.0366334031517e+17
19069.0	4.0358904807642445e+17
19070.0	4.0351179514839034e+17
19071.0	4.034368198672383e+17
19072.0	4.03335537491968e+17
19073.0	4.0329216405449376e+17
19074.0	4.0321866908303354e+17
19075.0	4.031445606946133e+17
19076.0	4.03068183257634e+17
19077.0	4.029937214991017e+17
19078.0	4.0291697510318074e+17
19079.0	4.0284759278660256e+17
19080.0	4.027719921347242e+17
19081.0	4.0269527705627296e+17
19082.0	4.0262125115583136e+17
19083.0	4.0254162481097376e+17
19084.0	4.0245503235631776e+17
19085.0	4.024005771482453e+17
19086.0	4.0224934173081594e+17
19087.0	4.020313596275371e+17
19088.0	4.021282846801919e+17
19089.0	4.02004822336034e+17
19090.0	4.020305457228459e+17
19091.0	4.019446846849023e+17
19092.0	4.0178994268951885e+17
19093.0	4.018129288735402e+17
19094.0	4.017388847977812e+17
19095.0	4.016653259330901e+17
19096.0	4.0158929976907085e+17
19097.0	4.015172282045781e+17
19098.0	4.014102113069738e+17
19099.0	4.013313107165183e+17
19100.0	4.012844307010901e+17
19101.0	4.0121760851776845e+17
19102.0	4.011332591768917e+17
19103.0	4.010746061695657e+17
19104.0	4.010016979113301e+17
19105.0	4.008583790329856e+17
19106.0	4.008216963492522e+17
19107.0	4.0075918947560096e+17
19108.0	4.0068180121135763e+17
19109.0	4.0020612610348314e+17
19110.0	4.005373438590974e+17
19111.0	4.004636749638314e+17
19112.0	4.0038895497598285e+17
19113.0	4.003379928541866e+17
19114.0	4.0025239479910394e+17
19115.0	4.001686325908822e+17
19116.0	4.0011623587730765e+17
19117.0	4.000418966623572e+17
19118.0	3.999302194735786e+17
19119.0	3.98643578623316e+17
19120.0	3.997722606567422e+17
19121.0	3.997106970121557e+17
19122.0	3.996778917527551e+17
19123.0	3.996045160393385e+17
19124.0	3.995065614248617e+17
19125.0	3.9945219213011616e+17
19126.0	3.9938323525577376e+17
19127.0	3.990859477417983e+17
19128.0	3.991491779930793e+17
19129.0	3.991564323214676e+17
19130.0	3.9908842433850016e+17
19131.0	3.990145926343338e+17
19132.0	3.9894388820322976e+17
19133.0	3.988459895827114e+17
19134.0	3.987605072205142e+17
19135.0	3.987223097638911e+17
19136.0	3.9865165846063763e+17
19137.0	3.985588626303659e+17
19138.0	3.98500231713041e+17
19139.0	3.9843192376743245e+17
19140.0	3.9835902802220365e+17
19141.0	3.982857248003412e+17
19142.0	3.982084677479082e+17
19143.0	3.9813261627665056e+17
19144.0	3.9806181223082656e+17
19145.0	3.979921836386987e+17
19146.0	3.978504598541653e+17
19147.0	3.9783135298191354e+17
19148.0	3.977449799592619e+17
19149.0	3.976690080415744e+17
19150.0	3.976273113470293e+17
19151.0	3.975541065515008e+17
19152.0	3.974756511165098e+17
19153.0	3.973595568362836e+17
19154.0	3.9730976031156896e+17
19155.0	3.9726147059056634e+17
19156.0	3.9719011450443085e+17
19157.0	3.9709082931691514e+17
19158.0	3.9672170847491386e+17
19159.0	3.9696892340906656e+17
19160.0	3.96891773800721e+17
19161.0	3.9681906463211514e+17
19162.0	3.960929959368027e+17
19163.0	3.9664701001782605e+17
19164.0	3.966044037884585e+17
19165.0	3.964638324588542e+17
19166.0	3.964271376116393e+17
19167.0	3.9632561797857274e+17
19168.0	3.963123630691669e+17
19169.0	3.9622926971262285e+17
19170.0	3.9617002831435085e+17
19171.0	3.960548013462869e+17
19172.0	3.960211650554539e+17
19173.0	3.9594945000680096e+17
19174.0	3.958726223112874e+17
19175.0	3.958068077395968e+17
19176.0	3.957346716527274e+17
19177.0	3.956443593397588e+17
19178.0	3.9557022529617914e+17
19179.0	3.9545910455173126e+17
19180.0	3.954385725947904e+17
19181.0	3.9535458298538656e+17
19182.0	3.952930145872554e+17
19183.0	3.9522599380363936e+17
19184.0	3.9515197167807136e+17
19185.0	3.95080250757393e+17
19186.0	3.9500909648718496e+17
19187.0	3.9492865218314234e+17
19188.0	3.948619955350185e+17
19189.0	3.9478787763950925e+17
19190.0	3.9471227510019405e+17
19191.0	3.946365091927381e+17
19192.0	3.9457373535163725e+17
19193.0	3.944922319159295e+17
19194.0	3.944170486672042e+17
19195.0	3.943563298952533e+17
19196.0	3.9428233398408525e+17
19197.0	3.9421037084235085e+17
19198.0	3.9413572837922125e+17
19199.0	3.904511167605408e+17
19200.0	3.913708797427726e+17
19201.0	3.9391917289854285e+17
19202.0	3.938500239949823e+17
19203.0	3.937659114924715e+17
19204.0	3.937014193149268e+17
19205.0	3.936328680297812e+17
19206.0	3.9355948476661754e+17
19207.0	3.934740011461289e+17
19208.0	3.9338973100769274e+17
19209.0	3.933441961754623e+17
19210.0	3.9327181632962554e+17
19211.0	3.932011925689685e+17
19212.0	3.931287012944555e+17
19213.0	3.930155078647808e+17
19214.0	3.929237647349077e+17
19215.0	3.9289637124614816e+17
19216.0	3.928401802952704e+17
19217.0	3.927673796209322e+17
19218.0	3.925930670030846e+17
19219.0	3.92607830254114e+17
19220.0	3.925464142490282e+17
19221.0	3.924417557386581e+17
19222.0	3.9240450095185914e+17
19223.0	3.923332238584489e+17
19224.0	3.922586295599104e+17
19225.0	3.92173713498658e+17
19226.0	3.9211737427913376e+17
19227.0	3.9204565251959456e+17
19228.0	3.9197590166350496e+17
19229.0	3.91903902241041e+17
19230.0	3.918282756543829e+17
19231.0	3.9175653425151994e+17
19232.0	3.916859969634304e+17
19233.0	3.916075213957802e+17
19234.0	3.9154134352745805e+17
19235.0	3.914687554344277e+17
19236.0	3.914001601090901e+17
19237.0	3.9132613483779405e+17
19238.0	3.912394309544618e+17
19239.0	3.9118445670126925e+17
19240.0	3.9111031259135994e+17
19241.0	3.91037425164834e+17
19242.0	3.909663292653568e+17
19243.0	3.9088063089650336e+17
19244.0	3.90825480552448e+17
19245.0	3.907531522965504e+17
19246.0	3.9067977777151994e+17
19247.0	3.9060893471866886e+17
19248.0	3.9053689356288e+17
19249.0	3.9046124614451194e+17
19250.0	3.9038177428985165e+17
19251.0	3.902959825977344e+17
19252.0	3.902241176726185e+17
19253.0	3.901759651053567e+17
19254.0	3.9010663612634445e+17
19255.0	3.900180095740586e+17
19256.0	3.8984239455491424e+17
19257.0	3.8963624059863034e+17
19258.0	3.895649471474347e+17
19259.0	3.894862495612928e+17
19260.0	3.8931229024365203e+17
19261.0	3.8934815832364365e+17
19262.0	3.892711883014144e+17
19263.0	3.891957842225834e+17
19264.0	3.890658877461843e+17
19265.0	3.890352622665726e+17
19266.0	3.8895126398894074e+17
19267.0	3.8891961377095674e+17
19268.0	3.888469954789376e+17
19269.0	3.8877580590667085e+17
19270.0	3.887038584236714e+17
19271.0	3.885897172211029e+17
19272.0	3.8855692146879136e+17
19273.0	3.883873448493055e+17
19274.0	3.8833803752024736e+17
19275.0	3.8834600851537914e+17
19276.0	3.882719930307925e+17
19277.0	3.8820100765122554e+17
19278.0	3.881280645103615e+17
19279.0	3.880522876977151e+17
19280.0	3.879763186461353e+17
19281.0	3.879133297770495e+17
19282.0	3.878438267344212e+17
19283.0	3.877119565583701e+17
19284.0	3.8767192765890566e+17
19285.0	3.876084240788137e+17
19286.0	3.8755266388295674e+17
19287.0	3.8748429630832634e+17
19288.0	3.851422179262435e+17
19289.0	3.830395325906902e+17
19290.0	3.8726928894525434e+17
19291.0	3.871706116521983e+17
19292.0	3.8712598691403085e+17
19293.0	3.870536385953792e+17
19294.0	3.869811405400746e+17
19295.0	3.869108596637695e+17
19296.0	3.868087338139648e+17
19297.0	3.8675116720127994e+17
19298.0	3.8669200465592314e+17
19299.0	3.86587869384977e+17
19300.0	3.8654662329849165e+17
19301.0	3.864787870023679e+17
19302.0	3.864048703635455e+17
19303.0	3.8632531846758394e+17
19304.0	3.8625905720251725e+17
19305.0	3.8618879932497914e+17
19306.0	3.861153403546283e+17
19307.0	3.8603636042192205e+17
19308.0	3.859676155696469e+17
19309.0	3.857510204527956e+17
19310.0	3.856439475612328e+17
19311.0	3.85732503998737e+17
19312.0	3.856845639428778e+17
19313.0	3.856126293224107e+17
19314.0	3.7247063533378214e+17
19315.0	3.7304818812846496e+17
19316.0	3.85339463041024e+17
19317.0	3.853228845651285e+17
19318.0	3.85250609926417e+17
19319.0	3.851795198989653e+17
19320.0	3.8509070285537274e+17
19321.0	3.850075676256938e+17
19322.0	3.849424499376128e+17
19323.0	3.848303854048598e+17
19324.0	3.848120662928042e+17
19325.0	3.846011175479978e+17
19326.0	3.8466995439534074e+17
19327.0	3.845926476404053e+17
19328.0	3.844651754018134e+17
19329.0	3.844524298207231e+17
19330.0	3.84374558232849e+17
19331.0	3.843008278910293e+17
19332.0	3.842305129010516e+17
19333.0	3.841550944916822e+17
19334.0	3.8407870586989235e+17
19335.0	3.838944218535253e+17
19336.0	3.8393030377471994e+17
19337.0	3.8386429612523514e+17
19338.0	3.837667955441663e+17
19339.0	3.837152899104767e+17
19340.0	3.8361717493377696e+17
19341.0	3.8351602985205754e+17
19342.0	3.8342256600896845e+17
19343.0	3.8341949997274445e+17
19344.0	3.833027169878015e+17
19345.0	3.830085464009383e+17
19346.0	3.829705981558779e+17
19347.0	3.827753825949013e+17
19348.0	3.8276362232572576e+17
19349.0	3.826824767340544e+17
19350.0	3.825865189578068e+17
19351.0	3.825301245831851e+17
19352.0	3.8239038414520314e+17
19353.0	3.8238090914256205e+17
19354.0	3.8230691295177376e+17
19355.0	3.822189335805951e+17
19356.0	3.82152037367808e+17
19357.0	3.8207521323745274e+17
19358.0	3.8199433629095245e+17
19359.0	3.8189257611455136e+17
19360.0	3.8179252952104954e+17
19361.0	3.81757153013487e+17
19362.0	3.816832463710891e+17
19363.0	3.816037665472512e+17
19364.0	3.815233701281791e+17
19365.0	3.8144347248175776e+17
19366.0	3.8136349535327565e+17
19367.0	3.8128168265755296e+17
19368.0	3.81201209622528e+17
19369.0	3.8110962713449805e+17
19370.0	3.809818101241174e+17
19371.0	3.807905084080128e+17
19372.0	3.807116721302185e+17
19373.0	3.8062393770639354e+17
19374.0	3.805413909375659e+17
19375.0	3.804548872623445e+17
19376.0	3.803693956726784e+17
19377.0	3.802806692260523e+17
19378.0	3.8019272837256525e+17
19379.0	3.801039425066326e+17
19380.0	3.800136125076821e+17
19381.0	3.7992242708043085e+17
19382.0	3.798235445460992e+17
19383.0	3.797247096171178e+17
19384.0	3.796409777476949e+17
19385.0	3.795472347037695e+17
19386.0	3.794509283808597e+17
19387.0	3.793518106159787e+17
19388.0	3.7925268236533754e+17
19389.0	3.791511289681236e+17
19390.0	3.790468534676138e+17
19391.0	3.726468453848336e+17
19392.0	3.785078371691167e+17
19393.0	3.787270398148608e+17
19394.0	3.7861215908659194e+17
19395.0	3.784755847189845e+17
19396.0	3.783682620566186e+17
19397.0	3.782682894925824e+17
19398.0	3.7812119154633376e+17
19399.0	3.779108567078229e+17
19400.0	3.77866510471441e+17
19401.0	3.7776062960107526e+17
19402.0	3.776255481959765e+17
19403.0	3.774847500244308e+17
19404.0	3.773424016381269e+17
19405.0	3.7719192552953165e+17
19406.0	3.7703828481856845e+17
19407.0	3.7685828220791456e+17
19408.0	3.766136315314177e+17
19409.0	3.765370086577493e+17
19410.0	3.763606519458475e+17
19411.0	3.7617425700618234e+17
19412.0	3.759763635219115e+17
19413.0	3.757525571381931e+17
19414.0	3.755543561415338e+17
19415.0	3.753319340878506e+17
19416.0	3.7505100820425376e+17
19417.0	3.747734549605033e+17
19418.0	3.745845748957183e+17
19419.0	3.7430492687674016e+17
19420.0	3.740162957071701e+17
19421.0	3.737069473322325e+17
19422.0	3.733747833416363e+17
19423.0	3.7303181041991674e+17
19424.0	3.7266938809111885e+17
19425.0	3.7229139266109434e+17
19426.0	3.7188149137025696e+17
19427.0	3.7144396702242125e+17
19428.0	3.709907022206294e+17
19429.0	3.70504666063394e+17
19430.0	3.698314217608537e+17
19431.0	3.684785497746099e+17
19432.0	3.6892875161599994e+17
19433.0	3.6835522961735674e+17
19434.0	3.6776462093298336e+17
19435.0	3.669816054732115e+17
19436.0	3.6604684764446675e+17
19437.0	3.6587568362072736e+17
19438.0	3.538723404076425e+17
19439.0	3.635628079404368e+17
19440.0	3.6384927799487123e+17
19441.0	3.6314345562439654e+17
19442.0	3.622310570710356e+17
19443.0	3.607260122404177e+17
19444.0	3.5713359086441786e+17
19445.0	3.521811493246294e+17
19446.0	3.488387327939925e+17
19447.0	3.449566460728657e+17
19448.0	3.38496879538996e+17
19449.0	3.230373916267856e+17
19450.0	2.806748859247261e+17
19451.0	2.6206978776760237e+17
19452.0	3.073635757238985e+17
19453.0	3.31417705914914e+17
19454.0	3.4242184742611565e+17
19455.0	3.4651142129800525e+17
19456.0	3.5001665627095046e+17
19457.0	3.536278331064318e+17
19458.0	3.256178360451274e+17
19459.0	3.561928404238463e+17
19460.0	3.615726331319636e+17
19461.0	3.6225000588793165e+17
19462.0	3.628622226478421e+17
19463.0	3.6338599537759565e+17
19464.0	3.638853722876586e+17
19465.0	3.643877701451776e+17
19466.0	3.6487164462803616e+17
19467.0	3.6538733821951994e+17
19468.0	3.6585535452829e+17
19469.0	3.6622168874461843e+17
19470.0	3.667217733036714e+17
19471.0	3.671273266391722e+17
19472.0	3.675018932955818e+17
19473.0	3.6785236877858125e+17
19474.0	3.681512696315903e+17
19475.0	3.683883023335422e+17
19476.0	3.687700255910569e+17
19477.0	3.6903540011390285e+17
19478.0	3.692662265042261e+17
19479.0	3.694401570209791e+17
19480.0	3.6967701468064416e+17
19481.0	3.6985223760226976e+17
19482.0	3.700210773524479e+17
19483.0	3.701693044053333e+17
19484.0	3.7029821270370976e+17
19485.0	3.704097109355179e+17
19486.0	3.704705690282666e+17
19487.0	3.7061112833419936e+17
19488.0	3.706947986871637e+17
19489.0	3.707387154268159e+17
19490.0	3.706517923211946e+17
19491.0	3.708765531886933e+17
19492.0	3.7092609029570554e+17
19493.0	3.709639028550314e+17
19494.0	3.7099423361488205e+17
19495.0	3.710178522300415e+17
19496.0	3.7097863262153376e+17
19497.0	3.7104695147233274e+17
19498.0	3.696541891384651e+17
19499.0	3.616673524700507e+17
19500.0	3.7106182097906336e+17
19501.0	3.7105730699919354e+17
19502.0	3.710462184478037e+17
19503.0	3.710394476527616e+17
19504.0	3.710243903810218e+17
19505.0	3.710069965324287e+17
19506.0	3.7098818913348256e+17
19507.0	3.709631083140437e+17
19508.0	3.709410181731668e+17
19509.0	3.709132008499882e+17
19510.0	3.7084866889646074e+17
19511.0	3.4876416796043814e+17
19512.0	3.6886451948530336e+17
19513.0	3.679985911638666e+17
19514.0	3.6851373215579885e+17
19515.0	3.705940123582464e+17
19516.0	3.7066209052590074e+17
19517.0	3.7062065059266554e+17
19518.0	3.705750660579327e+17
19519.0	3.705259973148672e+17
19520.0	3.7045557320308045e+17
19521.0	3.704540573816149e+17
19522.0	3.703999420519765e+17
19523.0	3.7034680196792314e+17
19524.0	3.7028375962146125e+17
19525.0	3.702632175282858e+17
19526.0	3.7021591787274234e+17
19527.0	3.7016457602662394e+17
19528.0	3.7011021616906234e+17
19529.0	3.7005593824023885e+17
19530.0	3.700106284324181e+17
19531.0	3.699577212720468e+17
19532.0	3.699042446650027e+17
19533.0	3.6985025502467405e+17
19534.0	3.697952199540736e+17
19535.0	3.69738964341009e+17
19536.0	3.6968068679379616e+17
19537.0	3.6962894334306976e+17
19538.0	3.6951176791108275e+17
19539.0	3.694516900287829e+17
19540.0	3.695956386119679e+17
19541.0	3.6954024185255245e+17
19542.0	3.694861267326293e+17
19543.0	3.6939009688425805e+17
19544.0	3.6936874934490445e+17
19545.0	3.692461201992363e+17
19546.0	3.691488768688127e+17
19547.0	3.6919693716138656e+17
19548.0	3.691362919994708e+17
19549.0	3.690674385846271e+17
19550.0	3.690172559742294e+17
19551.0	3.6895732111769594e+17
19552.0	3.688966268824233e+17
19553.0	3.688325890878121e+17
19554.0	3.6877044033781754e+17
19555.0	3.6870728369657165e+17
19556.0	3.6864934239272954e+17
19557.0	3.6859077753569274e+17
19558.0	3.685292827475968e+17
19559.0	3.684680285028351e+17
19560.0	3.6838847178342394e+17
19561.0	3.683417489145855e+17
19562.0	3.682665788080127e+17
19563.0	3.682208026634922e+17
19564.0	3.681586760734037e+17
19565.0	3.680960589594623e+17
19566.0	3.6803071247209805e+17
19567.0	3.679728297487019e+17
19568.0	3.67907974484241e+17
19569.0	3.6784512507576314e+17
19570.0	3.677844323784021e+17
19571.0	3.6772059556085754e+17
19572.0	3.67655516110848e+17
19573.0	3.6758751616696314e+17
19574.0	3.6752197806981114e+17
19575.0	3.6746926622419616e+17
19576.0	3.6740288660985165e+17
19577.0	3.673313831638357e+17
19578.0	3.672733341362858e+17
19579.0	3.6721289351659514e+17
19580.0	3.6714894799667206e+17
19581.0	3.670868739052885e+17
19582.0	3.670252253260458e+17
19583.0	3.669615409015466e+17
19584.0	3.668939886297087e+17
19585.0	3.6682214243915085e+17
19586.0	3.667527106996906e+17
19587.0	3.666818603767125e+17
19588.0	3.66582990635008e+17
19589.0	3.665753132411563e+17
19590.0	3.6649553764898125e+17
19591.0	3.66448363962368e+17
19592.0	3.663858211575125e+17
19593.0	3.6631579424631456e+17
19594.0	3.6622785912504314e+17
19595.0	3.661867822088192e+17
19596.0	3.6597018268794874e+17
19597.0	3.660518956990464e+17
19598.0	3.659310461266601e+17
19599.0	3.6593638568536736e+17
19600.0	3.658732142242474e+17
19601.0	3.658011239951018e+17
19602.0	3.657362715967487e+17
19603.0	3.6556970585838925e+17
19604.0	3.655983800778751e+17
19605.0	3.6551830074818566e+17
19606.0	3.65486174896128e+17
19607.0	3.6542285257987405e+17
19608.0	3.6535617922443936e+17
19609.0	3.6528811902238714e+17
19610.0	3.652060967512746e+17
19611.0	3.651341536722944e+17
19612.0	3.651005784085845e+17
19613.0	3.6503502667994445e+17
19614.0	3.649674992943103e+17
19615.0	3.6490653452642963e+17
19616.0	3.6489516369838074e+17
19617.0	3.6486937474061664e+17
19618.0	3.6488786085587603e+17
19619.0	3.648062385116499e+17
19620.0	3.647359773485738e+17
19621.0	3.6473289803038714e+17
19622.0	3.6470867501602125e+17
19623.0	3.646417132322815e+17
19624.0	3.645723644701355e+17
19625.0	3.6451422149017594e+17
19626.0	3.644491579086165e+17
19627.0	3.6438333515803296e+17
19628.0	3.6421545121983155e+17
19629.0	3.641397545183914e+17
19630.0	3.637392146344616e+17
19631.0	3.599579343050082e+17
19632.0	3.640593088162474e+17
19633.0	3.6397827668049914e+17
19634.0	3.639321273128276e+17
19635.0	3.638526968419668e+17
19636.0	3.6375685217211725e+17
19637.0	3.636599961856682e+17
19638.0	3.636628088160255e+17
19639.0	3.636067139147093e+17
19640.0	3.6351510374427315e+17
19641.0	3.633157574929068e+17
19642.0	3.634107580590761e+17
19643.0	3.633446722557269e+17
19644.0	3.6327770208337914e+17
19645.0	3.6318652427578016e+17
19646.0	3.6310622893943456e+17
19647.0	3.6308724398161914e+17
19648.0	3.630270619407701e+17
19649.0	3.629619693486079e+17
19650.0	3.628980780750165e+17
19651.0	3.6283306461538976e+17
19652.0	3.6276810302532256e+17
19653.0	3.627016592381269e+17
19654.0	3.626389829844991e+17
19655.0	3.625738645973674e+17
