# Flux units: erg / (cm m2 s)
# Wavelength units: Angstrom
wave	flux
19000.0	8.039073124625068e+17
19001.0	8.037632509826387e+17
19002.0	8.036281300811773e+17
19003.0	8.034880829696681e+17
19004.0	8.03347878571759e+17
19005.0	8.032076448137216e+17
19006.0	8.03067063767313e+17
19007.0	8.02925393879586e+17
19008.0	8.027826603163647e+17
19009.0	8.026404489439914e+17
19010.0	8.024833006764031e+17
19011.0	8.023598156130986e+17
19012.0	8.022135269578067e+17
19013.0	8.020776628256767e+17
19014.0	8.019320631547219e+17
19015.0	8.017911036422825e+17
19016.0	8.016484296381779e+17
19017.0	8.015072767683241e+17
19018.0	8.013645036388351e+17
19019.0	8.01222358536465e+17
19020.0	8.010777379558739e+17
19021.0	8.009358172487679e+17
19022.0	8.00792775963443e+17
19023.0	8.006470258567849e+17
19024.0	8.005041412986195e+17
19025.0	8.00361096098611e+17
19026.0	8.002159868816042e+17
19027.0	8.000699834389844e+17
19028.0	7.999288574126761e+17
19029.0	7.997843563697491e+17
19030.0	7.99639722786816e+17
19031.0	7.994949235288748e+17
19032.0	7.993499706195967e+17
19033.0	7.992007256790356e+17
19034.0	7.990595178637996e+17
19035.0	7.989113068191743e+17
19036.0	7.985649966994772e+17
19037.0	7.986222591552169e+17
19038.0	7.984761536512e+17
19039.0	7.983316021368147e+17
19040.0	7.981856413362858e+17
19041.0	7.980395273038505e+17
19042.0	7.978895306042025e+17
19043.0	7.977469381094058e+17
19044.0	7.976003443884032e+17
19045.0	7.974538009990482e+17
19046.0	7.973049241785684e+17
19047.0	7.971594153842004e+17
19048.0	7.970046174647636e+17
19049.0	7.968630713090047e+17
19050.0	7.967168416535892e+17
19051.0	7.965361872480938e+17
19052.0	7.96417844121873e+17
19053.0	7.962766157545471e+17
19054.0	7.961290770568532e+17
19055.0	7.95969568234974e+17
19056.0	7.958325143186089e+17
19057.0	7.956851164097194e+17
19058.0	7.955369390593364e+17
19059.0	7.953892690799276e+17
19060.0	7.952400757293056e+17
19061.0	7.950927182255444e+17
19062.0	7.949440446889981e+17
19063.0	7.947955259222697e+17
19064.0	7.946419394576381e+17
19065.0	7.944896838456659e+17
19066.0	7.943463176415913e+17
19067.0	7.942003456562518e+17
19068.0	7.940513139261437e+17
19069.0	7.939022004071081e+17
19070.0	7.937525269484884e+17
19071.0	7.936036137773736e+17
19072.0	7.934541788348415e+17
19073.0	7.933044325351424e+17
19074.0	7.931550374384978e+17
19075.0	7.930053197998761e+17
19076.0	7.928546227912701e+17
19077.0	7.927050505551872e+17
19078.0	7.925545081765885e+17
19079.0	7.924178887901181e+17
19080.0	7.923075197348521e+17
19081.0	7.92155359473391e+17
19082.0	7.920049230708735e+17
19083.0	7.918503948451837e+17
19084.0	7.916939162681343e+17
19085.0	7.915548100788221e+17
19086.0	7.913853629934249e+17
19087.0	7.912480681842002e+17
19088.0	7.910976344380756e+17
19089.0	7.909395062412628e+17
19090.0	7.90798021042722e+17
19091.0	7.906473156455081e+17
19092.0	7.904939927229779e+17
19093.0	7.903459089055743e+17
19094.0	7.901932819578876e+17
19095.0	7.900415274254335e+17
19096.0	7.89890672571187e+17
19097.0	7.897396105183232e+17
19098.0	7.895879621017599e+17
19099.0	7.894360620269567e+17
19100.0	7.892841001560744e+17
19101.0	7.891319341623978e+17
19102.0	7.889760893446826e+17
19103.0	7.888276719403008e+17
19104.0	7.886753447455404e+17
19105.0	7.885228657169748e+17
19106.0	7.883694853324797e+17
19107.0	7.882170813819562e+17
19108.0	7.880647671895379e+17
19109.0	7.878942627201021e+17
19110.0	7.877577003761663e+17
19111.0	7.876067129819133e+17
19112.0	7.874538939351036e+17
19113.0	7.873008788744873e+17
19114.0	7.8714773714589e+17
19115.0	7.869932318490621e+17
19116.0	7.868400674712233e+17
19117.0	7.866867437098323e+17
19118.0	7.865298750625106e+17
19119.0	7.862668344601257e+17
19120.0	7.862251616731133e+17
19121.0	7.860719943592617e+17
19122.0	7.8591962382336e+17
19123.0	7.857656640656723e+17
19124.0	7.85610406310707e+17
19125.0	7.854574112429395e+17
19126.0	7.853026390485673e+17
19127.0	7.85075899588062e+17
19128.0	7.849894698024957e+17
19129.0	7.848362096547156e+17
19130.0	7.8468560729757e+17
19131.0	7.845312367777108e+17
19132.0	7.843763172234579e+17
19133.0	7.84214895239714e+17
19134.0	7.840647601280338e+17
19135.0	7.839119897351508e+17
19136.0	7.837568965367126e+17
19137.0	7.835949720753492e+17
19138.0	7.834458125587794e+17
19139.0	7.832911635371347e+17
19140.0	7.831358210572285e+17
19141.0	7.829802898336426e+17
19142.0	7.828235126221481e+17
19143.0	7.82666703114513e+17
19144.0	7.825126308096681e+17
19145.0	7.823571415291222e+17
19146.0	7.821747027268948e+17
19147.0	7.82041272689186e+17
19148.0	7.81888602959599e+17
19149.0	7.817322806902781e+17
19150.0	7.815755872250536e+17
19151.0	7.814193316451668e+17
19152.0	7.812624567063892e+17
19153.0	7.811048754468179e+17
19154.0	7.809435051928233e+17
19155.0	7.807918281151828e+17
19156.0	7.806345008906237e+17
19157.0	7.804760170168317e+17
19158.0	7.803093637573289e+17
19159.0	7.801613147526484e+17
19160.0	7.80005021144405e+17
19161.0	7.798467049029632e+17
19162.0	7.79661881499102e+17
19163.0	7.795298685769044e+17
19164.0	7.793747058928298e+17
19165.0	7.792164431986688e+17
19166.0	7.790540256269651e+17
19167.0	7.788979562741757e+17
19168.0	7.787409545276072e+17
19169.0	7.785827518119935e+17
19170.0	7.784252027087532e+17
19171.0	7.78265421816354e+17
19172.0	7.781076441235455e+17
19173.0	7.779488251248639e+17
19174.0	7.777874354372608e+17
19175.0	7.776305718231041e+17
19176.0	7.774712025317373e+17
19177.0	7.773047968759807e+17
19178.0	7.771510615135569e+17
19179.0	7.769904583977642e+17
19180.0	7.768317544628224e+17
19181.0	7.766678795102889e+17
19182.0	7.765110142184105e+17
19183.0	7.76351524550519e+17
19184.0	7.761899957518333e+17
19185.0	7.760300392579071e+17
19186.0	7.758693957369855e+17
19187.0	7.757053033796948e+17
19188.0	7.755471743440211e+17
19189.0	7.753860765799763e+17
19190.0	7.752244297815379e+17
19191.0	7.75062568374545e+17
19192.0	7.749009540120573e+17
19193.0	7.74738670378462e+17
19194.0	7.745764830740479e+17
19195.0	7.744138931164502e+17
19196.0	7.74250312044817e+17
19197.0	7.740863112631636e+17
19198.0	7.73917498356531e+17
19199.0	7.735885231554557e+17
19200.0	7.734668691854675e+17
19201.0	7.734288521538216e+17
19202.0	7.732706929191594e+17
19203.0	7.731083147739135e+17
19204.0	7.72943818924578e+17
19205.0	7.727809213846868e+17
19206.0	7.726161643700221e+17
19207.0	7.724484629539497e+17
19208.0	7.722791068849491e+17
19209.0	7.721224452964352e+17
19210.0	7.719572285860521e+17
19211.0	7.717917367293267e+17
19212.0	7.716259919560703e+17
19213.0	7.714557739575978e+17
19214.0	7.712664469897212e+17
19215.0	7.710986447705427e+17
19216.0	7.709325886401193e+17
19217.0	7.707655457297748e+17
19218.0	7.70564076811059e+17
19219.0	7.70422778119236e+17
19220.0	7.702616065354412e+17
19221.0	7.700811117931178e+17
19222.0	7.699252397124266e+17
19223.0	7.697570060391763e+17
19224.0	7.695864737475242e+17
19225.0	7.694126942257152e+17
19226.0	7.692483792906921e+17
19227.0	7.69078400786978e+17
19228.0	7.689095253852157e+17
19229.0	7.687391926026237e+17
19230.0	7.685684914203304e+17
19231.0	7.683978787378515e+17
19232.0	7.682262153822208e+17
19233.0	7.680520663422292e+17
19234.0	7.678828040858281e+17
19235.0	7.677108581739178e+17
19236.0	7.675397532199594e+17
19237.0	7.673666693933738e+17
19238.0	7.671904766088531e+17
19239.0	7.670217417162751e+17
19240.0	7.668463529798314e+17
19241.0	7.66673153250645e+17
19242.0	7.665004559990783e+17
19243.0	7.663190765382313e+17
19244.0	7.661529932846419e+17
19245.0	7.659783670726656e+17
19246.0	7.65802785817668e+17
19247.0	7.656281510772735e+17
19248.0	7.654527037603839e+17
19249.0	7.652768072335357e+17
19250.0	7.651004384280575e+17
19251.0	7.649189163608748e+17
19252.0	7.647336714294611e+17
19253.0	7.645699374055421e+17
19254.0	7.64392617611537e+17
19255.0	7.642062309905748e+17
19256.0	7.640356575947434e+17
19257.0	7.638587105345535e+17
19258.0	7.636799263692114e+17
19259.0	7.6349733629242e+17
19260.0	7.633178395148287e+17
19261.0	7.631415891285332e+17
19262.0	7.629591360656723e+17
19263.0	7.627781347912361e+17
19264.0	7.625783048667131e+17
19265.0	7.624105081001299e+17
19266.0	7.622295596739242e+17
19267.0	7.620519109066751e+17
19268.0	7.618676182220801e+17
19269.0	7.616827914627753e+17
19270.0	7.614971925321042e+17
19271.0	7.612980489355261e+17
19272.0	7.611233693160787e+17
19273.0	7.608711634397866e+17
19274.0	7.60705330865766e+17
19275.0	7.605629387188905e+17
19276.0	7.603738857788755e+17
19277.0	7.601858514954922e+17
19278.0	7.599962974759594e+17
19279.0	7.598059700267688e+17
19280.0	7.596121948596906e+17
19281.0	7.594237094090068e+17
19282.0	7.592292214898687e+17
19283.0	7.590348154994687e+17
19284.0	7.588404954923008e+17
19285.0	7.586425679642624e+17
19286.0	7.584537806635008e+17
19287.0	7.582137567237459e+17
19288.0	7.579564698675884e+17
19289.0	7.576859499823101e+17
19290.0	7.576180263048531e+17
19291.0	7.574085117323945e+17
19292.0	7.572220649930752e+17
19293.0	7.570225542550867e+17
19294.0	7.56822851837406e+17
19295.0	7.566221159432191e+17
19296.0	7.564206383562751e+17
19297.0	7.562182837403647e+17
19298.0	7.560144479759017e+17
19299.0	7.558113481719807e+17
19300.0	7.556064792106326e+17
19301.0	7.554006122845522e+17
19302.0	7.551936713370281e+17
19303.0	7.549834995171327e+17
19304.0	7.54776820433988e+17
19305.0	7.545678835570004e+17
19306.0	7.543582378426368e+17
19307.0	7.54144004678178e+17
19308.0	7.539321754091519e+17
19309.0	7.53714610848836e+17
19310.0	7.534965805809663e+17
19311.0	7.532873926049791e+17
19312.0	7.530722717859839e+17
19313.0	7.528363584039596e+17
19314.0	7.524447844739752e+17
19315.0	7.522310100265642e+17
19316.0	7.521033970690728e+17
19317.0	7.518812154189139e+17
19318.0	7.516562525257728e+17
19319.0	7.514320191619072e+17
19320.0	7.512054667673599e+17
19321.0	7.509776409821183e+17
19322.0	7.507445440752297e+17
19323.0	7.505153807264426e+17
19324.0	7.502850815601322e+17
19325.0	7.500479951710889e+17
19326.0	7.498162756736339e+17
19327.0	7.495793074241536e+17
19328.0	7.493417254081875e+17
19329.0	7.489797789231786e+17
19330.0	7.487233116340221e+17
19331.0	7.484789746914644e+17
19332.0	7.48235109328486e+17
19333.0	7.479875936627369e+17
19334.0	7.477378183856127e+17
19335.0	7.474859788118697e+17
19336.0	7.472316671153491e+17
19337.0	7.469751787148627e+17
19338.0	7.467079161260713e+17
19339.0	7.463277109968896e+17
19340.0	7.459997404714323e+17
19341.0	7.457339802823338e+17
19342.0	7.454506686087168e+17
19343.0	7.451938358558719e+17
19344.0	7.44919355429137e+17
19345.0	7.445670664688978e+17
19346.0	7.442529051301204e+17
19347.0	7.438187032302932e+17
19348.0	7.435327729128787e+17
19349.0	7.432398740389884e+17
19350.0	7.429450726288041e+17
19351.0	7.426470365713748e+17
19352.0	7.420990798342829e+17
19353.0	7.417116414880426e+17
19354.0	7.414019231754921e+17
19355.0	7.410852136572244e+17
19356.0	7.407690275880956e+17
19357.0	7.400420119587496e+17
19358.0	7.397126560546815e+17
19359.0	7.393775110324224e+17
19360.0	7.390427736965119e+17
19361.0	7.382875369723223e+17
19362.0	7.378581758585513e+17
19363.0	7.375045580029952e+17
19364.0	7.371141307957245e+17
19365.0	7.3619422066333e+17
19366.0	7.358221222849193e+17
19367.0	7.3544086075037e+17
19368.0	7.345302732974753e+17
19369.0	7.339418880835583e+17
19370.0	7.334941304728238e+17
19371.0	7.327191238967296e+17
19372.0	7.322942230058326e+17
19373.0	7.31860255847219e+17
19374.0	7.314229950414847e+17
19375.0	7.309783732322303e+17
19376.0	7.305269987333459e+17
19377.0	7.300688041563476e+17
19378.0	7.296036923331923e+17
19379.0	7.291309839264425e+17
19380.0	7.286505568818514e+17
19381.0	7.281622147661824e+17
19382.0	7.276624549161641e+17
19383.0	7.271565490126847e+17
19384.0	7.266281196967251e+17
19385.0	7.260793600300372e+17
19386.0	7.255453027969705e+17
19387.0	7.250015382667263e+17
19388.0	7.2444786273594e+17
19389.0	7.23883086979618e+17
19390.0	7.233037372751871e+17
19391.0	7.225706113837736e+17
19392.0	7.220506121994237e+17
19393.0	7.214247240357203e+17
19394.0	7.208049215275007e+17
19395.0	7.201741667128659e+17
19396.0	7.195314086390441e+17
19397.0	7.187854730635948e+17
19398.0	7.180717688968532e+17
19399.0	7.173624016404479e+17
19400.0	7.166794213097471e+17
19401.0	7.15847426445585e+17
19402.0	7.150258481354067e+17
19403.0	7.142524411270484e+17
19404.0	7.133216450980521e+17
19405.0	7.123913691627519e+17
19406.0	7.115136320580268e+17
19407.0	7.103544832993961e+17
19408.0	7.094222111550124e+17
19409.0	7.081100259448147e+17
19410.0	7.070426931571372e+17
19411.0	7.056229285232637e+17
19412.0	7.042391684240722e+17
19413.0	7.028213962943137e+17
19414.0	7.010672122527743e+17
19415.0	6.99303637444199e+17
19416.0	6.974573856336549e+17
19417.0	6.955973075096914e+17
19418.0	6.939473019404287e+17
19419.0	6.925362457302355e+17
19420.0	6.910955588594345e+17
19421.0	6.896199694374228e+17
19422.0	6.88065210290449e+17
19423.0	6.864199621804031e+17
19424.0	6.846854843771562e+17
19425.0	6.82916811252258e+17
19426.0	6.809840470982655e+17
19427.0	6.78961901277457e+17
19428.0	6.767634563465213e+17
19429.0	6.744790015497555e+17
19430.0	6.719902040369834e+17
19431.0	6.694214688221868e+17
19432.0	6.666373334477477e+17
19433.0	6.635347919590743e+17
19434.0	6.601443631606444e+17
19435.0	6.564981606711292e+17
19436.0	6.526013663434068e+17
19437.0	6.484892061794301e+17
19438.0	6.439157885479593e+17
19439.0	6.391846581654872e+17
19440.0	6.340994545658537e+17
19441.0	6.28741451966054e+17
19442.0	6.227061177144663e+17
19443.0	6.160359983415295e+17
19444.0	6.085579069106854e+17
19445.0	6.001979816585901e+17
19446.0	5.90779947033122e+17
19447.0	5.801123023683578e+17
19448.0	5.6794791130344154e+17
19449.0	5.5393805199387296e+17
19450.0	5.377317250181792e+17
19451.0	5.302490421526532e+17
19452.0	5.460851563692032e+17
19453.0	5.6102192519577645e+17
19454.0	5.738176843524772e+17
19455.0	5.84958694391808e+17
19456.0	5.947288370632024e+17
19457.0	6.033642652434428e+17
19458.0	6.109524407265962e+17
19459.0	6.178214006576471e+17
19460.0	6.239217805251922e+17
19461.0	6.293486593987924e+17
19462.0	6.343111189288279e+17
19463.0	6.390268425142268e+17
19464.0	6.434351791210497e+17
19465.0	6.474272799195136e+17
19466.0	6.51212812364458e+17
19467.0	6.547218520954199e+17
19468.0	6.579644350332929e+17
19469.0	6.609108225840467e+17
19470.0	6.636075043433132e+17
19471.0	6.660564623294464e+17
19472.0	6.682919112977062e+17
19473.0	6.703684991844351e+17
19474.0	6.724152460662102e+17
19475.0	6.741923345028435e+17
19476.0	6.759552138259113e+17
19477.0	6.775180856655872e+17
19478.0	6.789922604187645e+17
19479.0	6.804397851934719e+17
19480.0	6.81760995147776e+17
19481.0	6.830081342526804e+17
19482.0	6.841906566092116e+17
19483.0	6.853620300862804e+17
19484.0	6.865687978967041e+17
19485.0	6.880111597628078e+17
19486.0	6.897659765151062e+17
19487.0	6.913128867910998e+17
19488.0	6.926671940681727e+17
19489.0	6.938734891805354e+17
19490.0	6.951921657053185e+17
19491.0	6.961863199118675e+17
19492.0	6.972133723515561e+17
19493.0	6.981088269653331e+17
19494.0	6.989369082642431e+17
19495.0	6.996884728752808e+17
19496.0	7.004368501648041e+17
19497.0	7.01001631863057e+17
19498.0	7.017594276719274e+17
19499.0	7.020595628386984e+17
19500.0	7.027707970497194e+17
19501.0	7.034011034233513e+17
19502.0	7.038471911418538e+17
19503.0	7.042673532381866e+17
19504.0	7.046716241652393e+17
19505.0	7.051654227907922e+17
19506.0	7.055594262014633e+17
19507.0	7.059197267017727e+17
19508.0	7.062688330241363e+17
19509.0	7.066062849135956e+17
19510.0	7.069843905140051e+17
19511.0	7.071214105963177e+17
19512.0	7.075991609759059e+17
19513.0	7.078540071665661e+17
19514.0	7.081611851289939e+17
19515.0	7.084643373984425e+17
19516.0	7.087414786916351e+17
19517.0	7.089912485161641e+17
19518.0	7.092729372737535e+17
19519.0	7.095048694224211e+17
19520.0	7.097260669490518e+17
19521.0	7.099401882654036e+17
19522.0	7.101446681351508e+17
19523.0	7.103426771724969e+17
19524.0	7.105321902276607e+17
19525.0	7.107135961126228e+17
19526.0	7.108891733131261e+17
19527.0	7.110573868537172e+17
19528.0	7.11218158440721e+17
19529.0	7.113738956046335e+17
19530.0	7.115241032777727e+17
19531.0	7.118519300784124e+17
19532.0	7.121739200856063e+17
19533.0	7.123005944976723e+17
19534.0	7.129466973891241e+17
19535.0	7.131867343312212e+17
19536.0	7.132804849947987e+17
19537.0	7.136446634087758e+17
19538.0	7.140007398255274e+17
19539.0	7.140600518978217e+17
19540.0	7.141495495371433e+17
19541.0	7.145347323265019e+17
19542.0	7.147392102389075e+17
19543.0	7.14792858882321e+17
19544.0	7.148421447505236e+17
19545.0	7.150425986476713e+17
19546.0	7.152730732756991e+17
19547.0	7.153408367307434e+17
19548.0	7.153715498014036e+17
19549.0	7.15394848600883e+17
19550.0	7.156316910212435e+17
19551.0	7.157463705627305e+17
19552.0	7.157617449238527e+17
19553.0	7.157731983097855e+17
19554.0	7.157820289974271e+17
19555.0	7.157934454734845e+17
19556.0	7.16027018154257e+17
19557.0	7.160248014645929e+17
19558.0	7.160196470844074e+17
19559.0	7.160117135583914e+17
19560.0	7.160000296255487e+17
19561.0	7.159875655521619e+17
19562.0	7.159727867822079e+17
19563.0	7.160285665514833e+17
19564.0	7.161072329599658e+17
19565.0	7.160836443340799e+17
19566.0	7.160570941101395e+17
19567.0	7.16029952069905e+17
19568.0	7.15998466408448e+17
19569.0	7.159671504764927e+17
19570.0	7.159332097490944e+17
19571.0	7.158969058110121e+17
19572.0	7.158576606871552e+17
19573.0	7.158185338426708e+17
19574.0	7.158750711032489e+17
19575.0	7.158559884181501e+17
19576.0	7.158109962589523e+17
19577.0	7.157640320778237e+17
19578.0	7.157146315653119e+17
19579.0	7.156654235713535e+17
19580.0	7.156144336972457e+17
19581.0	7.155622780862463e+17
19582.0	7.155090076292436e+17
19583.0	7.154537267025236e+17
19584.0	7.153971154823849e+17
19585.0	7.153349317099519e+17
19586.0	7.152748421535062e+17
19587.0	7.152200576925693e+17
19588.0	7.151415494093481e+17
19589.0	7.150967251621203e+17
19590.0	7.150835528105983e+17
19591.0	7.150482458585769e+17
19592.0	7.149822201036799e+17
19593.0	7.149142635708416e+17
19594.0	7.148368107143165e+17
19595.0	7.147766550276778e+17
19596.0	7.146924364791807e+17
19597.0	7.146360010003795e+17
19598.0	7.145531697878356e+17
19599.0	7.144915863601151e+17
19600.0	7.144174363781802e+17
19601.0	7.143394079233363e+17
19602.0	7.142640276122281e+17
19603.0	7.141714129059837e+17
19604.0	7.141092331880447e+17
19605.0	7.1402049779357e+17
19606.0	7.139542325439145e+17
19607.0	7.138744403842387e+17
19608.0	7.137935035990015e+17
19609.0	7.137102729489066e+17
19610.0	7.136299439183187e+17
19611.0	7.135467978533545e+17
19612.0	7.134633665757183e+17
19613.0	7.133789892029097e+17
19614.0	7.132919747313663e+17
19615.0	7.132081210873174e+17
19616.0	7.131202660772521e+17
19617.0	7.130345537972906e+17
19618.0	7.129242247277225e+17
19619.0	7.128303363511635e+17
19620.0	7.127885719885139e+17
19621.0	7.127260630177108e+17
19622.0	7.126361550356477e+17
19623.0	7.125455240953855e+17
19624.0	7.124543017582591e+17
19625.0	7.123624804745216e+17
19626.0	7.122700778602493e+17
19627.0	7.121769227878399e+17
19628.0	7.120793430043306e+17
19629.0	7.119846364588713e+17
19630.0	7.118744445430441e+17
19631.0	7.116145017137833e+17
19632.0	7.117023444205568e+17
19633.0	7.116073548993876e+17
19634.0	7.115123551720787e+17
19635.0	7.114136487985151e+17
19636.0	7.113180730534569e+17
19637.0	7.112009830454612e+17
19638.0	7.111196958960297e+17
19639.0	7.110192806232063e+17
19640.0	7.109158499254271e+17
19641.0	7.107939919724544e+17
19642.0	7.107179081367552e+17
19643.0	7.106163900415999e+17
19644.0	7.105118626731347e+17
19645.0	7.104015807195817e+17
19646.0	7.103102946290345e+17
19647.0	7.102076320481279e+17
19648.0	7.101045894632787e+17
19649.0	7.10001101443345e+17
19650.0	7.098986632577023e+17
19651.0	7.097955971847508e+17
19652.0	7.096912928134483e+17
19653.0	7.095865986514943e+17
19654.0	7.094817572694697e+17
19655.0	7.0937634420381e+17
19656.0	7.092707419750397e+17
19657.0	7.091652416678569e+17
19658.0	7.090591428334931e+17
19659.0	7.089527298457599e+17
19660.0	7.088461482470057e+17
19661.0	7.087392248124755e+17
19662.0	7.086320399329961e+17
19663.0	7.085227629346816e+17
19664.0	7.084163145749844e+17
19665.0	7.083090459492351e+17
