# Flux units: erg / (cm m2 s)
# Wavelength units: Angstrom
wave	flux
19000.0	4.1972564446849696e+17
19001.0	4.1965615114267296e+17
19002.0	4.1958473032444576e+17
19003.0	4.195141617887914e+17
19004.0	4.1943576535367674e+17
19005.0	4.1936992044318714e+17
19006.0	4.19299409788928e+17
19007.0	4.1922990779487565e+17
19008.0	4.1915914254636365e+17
19009.0	4.190888883737939e+17
19010.0	4.1901243166446925e+17
19011.0	4.1894140888569165e+17
19012.0	4.1886572497687885e+17
19013.0	4.1880515265604256e+17
19014.0	4.187273887219711e+17
19015.0	4.1865651330307405e+17
19016.0	4.1858847882608634e+17
19017.0	4.185210959342251e+17
19018.0	4.1844781899666765e+17
19019.0	4.183787848073215e+17
19020.0	4.183064284495872e+17
19021.0	4.18236174696448e+17
19022.0	4.18167430053888e+17
19023.0	4.180925115356501e+17
19024.0	4.1802438674131616e+17
19025.0	4.1795206498658976e+17
19026.0	4.178823771848704e+17
19027.0	4.1781100453123405e+17
19028.0	4.1773727125340166e+17
19029.0	4.1766518186311674e+17
19030.0	4.1759245703577594e+17
19031.0	4.1752723511924045e+17
19032.0	4.174589963796479e+17
19033.0	4.173816155253417e+17
19034.0	4.1731483297819296e+17
19035.0	4.1724618005108045e+17
19036.0	4.1715412877967354e+17
19037.0	4.1710324509136205e+17
19038.0	4.1703225943217485e+17
19039.0	4.1696212458755405e+17
19040.0	4.168907002740736e+17
19041.0	4.168209726264661e+17
19042.0	4.1670249961663136e+17
19043.0	4.166797802602495e+17
19044.0	4.1661294206866765e+17
19045.0	4.165396075293354e+17
19046.0	4.164672341147646e+17
19047.0	4.163963411496959e+17
19048.0	4.163212643663872e+17
19049.0	4.161552665367891e+17
19050.0	4.1618815819885216e+17
19051.0	4.1610579961446394e+17
19052.0	4.1604419794152083e+17
19053.0	4.15975680770048e+17
19054.0	4.1590181523182925e+17
19055.0	4.1581965028447565e+17
19056.0	4.157621282013182e+17
19057.0	4.1569569112500896e+17
19058.0	4.155721624409427e+17
19059.0	4.1552805758675616e+17
19060.0	4.154839103700992e+17
19061.0	4.154121798724266e+17
19062.0	4.153379078362453e+17
19063.0	4.1527369101475834e+17
19064.0	4.1520315729182714e+17
19065.0	4.151316881691989e+17
19066.0	4.150450499267243e+17
19067.0	4.1498358372980045e+17
19068.0	4.149233106725546e+17
19069.0	4.1485258540974074e+17
19070.0	4.147766208320853e+17
19071.0	4.1470832924426234e+17
19072.0	4.146225933363881e+17
19073.0	4.1457386258431994e+17
19074.0	4.1449525161055565e+17
19075.0	4.1443142199323296e+17
19076.0	4.143594513017514e+17
19077.0	4.142902015950848e+17
19078.0	4.142205095990612e+17
19079.0	4.141479624703999e+17
19080.0	4.140808249453225e+17
19081.0	4.140114575185236e+17
19082.0	4.139432912005802e+17
19083.0	4.13869230067985e+17
19084.0	4.1379993387444896e+17
19085.0	4.1373064530056525e+17
19086.0	4.136295801203369e+17
19087.0	4.13549500511027e+17
19088.0	4.1349389781128506e+17
19089.0	4.1345011130477216e+17
19090.0	4.1338237679042554e+17
19091.0	4.133082596638719e+17
19092.0	4.132014587030187e+17
19093.0	4.1317046706066765e+17
19094.0	4.131019941391018e+17
19095.0	4.1302831112301216e+17
19096.0	4.1296223112178336e+17
19097.0	4.128918569222143e+17
19098.0	4.1280456618584736e+17
19099.0	4.127284929058133e+17
19100.0	4.126847553328467e+17
19101.0	4.1261343846345376e+17
19102.0	4.125429852012543e+17
19103.0	4.1247127616443725e+17
19104.0	4.124063403693396e+17
19105.0	4.1228956947797344e+17
19106.0	4.122654764870314e+17
19107.0	4.1218463861746336e+17
19108.0	4.1210707587017376e+17
19109.0	4.12054037987328e+17
19110.0	4.119848342781951e+17
19111.0	4.118977590591487e+17
19112.0	4.118294099394559e+17
19113.0	4.117787586155861e+17
19114.0	4.1169737122228896e+17
19115.0	4.1163801175435936e+17
19116.0	4.1156551418839034e+17
19117.0	4.114986606875988e+17
19118.0	4.114294340496042e+17
19119.0	4.1126704884394643e+17
19120.0	4.1129102013016736e+17
19121.0	4.1121875457911456e+17
19122.0	4.1115470469092685e+17
19123.0	4.1108642715402234e+17
19124.0	4.1101497578728096e+17
19125.0	4.109456949029546e+17
19126.0	4.108751894915755e+17
19127.0	4.1079262587562656e+17
19128.0	4.1073421557869216e+17
19129.0	4.1066869635590816e+17
19130.0	4.105999647156906e+17
19131.0	4.1052955164890445e+17
19132.0	4.10458145370931e+17
19133.0	4.103916160199338e+17
19134.0	4.1032127299802445e+17
19135.0	4.1025428038615034e+17
19136.0	4.101823315050495e+17
19137.0	4.1010914488483834e+17
19138.0	4.100451274326015e+17
19139.0	4.0997729854641485e+17
19140.0	4.099085206290431e+17
19141.0	4.0983829819337376e+17
19142.0	4.0976797194868045e+17
19143.0	4.0969796656824314e+17
19144.0	4.096274641627818e+17
19145.0	4.0955979298242554e+17
19146.0	4.094891695013887e+17
19147.0	4.094209575354368e+17
19148.0	4.093379019975338e+17
19149.0	4.092617266561023e+17
19150.0	4.0921685067912525e+17
19151.0	4.0914532779950074e+17
19152.0	4.0907901941841914e+17
19153.0	4.089741620281342e+17
19154.0	4.089361162655061e+17
19155.0	4.088721605394432e+17
19156.0	4.088015295785642e+17
19157.0	4.0872082236156576e+17
19158.0	4.086389546505557e+17
19159.0	4.085899688148991e+17
19160.0	4.0852345617121274e+17
19161.0	4.084561081619797e+17
19162.0	4.083858442726057e+17
19163.0	4.0831903404305056e+17
19164.0	4.0824971443131725e+17
19165.0	4.081403335540735e+17
19166.0	4.0810783482839034e+17
19167.0	4.080448718940842e+17
19168.0	4.0797402807227725e+17
19169.0	4.0790549258567674e+17
19170.0	4.078377460476586e+17
19171.0	4.077659469731157e+17
19172.0	4.0769927641388365e+17
19173.0	4.076329516750164e+17
19174.0	4.075620274623829e+17
19175.0	4.0749243710832634e+17
19176.0	4.074261659167402e+17
19177.0	4.073555917886804e+17
19178.0	4.072873128536747e+17
19179.0	4.0721840805860685e+17
19180.0	4.0715056987504634e+17
19181.0	4.070815807744682e+17
19182.0	4.070100642562048e+17
19183.0	4.0694413455086925e+17
19184.0	4.0687664288672416e+17
19185.0	4.068068123388586e+17
19186.0	4.067384506362538e+17
19187.0	4.0667083838586874e+17
19188.0	4.0660359460509e+17
19189.0	4.065351543990954e+17
19190.0	4.06465940553728e+17
19191.0	4.0639802344734714e+17
19192.0	4.063294860034047e+17
19193.0	4.0625470848368634e+17
19194.0	4.061855363017387e+17
19195.0	4.061256645694804e+17
19196.0	4.0605604597377696e+17
19197.0	4.059845600040277e+17
19198.0	4.059140890558464e+17
19199.0	4.058212749104468e+17
19200.0	4.0576281686835194e+17
19201.0	4.0571318070586016e+17
19202.0	4.056458196942847e+17
19203.0	4.055763283957076e+17
19204.0	4.0551098966780576e+17
19205.0	4.054409025683456e+17
19206.0	4.053730398481066e+17
19207.0	4.052975755810134e+17
19208.0	4.0523367731691514e+17
19209.0	4.051678676385791e+17
19210.0	4.0509723115519994e+17
19211.0	4.050309369648468e+17
19212.0	4.0496236470818125e+17
19213.0	4.048942368380245e+17
19214.0	4.048261215507797e+17
19215.0	4.047582907072512e+17
19216.0	4.0469055612299936e+17
19217.0	4.0462472218760525e+17
19218.0	4.045476334665728e+17
19219.0	4.0448334219618976e+17
19220.0	4.0441934159107405e+17
19221.0	4.0434784925996365e+17
19222.0	4.042776248669525e+17
19223.0	4.042129602336085e+17
19224.0	4.0414319329935354e+17
19225.0	4.040779065109161e+17
19226.0	4.0401192297867936e+17
19227.0	4.039422665643348e+17
19228.0	4.038747846868991e+17
19229.0	4.0379828701320525e+17
19230.0	4.0373734021092685e+17
19231.0	4.036733441496404e+17
19232.0	4.0360478846047565e+17
19233.0	4.0353490751105696e+17
19234.0	4.0346539566039034e+17
19235.0	4.0339897193594874e+17
19236.0	4.033315841507327e+17
19237.0	4.0325967784181754e+17
19238.0	4.0319424306435405e+17
19239.0	4.0312780458994336e+17
19240.0	4.030575866281983e+17
19241.0	4.0299334247383034e+17
19242.0	4.0291892559435085e+17
19243.0	4.02856864715025e+17
19244.0	4.0278737733113165e+17
19245.0	4.02722045244211e+17
19246.0	4.026551830751914e+17
19247.0	4.0258792272691194e+17
19248.0	4.0251847623748256e+17
19249.0	4.0244639278912845e+17
19250.0	4.0237403754987514e+17
19251.0	4.023085785852586e+17
19252.0	4.022476656170325e+17
19253.0	4.0217923932214605e+17
19254.0	4.0211310703192736e+17
19255.0	4.02043360719667e+17
19256.0	4.0197435987503776e+17
19257.0	4.0190847910324896e+17
19258.0	4.0183984812632736e+17
19259.0	4.017762875736064e+17
19260.0	4.0170551582392314e+17
19261.0	4.0164033717862394e+17
19262.0	4.015721190610261e+17
19263.0	4.0150190054004045e+17
19264.0	4.0143264733812045e+17
19265.0	4.013656578020691e+17
19266.0	4.0130001519684256e+17
19267.0	4.012354859696128e+17
19268.0	4.0116426731683834e+17
19269.0	4.0109838542656845e+17
19270.0	4.0103148138441376e+17
19271.0	4.009593624242859e+17
19272.0	4.0089808182531405e+17
19273.0	4.008313423396864e+17
19274.0	4.0076242251502925e+17
19275.0	4.0069642716883616e+17
19276.0	4.0062947342417914e+17
19277.0	4.005630809473023e+17
19278.0	4.004946503882069e+17
19279.0	4.00427981017361e+17
19280.0	4.0036133953863674e+17
19281.0	4.00293860737024e+17
19282.0	4.002262712057855e+17
19283.0	4.001573221608106e+17
19284.0	4.000925715442347e+17
19285.0	4.000223855291049e+17
19286.0	3.9995462116529485e+17
19287.0	3.998863429293398e+17
19288.0	3.9981981392786765e+17
19289.0	3.9974026301057696e+17
19290.0	3.9968821141831674e+17
19291.0	3.996194075661653e+17
19292.0	3.995534468229802e+17
19293.0	3.994857318820522e+17
19294.0	3.9942079378008736e+17
19295.0	3.9935049647609165e+17
19296.0	3.9926239274379955e+17
19297.0	3.992136519254016e+17
19298.0	3.9914882147723936e+17
19299.0	3.990607652104874e+17
19300.0	3.9901886033865376e+17
19301.0	3.9894982370263034e+17
19302.0	3.9888352587721376e+17
19303.0	3.988134095574357e+17
19304.0	3.9874760057815034e+17
19305.0	3.986804307569321e+17
19306.0	3.9861521988539725e+17
19307.0	3.985477690458111e+17
19308.0	3.984808984881834e+17
19309.0	3.9841210631017805e+17
19310.0	3.9834446344137376e+17
19311.0	3.9827827319985485e+17
19312.0	3.9821182773493754e+17
19313.0	3.981483389747199e+17
19314.0	3.978742544203768e+17
19315.0	3.978246446120965e+17
19316.0	3.979197568166571e+17
19317.0	3.9788017656791034e+17
19318.0	3.978132825920853e+17
19319.0	3.977416779934378e+17
19320.0	3.976721358039722e+17
19321.0	3.975932468177578e+17
19322.0	3.9754548627810976e+17
19323.0	3.9748071622792525e+17
19324.0	3.974129302634495e+17
19325.0	3.9734647668954445e+17
19326.0	3.972782255068501e+17
19327.0	3.972143338837332e+17
19328.0	3.9710403501315405e+17
19329.0	3.9708036725473274e+17
19330.0	3.9701436995119776e+17
19331.0	3.96947888345361e+17
19332.0	3.96879881900305e+17
19333.0	3.968158143261353e+17
19334.0	3.9674078787447456e+17
19335.0	3.965963304523094e+17
19336.0	3.966113736032256e+17
19337.0	3.965469476956842e+17
19338.0	3.964788394688512e+17
19339.0	3.9641097283392845e+17
19340.0	3.9634142812788045e+17
19341.0	3.9625063801378144e+17
19342.0	3.9620333087839565e+17
19343.0	3.9614800940673696e+17
19344.0	3.960513787243179e+17
19345.0	3.959851462601386e+17
19346.0	3.959425203175424e+17
19347.0	3.9584311300587514e+17
19348.0	3.9581649280696314e+17
19349.0	3.9574925384963405e+17
19350.0	3.9566575364560205e+17
19351.0	3.956160979096917e+17
19352.0	3.955078973794986e+17
19353.0	3.954825019872596e+17
19354.0	3.9541799596851194e+17
19355.0	3.95350974206225e+17
19356.0	3.9528329484697594e+17
19357.0	3.9521843280172365e+17
19358.0	3.9515187150411085e+17
19359.0	3.950761620100436e+17
19360.0	3.949859163166036e+17
19361.0	3.949519172883798e+17
19362.0	3.948856582602751e+17
19363.0	3.948194476763818e+17
19364.0	3.947543501908651e+17
19365.0	3.946868006453247e+17
19366.0	3.94615108805154e+17
19367.0	3.9455304338199885e+17
19368.0	3.944882790640298e+17
19369.0	3.944236435111935e+17
19370.0	3.943577877654187e+17
19371.0	3.942869866556074e+17
19372.0	3.9422279954377376e+17
19373.0	3.941539494843732e+17
19374.0	3.9408671618935456e+17
19375.0	3.940245693267967e+17
19376.0	3.9395857314174285e+17
19377.0	3.9389275192907085e+17
19378.0	3.9382707562960205e+17
19379.0	3.937604450560682e+17
19380.0	3.936877760828757e+17
19381.0	3.9362271872286714e+17
19382.0	3.9355942220158285e+17
19383.0	3.9349206922909e+17
19384.0	3.9342083275052365e+17
19385.0	3.933613428397397e+17
19386.0	3.932947196761429e+17
19387.0	3.9322749274248525e+17
19388.0	3.931608596523691e+17
19389.0	3.930961148379136e+17
19390.0	3.930295813625172e+17
19391.0	3.9294134180468045e+17
19392.0	3.928960221402453e+17
19393.0	3.928300893590869e+17
19394.0	3.927650285038251e+17
19395.0	3.9268804820555085e+17
19396.0	3.9262952976547834e+17
19397.0	3.9256413728058016e+17
19398.0	3.924888099575125e+17
19399.0	3.924119879942142e+17
19400.0	3.9235757354079565e+17
19401.0	3.9229949522302285e+17
19402.0	3.9223550692119885e+17
19403.0	3.921691383518549e+17
19404.0	3.920988048370346e+17
19405.0	3.920319823740927e+17
19406.0	3.919688609650006e+17
19407.0	3.9188748937024845e+17
19408.0	3.918316512302421e+17
19409.0	3.917702568258219e+17
19410.0	3.9170320884913485e+17
19411.0	3.9163614409523194e+17
19412.0	3.9156950827881805e+17
19413.0	3.9148979664977914e+17
19414.0	3.914386274691754e+17
19415.0	3.913708496835926e+17
19416.0	3.913020781974868e+17
19417.0	3.912385703531861e+17
19418.0	3.9117213621288954e+17
19419.0	3.911052975319722e+17
19420.0	3.910379037349204e+17
19421.0	3.9097177745653754e+17
19422.0	3.9090279786304845e+17
19423.0	3.9083945184897696e+17
19424.0	3.907727824082261e+17
19425.0	3.907040551021227e+17
19426.0	3.90640313565184e+17
19427.0	3.9057352549553485e+17
19428.0	3.905022149875029e+17
19429.0	3.904405947897172e+17
19430.0	3.903708145734998e+17
19431.0	3.9029279359849805e+17
19432.0	3.902368986256725e+17
19433.0	3.901688661060266e+17
19434.0	3.9010538992872096e+17
19435.0	3.900350615169706e+17
19436.0	3.899625176738474e+17
19437.0	3.899029968650238e+17
19438.0	3.897886894282069e+17
19439.0	3.89773531283456e+17
19440.0	3.8970587373458765e+17
19441.0	3.896394998524586e+17
19442.0	3.8957310870377805e+17
19443.0	3.89506455900433e+17
19444.0	3.8943746435317754e+17
19445.0	3.893718896257706e+17
19446.0	3.8930326144505165e+17
19447.0	3.892357810356224e+17
19448.0	3.8916710503983776e+17
19449.0	3.8910245515646285e+17
19450.0	3.8903198148198394e+17
19451.0	3.889698058884436e+17
19452.0	3.8890490008261965e+17
19453.0	3.888408186672468e+17
19454.0	3.88768545706257e+17
19455.0	3.8869770293302605e+17
19456.0	3.8861445110169594e+17
19457.0	3.885044437352448e+17
19458.0	3.8829153876705274e+17
19459.0	3.8830548860272634e+17
19460.0	3.8833623942212256e+17
19461.0	3.883090227232768e+17
19462.0	3.8825971798070605e+17
19463.0	3.8820340581444256e+17
19464.0	3.8814282636328954e+17
19465.0	3.880823985362261e+17
19466.0	3.8802199098163194e+17
19467.0	3.8795985649227085e+17
19468.0	3.8789824817834656e+17
19469.0	3.878051593759402e+17
19470.0	3.8777319968822605e+17
19471.0	3.8770932554137594e+17
19472.0	3.876483562995711e+17
19473.0	3.8758493569679354e+17
19474.0	3.874888435630078e+17
19475.0	3.8744766116003834e+17
19476.0	3.8739550666751994e+17
19477.0	3.873310586699774e+17
19478.0	3.8726981714793805e+17
19479.0	3.8717655120609274e+17
19480.0	3.8714379334232736e+17
19481.0	3.870765705330687e+17
19482.0	3.870128914213546e+17
19483.0	3.86952969986594e+17
19484.0	3.8688714989240314e+17
19485.0	3.868267058473642e+17
19486.0	3.867295981327702e+17
19487.0	3.8669786465785165e+17
19488.0	3.8663701061959674e+17
19489.0	3.865745201736363e+17
19490.0	3.8649770596980045e+17
19491.0	3.864444030069418e+17
19492.0	3.8638236918087674e+17
19493.0	3.8631715432475296e+17
19494.0	3.86253879054609e+17
19495.0	3.861947892804266e+17
19496.0	3.8612409869052576e+17
19497.0	3.8606834534536525e+17
19498.0	3.8600507391999994e+17
19499.0	3.859059328767316e+17
19500.0	3.8587669333497165e+17
19501.0	3.858345219151188e+17
19502.0	3.857802211273386e+17
19503.0	3.857162881903274e+17
19504.0	3.856507079404202e+17
19505.0	3.8558508798443514e+17
19506.0	3.855240050769918e+17
19507.0	3.854603804213247e+17
19508.0	3.8539528754954234e+17
19509.0	3.853322420573525e+17
19510.0	3.852623919360682e+17
19511.0	3.849110439679312e+17
19512.0	3.851373653961386e+17
19513.0	3.850608876453887e+17
19514.0	3.850027772411903e+17
19515.0	3.8494439763258016e+17
19516.0	3.848766089418068e+17
19517.0	3.8481816061651616e+17
19518.0	3.847453154825556e+17
19519.0	3.846809539575808e+17
19520.0	3.8459598239170554e+17
19521.0	3.8456456922180256e+17
19522.0	3.844941670602069e+17
19523.0	3.844303615601323e+17
19524.0	3.8434835215155194e+17
19525.0	3.843079154259284e+17
19526.0	3.842405288290985e+17
19527.0	3.8417998083522554e+17
19528.0	3.8411133322089805e+17
19529.0	3.840472741052416e+17
19530.0	3.839872072679423e+17
19531.0	3.8392254137630714e+17
19532.0	3.838582296936447e+17
19533.0	3.8379160282507936e+17
19534.0	3.8373222539154765e+17
19535.0	3.8366952585953274e+17
19536.0	3.836033029723477e+17
19537.0	3.83541375471889e+17
19538.0	3.834497314674006e+17
19539.0	3.834107812730197e+17
19540.0	3.833513645528404e+17
19541.0	3.832787445131946e+17
19542.0	3.832183661789183e+17
19543.0	3.8312909873698125e+17
19544.0	3.830913074987008e+17
19545.0	3.8302970694423885e+17
19546.0	3.829602020141738e+17
19547.0	3.829056518750208e+17
19548.0	3.828412001026048e+17
19549.0	3.8277463628840954e+17
19550.0	3.827083234334036e+17
19551.0	3.826509059981311e+17
19552.0	3.825835323337385e+17
19553.0	3.825229763007829e+17
19554.0	3.8245598669482656e+17
19555.0	3.8238818402303994e+17
19556.0	3.8232755626748576e+17
19557.0	3.822676048434517e+17
19558.0	3.822041606127616e+17
19559.0	3.821401196724223e+17
19560.0	3.820657458544638e+17
19561.0	3.8201357961789434e+17
19562.0	3.8194252957614074e+17
19563.0	3.8188774210928634e+17
19564.0	3.8181649430609914e+17
19565.0	3.8175778691263136e+17
19566.0	3.816914474937002e+17
19567.0	3.8163346921007776e+17
19568.0	3.8156988607802016e+17
19569.0	3.815070546351445e+17
19570.0	3.8144410323517434e+17
19571.0	3.8137904559554554e+17
19572.0	3.8131624141564576e+17
19573.0	3.812506102748501e+17
19574.0	3.8118812926607354e+17
19575.0	3.811274105640276e+17
19576.0	3.8106323240004256e+17
19577.0	3.809972072742912e+17
19578.0	3.809368714422954e+17
19579.0	3.8087502670943565e+17
19580.0	3.808088275200682e+17
19581.0	3.807421940105216e+17
19582.0	3.806843440026965e+17
19583.0	3.806227612041215e+17
19584.0	3.8055628281391776e+17
19585.0	3.804953299998037e+17
19586.0	3.804326191431679e+17
19587.0	3.8037000209913165e+17
19588.0	3.80302250807569e+17
19589.0	3.802441118121983e+17
19590.0	3.801792015324501e+17
19591.0	3.8011646453131936e+17
19592.0	3.800532823048191e+17
19593.0	3.7998788751305376e+17
19594.0	3.799243661071701e+17
19595.0	3.79864305771042e+17
19596.0	3.797974837974357e+17
19597.0	3.7973832817268045e+17
19598.0	3.796655404307797e+17
19599.0	3.796117347805866e+17
19600.0	3.795461041291263e+17
19601.0	3.794850251363669e+17
19602.0	3.7942185150818976e+17
19603.0	3.7935561121464314e+17
19604.0	3.792972828464469e+17
19605.0	3.792305446890154e+17
19606.0	3.7916846577418234e+17
19607.0	3.791088278743722e+17
19608.0	3.790391166544554e+17
19609.0	3.7898179876399776e+17
19610.0	3.789064269114027e+17
19611.0	3.788335257135786e+17
19612.0	3.787943823714986e+17
19613.0	3.7872640871191885e+17
19614.0	3.78667166265071e+17
19615.0	3.786064757347669e+17
19616.0	3.785304515280896e+17
19617.0	3.784603881264468e+17
19618.0	3.784112490588842e+17
19619.0	3.7834655723246925e+17
19620.0	3.7827882523470496e+17
19621.0	3.7819227150745594e+17
19622.0	3.7816640048114336e+17
19623.0	3.7810389556483405e+17
19624.0	3.7803879185776634e+17
19625.0	3.779790608444074e+17
19626.0	3.77913288565282e+17
19627.0	3.7785366324838394e+17
19628.0	3.777906926245206e+17
19629.0	3.776584000820565e+17
19630.0	3.7766618701714765e+17
19631.0	3.7758542751115936e+17
19632.0	3.7754147421115725e+17
19633.0	3.7747924318289914e+17
19634.0	3.7741565250109434e+17
19635.0	3.773487118985898e+17
19636.0	3.7725375082878285e+17
19637.0	3.771902719251797e+17
19638.0	3.7716031662544205e+17
19639.0	3.771004595033429e+17
19640.0	3.7703871144919034e+17
19641.0	3.769660779877717e+17
19642.0	3.769149803899563e+17
19643.0	3.768524203185493e+17
19644.0	3.7679045318191776e+17
19645.0	3.7672781579550714e+17
19646.0	3.766282926511444e+17
19647.0	3.765963375072597e+17
19648.0	3.765418000209237e+17
19649.0	3.7647741577680205e+17
19650.0	3.764154371757397e+17
19651.0	3.7635370289288525e+17
19652.0	3.762924659146751e+17
19653.0	3.7622782092465485e+17
19654.0	3.7616830745586336e+17
