# Flux units: erg / (cm m2 s)
# Wavelength units: Angstrom
wave	flux
19000.0	8.110907565539325e+17
19001.0	8.109300283080703e+17
19002.0	8.10785455542545e+17
19003.0	8.106323318494548e+17
19004.0	8.104789283962876e+17
19005.0	8.103265412229802e+17
19006.0	8.101738398963028e+17
19007.0	8.099822752672425e+17
19008.0	8.098620528132093e+17
19009.0	8.097129890665812e+17
19010.0	8.095248117574313e+17
19011.0	8.094073136436566e+17
19012.0	8.092173941604351e+17
19013.0	8.091028861659816e+17
19014.0	8.089446599622655e+17
19015.0	8.087941345006932e+17
19016.0	8.086406832324607e+17
19017.0	8.084672157668692e+17
19018.0	8.083348310895272e+17
19019.0	8.081842642441556e+17
19020.0	8.080257605173245e+17
19021.0	8.078756231686825e+17
19022.0	8.077258223430314e+17
19023.0	8.075692089890131e+17
19024.0	8.074184261369855e+17
19025.0	8.072625237174953e+17
19026.0	8.07108375216128e+17
19027.0	8.069339267028306e+17
19028.0	8.068076092260351e+17
19029.0	8.066525962786132e+17
19030.0	8.065020120967846e+17
19031.0	8.063494363196072e+17
19032.0	8.061963179393021e+17
19033.0	8.06035900211746e+17
19034.0	8.058881838153725e+17
19035.0	8.057333063439698e+17
19036.0	8.034121744558746e+17
19037.0	8.054293563179008e+17
19038.0	8.052754357070506e+17
19039.0	8.051241000457555e+17
19040.0	8.049714598161068e+17
19041.0	8.048176091103231e+17
19042.0	8.046576619836755e+17
19043.0	8.045122858691242e+17
19044.0	8.043579563136339e+17
19045.0	8.042045713154047e+17
19046.0	8.040474805097811e+17
19047.0	8.038994965168127e+17
19048.0	8.037297101122217e+17
19049.0	8.035876451210578e+17
19050.0	8.034364555613523e+17
19051.0	8.02978451405755e+17
19052.0	8.031112310467244e+17
19053.0	8.029715960954879e+17
19054.0	8.028283095831891e+17
19055.0	8.026544212890966e+17
19056.0	8.025197480596822e+17
19057.0	8.023677326415187e+17
19058.0	8.022052402713939e+17
19059.0	8.020626943333715e+17
19060.0	8.019079916246356e+17
19061.0	8.01757003671142e+17
19062.0	8.016036884381693e+17
19063.0	8.01450896654336e+17
19064.0	8.012872866420051e+17
19065.0	8.011295539680599e+17
19066.0	8.009864397018451e+17
19067.0	8.008378293594792e+17
19068.0	8.00686036239428e+17
19069.0	8.005331853159081e+17
19070.0	8.003774680050344e+17
19071.0	8.002254510489599e+17
19072.0	8.000741576103251e+17
19073.0	7.999210532110336e+17
19074.0	7.997685976705706e+17
19075.0	7.996157008893267e+17
19076.0	7.994609647659689e+17
19077.0	7.993093127143421e+17
19078.0	7.991500945577298e+17
19079.0	7.990039921295357e+17
19080.0	7.988501342934355e+17
19081.0	7.986944930392745e+17
19082.0	7.985398659678208e+17
19083.0	7.983823449664169e+17
19084.0	7.982185480279379e+17
19085.0	7.980859853722964e+17
19086.0	7.978983860382376e+17
19087.0	7.977191988002815e+17
19088.0	7.976193458438144e+17
19089.0	7.974268918824957e+17
19090.0	7.97319444299776e+17
19091.0	7.971678856413183e+17
19092.0	7.969982945514836e+17
19093.0	7.968650362006186e+17
19094.0	7.967100737246548e+17
19095.0	7.965564590183764e+17
19096.0	7.964020083873108e+17
19097.0	7.962533340119037e+17
19098.0	7.96101857841425e+17
19099.0	7.959483587581267e+17
19100.0	7.95792929456128e+17
19101.0	7.956429709246463e+17
19102.0	7.954850612510719e+17
19103.0	7.953388822069245e+17
19104.0	7.951866612678655e+17
19105.0	7.950339357540352e+17
19106.0	7.948695612598952e+17
19107.0	7.947271098335228e+17
19108.0	7.945758944089428e+17
19109.0	7.941667274708303e+17
19110.0	7.942678434720425e+17
19111.0	7.941180465610748e+17
19112.0	7.939665980730026e+17
19113.0	7.938142473901395e+17
19114.0	7.93661780525056e+17
19115.0	7.935020849168383e+17
19116.0	7.933549780926461e+17
19117.0	7.9320304320512e+17
19118.0	7.930343235518463e+17
19119.0	7.927465892642812e+17
19120.0	7.927298065956864e+17
19121.0	7.925846030068394e+17
19122.0	7.924427069063165e+17
19123.0	7.922882857751891e+17
19124.0	7.921255288842921e+17
19125.0	7.919819118608383e+17
19126.0	7.91826055438882e+17
19127.0	7.915511225865553e+17
19128.0	7.913001815725393e+17
19129.0	7.913686548436306e+17
19130.0	7.912232198690131e+17
19131.0	7.910639224400553e+17
19132.0	7.909196267782143e+17
19133.0	7.906895233460908e+17
19134.0	7.905032373884246e+17
19135.0	7.904578443935744e+17
19136.0	7.903067092200105e+17
19137.0	7.901408351223807e+17
19138.0	7.899699756750166e+17
19139.0	7.898489248459433e+17
19140.0	7.896981397569533e+17
19141.0	7.895462196893011e+17
19142.0	7.893912026873853e+17
19143.0	7.892370305581056e+17
19144.0	7.890859047518208e+17
19145.0	7.889366898704383e+17
19146.0	7.887307702359379e+17
19147.0	7.886268107762344e+17
19148.0	7.884799955959808e+17
19149.0	7.883278879031296e+17
19150.0	7.881748364918783e+17
19151.0	7.880248810362195e+17
19152.0	7.87868719129122e+17
19153.0	7.877196183328084e+17
19154.0	7.875591948730365e+17
19155.0	7.874164559970301e+17
19156.0	7.872645089460224e+17
19157.0	7.871073390078633e+17
19158.0	7.867844266732197e+17
19159.0	7.868053063379624e+17
19160.0	7.866498515905192e+17
19161.0	7.864795606111572e+17
19162.0	7.859578372882435e+17
19163.0	7.86196000355123e+17
19164.0	7.860488729788415e+17
19165.0	7.858912187383807e+17
19166.0	7.857309364868436e+17
19167.0	7.855557959133866e+17
19168.0	7.854266236534781e+17
19169.0	7.852771810213888e+17
19170.0	7.851370441517736e+17
19171.0	7.849677140874579e+17
19172.0	7.848314809963859e+17
19173.0	7.846808913619626e+17
19174.0	7.845255898464256e+17
19175.0	7.843779313314473e+17
19176.0	7.842253096965459e+17
19177.0	7.840616499118076e+17
19178.0	7.83915381249365e+17
19179.0	7.83742833454831e+17
19180.0	7.835604227544404e+17
19181.0	7.83455654632926e+17
19182.0	7.833021912012115e+17
19183.0	7.831554831155199e+17
19184.0	7.829926430375935e+17
19185.0	7.828563407405055e+17
19186.0	7.827059204161535e+17
19187.0	7.82546046550016e+17
19188.0	7.823990266877267e+17
19189.0	7.822394801171113e+17
19190.0	7.820852821229567e+17
19191.0	7.819380574388221e+17
19192.0	7.817867609243647e+17
19193.0	7.815794377359357e+17
19194.0	7.81461269652002e+17
19195.0	7.813313109600938e+17
19196.0	7.811819375340202e+17
19197.0	7.810283746973011e+17
19198.0	7.808670465261565e+17
19199.0	7.784055488992589e+17
19200.0	7.790459918570845e+17
19201.0	7.804122696078675e+17
19202.0	7.802688293044224e+17
19203.0	7.801140463446697e+17
19204.0	7.799644894877012e+17
19205.0	7.798144753117866e+17
19206.0	7.796625901966675e+17
19207.0	7.795043590995965e+17
19208.0	7.793428707060393e+17
19209.0	7.792037316613459e+17
19210.0	7.790530096267261e+17
19211.0	7.7890106453306e+17
19212.0	7.78749651137331e+17
19213.0	7.785696015504723e+17
19214.0	7.784044007784445e+17
19215.0	7.782831315659433e+17
19216.0	7.781352322979158e+17
19217.0	7.779866152446634e+17
19218.0	7.777703442077011e+17
19219.0	7.776680248606716e+17
19220.0	7.775256248844287e+17
19221.0	7.77347842318882e+17
19222.0	7.772240777751209e+17
19223.0	7.770692433652394e+17
19224.0	7.769077686730751e+17
19225.0	7.767518518531412e+17
19226.0	7.766104122327039e+17
19227.0	7.764569655782057e+17
19228.0	7.763068487816532e+17
19229.0	7.761537313800191e+17
19230.0	7.759902768365564e+17
19231.0	7.758386879791101e+17
19232.0	7.756875687439017e+17
19233.0	7.755343647997951e+17
19234.0	7.753855107683668e+17
19235.0	7.752309858981203e+17
19236.0	7.75080732087637e+17
19237.0	7.749259454928211e+17
19238.0	7.747628484438697e+17
19239.0	7.746193580883965e+17
19240.0	7.744385191335251e+17
19241.0	7.743027840461484e+17
19242.0	7.741556953972736e+17
19243.0	7.739889534981459e+17
19244.0	7.738505785158314e+17
19245.0	7.736961021597012e+17
19246.0	7.735411698827264e+17
19247.0	7.733870301893972e+17
19248.0	7.732336365229396e+17
19249.0	7.730788193097044e+17
19250.0	7.729233976972628e+17
19251.0	7.727626753234259e+17
19252.0	7.725859445495123e+17
19253.0	7.724592220427603e+17
19254.0	7.723018773419348e+17
19255.0	7.721334517093714e+17
19256.0	7.719876262450515e+17
19257.0	7.718403906557267e+17
19258.0	7.716849417803092e+17
19259.0	7.715230964514815e+17
19260.0	7.713477974731433e+17
19261.0	7.71217390969378e+17
19262.0	7.710576144110931e+17
19263.0	7.709028462712148e+17
19264.0	7.707111154079059e+17
19265.0	7.705800102729044e+17
19266.0	7.704287639502847e+17
19267.0	7.702814145555114e+17
19268.0	7.701235945002326e+17
19269.0	7.699674899152893e+17
19270.0	7.698098061748904e+17
19271.0	7.696277902983167e+17
19272.0	7.694931619479548e+17
19273.0	7.686365902798838e+17
19274.0	7.68833433021098e+17
19275.0	7.690227411146071e+17
19276.0	7.68861327799091e+17
19277.0	7.686988643696639e+17
19278.0	7.685406613744297e+17
19279.0	7.683714802079059e+17
19280.0	7.682167331793578e+17
19281.0	7.680636648510803e+17
19282.0	7.679050910793728e+17
19283.0	7.67708887969519e+17
19284.0	7.674984829463209e+17
19285.0	7.674070824910847e+17
19286.0	7.672628981181097e+17
19287.0	7.671051248992253e+17
19288.0	7.664512980571473e+17
19289.0	7.652935618002911e+17
19290.0	7.666216603396777e+17
19291.0	7.664377978508628e+17
19292.0	7.662978562960041e+17
19293.0	7.661348037066751e+17
19294.0	7.659716781364564e+17
19295.0	7.658096806942036e+17
19296.0	7.656457500972374e+17
19297.0	7.654799643596114e+17
19298.0	7.65315778748962e+17
19299.0	7.65153992979251e+17
19300.0	7.649890363157161e+17
19301.0	7.648227517355348e+17
19302.0	7.646568566663849e+17
19303.0	7.644829253107711e+17
19304.0	7.643193996039508e+17
19305.0	7.641563320549375e+17
19306.0	7.639876676266666e+17
19307.0	7.638148790790825e+17
19308.0	7.636470449831933e+17
19309.0	7.634064640398676e+17
19310.0	7.631971766588754e+17
19311.0	7.631296961795411e+17
19312.0	7.629658087839059e+17
19313.0	7.627834081498454e+17
19314.0	7.620013022947999e+17
19315.0	7.618648311070732e+17
19316.0	7.622670564720637e+17
19317.0	7.620978385354751e+17
19318.0	7.619232464371711e+17
19319.0	7.617499705114624e+17
19320.0	7.615707897047721e+17
19321.0	7.613976013002067e+17
19322.0	7.612048633845075e+17
19323.0	7.6100326667933e+17
19324.0	7.608606393718099e+17
19325.0	7.606291404947455e+17
19326.0	7.605015872361814e+17
19327.0	7.603198628637353e+17
19328.0	7.601391691715927e+17
19329.0	7.599557976959657e+17
19330.0	7.597680918265856e+17
19331.0	7.595823774127444e+17
19332.0	7.593983299551232e+17
19333.0	7.592008854710953e+17
19334.0	7.590082749224276e+17
19335.0	7.588225837170688e+17
19336.0	7.58630144296004e+17
19337.0	7.584379551350781e+17
19338.0	7.582292757883561e+17
19339.0	7.580514640024915e+17
19340.0	7.578488055791612e+17
19341.0	7.576540118952616e+17
19342.0	7.574197045122387e+17
19343.0	7.572528664237399e+17
19344.0	7.570491363557373e+17
19345.0	7.566800705989286e+17
19346.0	7.565840685727744e+17
19347.0	7.564099157579091e+17
19348.0	7.561968410602152e+17
19349.0	7.559809779892221e+17
19350.0	7.557675516690432e+17
19351.0	7.555509141897215e+17
19352.0	7.553296896797354e+17
19353.0	7.551114277464745e+17
19354.0	7.548748266384041e+17
19355.0	7.546416280895487e+17
19356.0	7.544208325170515e+17
19357.0	7.54189275618782e+17
19358.0	7.539488816016042e+17
19359.0	7.536815194679977e+17
19360.0	7.534594650450602e+17
19361.0	7.532106727729833e+17
19362.0	7.529694302481066e+17
19363.0	7.527195411655338e+17
19364.0	7.524506460138152e+17
19365.0	7.521848455593983e+17
19366.0	7.519200441881939e+17
19367.0	7.516550856704e+17
19368.0	7.513858173654358e+17
19369.0	7.510969205566121e+17
19370.0	7.507489889189888e+17
19371.0	7.505456443075241e+17
19372.0	7.502615958345046e+17
19373.0	7.499559285205676e+17
19374.0	7.496452330749951e+17
19375.0	7.493402804704595e+17
19376.0	7.490285091859114e+17
19377.0	7.48710540537583e+17
19378.0	7.48386431008768e+17
19379.0	7.480549582394708e+17
19380.0	7.476878266160468e+17
19381.0	7.473388353574228e+17
19382.0	7.469776687333373e+17
19383.0	7.466035180819795e+17
19384.0	7.462340654705321e+17
19385.0	7.458183884133718e+17
19386.0	7.454278439053994e+17
19387.0	7.450266345406463e+17
19388.0	7.445964095400617e+17
19389.0	7.441408900901545e+17
19390.0	7.437035848247977e+17
19391.0	7.414915270705123e+17
19392.0	7.427322899944787e+17
19393.0	7.422630058175145e+17
19394.0	7.417158904578045e+17
19395.0	7.411759149219837e+17
19396.0	7.405982963466237e+17
19397.0	7.400343538586964e+17
19398.0	7.394039701001555e+17
19399.0	7.387548751320402e+17
19400.0	7.381508696309757e+17
19401.0	7.375294745455274e+17
19402.0	7.368791857386835e+17
19403.0	7.362206424017577e+17
19404.0	7.355400785494015e+17
19405.0	7.348198596498772e+17
19406.0	7.340523404656637e+17
19407.0	7.332879601587539e+17
19408.0	7.32434336387345e+17
19409.0	7.315964261564416e+17
19410.0	7.307380095538518e+17
19411.0	7.297753720466089e+17
19412.0	7.288284092126548e+17
19413.0	7.277573757905578e+17
19414.0	7.266763871879165e+17
19415.0	7.255187827720192e+17
19416.0	7.242328997625855e+17
19417.0	7.229058001666045e+17
19418.0	7.215284228893352e+17
19419.0	7.199950092544681e+17
19420.0	7.183545947302569e+17
19421.0	7.168219889183402e+17
19422.0	7.153159350080854e+17
19423.0	7.137156384423935e+17
19424.0	7.120406402039808e+17
19425.0	7.102572735933097e+17
19426.0	7.083567403586899e+17
19427.0	7.063067706436266e+17
19428.0	7.041470229905407e+17
19429.0	7.018142980461906e+17
19430.0	6.992411023289005e+17
19431.0	6.962708924596228e+17
19432.0	6.935325309228371e+17
19433.0	6.901888317740372e+17
19434.0	6.869684436948308e+17
19435.0	6.836921486890323e+17
19436.0	6.801101795186003e+17
19437.0	6.764381315880276e+17
19438.0	6.711263379150162e+17
19439.0	6.677846279847937e+17
19440.0	6.627247458178386e+17
19441.0	6.572759977732776e+17
19442.0	6.518374657949699e+17
19443.0	6.458281167945727e+17
19444.0	6.391697072193532e+17
19445.0	6.318839109954222e+17
19446.0	6.241166028701695e+17
19447.0	6.154855860491601e+17
19448.0	6.058523739116888e+17
19449.0	5.936405524687529e+17
19450.0	5.675455497633732e+17
19451.0	5.5614442898281926e+17
19452.0	5.827260990182743e+17
19453.0	6.001364621940059e+17
19454.0	6.103095030666575e+17
19455.0	6.19162113216785e+17
19456.0	6.270880288079873e+17
19457.0	6.343423778881532e+17
19458.0	6.407625211467098e+17
19459.0	6.471665836534444e+17
19460.0	6.526058444619773e+17
19461.0	6.57729458029636e+17
19462.0	6.628357440886102e+17
19463.0	6.673270960379218e+17
19464.0	6.713769655446185e+17
19465.0	6.750558547345408e+17
19466.0	6.783518988304381e+17
19467.0	6.815088569395881e+17
19468.0	6.84425193071138e+17
19469.0	6.874349862649855e+17
19470.0	6.904077226431828e+17
19471.0	6.929946224798378e+17
19472.0	6.95335713313041e+17
19473.0	6.974832935698431e+17
19474.0	6.994640942486868e+17
19475.0	7.012431949725695e+17
19476.0	7.029508002895188e+17
19477.0	7.045360911035049e+17
19478.0	7.059580496379901e+17
19479.0	7.073309905999187e+17
19480.0	7.08591553155345e+17
19481.0	7.098051393661608e+17
19482.0	7.111461503500288e+17
19483.0	7.124360583533908e+17
19484.0	7.136152512714067e+17
19485.0	7.146941402054655e+17
19486.0	7.156802515544745e+17
19487.0	7.165893138186237e+17
19488.0	7.174544502554624e+17
19489.0	7.182248121991168e+17
19490.0	7.188561157685245e+17
19491.0	7.196133060597076e+17
19492.0	7.202379299203753e+17
19493.0	7.208148044262058e+17
19494.0	7.21379952636723e+17
19495.0	7.2186854389405e+17
19496.0	7.223201376152233e+17
19497.0	7.228107169726461e+17
19498.0	7.231380405966167e+17
19499.0	7.208469502711094e+17
19500.0	7.239593900376063e+17
19501.0	7.243207811967658e+17
19502.0	7.246590769801898e+17
19503.0	7.249876123385853e+17
19504.0	7.253332931728723e+17
19505.0	7.256212991115263e+17
19506.0	7.25930500825634e+17
19507.0	7.261755254942377e+17
19508.0	7.264410143118675e+17
19509.0	7.266613109019987e+17
19510.0	7.268303166068054e+17
19511.0	7.251415686010185e+17
19512.0	7.268657889542129e+17
19513.0	7.265616275352219e+17
19514.0	7.269957659612493e+17
19515.0	7.275914600295084e+17
19516.0	7.277676100321279e+17
19517.0	7.278643347368617e+17
19518.0	7.27994128732433e+17
19519.0	7.280737601104556e+17
19520.0	7.281519637473962e+17
19521.0	7.282205586533033e+17
19522.0	7.282752662186664e+17
19523.0	7.283539494043645e+17
19524.0	7.283955620730196e+17
19525.0	7.284256521497258e+17
19526.0	7.284576442034858e+17
19527.0	7.284801772628649e+17
19528.0	7.284962154425002e+17
19529.0	7.2851291925818e+17
19530.0	7.285340969981267e+17
19531.0	7.285342595973119e+17
19532.0	7.28529456140561e+17
19533.0	7.285200487361193e+17
19534.0	7.285058828937897e+17
19535.0	7.284857031185748e+17
19536.0	7.284621946038953e+17
19537.0	7.28439006114611e+17
19538.0	7.284165636521983e+17
19539.0	7.283451557664088e+17
19540.0	7.28361298104593e+17
19541.0	7.283230735947092e+17
19542.0	7.282789523128317e+17
19543.0	7.282404795001514e+17
19544.0	7.282014854752936e+17
19545.0	7.281237612473e+17
19546.0	7.280249824520872e+17
19547.0	7.28035374679108e+17
19548.0	7.279767754986835e+17
19549.0	7.279057037164543e+17
19550.0	7.278569421362516e+17
19551.0	7.277979760940372e+17
19552.0	7.277288162153811e+17
19553.0	7.276562978177023e+17
19554.0	7.275817889431552e+17
19555.0	7.275084842532863e+17
19556.0	7.274327765068457e+17
19557.0	7.273535721089706e+17
19558.0	7.272794705013416e+17
19559.0	7.271983160317267e+17
19560.0	7.271268291532118e+17
19561.0	7.270420492670292e+17
19562.0	7.26957548302063e+17
19563.0	7.268693183212202e+17
19564.0	7.267809553809408e+17
19565.0	7.266905463193599e+17
19566.0	7.265963268724051e+17
19567.0	7.265051470375593e+17
19568.0	7.264087989813245e+17
19569.0	7.263145041767081e+17
19570.0	7.262199757493587e+17
19571.0	7.261223954066089e+17
19572.0	7.260207649041066e+17
19573.0	7.259249695173289e+17
19574.0	7.258267091380905e+17
19575.0	7.257352088584191e+17
19576.0	7.256326985307475e+17
19577.0	7.255242715780436e+17
19578.0	7.25423398007603e+17
19579.0	7.25319135858961e+17
19580.0	7.252141234891433e+17
19581.0	7.251087332125353e+17
19582.0	7.250030841473705e+17
19583.0	7.248953556860925e+17
19584.0	7.247859331454292e+17
19585.0	7.246676140665513e+17
19586.0	7.245479301611519e+17
19587.0	7.244336999694335e+17
19588.0	7.24306061426688e+17
19589.0	7.242153994485757e+17
19590.0	7.241151072086697e+17
19591.0	7.240103069308244e+17
19592.0	7.238979303418538e+17
19593.0	7.237820299782824e+17
19594.0	7.236460464482985e+17
19595.0	7.235544246736211e+17
19596.0	7.228855314721453e+17
19597.0	7.233223218167808e+17
19598.0	7.23191823737378e+17
19599.0	7.230989222805504e+17
19600.0	7.229839856282281e+17
19601.0	7.228615462049108e+17
19602.0	7.227461564279466e+17
19603.0	7.225653107621887e+17
19604.0	7.225074478219264e+17
19605.0	7.223703367232169e+17
19606.0	7.222743897822548e+17
19607.0	7.22156867621137e+17
19608.0	7.220358834814975e+17
19609.0	7.219120971273556e+17
19610.0	7.217973467021311e+17
19611.0	7.216760988805802e+17
19612.0	7.215562028832084e+17
19613.0	7.214340158171817e+17
19614.0	7.213108916038313e+17
19615.0	7.211976013556394e+17
19616.0	7.210595092092244e+17
19617.0	7.209533956947968e+17
19618.0	7.207948705770153e+17
19619.0	7.206581833826301e+17
19620.0	7.2053847780666e+17
19621.0	7.204629550290259e+17
19622.0	7.203403714614611e+17
19623.0	7.202170462011391e+17
19624.0	7.200926186777258e+17
19625.0	7.199693437490518e+17
19626.0	7.198452026966015e+17
19627.0	7.197213523094185e+17
19628.0	7.195436775374849e+17
19629.0	7.19464634061073e+17
19630.0	7.192982882440532e+17
19631.0	7.168300183541065e+17
19632.0	7.190952175206399e+17
19633.0	7.18968793927953e+17
19634.0	7.188480094371837e+17
19635.0	7.187191373496319e+17
19636.0	7.185967102296063e+17
19637.0	7.184369328324608e+17
19638.0	7.183453959225344e+17
19639.0	7.182174855888893e+17
19640.0	7.180884531391145e+17
19641.0	7.179299192132948e+17
19642.0	7.178406009503743e+17
19643.0	7.177121618548051e+17
19644.0	7.175837242971476e+17
19645.0	7.174422567146835e+17
19646.0	7.173353248915455e+17
19647.0	7.172085099702953e+17
19648.0	7.17081174535919e+17
19649.0	7.169539250847743e+17
19650.0	7.168274437505024e+17
19651.0	7.166996110114815e+17
19652.0	7.165721683427327e+17
19653.0	7.164445268639743e+17
19654.0	7.163172276404223e+17
19655.0	7.161896370525523e+17
19656.0	7.160621461493076e+17
19657.0	7.159346661512531e+17
19658.0	7.158069937744556e+17
19659.0	7.156796569419775e+17
19660.0	7.155518708995411e+17
19661.0	7.154238881442474e+17
19662.0	7.152958391189501e+17
19663.0	7.151638365427028e+17
19664.0	7.150282256067242e+17
19665.0	7.149113335698772e+17
