# Flux units: erg / (cm m2 s)
# Wavelength units: Angstrom
wave	flux
19000.0	4.5092132922327034e+17
19001.0	4.508312197049002e+17
19002.0	4.507553387337044e+17
19003.0	4.506720214712319e+17
19004.0	4.505898852548607e+17
19005.0	4.505064032960511e+17
19006.0	4.5042381346570234e+17
19007.0	4.503382153407145e+17
19008.0	4.5025282287643296e+17
19009.0	4.5016528292850336e+17
19010.0	4.500565225286313e+17
19011.0	4.500047667746132e+17
19012.0	4.4991098304593914e+17
19013.0	4.498416056227157e+17
19014.0	4.4975489055457274e+17
19015.0	4.4967277013674656e+17
19016.0	4.4958834327115085e+17
19017.0	4.495093048279039e+17
19018.0	4.494257170328234e+17
19019.0	4.493432003231744e+17
19020.0	4.4925906566075725e+17
19021.0	4.4917751951305376e+17
19022.0	4.490945523351551e+17
19023.0	4.490094729756672e+17
19024.0	4.4892769788887034e+17
19025.0	4.488453806183765e+17
19026.0	4.4876083519378765e+17
19027.0	4.4867230245410125e+17
19028.0	4.4859779770395296e+17
19029.0	4.4851357027751245e+17
19030.0	4.484327366721536e+17
19031.0	4.483502032551936e+17
19032.0	4.4826696107076256e+17
19033.0	4.4817804189586765e+17
19034.0	4.4810091864173216e+17
19035.0	4.480136153923583e+17
19036.0	4.472435998283092e+17
19037.0	4.4785232986330445e+17
19038.0	4.4776946950034765e+17
19039.0	4.4768844393567565e+17
19040.0	4.4760588150811296e+17
19041.0	4.475223516643327e+17
19042.0	4.474331230197076e+17
19043.0	4.4735799597465594e+17
19044.0	4.4727451653242874e+17
19045.0	4.471925155823615e+17
19046.0	4.4710584790985376e+17
19047.0	4.4702553181170336e+17
19048.0	4.469291068598953e+17
19049.0	4.468558092304383e+17
19050.0	4.46776443281954e+17
19051.0	4.4660694236965523e+17
19052.0	4.46594094866978e+17
19053.0	4.465321458357589e+17
19054.0	4.46449810809378e+17
19055.0	4.463492608294911e+17
19056.0	4.4628330365146445e+17
19057.0	4.462024749394603e+17
19058.0	4.4611863807262714e+17
19059.0	4.460374768921259e+17
19060.0	4.459542103807317e+17
19061.0	4.4587369812896416e+17
19062.0	4.457910184706047e+17
19063.0	4.457183673931094e+17
19064.0	4.456716058667689e+17
19065.0	4.4558781255079245e+17
19066.0	4.455156592672768e+17
19067.0	4.4543647996532045e+17
19068.0	4.453554797062825e+17
19069.0	4.4527335117946874e+17
19070.0	4.4518903385511245e+17
19071.0	4.4510832258362016e+17
19072.0	4.4502627668459514e+17
19073.0	4.449443429832021e+17
19074.0	4.448625356701696e+17
19075.0	4.447804068637353e+17
19076.0	4.4469681298691405e+17
19077.0	4.446148012714666e+17
19078.0	4.445312517144576e+17
19079.0	4.4445180327799456e+17
19080.0	4.4436872194512205e+17
19081.0	4.4428505068339194e+17
19082.0	4.4420274264036685e+17
19083.0	4.4411696024562336e+17
19084.0	4.4402646974464006e+17
19085.0	4.4395919898050554e+17
19086.0	4.438527059514709e+17
19087.0	4.437771947780778e+17
19088.0	4.4370739386996045e+17
19089.0	4.436117742944255e+17
19090.0	4.4354843492133536e+17
19091.0	4.4346628059955194e+17
19092.0	4.433792231363925e+17
19093.0	4.4330483058387616e+17
19094.0	4.4322280097273165e+17
19095.0	4.4314067901699405e+17
19096.0	4.4305663145629e+17
19097.0	4.4297587383773856e+17
19098.0	4.4289375069361485e+17
19099.0	4.4281196623953914e+17
19100.0	4.4272908595363834e+17
19101.0	4.4264820383416314e+17
19102.0	4.4255891758776314e+17
19103.0	4.424854985332053e+17
19104.0	4.424042018067796e+17
19105.0	4.423215394149717e+17
19106.0	4.422378220158974e+17
19107.0	4.421576018274985e+17
19108.0	4.420773361309012e+17
19109.0	4.419506078919338e+17
19110.0	4.419122066620415e+17
19111.0	4.418326807008596e+17
19112.0	4.417511620258474e+17
19113.0	4.4166971947745274e+17
19114.0	4.4158795228992845e+17
19115.0	4.4150238520279034e+17
19116.0	4.4142394738387616e+17
19117.0	4.4134223842727245e+17
19118.0	4.412496488169472e+17
19119.0	4.4064922518159296e+17
19120.0	4.4109393695866874e+17
19121.0	4.41014391284258e+17
19122.0	4.409370634179925e+17
19123.0	4.408556626728276e+17
19124.0	4.4077175799807994e+17
19125.0	4.4069253325783034e+17
19126.0	4.4061116879339514e+17
19127.0	4.4039448559615994e+17
19128.0	4.4043257386106874e+17
19129.0	4.4036257931591674e+17
19130.0	4.402849723886249e+17
19131.0	4.402049663194453e+17
19132.0	4.401237965406206e+17
19133.0	4.4002995954428576e+17
19134.0	4.399541839899306e+17
19135.0	4.3988011446872736e+17
19136.0	4.397995285370197e+17
19137.0	4.3970638583780685e+17
19138.0	4.39635299934754e+17
19139.0	4.395561074906453e+17
19140.0	4.3947515567581856e+17
19141.0	4.3939400547041274e+17
19142.0	4.393112659034111e+17
19143.0	4.3922781463292576e+17
19144.0	4.3914802855499085e+17
19145.0	4.390697373969066e+17
19146.0	4.389468958097408e+17
19147.0	4.3889833115211085e+17
19148.0	4.3882645168674125e+17
19149.0	4.38746742853905e+17
19150.0	4.3866792531066874e+17
19151.0	4.3858718810439674e+17
19152.0	4.385056360846676e+17
19153.0	4.3842382066264736e+17
19154.0	4.3833531665394336e+17
19155.0	4.3826397741492896e+17
19156.0	4.381831026354857e+17
19157.0	4.3810146246546765e+17
19158.0	4.379894586103125e+17
19159.0	4.379394906084693e+17
19160.0	4.3785873473754445e+17
19161.0	4.377779221736106e+17
19162.0	4.3762741705441274e+17
19163.0	4.376144068826453e+17
19164.0	4.375370946751146e+17
19165.0	4.374535763656702e+17
19166.0	4.3736451549320525e+17
19167.0	4.3728825654531405e+17
19168.0	4.372120223438164e+17
19169.0	4.3713101803028474e+17
19170.0	4.370530248774996e+17
19171.0	4.369678036806314e+17
19172.0	4.368915670324566e+17
19173.0	4.368110865874943e+17
19174.0	4.36726358151441e+17
19175.0	4.366500046219946e+17
19176.0	4.365694126784512e+17
19177.0	4.364780774446419e+17
19178.0	4.364068278938283e+17
19179.0	4.363217285414911e+17
19180.0	4.3624566875313485e+17
19181.0	4.361575151086251e+17
19182.0	4.3608404726033056e+17
19183.0	4.360060896193194e+17
19184.0	4.359239829727913e+17
19185.0	4.358448438662484e+17
19186.0	4.357648713515007e+17
19187.0	4.3568005686231034e+17
19188.0	4.35603813573154e+17
19189.0	4.355233665428138e+17
19190.0	4.3544269281034234e+17
19191.0	4.3536063838289914e+17
19192.0	4.352828998942719e+17
19193.0	4.352018228095657e+17
19194.0	4.351213866844159e+17
19195.0	4.3504208931280205e+17
19196.0	4.349607305106772e+17
19197.0	4.348810902547114e+17
19198.0	4.3480134157598714e+17
19199.0	4.34308396491298e+17
19200.0	4.3435150589733555e+17
19201.0	4.3456089387171834e+17
19202.0	4.344809178617172e+17
19203.0	4.3439963518621e+17
19204.0	4.3431869308818765e+17
19205.0	4.342396078784511e+17
19206.0	4.341589697975635e+17
19207.0	4.340711055600298e+17
19208.0	4.3398370584166394e+17
19209.0	4.3391940226798925e+17
19210.0	4.33839393542417e+17
19211.0	4.3376024318115834e+17
19212.0	4.336802235503957e+17
19213.0	4.33591649636625e+17
19214.0	4.335080763118932e+17
19215.0	4.33438573269265e+17
19216.0	4.3335998578360314e+17
19217.0	4.3327983941495456e+17
19218.0	4.331384071345491e+17
19219.0	4.331100438527999e+17
19220.0	4.3303849385000954e+17
19221.0	4.329369632418474e+17
19222.0	4.3287933986624845e+17
19223.0	4.3279926787659085e+17
19224.0	4.3271734906497696e+17
19225.0	4.3262982121062394e+17
19226.0	4.325596404383744e+17
19227.0	4.32479670510114e+17
19228.0	4.3240141018016416e+17
19229.0	4.3232155175048525e+17
19230.0	4.322410729133397e+17
19231.0	4.321608339903828e+17
19232.0	4.3208102218738336e+17
19233.0	4.3199733247071565e+17
19234.0	4.3192073343467514e+17
19235.0	4.3184067486679034e+17
19236.0	4.317628630477481e+17
19237.0	4.316818297935189e+17
19238.0	4.3159630381055994e+17
19239.0	4.315236017722708e+17
19240.0	4.3144020006447776e+17
19241.0	4.313614798290943e+17
19242.0	4.3128286710770336e+17
19243.0	4.311937801606484e+17
19244.0	4.311250806767615e+17
19245.0	4.3104508781963936e+17
19246.0	4.309644203087189e+17
19247.0	4.3088536068423674e+17
19248.0	4.308064184303615e+17
19249.0	4.3072618894458874e+17
19250.0	4.306454218189481e+17
19251.0	4.305571605905406e+17
19252.0	4.304695058584917e+17
19253.0	4.304061622910975e+17
19254.0	4.303278125525674e+17
19255.0	4.3023687780488525e+17
19256.0	4.3016531843481594e+17
19257.0	4.3008939950516896e+17
19258.0	4.300098004931925e+17
19259.0	4.299256130524502e+17
19260.0	4.298359353376767e+17
19261.0	4.2976984995375776e+17
19262.0	4.29687281025024e+17
19263.0	4.296057489282389e+17
19264.0	4.294906080832169e+17
19265.0	4.2943608968096416e+17
19266.0	4.293533508130131e+17
19267.0	4.2929332745666554e+17
19268.0	4.2921321058795514e+17
19269.0	4.291337958457343e+17
19270.0	4.290538891116543e+17
19271.0	4.289490272474453e+17
19272.0	4.2889267187985056e+17
19273.0	4.28690857210675e+17
19274.0	4.286547854273193e+17
19275.0	4.286563593398953e+17
19276.0	4.285752784104106e+17
19277.0	4.284960530410153e+17
19278.0	4.2841650498983245e+17
19279.0	4.283355214381056e+17
19280.0	4.2825124018476365e+17
19281.0	4.2817710334498125e+17
19282.0	4.280989250835797e+17
19283.0	4.280124232957951e+17
19284.0	4.279331478743723e+17
19285.0	4.278467301823829e+17
19286.0	4.277107643383808e+17
19287.0	4.2759345615667194e+17
19288.0	4.273125468405758e+17
19289.0	4.270275114478245e+17
19290.0	4.2735445576690336e+17
19291.0	4.272570109700779e+17
19292.0	4.27194694378018e+17
19293.0	4.271146402840575e+17
19294.0	4.270347107609257e+17
19295.0	4.269556235938474e+17
19296.0	4.268749353211221e+17
19297.0	4.2679439384903674e+17
19298.0	4.2671397373214714e+17
19299.0	4.266358123877717e+17
19300.0	4.2655573110074016e+17
19301.0	4.2647591608210765e+17
19302.0	4.263949206465193e+17
19303.0	4.2631090510233594e+17
19304.0	4.262334339306838e+17
19305.0	4.261548269415083e+17
19306.0	4.260754012241919e+17
19307.0	4.2598169005697696e+17
19308.0	4.258959125555882e+17
19309.0	4.258015400864427e+17
19310.0	4.257161249030142e+17
19311.0	4.2565335980004685e+17
19312.0	4.255765479729834e+17
19313.0	4.254964949975038e+17
19314.0	4.244335639920645e+17
19315.0	4.244087899160582e+17
19316.0	4.252540715663359e+17
19317.0	4.2517514608967674e+17
19318.0	4.2509775698657274e+17
19319.0	4.250181710468438e+17
19320.0	4.249371742830591e+17
19321.0	4.2485502052051616e+17
19322.0	4.2476759374888954e+17
19323.0	4.2468697663952205e+17
19324.0	4.2461244043209376e+17
19325.0	4.2451696374251526e+17
19326.0	4.24450768048401e+17
19327.0	4.243685150905685e+17
19328.0	4.242875492248234e+17
19329.0	4.242072343150592e+17
19330.0	4.241230338020693e+17
19331.0	4.240410728377002e+17
19332.0	4.239623395999743e+17
19333.0	4.2388024420816205e+17
19334.0	4.237990805809834e+17
19335.0	4.2371591487269536e+17
19336.0	4.2363498997131936e+17
19337.0	4.235529331671038e+17
19338.0	4.2345577183532365e+17
19339.0	4.2338849953327776e+17
19340.0	4.2330613640506016e+17
19341.0	4.232799628995242e+17
19342.0	4.2317393991215776e+17
19343.0	4.231194730299392e+17
19344.0	4.2303591214830925e+17
19345.0	4.2280680744987283e+17
19346.0	4.227946439682729e+17
19347.0	4.227809598417578e+17
19348.0	4.227033480211114e+17
19349.0	4.2261704343551994e+17
19350.0	4.225329212162047e+17
19351.0	4.22448373694464e+17
19352.0	4.223604768811691e+17
19353.0	4.222820239627606e+17
19354.0	4.221973062221823e+17
19355.0	4.2210870882030925e+17
19356.0	4.2203063513688736e+17
19357.0	4.2194512600104954e+17
19358.0	4.2184688687295136e+17
19359.0	4.2174618743603194e+17
19360.0	4.2166304179049805e+17
19361.0	4.2157745037639674e+17
19362.0	4.2149246797523616e+17
19363.0	4.2138792585680186e+17
19364.0	4.212710296256512e+17
19365.0	4.211832795430912e+17
19366.0	4.210945228275712e+17
19367.0	4.210054997038421e+17
19368.0	4.20916096925696e+17
19369.0	4.2082065434978976e+17
19370.0	4.207218206091946e+17
19371.0	4.2064298642855245e+17
19372.0	4.205554431950847e+17
19373.0	4.2046211329010336e+17
19374.0	4.2037076051012256e+17
19375.0	4.2030259342322336e+17
19376.0	4.2023816457966925e+17
19377.0	4.201386838676821e+17
19378.0	4.2004347526403405e+17
19379.0	4.198901164102997e+17
19380.0	4.1972189909483514e+17
19381.0	4.196240687016618e+17
19382.0	4.1952093873547936e+17
19383.0	4.1941824134184954e+17
19384.0	4.1932553226376525e+17
19385.0	4.192196715959636e+17
19386.0	4.190978400671061e+17
19387.0	4.1899431877236045e+17
19388.0	4.1890398415967565e+17
19389.0	4.188660603813887e+17
19390.0	4.187591382051497e+17
19391.0	4.18036941831099e+17
19392.0	4.184958939693055e+17
19393.0	4.184164421773994e+17
19394.0	4.183031376685738e+17
19395.0	4.181879604729172e+17
19396.0	4.179895758356479e+17
19397.0	4.1789352242926925e+17
19398.0	4.1777141365691725e+17
19399.0	4.175958749042004e+17
19400.0	4.17518909915136e+17
19401.0	4.174860269912064e+17
19402.0	4.1737895458897914e+17
19403.0	4.172174349478571e+17
19404.0	4.169624643960831e+17
19405.0	4.169128652133717e+17
19406.0	4.1677302425190394e+17
19407.0	4.1666343337984e+17
19408.0	4.1641185063731206e+17
19409.0	4.161863319988906e+17
19410.0	4.160354277217621e+17
19411.0	4.158520962318336e+17
19412.0	4.1546963547586554e+17
19413.0	4.152992420156757e+17
19414.0	4.149518002727594e+17
19415.0	4.1466139078819834e+17
19416.0	4.142240911152466e+17
19417.0	4.138618160065192e+17
19418.0	4.133448486748159e+17
19419.0	4.1297085174469946e+17
19420.0	4.126865447627434e+17
19421.0	4.1242398105272314e+17
19422.0	4.1214755383978656e+17
19423.0	4.118391305885011e+17
19424.0	4.114620407786155e+17
19425.0	4.111403494757718e+17
19426.0	4.1079353345310714e+17
19427.0	4.103050272003412e+17
19428.0	4.099352422602068e+17
19429.0	4.093654137656661e+17
19430.0	4.088113454383102e+17
19431.0	4.0807332912824346e+17
19432.0	4.074058576560125e+17
19433.0	4.06521221410543e+17
19434.0	4.052423550522712e+17
19435.0	4.035183017022803e+17
19436.0	4.0239244865699846e+17
19437.0	4.017187871610195e+17
19438.0	4.001579972340396e+17
19439.0	4.006638226068822e+17
19440.0	3.9926966035415014e+17
19441.0	3.9617868738505344e+17
19442.0	3.9282113717643936e+17
19443.0	3.902513874993154e+17
19444.0	3.859172619015511e+17
19445.0	3.801740730171392e+17
19446.0	3.7716651706504506e+17
19447.0	3.721869182806693e+17
19448.0	3.6233001496303034e+17
19449.0	3.464671856863934e+17
19450.0	2.989632505511924e+17
19451.0	2.825683169094305e+17
19452.0	3.274931506074965e+17
19453.0	3.55600176460595e+17
19454.0	3.671273945868973e+17
19455.0	3.750070184138069e+17
19456.0	3.77922898205081e+17
19457.0	3.8204310653938304e+17
19458.0	3.8497204872151245e+17
19459.0	3.903019029976414e+17
19460.0	3.9311427890053094e+17
19461.0	3.96557087006174e+17
19462.0	3.9863931658130746e+17
19463.0	3.9939763304311526e+17
19464.0	3.9963972582331757e+17
19465.0	4.000418652749825e+17
19466.0	4.007356360119636e+17
19467.0	4.02129886834415e+17
19468.0	4.034804267177299e+17
19469.0	4.0434264552680096e+17
19470.0	4.0505654088389946e+17
19471.0	4.055832744427521e+17
19472.0	4.060464135449259e+17
19473.0	4.0643935069361485e+17
19474.0	4.0674272477183994e+17
19475.0	4.069581013035691e+17
19476.0	4.0728522730591565e+17
19477.0	4.074704774103038e+17
19478.0	4.076477846213972e+17
19479.0	4.0787257282177696e+17
19480.0	4.0799825591009274e+17
19481.0	4.0811314957079885e+17
19482.0	4.082217695313919e+17
19483.0	4.084183264307883e+17
19484.0	4.0865802887714125e+17
19485.0	4.089388748592468e+17
19486.0	4.0923238008968506e+17
19487.0	4.0938860106656416e+17
19488.0	4.095980987219969e+17
19489.0	4.0969416205489485e+17
19490.0	4.096445196708521e+17
19491.0	4.0996843290624e+17
19492.0	4.0997535238935885e+17
19493.0	4.099758241087487e+17
19494.0	4.101030354616319e+17
19495.0	4.1012792509071354e+17
19496.0	4.1006049522264736e+17
19497.0	4.1007646112044365e+17
19498.0	4.098521420529663e+17
19499.0	4.091193168931495e+17
19500.0	4.1008432040727885e+17
19501.0	4.1005747860930554e+17
19502.0	4.099356778386774e+17
19503.0	4.09899998642176e+17
19504.0	4.098689782688427e+17
19505.0	4.098360612312406e+17
19506.0	4.0980188017022285e+17
19507.0	4.0971664981579085e+17
19508.0	4.097619322907305e+17
19509.0	4.097463180853247e+17
19510.0	4.096883076453717e+17
19511.0	4.079676777562105e+17
19512.0	4.094459372022441e+17
19513.0	4.092901140550994e+17
19514.0	4.0932144865170746e+17
19515.0	4.094511124141396e+17
19516.0	4.093630756509012e+17
19517.0	4.093081199924564e+17
19518.0	4.092622243102719e+17
19519.0	4.0923050516589216e+17
19520.0	4.091785106161664e+17
19521.0	4.0912762615889914e+17
19522.0	4.0907050057727994e+17
19523.0	4.090176111727957e+17
19524.0	4.089613835916629e+17
19525.0	4.0890378027881805e+17
19526.0	4.0884759869521914e+17
19527.0	4.08789146734865e+17
19528.0	4.087303195940181e+17
19529.0	4.0873289482676915e+17
19530.0	4.087341898181289e+17
19531.0	4.0869013138090656e+17
19532.0	4.086332494883498e+17
19533.0	4.085250162425855e+17
19534.0	4.084423986599253e+17
19535.0	4.083792318125397e+17
19536.0	4.083147113933482e+17
19537.0	4.082528161890302e+17
19538.0	4.081777484234751e+17
19539.0	4.080848668895915e+17
19540.0	4.080591973995861e+17
19541.0	4.0799612618233165e+17
19542.0	4.079311520792574e+17
19543.0	4.078656538978986e+17
19544.0	4.078008571439785e+17
19545.0	4.07694955511808e+17
19546.0	4.076030706144597e+17
19547.0	4.076035612781227e+17
19548.0	4.075367211291989e+17
19549.0	4.074641534484479e+17
19550.0	4.074037160443902e+17
19551.0	4.0733684877230074e+17
19552.0	4.0726956123095034e+17
19553.0	4.0720013410522445e+17
19554.0	4.0713184104939514e+17
19555.0	4.070672505154218e+17
19556.0	4.070004488142847e+17
19557.0	4.06932055724305e+17
19558.0	4.068638171944276e+17
19559.0	4.067950287213908e+17
19560.0	4.067379162120191e+17
19561.0	4.0667422787283616e+17
19562.0	4.066071091522219e+17
19563.0	4.0653662177634976e+17
19564.0	4.064658139556523e+17
19565.0	4.063965128687615e+17
19566.0	4.0632508855528096e+17
19567.0	4.0625771510060365e+17
19568.0	4.06186614657297e+17
19569.0	4.0611713272599885e+17
19570.0	4.060490860855295e+17
19571.0	4.059786948291242e+17
19572.0	4.059071050503509e+17
19573.0	4.058375016939519e+17
19574.0	4.057634098031274e+17
19575.0	4.0569909210862925e+17
19576.0	4.0562886820495354e+17
19577.0	4.055552960582997e+17
19578.0	4.054848797059754e+17
19579.0	4.054162379636736e+17
19580.0	4.0534570102510925e+17
19581.0	4.0527608935000736e+17
19582.0	4.0520685872742394e+17
19583.0	4.0513638183731194e+17
19584.0	4.0506478045429754e+17
19585.0	4.04987274539827e+17
19586.0	4.049141658637653e+17
19587.0	4.0485064236072954e+17
19588.0	4.04746364064017e+17
19589.0	4.047097737248768e+17
19590.0	4.046314829163178e+17
19591.0	4.0456848454014285e+17
19592.0	4.044979305447424e+17
19593.0	4.044256408065363e+17
19594.0	4.043394018618027e+17
19595.0	4.0428102092499616e+17
19596.0	4.0417985354356045e+17
19597.0	4.0413941590917126e+17
19598.0	4.040364836345172e+17
19599.0	4.0399969441546234e+17
19600.0	4.039292647811754e+17
19601.0	4.0385303113891834e+17
19602.0	4.037816126974634e+17
19603.0	4.036793866736979e+17
19604.0	4.036390448092501e+17
19605.0	4.035515412818602e+17
19606.0	4.035007475613695e+17
19607.0	4.034313523123542e+17
19608.0	4.0335877715176096e+17
19609.0	4.0328506931937274e+17
19610.0	4.0321694655228576e+17
19611.0	4.0314463752028166e+17
19612.0	4.0307446317929805e+17
19613.0	4.030022037099861e+17
19614.0	4.0292879444213754e+17
19615.0	4.028597558487721e+17
19616.0	4.0278306390889805e+17
19617.0	4.027158470415701e+17
19618.0	4.025998074271061e+17
19619.0	4.0251871279622816e+17
19620.0	4.0245149446089376e+17
19621.0	4.0243032245316256e+17
19622.0	4.023595514025301e+17
19623.0	4.022879505088511e+17
19624.0	4.022156953037482e+17
19625.0	4.021448189061802e+17
19626.0	4.020731825706325e+17
19627.0	4.020015483322367e+17
19628.0	4.019196597196117e+17
19629.0	4.018509435983189e+17
19630.0	4.017428595299668e+17
19631.0	4.01253592011025e+17
19632.0	4.016435788163755e+17
19633.0	4.015691150305961e+17
19634.0	4.015006832132095e+17
19635.0	4.0142651114127354e+17
19636.0	4.0135630205747194e+17
19637.0	4.012615125346987e+17
19638.0	4.0121326671407776e+17
19639.0	4.011416605076138e+17
19640.0	4.0105731466199034e+17
19641.0	4.009199052084566e+17
19642.0	4.00927433494801e+17
19643.0	4.008555068435114e+17
19644.0	4.0077975177134074e+17
19645.0	4.0069248773870925e+17
19646.0	4.006412632631978e+17
19647.0	4.005703476488874e+17
19648.0	4.0049882784508576e+17
19649.0	4.0042677816087885e+17
19650.0	4.0035572168785914e+17
19651.0	4.002838913657515e+17
19652.0	4.002124706873344e+17
19653.0	4.0014087189080736e+17
19654.0	4.000691665589589e+17
19655.0	3.999972580130815e+17
