# Flux units: erg / (cm m2 s)
# Wavelength units: Angstrom
wave	flux
19000.0	6.300618504623444e+17
19001.0	6.299359508081322e+17
19002.0	6.298299818573823e+17
19003.0	6.297134935922004e+17
19004.0	6.295977575754409e+17
19005.0	6.294811079693652e+17
19006.0	6.293656835194879e+17
19007.0	6.292489851895807e+17
19008.0	6.291280418745001e+17
19009.0	6.290034423846228e+17
19010.0	6.288606830963368e+17
19011.0	6.28781080519202e+17
19012.0	6.286460479078397e+17
19013.0	6.285530513102164e+17
19014.0	6.284320951326038e+17
19015.0	6.283176803915092e+17
19016.0	6.282017697518932e+17
19017.0	6.28089743666927e+17
19018.0	6.279729281062227e+17
19019.0	6.278579892169385e+17
19020.0	6.277409223475197e+17
19021.0	6.276269408081236e+17
19022.0	6.275106295425706e+17
19023.0	6.273913652073812e+17
19024.0	6.272770285502463e+17
19025.0	6.271618605121535e+17
19026.0	6.270428802711551e+17
19027.0	6.26915682759475e+17
19028.0	6.268154760833706e+17
19029.0	6.266987062405801e+17
19030.0	6.265858714938025e+17
19031.0	6.264699512072874e+17
19032.0	6.263532718915583e+17
19033.0	6.262277857957204e+17
19034.0	6.261159291606356e+17
19035.0	6.259661140743508e+17
19036.0	6.247413013894482e+17
19037.0	6.257462683718995e+17
19038.0	6.256532516416169e+17
19039.0	6.255436258869247e+17
19040.0	6.254292969892521e+17
19041.0	6.253135034406227e+17
19042.0	6.251739957166079e+17
19043.0	6.250838199282346e+17
19044.0	6.249672225412436e+17
19045.0	6.248519780270079e+17
19046.0	6.247323313810089e+17
19047.0	6.246178659587411e+17
19048.0	6.244853996322815e+17
19049.0	6.24350191489297e+17
19050.0	6.242653860877652e+17
19051.0	6.239895326556157e+17
19052.0	6.23987077030434e+17
19053.0	6.239267016321706e+17
19054.0	6.238140081635328e+17
19055.0	6.236695519996586e+17
19056.0	6.235799810998271e+17
19057.0	6.2346865686173e+17
19058.0	6.233364241580031e+17
19059.0	6.232321204158463e+17
19060.0	6.231222147612672e+17
19061.0	6.230088662821546e+17
19062.0	6.228933088029353e+17
19063.0	6.227780826737321e+17
19064.0	6.226525305875113e+17
19065.0	6.225309073757524e+17
19066.0	6.224214388375551e+17
19067.0	6.223170851831808e+17
19068.0	6.22203389485602e+17
19069.0	6.220884671638185e+17
19070.0	6.219706845364223e+17
19071.0	6.218572259568297e+17
19072.0	6.217373536572756e+17
19073.0	6.216283489391956e+17
19074.0	6.215138197635071e+17
19075.0	6.213988891929257e+17
19076.0	6.212824716716713e+17
19077.0	6.211673160067753e+17
19078.0	6.210511560157865e+17
19079.0	6.20939353137698e+17
19080.0	6.208232845126314e+17
19081.0	6.207051250270207e+17
19082.0	6.205917079011327e+17
19083.0	6.204695882235903e+17
19084.0	6.203428468424703e+17
19085.0	6.202484495570259e+17
19086.0	6.200863278934697e+17
19087.0	6.199865323290623e+17
19088.0	6.198810312529236e+17
19089.0	6.197617785918806e+17
19090.0	6.196702393750868e+17
19091.0	6.195573030562474e+17
19092.0	6.194254667142484e+17
19093.0	6.193327231729663e+17
19094.0	6.19219178889762e+17
19095.0	6.191049076637695e+17
19096.0	6.189892592380585e+17
19097.0	6.188757083837779e+17
19098.0	6.187546510535338e+17
19099.0	6.186383838281727e+17
19100.0	6.185298534159699e+17
19101.0	6.184167939943082e+17
19102.0	6.182938819428351e+17
19103.0	6.181891834467667e+17
19104.0	6.180751141765119e+17
19105.0	6.179446663588521e+17
19106.0	6.178423328909993e+17
19107.0	6.17724616184081e+17
19108.0	6.176065173760682e+17
19109.0	6.174417593128276e+17
19110.0	6.173730077496659e+17
19111.0	6.172682912879956e+17
19112.0	6.171552204718079e+17
19113.0	6.170465836640937e+17
19114.0	6.169293569217875e+17
19115.0	6.16811462725905e+17
19116.0	6.167018772365311e+17
19117.0	6.165869068899668e+17
19118.0	6.16458473316898e+17
19119.0	6.158034647296673e+17
19120.0	6.162328896667647e+17
19121.0	6.161254792735401e+17
19122.0	6.160201393984852e+17
19123.0	6.159065371639807e+17
19124.0	6.157854199949994e+17
19125.0	6.156773903127892e+17
19126.0	6.155577373753343e+17
19127.0	6.152950272141993e+17
19128.0	6.153236803922601e+17
19129.0	6.152138879838889e+17
19130.0	6.151079620247552e+17
19131.0	6.149957044142079e+17
19132.0	6.1488178397184e+17
19133.0	6.147627478766932e+17
19134.0	6.146517375123455e+17
19135.0	6.145404553570986e+17
19136.0	6.14426793213952e+17
19137.0	6.143004198830079e+17
19138.0	6.141979062697983e+17
19139.0	6.140863535120383e+17
19140.0	6.13973071233024e+17
19141.0	6.138595020636159e+17
19142.0	6.13743339835665e+17
19143.0	6.136275218901674e+17
19144.0	6.135143253846697e+17
19145.0	6.134051267499348e+17
19146.0	6.132298828567894e+17
19147.0	6.131707121325396e+17
19148.0	6.130587680462163e+17
19149.0	6.129438861994665e+17
19150.0	6.128372572749823e+17
19151.0	6.127235689174356e+17
19152.0	6.126091406147583e+17
19153.0	6.124833902078633e+17
19154.0	6.123720513596073e+17
19155.0	6.122688505096874e+17
19156.0	6.12154581520657e+17
19157.0	6.120297725952e+17
19158.0	6.118871097759059e+17
19159.0	6.118080858729129e+17
19160.0	6.116984106254336e+17
19161.0	6.115808707084287e+17
19162.0	6.113794788950015e+17
19163.0	6.113387858274985e+17
19164.0	6.112467572752384e+17
19165.0	6.111213538071892e+17
19166.0	6.11010114294033e+17
19167.0	6.109009320869887e+17
19168.0	6.107952328299859e+17
19169.0	6.10682953339153e+17
19170.0	6.105709769566889e+17
19171.0	6.104543912438441e+17
19172.0	6.103438196036948e+17
19173.0	6.102325054319274e+17
19174.0	6.101154331099135e+17
19175.0	6.100068551622655e+17
19176.0	6.098937972785151e+17
19177.0	6.097656789073919e+17
19178.0	6.096636278560084e+17
19179.0	6.095482752685396e+17
19180.0	6.094403071726934e+17
19181.0	6.093178771865599e+17
19182.0	6.092146837465769e+17
19183.0	6.09104059887343e+17
19184.0	6.089909116862464e+17
19185.0	6.088772926046208e+17
19186.0	6.087652797317119e+17
19187.0	6.086458671278762e+17
19188.0	6.085391710246228e+17
19189.0	6.084263818559487e+17
19190.0	6.083125536183636e+17
19191.0	6.08196229070848e+17
19192.0	6.080867917802153e+17
19193.0	6.079708151502164e+17
19194.0	6.078546853582164e+17
19195.0	6.077428496946516e+17
19196.0	6.076226839336276e+17
19197.0	6.074931543190186e+17
19198.0	6.073225400287231e+17
19199.0	6.065989183602687e+17
19200.0	6.065954314955434e+17
19201.0	6.06993576501794e+17
19202.0	6.069320153038847e+17
19203.0	6.068304360417961e+17
19204.0	6.06723512607266e+17
19205.0	6.06614940951074e+17
19206.0	6.065043626699433e+17
19207.0	6.063810509012991e+17
19208.0	6.062622921195519e+17
19209.0	6.061686688230057e+17
19210.0	6.060565389989203e+17
19211.0	6.059456020348927e+17
19212.0	6.058326096521898e+17
19213.0	6.057073103426902e+17
19214.0	6.055928674298538e+17
19215.0	6.054920539777706e+17
19216.0	6.053827650955946e+17
19217.0	6.052671089104212e+17
19218.0	6.050907315066195e+17
19219.0	6.050266121327956e+17
19220.0	6.049292692575572e+17
19221.0	6.047952126607359e+17
19222.0	6.047041053174441e+17
19223.0	6.045938847405395e+17
19224.0	6.044785990522196e+17
19225.0	6.043598123783508e+17
19226.0	6.042569723783849e+17
19227.0	6.041449783798441e+17
19228.0	6.040354139318953e+17
19229.0	6.039229849141247e+17
19230.0	6.038105015801174e+17
19231.0	6.036970923535017e+17
19232.0	6.035853096779776e+17
19233.0	6.034670298857471e+17
19234.0	6.033597878239231e+17
19235.0	6.032462143204009e+17
19236.0	6.031367949254655e+17
19237.0	6.03023226315298e+17
19238.0	6.029028019754324e+17
19239.0	6.028001149277524e+17
19240.0	6.026876385842516e+17
19241.0	6.025734840298153e+17
19242.0	6.024618422829055e+17
19243.0	6.023351733933395e+17
19244.0	6.022390309978112e+17
19245.0	6.021260805581481e+17
19246.0	6.020130720273747e+17
19247.0	6.019014495742633e+17
19248.0	6.017898628426409e+17
19249.0	6.01676360782097e+17
19250.0	6.015606002985642e+17
19251.0	6.014406895512233e+17
19252.0	6.013108569680553e+17
19253.0	6.01225833812241e+17
19254.0	6.011159408104788e+17
19255.0	6.009840367304703e+17
19256.0	6.008893060677632e+17
19257.0	6.007789461700607e+17
19258.0	6.006664496939007e+17
19259.0	6.00543601885184e+17
19260.0	6.004092019146751e+17
19261.0	6.003219708772351e+17
19262.0	6.00204802855185e+17
19263.0	6.000890377579178e+17
19264.0	5.999371846593193e+17
19265.0	5.998539351348564e+17
19266.0	5.997385429811199e+17
19267.0	5.996489476844202e+17
19268.0	5.995359051797843e+17
19269.0	5.994235667589801e+17
19270.0	5.993090273771519e+17
19271.0	5.991692677851818e+17
19272.0	5.990821548873044e+17
19273.0	5.98941255283507e+17
19274.0	5.988160381124607e+17
19275.0	5.987481282063018e+17
19276.0	5.986337418466644e+17
19277.0	5.985215646269439e+17
19278.0	5.984086100628819e+17
19279.0	5.982939695983274e+17
19280.0	5.981763443272362e+17
19281.0	5.980688009745748e+17
19282.0	5.979567814606847e+17
19283.0	5.978383515123712e+17
19284.0	5.97724447777314e+17
19285.0	5.976048882330282e+17
19286.0	5.974983449422506e+17
19287.0	5.973826977049257e+17
19288.0	5.969122385636006e+17
19289.0	5.964083782221812e+17
19290.0	5.970349961248768e+17
19291.0	5.969052897902592e+17
19292.0	5.968192323190783e+17
19293.0	5.967062504221354e+17
19294.0	5.965924705588563e+17
19295.0	5.964803283615743e+17
19296.0	5.96358584144145e+17
19297.0	5.962494069003606e+17
19298.0	5.961367645323263e+17
19299.0	5.960170319730004e+17
19300.0	5.959110540044969e+17
19301.0	5.957973492891647e+17
19302.0	5.956820937299284e+17
19303.0	5.955620461783721e+17
19304.0	5.95452439367953e+17
19305.0	5.953385428331178e+17
19306.0	5.952244806232746e+17
19307.0	5.951051477112148e+17
19308.0	5.949905932997972e+17
19309.0	5.94855769285154e+17
19310.0	5.947305958746793e+17
19311.0	5.946399406074537e+17
19312.0	5.945316042517161e+17
19313.0	5.94411271627298e+17
19314.0	5.92651930968609e+17
19315.0	5.926850445792622e+17
19316.0	5.940508283808428e+17
19317.0	5.939549703591254e+17
19318.0	5.938413335216127e+17
19319.0	5.937281465232041e+17
19320.0	5.936090691840682e+17
19321.0	5.934885647329961e+17
19322.0	5.933703844855808e+17
19323.0	5.932533926242986e+17
19324.0	5.931401200620884e+17
19325.0	5.930124590798164e+17
19326.0	5.929077984722943e+17
19327.0	5.927927267633833e+17
19328.0	5.926634188177407e+17
19329.0	5.925597429628927e+17
19330.0	5.924388058693631e+17
19331.0	5.923130981045588e+17
19332.0	5.921996779028479e+17
19333.0	5.920791678593706e+17
19334.0	5.919616557645823e+17
19335.0	5.91815282594065e+17
19336.0	5.917220059567444e+17
19337.0	5.916025563731283e+17
19338.0	5.914619626739027e+17
19339.0	5.91361540760098e+17
19340.0	5.912279196718419e+17
19341.0	5.911026874712063e+17
19342.0	5.909621714365098e+17
19343.0	5.908736001092266e+17
19344.0	5.90738862776866e+17
19345.0	5.904513665859581e+17
19346.0	5.904086101306025e+17
19347.0	5.903626734141439e+17
19348.0	5.902597732259156e+17
19349.0	5.90126078108194e+17
19350.0	5.899942287638527e+17
19351.0	5.898724941933225e+17
19352.0	5.897298512969727e+17
19353.0	5.896240973043028e+17
19354.0	5.89497209262353e+17
19355.0	5.893596033755818e+17
19356.0	5.892406462032554e+17
19357.0	5.89111658352913e+17
19358.0	5.889810211624275e+17
19359.0	5.888440278537556e+17
19360.0	5.886907354797395e+17
19361.0	5.885705507744425e+17
19362.0	5.884407287469395e+17
19363.0	5.88304258118451e+17
19364.0	5.881684617942356e+17
19365.0	5.880329106270889e+17
19366.0	5.878963935117311e+17
19367.0	5.877509826543615e+17
19368.0	5.875997947024724e+17
19369.0	5.874559056784041e+17
19370.0	5.873152257862314e+17
19371.0	5.871714919514112e+17
19372.0	5.870335739385172e+17
19373.0	5.868869131086506e+17
19374.0	5.867139305745065e+17
19375.0	5.865663621671594e+17
19376.0	5.864174347354111e+17
19377.0	5.862655030635178e+17
19378.0	5.861002125333844e+17
19379.0	5.859215739103914e+17
19380.0	5.857653787983871e+17
19381.0	5.856062776628564e+17
19382.0	5.854139298873344e+17
19383.0	5.852162524796243e+17
19384.0	5.850586594060969e+17
19385.0	5.848887538133673e+17
19386.0	5.846924392049321e+17
19387.0	5.845194669468329e+17
19388.0	5.843431798603776e+17
19389.0	5.841623151105363e+17
19390.0	5.839676892687018e+17
19391.0	5.827862124123465e+17
19392.0	5.835204617480873e+17
19393.0	5.833973527740415e+17
19394.0	5.832061554961065e+17
19395.0	5.830033155992233e+17
19396.0	5.828003660212905e+17
19397.0	5.825930353530195e+17
19398.0	5.823550930463402e+17
19399.0	5.82060663321395e+17
19400.0	5.818845907036841e+17
19401.0	5.816673774862335e+17
19402.0	5.81425015431714e+17
19403.0	5.811335996637183e+17
19404.0	5.808788337939795e+17
19405.0	5.806125843393192e+17
19406.0	5.802995949589844e+17
19407.0	5.799885621515604e+17
19408.0	5.796375058273622e+17
19409.0	5.793303794548736e+17
19410.0	5.790058128867327e+17
19411.0	5.786301389340672e+17
19412.0	5.782324108416339e+17
19413.0	5.778354022121472e+17
19414.0	5.773804719221418e+17
19415.0	5.769280089314644e+17
19416.0	5.7642223277178874e+17
19417.0	5.7585001946589843e+17
19418.0	5.753471268902229e+17
19419.0	5.7480760888306336e+17
19420.0	5.743357565337598e+17
19421.0	5.737836728811519e+17
19422.0	5.732384941015039e+17
19423.0	5.726873749291007e+17
19424.0	5.720226484191231e+17
19425.0	5.714096303374335e+17
19426.0	5.706793325953022e+17
19427.0	5.699356372675241e+17
19428.0	5.6903999929275706e+17
19429.0	5.681482754424831e+17
19430.0	5.6703746540830726e+17
19431.0	5.6576058896766285e+17
19432.0	5.647054255336105e+17
19433.0	5.63338742263535e+17
19434.0	5.6176014346158074e+17
19435.0	5.600964237765289e+17
19436.0	5.58280801919522e+17
19437.0	5.5649673374160186e+17
19438.0	5.528124397016404e+17
19439.0	5.523007456586411e+17
19440.0	5.500238507453097e+17
19441.0	5.471523186584231e+17
19442.0	5.439397878388053e+17
19443.0	5.401856464737621e+17
19444.0	5.357048836740433e+17
19445.0	5.3033520657858605e+17
19446.0	5.2382492632896845e+17
19447.0	5.1552552292625024e+17
19448.0	5.0446508413856474e+17
19449.0	4.881246932959232e+17
19450.0	4.577861072934235e+17
19451.0	4.3619298983281005e+17
19452.0	4.7590296637494637e+17
19453.0	4.9715027982854906e+17
19454.0	5.1005866842084646e+17
19455.0	5.193516316972374e+17
19456.0	5.2638022781719904e+17
19457.0	5.3209459673006054e+17
19458.0	5.324424569946184e+17
19459.0	5.4049406923571296e+17
19460.0	5.4393930241802214e+17
19461.0	5.467346812534783e+17
19462.0	5.4914488834457594e+17
19463.0	5.512331647079764e+17
19464.0	5.5298944261597856e+17
19465.0	5.546796065488896e+17
19466.0	5.5637183442889325e+17
19467.0	5.5779841508638714e+17
19468.0	5.591538689463633e+17
19469.0	5.6036610291357005e+17
19470.0	5.6152716448453965e+17
19471.0	5.625124480177494e+17
19472.0	5.6335851260477434e+17
19473.0	5.6413171311356576e+17
19474.0	5.648150840038741e+17
19475.0	5.653190262740308e+17
19476.0	5.659451769312597e+17
19477.0	5.663867415123285e+17
19478.0	5.668198749132115e+17
19479.0	5.672032205974186e+17
19480.0	5.6753747006586874e+17
19481.0	5.678842862982484e+17
19482.0	5.6817814028506445e+17
19483.0	5.684613940073813e+17
19484.0	5.6876365722419194e+17
19485.0	5.6914197184075085e+17
19486.0	5.69383207165406e+17
19487.0	5.6972108722339834e+17
19488.0	5.699023240779092e+17
19489.0	5.7013326553197216e+17
19490.0	5.70167397729348e+17
19491.0	5.7049725317502285e+17
19492.0	5.706135138992128e+17
19493.0	5.7076519670906874e+17
19494.0	5.7086927500738554e+17
19495.0	5.7093899188961274e+17
19496.0	5.7101723383453e+17
19497.0	5.7110445732222285e+17
19498.0	5.709380699116884e+17
19499.0	5.695989539842724e+17
19500.0	5.7125654439307936e+17
19501.0	5.7129848554564256e+17
19502.0	5.713175561371647e+17
19503.0	5.713299966525439e+17
19504.0	5.713604288446463e+17
19505.0	5.7136197891959456e+17
19506.0	5.7135703586242554e+17
19507.0	5.71345358430754e+17
19508.0	5.713297167526569e+17
19509.0	5.7130435868972365e+17
19510.0	5.712470905716734e+17
19511.0	5.6845969769103123e+17
19512.0	5.70918895581047e+17
19513.0	5.707127405761871e+17
19514.0	5.708035496345595e+17
19515.0	5.710834919538688e+17
19516.0	5.710960505389056e+17
19517.0	5.7107350433737363e+17
19518.0	5.710311836002985e+17
19519.0	5.7098157022685843e+17
19520.0	5.709674408749738e+17
19521.0	5.709362578325502e+17
19522.0	5.7087572892276045e+17
19523.0	5.708205672540841e+17
19524.0	5.707880128140628e+17
19525.0	5.707370032267262e+17
19526.0	5.7067542469236045e+17
19527.0	5.706105449611263e+17
19528.0	5.70545314795793e+17
19529.0	5.705014212646227e+17
19530.0	5.704356837283156e+17
19531.0	5.703657732789589e+17
19532.0	5.702945946817877e+17
19533.0	5.702222102222164e+17
19534.0	5.701484777133396e+17
19535.0	5.700823045286569e+17
19536.0	5.700130214073685e+17
19537.0	5.6993972706344954e+17
19538.0	5.6983752340930554e+17
19539.0	5.697373480506709e+17
19540.0	5.6970136714390176e+17
19541.0	5.696246887656106e+17
19542.0	5.695457579761663e+17
19543.0	5.694618544198996e+17
19544.0	5.693936358129663e+17
19545.0	5.692616781856767e+17
19546.0	5.691504175611903e+17
19547.0	5.691437576355839e+17
19548.0	5.690606708501162e+17
19549.0	5.689658062493013e+17
19550.0	5.6888962713299616e+17
19551.0	5.688033005273087e+17
19552.0	5.687160805348692e+17
19553.0	5.6862625287372794e+17
19554.0	5.685381458558975e+17
19555.0	5.684573589471231e+17
19556.0	5.683704226993491e+17
19557.0	5.682815811190784e+17
19558.0	5.6819164797119136e+17
19559.0	5.6810173593463456e+17
19560.0	5.680048759635967e+17
19561.0	5.6791764695340365e+17
19562.0	5.678255254274047e+17
19563.0	5.6773781945494176e+17
19564.0	5.676459716072788e+17
19565.0	5.6755377563238394e+17
19566.0	5.67458636444467e+17
19567.0	5.6736835488972794e+17
19568.0	5.672730266086058e+17
19569.0	5.671802088281427e+17
19570.0	5.6708886471639034e+17
19571.0	5.6699492251293005e+17
19572.0	5.6689733979340794e+17
19573.0	5.668096522758826e+17
19574.0	5.667079144691028e+17
19575.0	5.6662711204140365e+17
19576.0	5.665320754042196e+17
19577.0	5.664339242866005e+17
19578.0	5.663395132997631e+17
19579.0	5.662446348577449e+17
19580.0	5.661492855351977e+17
19581.0	5.6605500904570874e+17
19582.0	5.659605444416852e+17
19583.0	5.658645064843264e+17
19584.0	5.6576765042797216e+17
19585.0	5.6566025031079245e+17
19586.0	5.655602710358699e+17
19587.0	5.6547378616511136e+17
19588.0	5.653407405353642e+17
19589.0	5.6528090536345594e+17
19590.0	5.651773641457664e+17
19591.0	5.6509027571466234e+17
19592.0	5.6499393017501e+17
19593.0	5.6489374090526714e+17
19594.0	5.647732598024873e+17
19595.0	5.646994741657599e+17
19596.0	5.645907786377898e+17
19597.0	5.6450484916278605e+17
19598.0	5.643686278856702e+17
19599.0	5.6430968987538765e+17
19600.0	5.6421304108755616e+17
19601.0	5.641084499656703e+17
19602.0	5.6400812808601594e+17
19603.0	5.638754291154943e+17
19604.0	5.638115157519017e+17
19605.0	5.636938023305216e+17
19606.0	5.636231169135956e+17
19607.0	5.635259201399466e+17
19608.0	5.634258898343253e+17
19609.0	5.6332421515182074e+17
19610.0	5.6322527711286605e+17
19611.0	5.6312367016837114e+17
19612.0	5.630332242668202e+17
19613.0	5.6293337886010003e+17
19614.0	5.628315310227455e+17
19615.0	5.627358267921747e+17
19616.0	5.62623626154257e+17
19617.0	5.625288504027817e+17
19618.0	5.6238160244026016e+17
19619.0	5.6226733771543866e+17
19620.0	5.621787176643241e+17
19621.0	5.621302368927743e+17
19622.0	5.620457827642026e+17
19623.0	5.6194626591129594e+17
19624.0	5.6184479556130125e+17
19625.0	5.6174787267570323e+17
19626.0	5.6164716575894176e+17
19627.0	5.6154475301874336e+17
19628.0	5.614274679756117e+17
19629.0	5.612967959724032e+17
19630.0	5.6106575825906336e+17
19631.0	5.604636191533739e+17
19632.0	5.6101428694876154e+17
19633.0	5.6094113800738125e+17
19634.0	5.608529446567936e+17
19635.0	5.6075097644291405e+17
19636.0	5.6064578595498656e+17
19637.0	5.605131391336448e+17
19638.0	5.604578610031274e+17
19639.0	5.603590803903828e+17
19640.0	5.602479543331498e+17
19641.0	5.6006663554990086e+17
19642.0	5.600597385762132e+17
19643.0	5.599603611140094e+17
19644.0	5.5985514979437216e+17
19645.0	5.597397605766484e+17
19646.0	5.5965171521508685e+17
19647.0	5.5956461986338125e+17
19648.0	5.594654375761237e+17
19649.0	5.59365266411793e+17
19650.0	5.592664070160383e+17
19651.0	5.591661955863891e+17
19652.0	5.590664741912575e+17
19653.0	5.5896710364965536e+17
19654.0	5.588672667014484e+17
19655.0	5.5876735565387085e+17
19656.0	5.586683289752917e+17
19657.0	5.5856931068532045e+17
19658.0	5.5846970421411834e+17
19659.0	5.583699758284799e+17
19660.0	5.582704915513343e+17
19661.0	5.5817180719786643e+17
19662.0	5.580750970333866e+17
