# Flux units: erg / (cm m2 s)
# Wavelength units: Angstrom
wave	flux
19000.0	7.611928128694953e+17
19001.0	7.61021003272465e+17
19002.0	7.609046022488063e+17
19003.0	7.607584539628884e+17
19004.0	7.6061366840634e+17
19005.0	7.604680228776617e+17
19006.0	7.603235957942954e+17
19007.0	7.601567300233897e+17
19008.0	7.600057845721769e+17
19009.0	7.598797348317866e+17
19010.0	7.596130621019474e+17
19011.0	7.595928708623017e+17
19012.0	7.594141919739901e+17
19013.0	7.593083260633088e+17
19014.0	7.591456276130474e+17
19015.0	7.590092807165267e+17
19016.0	7.588634400129024e+17
19017.0	7.584919053489489e+17
19018.0	7.585818322053802e+17
19019.0	7.584381051513514e+17
19020.0	7.58267173282338e+17
19021.0	7.581355953094655e+17
19022.0	7.580080068187475e+17
19023.0	7.578508479255892e+17
19024.0	7.577138942530899e+17
19025.0	7.57568249143842e+17
19026.0	7.57422181668181e+17
19027.0	7.572799666607442e+17
19028.0	7.57141712474385e+17
19029.0	7.569925909861715e+17
19030.0	7.568563376226301e+17
19031.0	7.567138271963817e+17
19032.0	7.565689605499561e+17
19033.0	7.563981898820266e+17
19034.0	7.562728618415444e+17
19035.0	7.56125467288098e+17
19036.0	7.54769639645729e+17
19037.0	7.558443685292713e+17
19038.0	7.556973771882496e+17
19039.0	7.555585295078742e+17
19040.0	7.5541595071447e+17
19041.0	7.552702280105981e+17
19042.0	7.551023707062272e+17
19043.0	7.549830791080617e+17
19044.0	7.54836642673459e+17
19045.0	7.546962837853523e+17
19046.0	7.545327269008726e+17
19047.0	7.544082119961258e+17
19048.0	7.542062924693501e+17
19049.0	7.540991260448084e+17
19050.0	7.539632779908436e+17
19051.0	7.537002615756113e+17
19052.0	7.536793991075158e+17
19053.0	7.535373355144531e+17
19054.0	7.534001436054867e+17
19055.0	7.531859402205869e+17
19056.0	7.531065167402323e+17
19057.0	7.529686250815487e+17
19058.0	7.528139707471187e+17
19059.0	7.526824622598825e+17
19060.0	7.525336967282687e+17
19061.0	7.523971725524991e+17
19062.0	7.522516608221183e+17
19063.0	7.521095754186752e+17
19064.0	7.519293070289577e+17
19065.0	7.51768904400896e+17
19066.0	7.516606969501011e+17
19067.0	7.515328282798762e+17
19068.0	7.513926385620308e+17
19069.0	7.512498085298175e+17
19070.0	7.510978614788093e+17
19071.0	7.509617655414783e+17
19072.0	7.50820586107699e+17
19073.0	7.506750130006698e+17
19074.0	7.505346897641472e+17
19075.0	7.503916209362263e+17
19076.0	7.502421524392617e+17
19077.0	7.501031147569151e+17
19078.0	7.499132383352148e+17
19079.0	7.498175529790122e+17
19080.0	7.49671859355648e+17
19081.0	7.495169122587987e+17
19082.0	7.493587646283773e+17
19083.0	7.49210878502502e+17
19084.0	7.490297395150845e+17
19085.0	7.48956981203217e+17
19086.0	7.487006231057747e+17
19087.0	7.486498995699711e+17
19088.0	7.485106124663466e+17
19089.0	7.483215098937344e+17
19090.0	7.482367184033108e+17
19091.0	7.480915608119978e+17
19092.0	7.479370236384596e+17
19093.0	7.478175244222463e+17
19094.0	7.476708993837738e+17
19095.0	7.47528245092898e+17
19096.0	7.47379967079219e+17
19097.0	7.472472303599616e+17
19098.0	7.471045830595926e+17
19099.0	7.469558376606377e+17
19100.0	7.468174478584488e+17
19101.0	7.466781396434943e+17
19102.0	7.465131169895763e+17
19103.0	7.463918385496063e+17
19104.0	7.462517671111338e+17
19105.0	7.46107623003477e+17
19106.0	7.459605227503615e+17
19107.0	7.458186751639552e+17
19108.0	7.456823439261696e+17
19109.0	7.453952242439506e+17
19110.0	7.453968246505471e+17
19111.0	7.452548477397674e+17
19112.0	7.451131554824191e+17
19113.0	7.449705241204051e+17
19114.0	7.448274028636841e+17
19115.0	7.446706608843433e+17
19116.0	7.445372172850515e+17
19117.0	7.443961492799487e+17
19118.0	7.442250915818153e+17
19119.0	7.435882687277729e+17
19120.0	7.439644172659369e+17
19121.0	7.438300411330557e+17
19122.0	7.436918692948649e+17
19123.0	7.435297286870355e+17
19124.0	7.434006713510569e+17
19125.0	7.43262088471074e+17
19126.0	7.431123781025791e+17
19127.0	7.425331598196728e+17
19128.0	7.426969454335314e+17
19129.0	7.426716849580713e+17
19130.0	7.425532000643753e+17
19131.0	7.424101783524691e+17
19132.0	7.422713941458944e+17
19133.0	7.418724463498584e+17
19134.0	7.419200196837375e+17
19135.0	7.418478968089258e+17
19136.0	7.417084472459263e+17
19137.0	7.415222820842153e+17
19138.0	7.413843690345812e+17
19139.0	7.41282979704559e+17
19140.0	7.411420445190825e+17
19141.0	7.410007498817535e+17
19142.0	7.408515660382208e+17
19143.0	7.407006478499839e+17
19144.0	7.405610895147008e+17
19145.0	7.40433620841267e+17
19146.0	7.401272624458412e+17
19147.0	7.401288624330068e+17
19148.0	7.400098455617535e+17
19149.0	7.398678446036306e+17
19150.0	7.397217613294249e+17
19151.0	7.395860670666068e+17
19152.0	7.394220713181181e+17
19153.0	7.392994167270058e+17
19154.0	7.391292910032212e+17
19155.0	7.390234910829225e+17
19156.0	7.388816893542399e+17
19157.0	7.387386619101183e+17
19158.0	7.384960506440358e+17
19159.0	7.384540969784659e+17
19160.0	7.382868089809577e+17
19161.0	7.381598510339412e+17
19162.0	7.378107111571456e+17
19163.0	7.378939166414163e+17
19164.0	7.377551513092096e+17
19165.0	7.376099372346024e+17
19166.0	7.374445502354774e+17
19167.0	7.373114870595583e+17
19168.0	7.371236794084008e+17
19169.0	7.370147740254208e+17
19170.0	7.369099427097257e+17
19171.0	7.3676081870493e+17
19172.0	7.366270725565097e+17
19173.0	7.364883799255722e+17
19174.0	7.363321697839788e+17
19175.0	7.3620697134749e+17
19176.0	7.360645006273193e+17
19177.0	7.35883727942451e+17
19178.0	7.357831653097471e+17
19179.0	7.356332414511786e+17
19180.0	7.354345579697494e+17
19181.0	7.353370041909245e+17
19182.0	7.351140289784494e+17
19183.0	7.350747533759828e+17
19184.0	7.348793080370516e+17
19185.0	7.347952673270441e+17
19186.0	7.346616654626816e+17
19187.0	7.34495018914065e+17
19188.0	7.343788731837097e+17
19189.0	7.342346352634536e+17
19190.0	7.340936870756351e+17
19191.0	7.339485617804628e+17
19192.0	7.338101113006761e+17
19193.0	7.335713301331968e+17
19194.0	7.334890390071977e+17
19195.0	7.333893624911187e+17
19196.0	7.332533504398675e+17
19197.0	7.331158524865196e+17
19198.0	7.329765845368832e+17
19199.0	7.314873805438972e+17
19200.0	7.318236661372248e+17
19201.0	7.325570692721322e+17
19202.0	7.324187917374804e+17
19203.0	7.322767818315092e+17
19204.0	7.321312218666326e+17
19205.0	7.319946700084564e+17
19206.0	7.318535032973993e+17
19207.0	7.316942239039487e+17
19208.0	7.315157094323539e+17
19209.0	7.314322149605375e+17
19210.0	7.312925780519594e+17
19211.0	7.311485509653844e+17
19212.0	7.310185232072701e+17
19213.0	7.308444313496232e+17
19214.0	7.306973895371433e+17
19215.0	7.305953358293674e+17
19216.0	7.304142996023977e+17
19217.0	7.303157396100435e+17
19218.0	7.299571615705768e+17
19219.0	7.299917810761725e+17
19220.0	7.298928048690518e+17
19221.0	7.296681926197247e+17
19222.0	7.296206345251497e+17
19223.0	7.294736964517888e+17
19224.0	7.292549720266067e+17
19225.0	7.291406790601385e+17
19226.0	7.290535177879551e+17
19227.0	7.2891310814877e+17
19228.0	7.287822208379562e+17
19229.0	7.286420392290985e+17
19230.0	7.284898522639017e+17
19231.0	7.283456105687722e+17
19232.0	7.281585065820157e+17
19233.0	7.280622642222419e+17
19234.0	7.279364566330025e+17
19235.0	7.27793245618176e+17
19236.0	7.276647437478569e+17
19237.0	7.275202531906899e+17
19238.0	7.273594079237459e+17
19239.0	7.272464989377876e+17
19240.0	7.269740507911505e+17
19241.0	7.269227552920918e+17
19242.0	7.268063998465363e+17
19243.0	7.26629936669218e+17
19244.0	7.265447604213076e+17
19245.0	7.2640501921437e+17
19246.0	7.262634216084819e+17
19247.0	7.261147508681385e+17
19248.0	7.259898031112191e+17
19249.0	7.258494110881108e+17
19250.0	7.257045389890899e+17
19251.0	7.255427076412754e+17
19252.0	7.253099032171859e+17
19253.0	7.252853998135977e+17
19254.0	7.251311619735551e+17
19255.0	7.249510071096658e+17
19256.0	7.248633577603072e+17
19257.0	7.247312838808916e+17
19258.0	7.245885027822249e+17
19259.0	7.244286628899497e+17
19260.0	7.242990105220436e+17
19261.0	7.24169949131571e+17
19262.0	7.240147672935081e+17
19263.0	7.238797388065449e+17
19264.0	7.23606059631684e+17
19265.0	7.235641699991551e+17
19266.0	7.234428343768404e+17
19267.0	7.233351646358185e+17
19268.0	7.231922497388543e+17
19269.0	7.230530231730173e+17
19270.0	7.229124892426237e+17
19271.0	7.226847294477655e+17
19272.0	7.226239928500223e+17
19273.0	7.19334837129485e+17
19274.0	7.20824323678752e+17
19275.0	7.222145671233535e+17
19276.0	7.220689868860074e+17
19277.0	7.219277565613395e+17
19278.0	7.21789017793058e+17
19279.0	7.216100334196051e+17
19280.0	7.214840063284564e+17
19281.0	7.213675549731496e+17
19282.0	7.212311739629565e+17
19283.0	7.210677759027881e+17
19284.0	7.208902287775059e+17
19285.0	7.207381037481981e+17
19286.0	7.20658862580258e+17
19287.0	7.205287036802387e+17
19288.0	7.201034750743891e+17
19289.0	7.194036206392643e+17
19290.0	7.201061869715453e+17
19291.0	7.198878565313196e+17
19292.0	7.198236315309395e+17
19293.0	7.196809722068991e+17
19294.0	7.195383745391272e+17
19295.0	7.194007293657088e+17
19296.0	7.192564974572884e+17
19297.0	7.191086223764138e+17
19298.0	7.189671705924947e+17
19299.0	7.188338833009321e+17
19300.0	7.186923407802365e+17
19301.0	7.185473533378557e+17
19302.0	7.184034248174249e+17
19303.0	7.182338804241747e+17
19304.0	7.18099483599394e+17
19305.0	7.179758383136768e+17
19306.0	7.178350425189033e+17
19307.0	7.176763127190867e+17
19308.0	7.175424155757225e+17
19309.0	7.173697131511807e+17
19310.0	7.171970790937939e+17
19311.0	7.171106361660755e+17
19312.0	7.169614015714642e+17
19313.0	7.166873028263942e+17
19314.0	7.164413214370469e+17
19315.0	7.163139054720346e+17
19316.0	7.1640584042141e+17
19317.0	7.162592314611028e+17
19318.0	7.161134336791891e+17
19319.0	7.15973780832256e+17
19320.0	7.157928661002921e+17
19321.0	7.15684034257442e+17
19322.0	7.15487208153634e+17
19323.0	7.153692244792662e+17
19324.0	7.152465633170772e+17
19325.0	7.150809207450281e+17
19326.0	7.149549978124287e+17
19327.0	7.148042211120468e+17
19328.0	7.146633306658132e+17
19329.0	7.145162070644051e+17
19330.0	7.143569896068436e+17
19331.0	7.142090720236884e+17
19332.0	7.140709635194879e+17
19333.0	7.139189169236649e+17
19334.0	7.137283993326932e+17
19335.0	7.13625701659443e+17
19336.0	7.134756884621993e+17
19337.0	7.133211389853693e+17
19338.0	7.131171305553917e+17
19339.0	7.130241059258365e+17
19340.0	7.128605440081919e+17
19341.0	7.127198392298153e+17
19342.0	7.124370297541972e+17
19343.0	7.124162240490152e+17
19344.0	7.122580732029608e+17
19345.0	7.115572758882972e+17
19346.0	7.118061070275927e+17
19347.0	7.117787575091199e+17
19348.0	7.116422524873385e+17
19349.0	7.114764759771817e+17
19350.0	7.11321990673203e+17
19351.0	7.111602689365331e+17
19352.0	7.109923285849428e+17
19353.0	7.108554230071293e+17
19354.0	7.106912125102761e+17
19355.0	7.105051074669226e+17
19356.0	7.103701203637587e+17
19357.0	7.102025909141501e+17
19358.0	7.100105639329791e+17
19359.0	7.09693019049165e+17
19360.0	7.096978836029437e+17
19361.0	7.095170185035775e+17
19362.0	7.093754808762368e+17
19363.0	7.092040940650496e+17
19364.0	7.090287236437332e+17
19365.0	7.088557048288595e+17
19366.0	7.086854299276628e+17
19367.0	7.085092999178922e+17
19368.0	7.083321853651626e+17
19369.0	7.080870782085802e+17
19370.0	7.075576593164969e+17
19371.0	7.077726492732074e+17
19372.0	7.076038042102441e+17
19373.0	7.074075335720959e+17
19374.0	7.07224160698368e+17
19375.0	7.070331839709181e+17
19376.0	7.068372465003177e+17
19377.0	7.066409628598271e+17
19378.0	7.064424709182803e+17
19379.0	7.062376475350356e+17
19380.0	7.060343512978772e+17
19381.0	7.058224164722004e+17
19382.0	7.05584662909201e+17
19383.0	7.053642880253951e+17
19384.0	7.05175645987362e+17
19385.0	7.049498190675968e+17
19386.0	7.047221874786304e+17
19387.0	7.044877082689535e+17
19388.0	7.042477051609088e+17
19389.0	7.040036627983017e+17
19390.0	7.037512469271892e+17
19391.0	7.02427193584297e+17
19392.0	7.032305668674899e+17
19393.0	7.029619649675261e+17
19394.0	7.026848781303807e+17
19395.0	7.024003477318313e+17
19396.0	7.021040256767315e+17
19397.0	7.018072880360105e+17
19398.0	7.014888985591807e+17
19399.0	7.009894302831954e+17
19400.0	7.008243028415828e+17
19401.0	7.004892272350548e+17
19402.0	7.001330886726995e+17
19403.0	6.997526698437289e+17
19404.0	6.99371337425442e+17
19405.0	6.989626984103935e+17
19406.0	6.985437177096873e+17
19407.0	6.981077937684479e+17
19408.0	6.974639076365658e+17
19409.0	6.971227955877204e+17
19410.0	6.966587790371497e+17
19411.0	6.961287089094653e+17
19412.0	6.95564520984849e+17
19413.0	6.949766673989632e+17
19414.0	6.943472342095187e+17
19415.0	6.936947991773183e+17
19416.0	6.929539772973055e+17
19417.0	6.922418117410815e+17
19418.0	6.914710412023126e+17
19419.0	6.906357707265364e+17
19420.0	6.897572360050003e+17
19421.0	6.888055475186345e+17
19422.0	6.87778175193361e+17
19423.0	6.866979990973097e+17
19424.0	6.855309098920617e+17
19425.0	6.842745383550975e+17
19426.0	6.828896575378772e+17
19427.0	6.813974317585748e+17
19428.0	6.799264980140031e+17
19429.0	6.782358697716393e+17
19430.0	6.763715004552534e+17
19431.0	6.741835533778949e+17
19432.0	6.722133863082665e+17
19433.0	6.698334050495146e+17
19434.0	6.673612023704234e+17
19435.0	6.646464361704104e+17
19436.0	6.615961523541331e+17
19437.0	6.584076682483028e+17
19438.0	6.53586753475925e+17
19439.0	6.505997040353283e+17
19440.0	6.464229151692115e+17
19441.0	6.418202748431016e+17
19442.0	6.365804692679341e+17
19443.0	6.30549207196194e+17
19444.0	6.241562595950588e+17
19445.0	6.17080557386684e+17
19446.0	6.087818638000128e+17
19447.0	5.995279541775013e+17
19448.0	5.883713832703323e+17
19449.0	5.724266895682221e+17
19450.0	5.330803827408858e+17
19451.0	5.178781265646932e+17
19452.0	5.559407979702961e+17
19453.0	5.81528071857767e+17
19454.0	5.937406229697873e+17
19455.0	6.035772184461312e+17
19456.0	6.121108489808557e+17
19457.0	6.195289160067752e+17
19458.0	6.256406038577156e+17
19459.0	6.319558391846232e+17
19460.0	6.373095998750717e+17
19461.0	6.419577669943295e+17
19462.0	6.460595935117313e+17
19463.0	6.49926994716262e+17
19464.0	6.535998508193107e+17
19465.0	6.568166350826154e+17
19466.0	6.596184986615804e+17
19467.0	6.622336487434921e+17
19468.0	6.645464513729876e+17
19469.0	6.662687928178003e+17
19470.0	6.687324980467027e+17
19471.0	6.705493795231062e+17
19472.0	6.721980622088873e+17
19473.0	6.736729571240617e+17
19474.0	6.75030091501841e+17
19475.0	6.760644222473554e+17
19476.0	6.77364332896802e+17
19477.0	6.78417423016482e+17
19478.0	6.793526408904701e+17
19479.0	6.802104048593577e+17
19480.0	6.809820140492116e+17
19481.0	6.817071198022313e+17
19482.0	6.823467594809343e+17
19483.0	6.829437242135891e+17
19484.0	6.83476954190097e+17
19485.0	6.839584277834409e+17
19486.0	6.844109132835498e+17
19487.0	6.848256522147155e+17
19488.0	6.851967762563071e+17
19489.0	6.855281049512617e+17
19490.0	6.854975675520333e+17
19491.0	6.861034746806271e+17
19492.0	6.863644521048746e+17
19493.0	6.865873102263635e+17
19494.0	6.867915589899604e+17
19495.0	6.869136465810771e+17
19496.0	6.870131557444264e+17
19497.0	6.872705004819796e+17
19498.0	6.873500513992705e+17
19499.0	6.857489691705325e+17
19500.0	6.876162068316159e+17
19501.0	6.876959424380927e+17
19502.0	6.877712148856831e+17
19503.0	6.878328203334995e+17
19504.0	6.87864001138961e+17
19505.0	6.879240925828436e+17
19506.0	6.879583569007956e+17
19507.0	6.879756791666004e+17
19508.0	6.879963076624383e+17
19509.0	6.880009132878505e+17
19510.0	6.879527459706195e+17
19511.0	6.869750188255908e+17
19512.0	6.877675417938592e+17
19513.0	6.874043454761632e+17
19514.0	6.876122269963601e+17
19515.0	6.877730057136815e+17
19516.0	6.878772429062143e+17
19517.0	6.878237635029674e+17
19518.0	6.877980566137513e+17
19519.0	6.877502029605546e+17
19520.0	6.876916057374719e+17
19521.0	6.876456127474346e+17
19522.0	6.875733206324564e+17
19523.0	6.875283413357908e+17
19524.0	6.874638085434025e+17
19525.0	6.873734195445759e+17
19526.0	6.873247070377299e+17
19527.0	6.872515289459369e+17
19528.0	6.871806778540032e+17
19529.0	6.871022717719891e+17
19530.0	6.870263837403817e+17
19531.0	6.869487628320765e+17
19532.0	6.868648908729001e+17
19533.0	6.867817557830313e+17
19534.0	6.866961139673768e+17
19535.0	6.866013109529258e+17
19536.0	6.865082229194751e+17
19537.0	6.86427872567842e+17
19538.0	6.863257781753174e+17
19539.0	6.86093313070422e+17
19540.0	6.861394552378708e+17
19541.0	6.860520610420052e+17
19542.0	6.859535822793386e+17
19543.0	6.858550768828415e+17
19544.0	6.857569184950953e+17
19545.0	6.855655646298104e+17
19546.0	6.853092426732884e+17
19547.0	6.854358600428202e+17
19548.0	6.853519969615872e+17
19549.0	6.852167087773012e+17
19550.0	6.851425969635327e+17
19551.0	6.850393843695615e+17
19552.0	6.849322553442303e+17
19553.0	6.848210937752234e+17
19554.0	6.847073596997631e+17
19555.0	6.846063821804884e+17
19556.0	6.845010381810346e+17
19557.0	6.843912117288959e+17
19558.0	6.842817841550675e+17
19559.0	6.8415658145437e+17
19560.0	6.840530008801279e+17
19561.0	6.839406588242601e+17
19562.0	6.838338872235348e+17
19563.0	6.837151474559658e+17
19564.0	6.836113006133247e+17
19565.0	6.834964855958185e+17
19566.0	6.833781672159914e+17
19567.0	6.832662803819177e+17
19568.0	6.831480996451667e+17
19569.0	6.830362864211284e+17
19570.0	6.829286641456468e+17
19571.0	6.828124765421567e+17
19572.0	6.826864376370516e+17
19573.0	6.825779099511466e+17
19574.0	6.824327950019241e+17
19575.0	6.823430538832553e+17
19576.0	6.82230050525457e+17
19577.0	6.820624905972393e+17
19578.0	6.819848004130131e+17
19579.0	6.818713586106367e+17
19580.0	6.81755000578594e+17
19581.0	6.81639556555298e+17
19582.0	6.815264663754067e+17
19583.0	6.81407698575906e+17
19584.0	6.812883239305215e+17
19585.0	6.811368836213417e+17
19586.0	6.809933949435904e+17
19587.0	6.808963311293779e+17
19588.0	6.806702951934634e+17
19589.0	6.806508336928084e+17
19590.0	6.805492317115731e+17
19591.0	6.804508996097364e+17
19592.0	6.803321550187177e+17
19593.0	6.802051082223615e+17
19594.0	6.800191085958482e+17
19595.0	6.799645613927081e+17
19596.0	6.794998878743212e+17
19597.0	6.797249364011689e+17
19598.0	6.795449400819711e+17
19599.0	6.794871123039572e+17
19600.0	6.79367756812561e+17
19601.0	6.792286591516672e+17
19602.0	6.791150813839359e+17
19603.0	6.788824038375421e+17
19604.0	6.788670385640787e+17
19605.0	6.786750698138284e+17
19606.0	6.786274211921919e+17
19607.0	6.785167772002985e+17
19608.0	6.783919593968979e+17
19609.0	6.782583092281343e+17
19610.0	6.781530284228608e+17
19611.0	6.780287872663551e+17
19612.0	6.779102650433535e+17
19613.0	6.777825064736084e+17
19614.0	6.776535627333631e+17
19615.0	6.775432888887977e+17
19616.0	6.774125097910272e+17
19617.0	6.772977397224787e+17
19618.0	6.77046611362884e+17
19619.0	6.768770227896315e+17
19620.0	6.767634581640529e+17
19621.0	6.768058337766058e+17
19622.0	6.766863950981802e+17
19623.0	6.765645770610004e+17
19624.0	6.764386395881472e+17
19625.0	6.76318157017361e+17
19626.0	6.761928880466601e+17
19627.0	6.760735988951721e+17
19628.0	6.759177003204609e+17
19629.0	6.758029236109311e+17
19630.0	6.756841090449408e+17
19631.0	6.74207386881228e+17
19632.0	6.754568672466259e+17
19633.0	6.753219940887209e+17
19634.0	6.752125435860308e+17
19635.0	6.750777702525609e+17
19636.0	6.749641932537855e+17
19637.0	6.747216314804908e+17
19638.0	6.747174235450025e+17
19639.0	6.745905364118185e+17
19640.0	6.744562312325801e+17
19641.0	6.742196622109358e+17
19642.0	6.742247610165929e+17
19643.0	6.740929239056383e+17
19644.0	6.739657076594003e+17
19645.0	6.737910559320744e+17
19646.0	6.737369190716756e+17
19647.0	6.736141296336895e+17
19648.0	6.734893307046569e+17
19649.0	6.733652471141716e+17
19650.0	6.732444103344127e+17
19651.0	6.731189864540841e+17
19652.0	6.729949548729684e+17
19653.0	6.728740205057364e+17
19654.0	6.727481223894355e+17
19655.0	6.726229356969983e+17
19656.0	6.725021900035412e+17
19657.0	6.723785064098474e+17
19658.0	6.722572252435795e+17
19659.0	6.721340400031059e+17
19660.0	6.720125184333139e+17
19661.0	6.718879494919507e+17
19662.0	6.717660847581866e+17
19663.0	6.716301030457343e+17
19664.0	6.715110331864404e+17
19665.0	6.713964429137235e+17
19666.0	6.712684986062164e+17
