# Flux units: erg / (cm m2 s)
# Wavelength units: Angstrom
wave	flux
19000.0	5.760782002290687e+17
19001.0	5.7595730340085754e+17
19002.0	5.758633592400553e+17
19003.0	5.757541209691475e+17
19004.0	5.7564607339124045e+17
19005.0	5.7553966075303245e+17
19006.0	5.754332011386196e+17
19007.0	5.7531596209302176e+17
19008.0	5.752105739834708e+17
19009.0	5.750997899018239e+17
19010.0	5.7493857113210854e+17
19011.0	5.7488891427771725e+17
19012.0	5.746651189389993e+17
19013.0	5.7468084345460045e+17
19014.0	5.745675899065684e+17
19015.0	5.744618089305428e+17
19016.0	5.7435244322269856e+17
19017.0	5.7425240998106445e+17
19018.0	5.741387767087103e+17
19019.0	5.7403710629041485e+17
19020.0	5.739287270129663e+17
19021.0	5.7382390869961363e+17
19022.0	5.737162226008063e+17
19023.0	5.7360415324460365e+17
19024.0	5.734971462036137e+17
19025.0	5.7338534793925965e+17
19026.0	5.732728939653802e+17
19027.0	5.730791208255487e+17
19028.0	5.730737608545619e+17
19029.0	5.7296369777377274e+17
19030.0	5.7286089440406176e+17
19031.0	5.7275433084081485e+17
19032.0	5.7264629263018656e+17
19033.0	5.725278475124734e+17
19034.0	5.7242906801821005e+17
19035.0	5.723035053763242e+17
19036.0	5.652817492574188e+17
19037.0	5.720969035382783e+17
19038.0	5.7200023175168e+17
19039.0	5.718974616567807e+17
19040.0	5.717916437708799e+17
19041.0	5.716838503677951e+17
19042.0	5.715124509736958e+17
19043.0	5.7147226227124896e+17
19044.0	5.713630823710719e+17
19045.0	5.712545007883605e+17
19046.0	5.711441289368916e+17
19047.0	5.710431612043263e+17
19048.0	5.708993606101673e+17
19049.0	5.707131124012372e+17
19050.0	5.7071515642538656e+17
19051.0	5.695695543599087e+17
19052.0	5.703508915388415e+17
19053.0	5.704013800538111e+17
19054.0	5.702984853880832e+17
19055.0	5.701446663492947e+17
19056.0	5.700763135246335e+17
19057.0	5.699781127744169e+17
19058.0	5.698117945698985e+17
19059.0	5.697442934685694e+17
19060.0	5.6965579274540365e+17
19061.0	5.69553539179042e+17
19062.0	5.694464295174143e+17
19063.0	5.6934029628975776e+17
19064.0	5.6921698088605005e+17
19065.0	5.691059638108158e+17
19066.0	5.689939155659434e+17
19067.0	5.689134405735764e+17
19068.0	5.688087086628863e+17
19069.0	5.687026058439337e+17
19070.0	5.685924071473151e+17
19071.0	5.684852215687849e+17
19072.0	5.6836173839291725e+17
19073.0	5.682769694119252e+17
19074.0	5.6817145589268474e+17
19075.0	5.6806526163790496e+17
19076.0	5.6795634590897485e+17
19077.0	5.678509145281876e+17
19078.0	5.677416487146836e+17
19079.0	5.676402477804202e+17
19080.0	5.675326633934848e+17
19081.0	5.674228530894164e+17
19082.0	5.673166007435263e+17
19083.0	5.672041086014804e+17
19084.0	5.670826368740011e+17
19085.0	5.670015724421119e+17
19086.0	5.668157840687103e+17
19087.0	5.6656582473154566e+17
19088.0	5.6663566737298765e+17
19089.0	5.66462238634803e+17
19090.0	5.664669279365802e+17
19091.0	5.663582860257962e+17
19092.0	5.661707273764864e+17
19093.0	5.6615619068777805e+17
19094.0	5.660511666438143e+17
19095.0	5.659454977955156e+17
19096.0	5.65837402542353e+17
19097.0	5.657337397597524e+17
19098.0	5.656042253145428e+17
19099.0	5.6549379243595085e+17
19100.0	5.654049193983999e+17
19101.0	5.653068755151529e+17
19102.0	5.651897009919315e+17
19103.0	5.650995171644756e+17
19104.0	5.6499425034021536e+17
19105.0	5.6483645090693114e+17
19106.0	5.6474803302126925e+17
19107.0	5.6466012607173965e+17
19108.0	5.645496443295059e+17
19109.0	5.639770897470798e+17
19110.0	5.643430094962687e+17
19111.0	5.6423704236305043e+17
19112.0	5.641317403066366e+17
19113.0	5.640439567395498e+17
19114.0	5.638900717802836e+17
19115.0	5.6376332732334074e+17
19116.0	5.636788392908117e+17
19117.0	5.6357299197487776e+17
19118.0	5.6342967211786234e+17
19119.0	5.624480762866331e+17
19120.0	5.6320003243595085e+17
19121.0	5.631133603594238e+17
19122.0	5.630499661807615e+17
19123.0	5.629448539865087e+17
19124.0	5.628070680242857e+17
19125.0	5.627313764259156e+17
19126.0	5.626278963052543e+17
19127.0	5.62288501334562e+17
19128.0	5.623502157643774e+17
19129.0	5.6230380523137696e+17
19130.0	5.622067442133673e+17
19131.0	5.6210143579559245e+17
19132.0	5.6199831009361914e+17
19133.0	5.61875432575249e+17
19134.0	5.6175696313057274e+17
19135.0	5.6168116171134285e+17
19136.0	5.6157889598149965e+17
19137.0	5.614524784006484e+17
19138.0	5.613655581611349e+17
19139.0	5.612640164380671e+17
19140.0	5.611593742155775e+17
19141.0	5.61054544507699e+17
19142.0	5.609446069065045e+17
19143.0	5.6083692192617805e+17
19144.0	5.60735221588514e+17
19145.0	5.606348093915135e+17
19146.0	5.6045054019502086e+17
19147.0	5.6041267255050234e+17
19148.0	5.602992180254037e+17
19149.0	5.601918278347434e+17
19150.0	5.601103802531839e+17
19151.0	5.600059420835839e+17
19152.0	5.5989471669125114e+17
19153.0	5.597577768599551e+17
19154.0	5.5967104277763405e+17
19155.0	5.595855264415743e+17
19156.0	5.5948179382381216e+17
19157.0	5.5935265483871565e+17
19158.0	5.5892847194275795e+17
19159.0	5.591616442772138e+17
19160.0	5.5905531300850336e+17
19161.0	5.5895026981055136e+17
19162.0	5.581027754551986e+17
19163.0	5.5872561016558925e+17
19164.0	5.5864452245531296e+17
19165.0	5.5848405775155174e+17
19166.0	5.58400920564531e+17
19167.0	5.5826124849370445e+17
19168.0	5.5822583172082336e+17
19169.0	5.581094207007402e+17
19170.0	5.580195652872873e+17
19171.0	5.578683050535594e+17
19172.0	5.578060603938132e+17
19173.0	5.5770476270933325e+17
19174.0	5.57596485493282e+17
19175.0	5.574995648446462e+17
19176.0	5.573950612439039e+17
19177.0	5.572713970139134e+17
19178.0	5.5716684426990925e+17
19179.0	5.57015177817839e+17
19180.0	5.569737397720405e+17
19181.0	5.568563041533951e+17
19182.0	5.5676640414050976e+17
19183.0	5.566661211280724e+17
19184.0	5.565605988007935e+17
19185.0	5.5645701822655136e+17
19186.0	5.5635411817813325e+17
19187.0	5.562400828118357e+17
19188.0	5.5614405638881274e+17
19189.0	5.560391967615657e+17
19190.0	5.5593172366349645e+17
19191.0	5.55820887642385e+17
19192.0	5.557293479362558e+17
19193.0	5.556177047213397e+17
19194.0	5.5550998443895456e+17
19195.0	5.5541505888092154e+17
19196.0	5.553062094918996e+17
19197.0	5.55196524667426e+17
19198.0	5.55063101760034e+17
19199.0	5.5063664331325325e+17
19200.0	5.518711071615674e+17
19201.0	5.5475630037620045e+17
19202.0	5.5467949134533965e+17
19203.0	5.5456865532422816e+17
19204.0	5.544751017230336e+17
19205.0	5.543770542746281e+17
19206.0	5.542737403183103e+17
19207.0	5.541581095785811e+17
19208.0	5.5403740184357523e+17
19209.0	5.5396381732372474e+17
19210.0	5.538600954713428e+17
19211.0	5.5375816913059834e+17
19212.0	5.536542047775402e+17
19213.0	5.53501297091106e+17
19214.0	5.533786884276224e+17
19215.0	5.5332526152308045e+17
19216.0	5.5323976476043936e+17
19217.0	5.5313504529285114e+17
19218.0	5.529234687306408e+17
19219.0	5.529102326256979e+17
19220.0	5.5282020510597114e+17
19221.0	5.526793790423039e+17
19222.0	5.526175824740351e+17
19223.0	5.5251272005058554e+17
19224.0	5.5240625896816634e+17
19225.0	5.522890640326655e+17
19226.0	5.522021855963817e+17
19227.0	5.5209861893324794e+17
19228.0	5.519982772704596e+17
19229.0	5.518947042459647e+17
19230.0	5.517878977626111e+17
19231.0	5.516844572082175e+17
19232.0	5.5158263838146554e+17
19233.0	5.5147098852556794e+17
19234.0	5.513743198846975e+17
19235.0	5.5126972463841274e+17
19236.0	5.511705249447935e+17
19237.0	5.5106504260321274e+17
19238.0	5.5094479959709e+17
19239.0	5.5086046766257485e+17
19240.0	5.5075530555610445e+17
19241.0	5.506501100350121e+17
19242.0	5.5054831896057165e+17
19243.0	5.5042706925158394e+17
19244.0	5.503437452782249e+17
19245.0	5.50239643701521e+17
19246.0	5.501346478992041e+17
19247.0	5.5003248031607456e+17
19248.0	5.499288342407851e+17
19249.0	5.4982217497750176e+17
19250.0	5.497124990309717e+17
19251.0	5.495968469701972e+17
19252.0	5.4948203062449485e+17
19253.0	5.4940877535750816e+17
19254.0	5.492576608059391e+17
19255.0	5.4913198324012365e+17
19256.0	5.490460620838228e+17
19257.0	5.489483717104979e+17
19258.0	5.48845070197282e+17
19259.0	5.487325491145385e+17
19260.0	5.484892638937085e+17
19261.0	5.4853306221417805e+17
19262.0	5.484235303419902e+17
19263.0	5.4831953956481696e+17
19264.0	5.48151436124706e+17
19265.0	5.480943742266026e+17
19266.0	5.479823291973632e+17
19267.0	5.479149056906579e+17
19268.0	5.478106071913813e+17
19269.0	5.477075978114388e+17
19270.0	5.4760426463122765e+17
19271.0	5.4745523506817715e+17
19272.0	5.4739304849954125e+17
19273.0	5.4721365860679654e+17
19274.0	5.4711825762440506e+17
19275.0	5.4708725626525005e+17
19276.0	5.469812106286421e+17
19277.0	5.4687840586082976e+17
19278.0	5.4677387108242765e+17
19279.0	5.466659686973439e+17
19280.0	5.4655691064169805e+17
19281.0	5.4646325931322016e+17
19282.0	5.463606179135487e+17
19283.0	5.4619278724300794e+17
19284.0	5.461282229933396e+17
19285.0	5.4602686274382496e+17
19286.0	5.4594114550060365e+17
19287.0	5.458388994140842e+17
19288.0	5.4385974003629894e+17
19289.0	5.410406554140592e+17
19290.0	5.4552660076571296e+17
19291.0	5.45394999095023e+17
19292.0	5.453239751977643e+17
19293.0	5.4521943140160845e+17
19294.0	5.451146846011392e+17
19295.0	5.45012621316369e+17
19296.0	5.4488343717259936e+17
19297.0	5.4479303901620896e+17
19298.0	5.4469636219644576e+17
19299.0	5.445676644521301e+17
19300.0	5.4448997678448634e+17
19301.0	5.4438663486614176e+17
19302.0	5.442196933181439e+17
19303.0	5.441029141779796e+17
19304.0	5.440057795499349e+17
19305.0	5.4390291564243616e+17
19306.0	5.437960627421183e+17
19307.0	5.4368324295502496e+17
19308.0	5.4358185355509754e+17
19309.0	5.433181257160019e+17
19310.0	5.431615348015101e+17
19311.0	5.432517354061823e+17
19312.0	5.431678671519742e+17
19313.0	5.4306085074370554e+17
19314.0	5.335892690468903e+17
19315.0	5.341891979640949e+17
19316.0	5.426955329470464e+17
19317.0	5.4264157728058016e+17
19318.0	5.425370469061973e+17
19319.0	5.424341828588883e+17
19320.0	5.4231725454131194e+17
19321.0	5.4220035013126816e+17
19322.0	5.4209741981395616e+17
19323.0	5.419397076921003e+17
19324.0	5.4188080896846496e+17
19325.0	5.4159974439321594e+17
19326.0	5.416476181790719e+17
19327.0	5.415419798093824e+17
19328.0	5.413934367855957e+17
19329.0	5.413322909635924e+17
19330.0	5.4122006313260365e+17
19331.0	5.4111205595982496e+17
19332.0	5.410084570005504e+17
19333.0	5.4089808151401805e+17
19334.0	5.407927109506389e+17
19335.0	5.405957158163798e+17
19336.0	5.4053815843116365e+17
19337.0	5.4040122062711456e+17
19338.0	5.402661253109076e+17
19339.0	5.401822269276158e+17
19340.0	5.400539537866751e+17
19341.0	5.399270674224468e+17
19342.0	5.3978569456134816e+17
19343.0	5.3974500163365536e+17
19344.0	5.396019170071894e+17
19345.0	5.392350712954874e+17
19346.0	5.393012644730195e+17
19347.0	5.3925080336083616e+17
19348.0	5.39191707644723e+17
19349.0	5.3907305798478496e+17
19350.0	5.3894544223109114e+17
19351.0	5.3884935610914125e+17
19352.0	5.386858300527956e+17
19353.0	5.386283490738175e+17
19354.0	5.3851512139066016e+17
19355.0	5.38388379660015e+17
19356.0	5.382857877531306e+17
19357.0	5.381708889194494e+17
19358.0	5.380523711004671e+17
19359.0	5.3792051868030285e+17
19360.0	5.3778192454560403e+17
19361.0	5.3769862350110714e+17
19362.0	5.3758700608116045e+17
19363.0	5.3746836634774176e+17
19364.0	5.372801907862185e+17
19365.0	5.371285272002558e+17
19366.0	5.37007611847202e+17
19367.0	5.368850685449556e+17
19368.0	5.36763791712802e+17
19369.0	5.366307148354901e+17
19370.0	5.3650505663337805e+17
19371.0	5.3638456273797114e+17
19372.0	5.3626533657094816e+17
19373.0	5.3613462472185165e+17
19374.0	5.360095232436905e+17
19375.0	5.358798677999615e+17
19376.0	5.357431427869353e+17
19377.0	5.3547798245321376e+17
19378.0	5.3534511550081683e+17
19379.0	5.3521075432762016e+17
19380.0	5.3507468215801165e+17
19381.0	5.349363635191806e+17
19382.0	5.3478833241019725e+17
19383.0	5.3464234022229325e+17
19384.0	5.344318721447254e+17
19385.0	5.341822714205524e+17
19386.0	5.3403503310493005e+17
19387.0	5.338679498593621e+17
19388.0	5.3371409293202765e+17
19389.0	5.335213726324055e+17
19390.0	5.3315542988445e+17
19391.0	5.267327420814584e+17
19392.0	5.327446884745208e+17
19393.0	5.325993485707945e+17
19394.0	5.3219441753019725e+17
19395.0	5.319965087367168e+17
19396.0	5.3177653203217043e+17
19397.0	5.3129324034785274e+17
19398.0	5.3108145407044256e+17
19399.0	5.305217695700309e+17
19400.0	5.3024302423517856e+17
19401.0	5.2978493437597037e+17
19402.0	5.293138157502464e+17
19403.0	5.288681480912896e+17
19404.0	5.285436809281535e+17
19405.0	5.2829144848793594e+17
19406.0	5.280353279279102e+17
19407.0	5.2775513241245005e+17
19408.0	5.273485801335467e+17
19409.0	5.271653467903317e+17
19410.0	5.2687508089077754e+17
19411.0	5.2657635927435936e+17
19412.0	5.262656881557502e+17
19413.0	5.2593132655957325e+17
19414.0	5.2559587738036896e+17
19415.0	5.2518903674306554e+17
19416.0	5.2478686087086074e+17
19417.0	5.2438552302059514e+17
19418.0	5.2402916600490656e+17
19419.0	5.235613464788991e+17
19420.0	5.231527138252118e+17
19421.0	5.225451320508415e+17
19422.0	5.220561801532758e+17
19423.0	5.2139775991917216e+17
19424.0	5.206581868232702e+17
19425.0	5.1981249671768704e+17
19426.0	5.187488162600274e+17
19427.0	5.172760333866325e+17
19428.0	5.1543716956296506e+17
19429.0	5.13081823968188e+17
19430.0	5.116998611981656e+17
19431.0	5.095776390742033e+17
19432.0	5.0936797490490016e+17
19433.0	5.079999068853588e+17
19434.0	5.0658538995493536e+17
19435.0	5.050182993444862e+17
19436.0	5.0317268290109357e+17
19437.0	5.020510305211732e+17
19438.0	4.905585825458881e+17
19439.0	4.9848226487992384e+17
19440.0	4.9701407490921786e+17
19441.0	4.9517435328047763e+17
19442.0	4.928815360901121e+17
19443.0	4.889559600988166e+17
19444.0	4.816141222412304e+17
19445.0	4.758674878758913e+17
19446.0	4.704905751166974e+17
19447.0	4.641567639863292e+17
19448.0	4.522791332915861e+17
19449.0	4.343723452967596e+17
19450.0	3.921662955924202e+17
19451.0	3.712935417348106e+17
19452.0	4.185329008727402e+17
19453.0	4.435963821075114e+17
19454.0	4.592822671900663e+17
19455.0	4.669630349399381e+17
19456.0	4.7249851643767475e+17
19457.0	4.7740880336977914e+17
19458.0	4.627810224177507e+17
19459.0	4.8925017836094176e+17
19460.0	4.925721563277989e+17
19461.0	4.9441610064199674e+17
19462.0	4.9600103577900365e+17
19463.0	4.975214574174206e+17
19464.0	4.989662849051306e+17
19465.0	5.004011345630549e+17
19466.0	5.017345564431699e+17
19467.0	5.030150764756991e+17
19468.0	5.042500388170411e+17
19469.0	5.053885899778729e+17
19470.0	5.06577777992226e+17
19471.0	5.0759497920020474e+17
19472.0	5.085200433632596e+17
19473.0	5.10201537040657e+17
19474.0	5.1219883580457005e+17
19475.0	5.134935775335768e+17
19476.0	5.146128948046504e+17
19477.0	5.1540814903377894e+17
19478.0	5.159964421827242e+17
19479.0	5.164046371607893e+17
19480.0	5.168532461453311e+17
19481.0	5.17176529186543e+17
19482.0	5.1749718351762765e+17
19483.0	5.177115332138323e+17
19484.0	5.180268613380777e+17
19485.0	5.181983630731946e+17
19486.0	5.183326355368619e+17
19487.0	5.1853885911859194e+17
19488.0	5.187447075198293e+17
19489.0	5.188621542533802e+17
19490.0	5.187994951264936e+17
19491.0	5.190962467482281e+17
19492.0	5.192010577914538e+17
19493.0	5.1929258065046176e+17
19494.0	5.1938619080485536e+17
19495.0	5.194896770771626e+17
19496.0	5.194970706564436e+17
19497.0	5.19603516150033e+17
19498.0	5.1904489224929344e+17
19499.0	5.103865641478772e+17
19500.0	5.2001158215325005e+17
19501.0	5.204766179196928e+17
19502.0	5.205450124077738e+17
19503.0	5.2087357488933574e+17
19504.0	5.209739674430122e+17
19505.0	5.210389484666879e+17
19506.0	5.2130460365837645e+17
19507.0	5.2128360962894496e+17
19508.0	5.212723064690004e+17
19509.0	5.215209222307839e+17
19510.0	5.2144874545916576e+17
19511.0	5.0453660659874816e+17
19512.0	5.19900225409294e+17
19513.0	5.1880888372646803e+17
19514.0	5.195189995263288e+17
19515.0	5.2138564900618246e+17
19516.0	5.2146878647282336e+17
19517.0	5.214288441857364e+17
19518.0	5.214637338744149e+17
19519.0	5.2150000978056525e+17
19520.0	5.2142228499333114e+17
19521.0	5.2140263439947085e+17
19522.0	5.213343296694953e+17
19523.0	5.212732830427819e+17
19524.0	5.2119632427526816e+17
19525.0	5.2115612061313696e+17
19526.0	5.211366766586538e+17
19527.0	5.211580348934826e+17
19528.0	5.2108759239666336e+17
19529.0	5.210171174638932e+17
19530.0	5.2095404079404365e+17
19531.0	5.20883721609762e+17
19532.0	5.2081247946888525e+17
19533.0	5.2074035281919994e+17
19534.0	5.206670534421162e+17
19535.0	5.2059158973426336e+17
19536.0	5.205137987469311e+17
19537.0	5.20443190714914e+17
19538.0	5.203231293920598e+17
19539.0	5.20214968847565e+17
19540.0	5.2023380889217696e+17
19541.0	5.2022009603467936e+17
19542.0	5.2014507384722765e+17
19543.0	5.2003571247349766e+17
19544.0	5.1998730803828045e+17
19545.0	5.1984637613834214e+17
19546.0	5.197062816311979e+17
19547.0	5.1974844088756896e+17
19548.0	5.1966685755037005e+17
19549.0	5.1957235869286394e+17
19550.0	5.195023172414122e+17
19551.0	5.1941981828765e+17
19552.0	5.1933645761413114e+17
19553.0	5.192498899757738e+17
19554.0	5.191636056626517e+17
19555.0	5.19078741540864e+17
19556.0	5.189972327923711e+17
19557.0	5.1891433852545696e+17
19558.0	5.1882955409544525e+17
19559.0	5.1874446320162125e+17
19560.0	5.186434713518079e+17
19561.0	5.185695717698217e+17
19562.0	5.1847424125173754e+17
19563.0	5.1840066400201376e+17
19564.0	5.183140210758996e+17
19565.0	5.18227140612369e+17
19566.0	5.1813603445746336e+17
19567.0	5.1805267413346976e+17
19568.0	5.179621888054612e+17
19569.0	5.1787472638225056e+17
19570.0	5.1778931413483514e+17
19571.0	5.177007780397055e+17
19572.0	5.176091803123711e+17
19573.0	5.175181664321535e+17
19574.0	5.174236851208191e+17
19575.0	5.1734858380083194e+17
19576.0	5.1727167368724474e+17
19577.0	5.17224731316497e+17
19578.0	5.171397587020457e+17
19579.0	5.1705244105222816e+17
19580.0	5.169632377831423e+17
19581.0	5.168748712777045e+17
19582.0	5.1678761668225683e+17
19583.0	5.166978950671017e+17
19584.0	5.166051051787604e+17
19585.0	5.1651974445137914e+17
19586.0	5.16442826019089e+17
19587.0	5.163438935026347e+17
19588.0	5.162193224641195e+17
19589.0	5.161885848567807e+17
19590.0	5.1608357975709005e+17
19591.0	5.1600938916031136e+17
19592.0	5.1592005363083936e+17
19593.0	5.1582386335034003e+17
19594.0	5.157033828068009e+17
19595.0	5.156439262407338e+17
19596.0	5.154171674864298e+17
19597.0	5.154626373069483e+17
19598.0	5.1531419662417914e+17
19599.0	5.152839886875306e+17
19600.0	5.151941601875285e+17
19601.0	5.150942421494443e+17
19602.0	5.1500524342258336e+17
19603.0	5.1479212349631123e+17
19604.0	5.148157243555839e+17
19605.0	5.1469938834363725e+17
19606.0	5.1464586266323616e+17
19607.0	5.1455557383837005e+17
19608.0	5.144618412102996e+17
19609.0	5.143657532708181e+17
19610.0	5.142644514619392e+17
19611.0	5.1416514635147936e+17
19612.0	5.140981772277076e+17
19613.0	5.140052302626815e+17
19614.0	5.13909931970833e+17
19615.0	5.138218912929109e+17
19616.0	5.136569759432704e+17
19617.0	5.136151046258688e+17
19618.0	5.134691889840125e+17
19619.0	5.133549843775486e+17
19620.0	5.133076422197247e+17
19621.0	5.1329427644088314e+17
19622.0	5.132352713217364e+17
19623.0	5.1314143271758496e+17
19624.0	5.1304470423797754e+17
19625.0	5.129590336913407e+17
19626.0	5.1286620975923194e+17
19627.0	5.127724049891327e+17
19628.0	5.125673482627757e+17
19629.0	5.1248986338973e+17
19630.0	5.12219547487437e+17
19631.0	5.0756452498800614e+17
19632.0	5.122960285237247e+17
19633.0	5.1220412691906554e+17
19634.0	5.1212985509259936e+17
19635.0	5.1202904212985165e+17
19636.0	5.1190956703088634e+17
19637.0	5.1177787098835616e+17
19638.0	5.1175842528624634e+17
19639.0	5.1166950806869325e+17
19640.0	5.115670287089664e+17
19641.0	5.113363544320686e+17
19642.0	5.1139184178845005e+17
19643.0	5.112981749410474e+17
19644.0	5.1120352459926176e+17
19645.0	5.110824681777833e+17
19646.0	5.109881182180691e+17
19647.0	5.109343987608234e+17
19648.0	5.1084320906936314e+17
19649.0	5.1075073703936e+17
19650.0	5.1065962606100474e+17
19651.0	5.105667918528511e+17
19652.0	5.104744534114303e+17
19653.0	5.103806224269311e+17
19654.0	5.102903549231103e+17
19655.0	5.101978079548756e+17
19656.0	5.101063133375146e+17
