# Flux units: erg / (cm m2 s)
# Wavelength units: Angstrom
wave	flux
19000.0	6.918658703316308e+17
19001.0	6.917208615682045e+17
19002.0	6.916060975114921e+17
19003.0	6.91474711847458e+17
19004.0	6.913435166048255e+17
19005.0	6.912150140354559e+17
19006.0	6.910849021116415e+17
19007.0	6.908588964446209e+17
19008.0	6.908147737646419e+17
19009.0	6.906864873417385e+17
19010.0	6.904970069322408e+17
19011.0	6.904281100364458e+17
19012.0	6.901901489253032e+17
19013.0	6.901734681782954e+17
19014.0	6.900350604105044e+17
19015.0	6.899089237082111e+17
19016.0	6.897775204281001e+17
19017.0	6.896334144187049e+17
19018.0	6.895140562709161e+17
19019.0	6.893930406739968e+17
19020.0	6.892551743908522e+17
19021.0	6.891298058753363e+17
19022.0	6.890043173328212e+17
19023.0	6.888686081103187e+17
19024.0	6.887414189872468e+17
19025.0	6.886023234235049e+17
19026.0	6.884708726778538e+17
19027.0	6.8826566257978e+17
19028.0	6.882253032390655e+17
19029.0	6.880921108086783e+17
19030.0	6.879671671062527e+17
19031.0	6.878385142409898e+17
19032.0	6.877080430051327e+17
19033.0	6.875653933978963e+17
19034.0	6.87446220218914e+17
19035.0	6.873133689951571e+17
19036.0	6.807321499227456e+17
19037.0	6.87057128338227e+17
19038.0	6.869268663981396e+17
19039.0	6.868001587112617e+17
19040.0	6.866714434906793e+17
19041.0	6.865401994543103e+17
19042.0	6.863981120935252e+17
19043.0	6.862833457998506e+17
19044.0	6.861509276379817e+17
19045.0	6.860201481906857e+17
19046.0	6.858842911189674e+17
19047.0	6.857639098406227e+17
19048.0	6.856043877367807e+17
19049.0	6.854956383120041e+17
19050.0	6.853692955994794e+17
19051.0	6.842916461521559e+17
19052.0	6.850008151577943e+17
19053.0	6.849649877625513e+17
19054.0	6.848590072774655e+17
19055.0	6.846925924641452e+17
19056.0	6.845966830622036e+17
19057.0	6.844685484031999e+17
19058.0	6.843167362689704e+17
19059.0	6.842123931702612e+17
19060.0	6.840792373002239e+17
19061.0	6.839549733546665e+17
19062.0	6.838247641929044e+17
19063.0	6.836963394977791e+17
19064.0	6.83547304062703e+17
19065.0	6.834109268972884e+17
19066.0	6.832997824550227e+17
19067.0	6.831780337636692e+17
19068.0	6.830508288420521e+17
19069.0	6.829218514075647e+17
19070.0	6.82788180337186e+17
19071.0	6.826588984661332e+17
19072.0	6.825342768862548e+17
19073.0	6.82399007646242e+17
19074.0	6.822698138555732e+17
19075.0	6.82140921635362e+17
19076.0	6.820087837928105e+17
19077.0	6.818809551781887e+17
19078.0	6.817453597611348e+17
19079.0	6.816250176296276e+17
19080.0	6.814943240257533e+17
19081.0	6.813611044022953e+17
19082.0	6.812304082818388e+17
19083.0	6.810925905827155e+17
19084.0	6.809451037545812e+17
19085.0	6.808507364584105e+17
19086.0	6.80660039700753e+17
19087.0	6.803943429155498e+17
19088.0	6.804515908310355e+17
19089.0	6.802044132960937e+17
19090.0	6.802042148356093e+17
19091.0	6.800765331614378e+17
19092.0	6.798957457266004e+17
19093.0	6.798237050601472e+17
19094.0	6.796947696386047e+17
19095.0	6.795660501538131e+17
19096.0	6.794258766539434e+17
19097.0	6.793084146111827e+17
19098.0	6.791812517025108e+17
19099.0	6.790524494501204e+17
19100.0	6.789137190704468e+17
19101.0	6.787931135366484e+17
19102.0	6.786549921699155e+17
19103.0	6.785393989692074e+17
19104.0	6.784124526264319e+17
19105.0	6.782833577514323e+17
19106.0	6.78117901406481e+17
19107.0	6.780245698936831e+17
19108.0	6.778990424839507e+17
19109.0	6.770760704065523e+17
19110.0	6.776350295719935e+17
19111.0	6.775125598797823e+17
19112.0	6.773869027961514e+17
19113.0	6.772588580350633e+17
19114.0	6.771302833236649e+17
19115.0	6.769831629378902e+17
19116.0	6.768715801908564e+17
19117.0	6.767432925795667e+17
19118.0	6.765724375362217e+17
19119.0	6.760924504042147e+17
19120.0	6.763083874347689e+17
19121.0	6.761992093521236e+17
19122.0	6.761074918774099e+17
19123.0	6.759775804413268e+17
19124.0	6.758166650596009e+17
19125.0	6.757147955516755e+17
19126.0	6.755765465382911e+17
19127.0	6.752219223993e+17
19128.0	6.747611294509729e+17
19129.0	6.751996382718634e+17
19130.0	6.750826413774166e+17
19131.0	6.749370327586131e+17
19132.0	6.748293328885076e+17
19133.0	6.745493758891352e+17
19134.0	6.743036009294511e+17
19135.0	6.744440852971519e+17
19136.0	6.743196598708905e+17
19137.0	6.741677934903295e+17
19138.0	6.739953301411156e+17
19139.0	6.739359654303059e+17
19140.0	6.738096500506623e+17
19141.0	6.736823437666985e+17
19142.0	6.735487992943955e+17
19143.0	6.734181745470121e+17
19144.0	6.732925494099967e+17
19145.0	6.731682949016234e+17
19146.0	6.729407076324694e+17
19147.0	6.729046947790847e+17
19148.0	6.727858092594516e+17
19149.0	6.726593365934079e+17
19150.0	6.725325852158633e+17
19151.0	6.724079339962367e+17
19152.0	6.722716829395625e+17
19153.0	6.721514270709075e+17
19154.0	6.72008607244834e+17
19155.0	6.718978588147711e+17
19156.0	6.717721266530985e+17
19157.0	6.716372877486762e+17
19158.0	6.710339923432782e+17
19159.0	6.713868965380095e+17
19160.0	6.712502303151443e+17
19161.0	6.710810972433066e+17
19162.0	6.69942270656513e+17
19163.0	6.70870964220723e+17
19164.0	6.707560527342249e+17
19165.0	6.706106897618259e+17
19166.0	6.704647831377235e+17
19167.0	6.702733077075284e+17
19168.0	6.702269839267155e+17
19169.0	6.70094161224226e+17
19170.0	6.699937316907689e+17
19171.0	6.698098734661631e+17
19172.0	6.697359545903785e+17
19173.0	6.696113300744874e+17
19174.0	6.694790178187946e+17
19175.0	6.693600732992852e+17
19176.0	6.692317608716969e+17
19177.0	6.690827235491837e+17
19178.0	6.689613067670868e+17
19179.0	6.687691994649942e+17
19180.0	6.68602984230639e+17
19181.0	6.685807800745983e+17
19182.0	6.684563132645375e+17
19183.0	6.68330068489011e+17
19184.0	6.681904452818259e+17
19185.0	6.680884665122815e+17
19186.0	6.679645884426921e+17
19187.0	6.678242280865791e+17
19188.0	6.677035536962899e+17
19189.0	6.675583642282665e+17
19190.0	6.674268825146707e+17
19191.0	6.673139438889642e+17
19192.0	6.671956510244864e+17
19193.0	6.669976162620755e+17
19194.0	6.669115548762111e+17
19195.0	6.668149376854697e+17
19196.0	6.666953241744724e+17
19197.0	6.665682969515348e+17
19198.0	6.664349344421204e+17
19199.0	6.604675186950129e+17
19200.0	6.622638063484951e+17
19201.0	6.660572235956223e+17
19202.0	6.65938293756177e+17
19203.0	6.657995555471359e+17
19204.0	6.6568176285341e+17
19205.0	6.655602359009279e+17
19206.0	6.654328736230058e+17
19207.0	6.652954271896918e+17
19208.0	6.651529290667348e+17
19209.0	6.650493782720511e+17
19210.0	6.649286706768554e+17
19211.0	6.648039403246934e+17
19212.0	6.646780171124735e+17
19213.0	6.644833547102889e+17
19214.0	6.643232611325268e+17
19215.0	6.642749937811455e+17
19216.0	6.641682637040298e+17
19217.0	6.640458904109055e+17
19218.0	6.638009215265448e+17
19219.0	6.637707710518612e+17
19220.0	6.636601383845887e+17
19221.0	6.634876934903124e+17
19222.0	6.634158196173482e+17
19223.0	6.63286536348194e+17
19224.0	6.631498041349459e+17
19225.0	6.630139139282259e+17
19226.0	6.629076060078079e+17
19227.0	6.627813036305066e+17
19228.0	6.626594031752532e+17
19229.0	6.625335425280681e+17
19230.0	6.623830669787133e+17
19231.0	6.62262329254434e+17
19232.0	6.621465689806163e+17
19233.0	6.620169176612863e+17
19234.0	6.618984796039849e+17
19235.0	6.617706221185705e+17
19236.0	6.616503087879508e+17
19237.0	6.61521315345203e+17
19238.0	6.61374861713954e+17
19239.0	6.612704142469801e+17
19240.0	6.611064116477951e+17
19241.0	6.610041307485523e+17
19242.0	6.608890017174867e+17
19243.0	6.607398713513299e+17
19244.0	6.606407270924287e+17
19245.0	6.605140919670102e+17
19246.0	6.603861314415274e+17
19247.0	6.602607030173695e+17
19248.0	6.601350802571263e+17
19249.0	6.600075392319487e+17
19250.0	6.598809268955818e+17
19251.0	6.59740107682611e+17
19252.0	6.595849219298644e+17
19253.0	6.595018352842068e+17
19254.0	6.593723671860564e+17
19255.0	6.592234574402899e+17
19256.0	6.591058670518271e+17
19257.0	6.589981573251071e+17
19258.0	6.588730731134975e+17
19259.0	6.587358519143082e+17
19260.0	6.58523996570692e+17
19261.0	6.584921087453865e+17
19262.0	6.583589061088596e+17
19263.0	6.582336899863892e+17
19264.0	6.580387225883987e+17
19265.0	6.579614686117887e+17
19266.0	6.578404240741716e+17
19267.0	6.57719689285905e+17
19268.0	6.575878540623871e+17
19269.0	6.574625231557972e+17
19270.0	6.573346576313002e+17
19271.0	6.571601883561985e+17
19272.0	6.570771768584874e+17
19273.0	6.559140970583368e+17
19274.0	6.562873890657613e+17
19275.0	6.567022603272191e+17
19276.0	6.565724550769321e+17
19277.0	6.564449404758698e+17
19278.0	6.563183074476032e+17
19279.0	6.561704527091028e+17
19280.0	6.560528721772541e+17
19281.0	6.559370948466004e+17
19282.0	6.558117050100393e+17
19283.0	6.555795424542719e+17
19284.0	6.55342333801267e+17
19285.0	6.553873617518591e+17
19286.0	6.552892629931348e+17
19287.0	6.551668464986794e+17
19288.0	6.533530794328049e+17
19289.0	6.506431461195698e+17
19290.0	6.547838939605673e+17
19291.0	6.546168502113622e+17
19292.0	6.545283150949033e+17
19293.0	6.543990646112255e+17
19294.0	6.542703734379859e+17
19295.0	6.541439662030847e+17
19296.0	6.540147393473194e+17
19297.0	6.538807402124628e+17
19298.0	6.53754081808657e+17
19299.0	6.536299561353215e+17
19300.0	6.535011722679635e+17
19301.0	6.533710438465536e+17
19302.0	6.532407006068735e+17
19303.0	6.530984400912383e+17
19304.0	6.529757032917674e+17
19305.0	6.528524162695168e+17
19306.0	6.527193227547988e+17
19307.0	6.525798190852778e+17
19308.0	6.524556567117823e+17
19309.0	6.521248520951123e+17
19310.0	6.51907474740565e+17
19311.0	6.520499244193107e+17
19312.0	6.519420221740371e+17
19313.0	6.517994954599084e+17
19314.0	6.487405689307136e+17
19315.0	6.487697557640577e+17
19316.0	6.514078874162516e+17
19317.0	6.512909691650045e+17
19318.0	6.511588595641001e+17
19319.0	6.510294796162388e+17
19320.0	6.508941805966676e+17
19321.0	6.507652927804755e+17
19322.0	6.506031524522666e+17
19323.0	6.503941665718273e+17
19324.0	6.503622757406036e+17
19325.0	6.500558059864064e+17
19326.0	6.500978364077398e+17
19327.0	6.499631054367401e+17
19328.0	6.49832679079936e+17
19329.0	6.496893534207999e+17
19330.0	6.495469897252863e+17
19331.0	6.494117109082793e+17
19332.0	6.492800051489449e+17
19333.0	6.491411130788522e+17
19334.0	6.490055516356607e+17
19335.0	6.488738404237311e+17
19336.0	6.487177410117631e+17
19337.0	6.485736425521151e+17
19338.0	6.484058427097085e+17
19339.0	6.482965622161408e+17
19340.0	6.481503841506644e+17
19341.0	6.480179450172756e+17
19342.0	6.478124453025107e+17
19343.0	6.477388886048767e+17
19344.0	6.475962475260585e+17
19345.0	6.471739648595278e+17
19346.0	6.472102509718185e+17
19347.0	6.471594780830377e+17
19348.0	6.470279365307049e+17
19349.0	6.468596783207764e+17
19350.0	6.467012946908499e+17
19351.0	6.46557137510946e+17
19352.0	6.464055405445119e+17
19353.0	6.462698830517588e+17
19354.0	6.461213823904425e+17
19355.0	6.45957701144849e+17
19356.0	6.458215084589055e+17
19357.0	6.456703031006548e+17
19358.0	6.454960562634751e+17
19359.0	6.452784203300863e+17
19360.0	6.451721368764415e+17
19361.0	6.450092596090196e+17
19362.0	6.44860705120802e+17
19363.0	6.447024179598676e+17
19364.0	6.445420091801599e+17
19365.0	6.44381314978065e+17
19366.0	6.442203833783635e+17
19367.0	6.440553454152361e+17
19368.0	6.438915149922303e+17
19369.0	6.436967142479188e+17
19370.0	6.43411863474449e+17
19371.0	6.433362828154196e+17
19372.0	6.431714605793279e+17
19373.0	6.42991543882001e+17
19374.0	6.428183345758207e+17
19375.0	6.42638519869986e+17
19376.0	6.424568221313706e+17
19377.0	6.422717347659776e+17
19378.0	6.420545471337812e+17
19379.0	6.418448719194793e+17
19380.0	6.416525965656063e+17
19381.0	6.414554170217812e+17
19382.0	6.412443891444393e+17
19383.0	6.410325465934505e+17
19384.0	6.40785055813905e+17
19385.0	6.405744907081043e+17
19386.0	6.403598697103359e+17
19387.0	6.401120373746346e+17
19388.0	6.398279206043647e+17
19389.0	6.395844672618495e+17
19390.0	6.393443842523135e+17
19391.0	6.334388665057193e+17
19392.0	6.387325939133093e+17
19393.0	6.385251556611412e+17
19394.0	6.382318751055871e+17
19395.0	6.37936541438225e+17
19396.0	6.376600253060435e+17
19397.0	6.373963855473321e+17
19398.0	6.37084037685794e+17
19399.0	6.366637041123325e+17
19400.0	6.364416488505343e+17
19401.0	6.361280986218495e+17
19402.0	6.357976124227583e+17
19403.0	6.354533050133162e+17
19404.0	6.350896438968319e+17
19405.0	6.34669576102434e+17
19406.0	6.342866001461247e+17
19407.0	6.338893586628607e+17
19408.0	6.333611655561217e+17
19409.0	6.329486584840192e+17
19410.0	6.325064909018452e+17
19411.0	6.320114312587945e+17
19412.0	6.314371955993258e+17
19413.0	6.309030580453375e+17
19414.0	6.302326972568915e+17
19415.0	6.296334635455827e+17
19416.0	6.288487303086077e+17
19417.0	6.280513782983338e+17
19418.0	6.273573732395689e+17
19419.0	6.264365594443776e+17
19420.0	6.254583273051476e+17
19421.0	6.243400399454208e+17
19422.0	6.231867918035626e+17
19423.0	6.221816550217043e+17
19424.0	6.212056534133417e+17
19425.0	6.201673666002944e+17
19426.0	6.190198368326996e+17
19427.0	6.177879561863168e+17
19428.0	6.165302888191316e+17
19429.0	6.150997764909737e+17
19430.0	6.134218462942552e+17
19431.0	6.107755290383721e+17
19432.0	6.100682305525074e+17
19433.0	6.079542479989417e+17
19434.0	6.055368576729082e+17
19435.0	6.025529299129678e+17
19436.0	5.987667365855223e+17
19437.0	5.961422532684457e+17
19438.0	5.868248433513829e+17
19439.0	5.897601247346693e+17
19440.0	5.861574504524457e+17
19441.0	5.819671904605524e+17
19442.0	5.769416925686444e+17
19443.0	5.705768509986129e+17
19444.0	5.639040560791548e+17
19445.0	5.570517468359342e+17
19446.0	5.486615555560788e+17
19447.0	5.3823655724974016e+17
19448.0	5.2639296214357376e+17
19449.0	5.102567017851563e+17
19450.0	4.788169696346088e+17
19451.0	4.675093451330897e+17
19452.0	4.963985557640538e+17
19453.0	5.191393720227165e+17
19454.0	5.3226166634414016e+17
19455.0	5.4301783382207155e+17
19456.0	5.522433313690968e+17
19457.0	5.595603608971943e+17
19458.0	5.621601914934673e+17
19459.0	5.723924128071691e+17
19460.0	5.77807364408388e+17
19461.0	5.82150669589982e+17
19462.0	5.858640091851437e+17
19463.0	5.891063043937619e+17
19464.0	5.920013591161514e+17
19465.0	5.946437946834947e+17
19466.0	5.976489354155342e+17
19467.0	6.00746578376567e+17
19468.0	6.031493386207231e+17
19469.0	6.049881096803667e+17
19470.0	6.0687580135424e+17
19471.0	6.084092708432556e+17
19472.0	6.097654424185512e+17
19473.0	6.109566039927466e+17
19474.0	6.120974160931498e+17
19475.0	6.129795507159037e+17
19476.0	6.140321420629332e+17
19477.0	6.14873835835665e+17
19478.0	6.156412517700948e+17
19479.0	6.163466826721962e+17
19480.0	6.172079904784384e+17
19481.0	6.181327968316072e+17
19482.0	6.189309089196714e+17
19483.0	6.196238125542057e+17
19484.0	6.202319651034452e+17
19485.0	6.207949712130045e+17
19486.0	6.212385195600556e+17
19487.0	6.21688827028002e+17
19488.0	6.220690978679466e+17
19489.0	6.224195866329087e+17
19490.0	6.225338766633638e+17
19491.0	6.230377386825044e+17
19492.0	6.232667416690687e+17
19493.0	6.234847933977939e+17
19494.0	6.237278628915882e+17
19495.0	6.238864574251008e+17
19496.0	6.239884060655615e+17
19497.0	6.241784601859412e+17
19498.0	6.238743854492338e+17
19499.0	6.157579185728114e+17
19500.0	6.245606007767039e+17
19501.0	6.24642130846242e+17
19502.0	6.247146040852479e+17
19503.0	6.247850176413695e+17
19504.0	6.248599056809981e+17
19505.0	6.249326593092266e+17
19506.0	6.249701251394217e+17
19507.0	6.249985241426602e+17
19508.0	6.250495986018985e+17
19509.0	6.250871602020351e+17
19510.0	6.250701490836819e+17
19511.0	6.17660459061517e+17
19512.0	6.238538274176992e+17
19513.0	6.226507940058409e+17
19514.0	6.233452963692517e+17
19515.0	6.250434526183427e+17
19516.0	6.251891512049663e+17
19517.0	6.251796762722304e+17
19518.0	6.251592722415615e+17
19519.0	6.251549875503103e+17
19520.0	6.251398230441983e+17
19521.0	6.251034250138964e+17
19522.0	6.250528380725929e+17
19523.0	6.250122069409792e+17
19524.0	6.24961707311104e+17
19525.0	6.249267117162495e+17
19526.0	6.248980471436628e+17
19527.0	6.248393479290879e+17
19528.0	6.247795615509162e+17
19529.0	6.247164815955284e+17
19530.0	6.246534468687188e+17
19531.0	6.245875686135124e+17
19532.0	6.245185112156841e+17
19533.0	6.244482074804223e+17
19534.0	6.244096705647956e+17
19535.0	6.243361583267839e+17
19536.0	6.242582187212799e+17
19537.0	6.241866448109567e+17
19538.0	6.240984107057151e+17
19539.0	6.239508864783703e+17
19540.0	6.239440274631337e+17
19541.0	6.238657244211882e+17
19542.0	6.237816306532351e+17
19543.0	6.236968177718612e+17
19544.0	6.23611806499908e+17
19545.0	6.234706175590399e+17
19546.0	6.23317543428642e+17
19547.0	6.233548546288298e+17
19548.0	6.232856240062463e+17
19549.0	6.231906065929555e+17
19550.0	6.231151981101055e+17
19551.0	6.230237750755327e+17
19552.0	6.229310635507711e+17
19553.0	6.228347721176404e+17
19554.0	6.227379410173951e+17
19555.0	6.226471868345001e+17
19556.0	6.225532785349971e+17
19557.0	6.22457140473583e+17
19558.0	6.223606698038612e+17
19559.0	6.222604752912383e+17
19560.0	6.221661381940564e+17
19561.0	6.22075759890705e+17
19562.0	6.219804039271766e+17
19563.0	6.218819364891305e+17
19564.0	6.217827937681407e+17
19565.0	6.21682204082176e+17
19566.0	6.21578509422865e+17
19567.0	6.214816212800852e+17
19568.0	6.21376523276561e+17
19569.0	6.212761430960809e+17
19570.0	6.21191222071569e+17
19571.0	6.210911022874623e+17
19572.0	6.209836359701844e+17
19573.0	6.208833314269865e+17
19574.0	6.207681904421545e+17
19575.0	6.206788768628736e+17
19576.0	6.205747808785747e+17
19577.0	6.204595456617129e+17
19578.0	6.203604978718036e+17
19579.0	6.202585184731135e+17
19580.0	6.201562362456746e+17
19581.0	6.200723514938707e+17
19582.0	6.199695057616895e+17
19583.0	6.19863976583714e+17
19584.0	6.197551833284607e+17
19585.0	6.196346565077672e+17
19586.0	6.195116690986324e+17
19587.0	6.19386181394978e+17
19588.0	6.1926012892829e+17
19589.0	6.191938496277161e+17
19590.0	6.191044416066899e+17
19591.0	6.190112142524415e+17
19592.0	6.189049453390505e+17
19593.0	6.187960230390441e+17
19594.0	6.186524157323945e+17
19595.0	6.18586614862097e+17
19596.0	6.171759006973962e+17
19597.0	6.183569474278743e+17
19598.0	6.182279280503466e+17
19599.0	6.181599565578239e+17
19600.0	6.180528169768276e+17
19601.0	6.17934887129361e+17
19602.0	6.178294258292051e+17
19603.0	6.175699045974013e+17
19604.0	6.176043071176704e+17
19605.0	6.174654934810623e+17
19606.0	6.173990076809215e+17
19607.0	6.172919866589184e+17
19608.0	6.171800222302207e+17
19609.0	6.170637393461245e+17
19610.0	6.169651764876627e+17
19611.0	6.168546758011561e+17
19612.0	6.167468959596544e+17
19613.0	6.166353322267988e+17
19614.0	6.165217275456169e+17
19615.0	6.164173037764607e+17
19616.0	6.162564813684736e+17
19617.0	6.161980113027071e+17
19618.0	6.160136731099133e+17
19619.0	6.15883707986739e+17
19620.0	6.157772209695401e+17
19621.0	6.15758317101602e+17
19622.0	6.156495138499242e+17
19623.0	6.155397302495914e+17
19624.0	6.154284572519082e+17
19625.0	6.153183527873193e+17
19626.0	6.152077143878313e+17
19627.0	6.150986951994025e+17
19628.0	6.148397967518382e+17
19629.0	6.148641174934868e+17
19630.0	6.145676257787908e+17
19631.0	6.084496259896653e+17
19632.0	6.145430182166527e+17
19633.0	6.144267251264169e+17
19634.0	6.143266995044351e+17
19635.0	6.142103209902079e+17
19636.0	6.141035684036607e+17
19637.0	6.13936213926434e+17
19638.0	6.138834595086335e+17
19639.0	6.137679855659689e+17
19640.0	6.136528050148692e+17
19641.0	6.134653914185729e+17
19642.0	6.134409359698602e+17
19643.0	6.133261703752361e+17
19644.0	6.132122374897663e+17
19645.0	6.13072554304034e+17
19646.0	6.129999711742634e+17
19647.0	6.128892364455935e+17
19648.0	6.127777826035028e+17
19649.0	6.126665819575638e+17
19650.0	6.125569292894205e+17
19651.0	6.124451375262377e+17
19652.0	6.12333931078178e+17
19653.0	6.122215669323092e+17
19654.0	6.12112140476962e+17
19655.0	6.120003311676074e+17
19656.0	6.118900434119338e+17
19657.0	6.117797233601193e+17
19658.0	6.116685896133289e+17
19659.0	6.115587558910634e+17
19660.0	6.11448515531025e+17
19661.0	6.113372265949866e+17
19662.0	6.112267363942399e+17
19663.0	6.111070115943763e+17
19664.0	6.109751409988946e+17
19665.0	6.108940530089983e+17
