# Flux units: erg / (cm m2 s)
# Wavelength units: Angstrom
wave	flux
19000.0	4.1580632749725e+17
19001.0	4.1571985241320096e+17
19002.0	4.156540092503381e+17
19003.0	4.155768309809151e+17
19004.0	4.155002244650325e+17
19005.0	4.1542370428190714e+17
19006.0	4.1534803092875936e+17
19007.0	4.152667439191381e+17
19008.0	4.151889066546517e+17
19009.0	4.151042075088212e+17
19010.0	4.149920834868564e+17
19011.0	4.14958942753041e+17
19012.0	4.148445250060286e+17
19013.0	4.1481356083636896e+17
19014.0	4.147322471230123e+17
19015.0	4.146564457736874e+17
19016.0	4.1457799663015245e+17
19017.0	4.145083883803989e+17
19018.0	4.144299767059797e+17
19019.0	4.1435523399898445e+17
19020.0	4.142781923240619e+17
19021.0	4.1420381109616634e+17
19022.0	4.1412719786939725e+17
19023.0	4.1404786253933216e+17
19024.0	4.139723786289151e+17
19025.0	4.1389612660162554e+17
19026.0	4.138168881599828e+17
19027.0	4.137143652493994e+17
19028.0	4.136710606684159e+17
19029.0	4.135927916702378e+17
19030.0	4.1351931214779725e+17
19031.0	4.134440631883093e+17
19032.0	4.133670933058901e+17
19033.0	4.132819875222868e+17
19034.0	4.1321430173177165e+17
19035.0	4.131313137221631e+17
19036.0	4.104240681888428e+17
19037.0	4.129858793766912e+17
19038.0	4.1290950166009165e+17
19039.0	4.1283564828535456e+17
19040.0	4.127601430538923e+17
19041.0	4.1268287502636365e+17
19042.0	4.1258114162360314e+17
19043.0	4.1253263918148256e+17
19044.0	4.1245531578914125e+17
19045.0	4.123796069941248e+17
19046.0	4.1229812872424096e+17
19047.0	4.1222549036946765e+17
19048.0	4.1212623873638394e+17
19049.0	4.1203565099745274e+17
19050.0	4.1199505908258125e+17
19051.0	4.1160777984027264e+17
19052.0	4.1176679876744525e+17
19053.0	4.1177310357531296e+17
19054.0	4.116983031267327e+17
19055.0	4.115919692715349e+17
19056.0	4.1154209032874656e+17
19057.0	4.114708334379008e+17
19058.0	4.113749064198825e+17
19059.0	4.113120218491562e+17
19060.0	4.112417653697195e+17
19061.0	4.1116901167158605e+17
19062.0	4.110927994202793e+17
19063.0	4.1101737213296634e+17
19064.0	4.109283592852822e+17
19065.0	4.108493397863082e+17
19066.0	4.1077873678745594e+17
19067.0	4.1071369326865056e+17
19068.0	4.106396444393472e+17
19069.0	4.105642341389653e+17
19070.0	4.104857333355859e+17
19071.0	4.104115235149142e+17
19072.0	4.1033011710743885e+17
19073.0	4.102618332790783e+17
19074.0	4.1018694062571514e+17
19075.0	4.1011149495336954e+17
19076.0	4.1003399805665274e+17
19077.0	4.0995834511578445e+17
19078.0	4.098805771971242e+17
19079.0	4.098092745883647e+17
19080.0	4.097325134424746e+17
19081.0	4.0965483668002125e+17
19082.0	4.0957932096279885e+17
19083.0	4.0949906435386016e+17
19084.0	4.094120266039296e+17
19085.0	4.0935586193735674e+17
19086.0	4.0923758361313274e+17
19087.0	4.09132081348608e+17
19088.0	4.091124448755711e+17
19089.0	4.0900963430563834e+17
19090.0	4.0897863504363514e+17
19091.0	4.0890030501833376e+17
19092.0	4.088001405648895e+17
19093.0	4.0875587255227725e+17
19094.0	4.086804139474944e+17
19095.0	4.086054780928e+17
19096.0	4.085285686083582e+17
19097.0	4.0845483022745594e+17
19098.0	4.0837191442978125e+17
19099.0	4.0829519152196256e+17
19100.0	4.082246266213717e+17
19101.0	4.081524739670015e+17
19102.0	4.080662221597354e+17
19103.0	4.080041610706943e+17
19104.0	4.0792979752878074e+17
19105.0	4.078375605895168e+17
19106.0	4.077681565324629e+17
19107.0	4.0769805454322336e+17
19108.0	4.0762359928586234e+17
19109.0	4.0739892055681683e+17
19110.0	4.074722224504831e+17
19111.0	4.073992737871189e+17
19112.0	4.073242081886208e+17
19113.0	4.072545786178218e+17
19114.0	4.0717654408123725e+17
19115.0	4.0709486518381216e+17
19116.0	4.0702838707322874e+17
19117.0	4.069529014850901e+17
19118.0	4.06859574865647e+17
19119.0	4.057580834564767e+17
19120.0	4.0671183183544314e+17
19121.0	4.066418643435519e+17
19122.0	4.06581719142673e+17
19123.0	4.065069416928597e+17
19124.0	4.0642332097249274e+17
19125.0	4.0635550984219296e+17
19126.0	4.0628207708624205e+17
19127.0	4.060074380449109e+17
19128.0	4.060972941574142e+17
19129.0	4.0605153227352736e+17
19130.0	4.059816452423679e+17
19131.0	4.059082503749632e+17
19132.0	4.0583429116395526e+17
19133.0	4.057444347718314e+17
19134.0	4.0567020733508256e+17
19135.0	4.056098196335274e+17
19136.0	4.055364793619797e+17
19137.0	4.0544437678025376e+17
19138.0	4.053842213732351e+17
19139.0	4.053126930410154e+17
19140.0	4.0523838619211085e+17
19141.0	4.05163776933888e+17
19142.0	4.050863191141034e+17
19143.0	4.0500874371399674e+17
19144.0	4.0493617882944845e+17
19145.0	4.0486524762630816e+17
19146.0	4.047296190043477e+17
19147.0	4.047029900673024e+17
19148.0	4.046353469887829e+17
19149.0	4.0455980170171725e+17
19150.0	4.044930998949204e+17
19151.0	4.0441888266431136e+17
19152.0	4.043424666397354e+17
19153.0	4.0425743551474336e+17
19154.0	4.041802133449386e+17
19155.0	4.041216209453055e+17
19156.0	4.040477252080981e+17
19157.0	4.039666555333291e+17
19158.0	4.0378507705275725e+17
19159.0	4.038230661922815e+17
19160.0	4.0374782464273056e+17
19161.0	4.036737643489961e+17
19162.0	4.0336048947636915e+17
19163.0	4.03516802797841e+17
19164.0	4.034533638100309e+17
19165.0	4.033603243606015e+17
19166.0	4.0328461752292685e+17
19167.0	4.0320853291827194e+17
19168.0	4.0315520136424096e+17
19169.0	4.030773959764649e+17
19170.0	4.0300903119803725e+17
19171.0	4.0291941409095674e+17
19172.0	4.0285963505281696e+17
19173.0	4.027858972311551e+17
19174.0	4.027061712016725e+17
19175.0	4.0263857104486394e+17
19176.0	4.025646081288874e+17
19177.0	4.024747861300564e+17
19178.0	4.0241000342705485e+17
19179.0	4.0232173276146336e+17
19180.0	4.022659566272511e+17
19181.0	4.021798444903082e+17
19182.0	4.021165719464617e+17
19183.0	4.02046893232401e+17
19184.0	4.019716415466153e+17
19185.0	4.018981042126848e+17
19186.0	4.01825148838434e+17
19187.0	4.017448552497151e+17
19188.0	4.0167640455796045e+17
19189.0	4.016022225595049e+17
19190.0	4.0152733417035085e+17
19191.0	4.0145072716513274e+17
19192.0	4.013819486186154e+17
19193.0	4.013052053684223e+17
19194.0	4.012305128532651e+17
19195.0	4.011605689193813e+17
19196.0	4.010851123418453e+17
19197.0	4.0101204595834874e+17
19198.0	4.009380736051882e+17
19199.0	3.9949492894214765e+17
19200.0	3.9981202237904256e+17
19201.0	4.0071709725818886e+17
19202.0	4.0064442213335034e+17
19203.0	4.005664482044586e+17
19204.0	4.004937916044629e+17
19205.0	4.0042232695575885e+17
19206.0	4.003476158458538e+17
19207.0	4.0026218640179194e+17
19208.0	4.001777808572415e+17
19209.0	4.0012793658736634e+17
19210.0	4.0005421183795194e+17
19211.0	3.9998184443521696e+17
19212.0	3.999079611411114e+17
19213.0	3.99815309594897e+17
19214.0	3.9973278512578554e+17
19215.0	3.9968178120075936e+17
19216.0	3.9961373225342285e+17
19217.0	3.995397100579498e+17
19218.0	3.993764623635795e+17
19219.0	3.993792067665919e+17
19220.0	3.99316398112768e+17
19221.0	3.9921205438491296e+17
19222.0	3.9917036013704525e+17
19223.0	3.990968079133354e+17
19224.0	3.9902093959495674e+17
19225.0	3.9893591280407885e+17
19226.0	3.988764929381717e+17
19227.0	3.988032548678314e+17
19228.0	3.9873187508387834e+17
19229.0	3.9865839654010874e+17
19230.0	3.9858298798735354e+17
19231.0	3.9850948826234874e+17
19232.0	3.984366518665216e+17
19233.0	3.9835747025769805e+17
19234.0	3.9828877734488736e+17
19235.0	3.982146893687466e+17
19236.0	3.9814431831490554e+17
19237.0	3.9806901224297805e+17
19238.0	3.979858514280448e+17
19239.0	3.9792420662367565e+17
19240.0	3.978483414510251e+17
19241.0	3.977746654254422e+17
19242.0	3.9770199351623674e+17
19243.0	3.976157226248874e+17
19244.0	3.9755758880249165e+17
19245.0	3.974837954762068e+17
19246.0	3.97409047945762e+17
19247.0	3.9733660951947936e+17
19248.0	3.972638077965653e+17
19249.0	3.971890748063744e+17
19250.0	3.9711294532266656e+17
19251.0	3.970271435642196e+17
19252.0	3.9694638839234554e+17
19253.0	3.9689465004468896e+17
19254.0	3.968237029031935e+17
19255.0	3.967348829934932e+17
19256.0	3.9667143974147405e+17
19257.0	3.966039698877098e+17
19258.0	3.9653087652085754e+17
19259.0	3.964514415061673e+17
19260.0	3.963286453572948e+17
19261.0	3.9630949675171834e+17
19262.0	3.962318573185706e+17
19263.0	3.9615540704051194e+17
19264.0	3.960292064449876e+17
19265.0	3.959930671333374e+17
19266.0	3.959099610540715e+17
19267.0	3.95871159198242e+17
19268.0	3.9579715923258016e+17
19269.0	3.9572406677449376e+17
19270.0	3.9565055887059616e+17
19271.0	3.9553898052758195e+17
19272.0	3.9550067996098554e+17
19273.0	3.953280259806548e+17
19274.0	3.9528043454136294e+17
19275.0	3.952843230806016e+17
19276.0	3.952088530812927e+17
19277.0	3.951361082611029e+17
19278.0	3.950624566323883e+17
19279.0	3.949865751019519e+17
19280.0	3.9490731519945376e+17
19281.0	3.948418542774954e+17
19282.0	3.947704445741738e+17
19283.0	3.9467469113043616e+17
19284.0	3.94610706813201e+17
19285.0	3.9453230101080736e+17
19286.0	3.9447278460600314e+17
19287.0	3.944026554236927e+17
19288.0	3.93484287606783e+17
19289.0	3.926355948688708e+17
19290.0	3.9418226844631034e+17
19291.0	3.940839433349802e+17
19292.0	3.940350025181866e+17
19293.0	3.9396086476963834e+17
19294.0	3.938868799034708e+17
19295.0	3.9381430816822605e+17
19296.0	3.937327495075157e+17
19297.0	3.936610327811412e+17
19298.0	3.9359017749490336e+17
19299.0	3.9351072807976954e+17
19300.0	3.934436294219091e+17
19301.0	3.9337108830508365e+17
19302.0	3.9329550100507296e+17
19303.0	3.9321571898163194e+17
19304.0	3.9314598189684045e+17
19305.0	3.930737231964842e+17
19306.0	3.929999216214015e+17
19307.0	3.9292098454050125e+17
19308.0	3.92849147367697e+17
19309.0	3.927232544243711e+17
19310.0	3.926351260854954e+17
19311.0	3.926197874458623e+17
19312.0	3.9255541948962125e+17
19313.0	3.92481795613218e+17
19314.0	3.8745217520981805e+17
19315.0	3.87647206570942e+17
19316.0	3.9224334509670394e+17
19317.0	3.9218326295019514e+17
19318.0	3.9210858399662074e+17
19319.0	3.920354638561279e+17
19320.0	3.9195657710687565e+17
19321.0	3.918792892263082e+17
19322.0	3.917992487638356e+17
19323.0	3.917140504958293e+17
19324.0	3.916591332152659e+17
19325.0	3.9153387626823674e+17
19326.0	3.915104122830847e+17
19327.0	3.9143296320143354e+17
19328.0	3.913451648843776e+17
19329.0	3.9128454810391885e+17
19330.0	3.912049401440939e+17
19331.0	3.911284275107157e+17
19332.0	3.910560671683923e+17
19333.0	3.9097904695432525e+17
19334.0	3.909034613320361e+17
19335.0	3.908002963434154e+17
19336.0	3.907501586819754e+17
19337.0	3.9067555508606285e+17
19338.0	3.90577481842688e+17
19339.0	3.905218243373738e+17
19340.0	3.9042417052439885e+17
19341.0	3.903487711292074e+17
19342.0	3.9024345942589434e+17
19343.0	3.902133364239017e+17
19344.0	3.901251506929664e+17
19345.0	3.898391257240913e+17
19346.0	3.898631067970217e+17
19347.0	3.8988102018007034e+17
19348.0	3.8982362672223565e+17
19349.0	3.8974109239650976e+17
19350.0	3.8965766097906336e+17
19351.0	3.895826674526889e+17
19352.0	3.894849498862931e+17
19353.0	3.894271875394217e+17
19354.0	3.893481535700991e+17
19355.0	3.892578639063723e+17
19356.0	3.891869928215893e+17
19357.0	3.89106256314368e+17
19358.0	3.890231783369385e+17
19359.0	3.8893170853587616e+17
19360.0	3.888458662324906e+17
19361.0	3.887746121378474e+17
19362.0	3.8869610553234765e+17
19363.0	3.886124961366015e+17
19364.0	3.885284115262122e+17
19365.0	3.8844465791631354e+17
19366.0	3.883598775407957e+17
19367.0	3.8827463082857805e+17
19368.0	3.8818891826899616e+17
19369.0	3.880951599857664e+17
19370.0	3.8800353380706976e+17
19371.0	3.879224858727765e+17
19372.0	3.878390253748222e+17
19373.0	3.877475908059136e+17
19374.0	3.8765956187204256e+17
19375.0	3.8756883998528845e+17
19376.0	3.874779765407744e+17
19377.0	3.8738439218135034e+17
19378.0	3.872913337876479e+17
19379.0	3.871972896626004e+17
19380.0	3.871017267800746e+17
19381.0	3.8700487393935354e+17
19382.0	3.869007850154666e+17
19383.0	3.867966435928746e+17
19384.0	3.86706378395921e+17
19385.0	3.866059089466708e+17
19386.0	3.865031469607595e+17
19387.0	3.863979430510591e+17
19388.0	3.8629161157263354e+17
19389.0	3.8618310996131834e+17
19390.0	3.8607243528110074e+17
19391.0	3.8361647112956314e+17
19392.0	3.857330316421798e+17
19393.0	3.85729286967569e+17
19394.0	3.856081384811178e+17
19395.0	3.854797844600148e+17
19396.0	3.853577478995968e+17
19397.0	3.8523599774023674e+17
19398.0	3.8509716480983034e+17
19399.0	3.848844469075968e+17
19400.0	3.848183279692459e+17
19401.0	3.8469109103110816e+17
19402.0	3.8454630889990816e+17
19403.0	3.843948558680064e+17
19404.0	3.842418725442901e+17
19405.0	3.840808722279082e+17
19406.0	3.839170044755968e+17
19407.0	3.8374187949096954e+17
19408.0	3.8347971535831046e+17
19409.0	3.8338360644730874e+17
19410.0	3.8319695824158714e+17
19411.0	3.8299934906122234e+17
19412.0	3.827929454739455e+17
19413.0	3.825747344315732e+17
19414.0	3.823526203796138e+17
19415.0	3.821226954850304e+17
19416.0	3.818562641373866e+17
19417.0	3.8160187002279245e+17
19418.0	3.813642622817621e+17
19419.0	3.810911215157247e+17
19420.0	3.8081057130195616e+17
19421.0	3.8051085346843296e+17
19422.0	3.801935013128874e+17
19423.0	3.7987019911768736e+17
19424.0	3.7953050956704416e+17
19425.0	3.7917639154073594e+17
19426.0	3.7880812528817485e+17
19427.0	3.784250935476223e+17
19428.0	3.7802875642620576e+17
19429.0	3.7758527092381e+17
19430.0	3.7710275476630195e+17
19431.0	3.7636248380811974e+17
19432.0	3.762957608200874e+17
19433.0	3.758434016384342e+17
19434.0	3.753815592752468e+17
19435.0	3.748448374707539e+17
19436.0	3.742005456797693e+17
19437.0	3.738543969009663e+17
19438.0	3.6878807004610746e+17
19439.0	3.7223604280797843e+17
19440.0	3.717597688233981e+17
19441.0	3.704432463533395e+17
19442.0	3.678903916822522e+17
19443.0	3.636435463350958e+17
19444.0	3.611951971521876e+17
19445.0	3.5850772475630944e+17
19446.0	3.5544855523710285e+17
19447.0	3.513333751043405e+17
19448.0	3.402096769149631e+17
19449.0	3.2828298659976435e+17
19450.0	2.8310234747371488e+17
19451.0	2.648758060143936e+17
19452.0	3.11242387986843e+17
19453.0	3.3486340239305434e+17
19454.0	3.4621076827449875e+17
19455.0	3.5330981500026906e+17
19456.0	3.5642028655465805e+17
19457.0	3.591792362520574e+17
19458.0	3.478497415310105e+17
19459.0	3.6324769868896026e+17
19460.0	3.6827802240723635e+17
19461.0	3.698892598149119e+17
19462.0	3.707873738970454e+17
19463.0	3.713634269484374e+17
19464.0	3.718811381399551e+17
19465.0	3.722478204136106e+17
19466.0	3.726561603747838e+17
19467.0	3.730194067445076e+17
19468.0	3.7335254430296736e+17
19469.0	3.736258665425578e+17
19470.0	3.739791289308501e+17
19471.0	3.742798201225216e+17
19472.0	3.7456465446830074e+17
19473.0	3.7484610408065696e+17
19474.0	3.751331711243604e+17
19475.0	3.752904701771774e+17
19476.0	3.7561508826535245e+17
19477.0	3.758443809385131e+17
19478.0	3.760532995702784e+17
19479.0	3.762352660239701e+17
19480.0	3.764220381014698e+17
19481.0	3.765843283061418e+17
19482.0	3.7674069223888205e+17
19483.0	3.768757811937278e+17
19484.0	3.7700339645808634e+17
19485.0	3.7711568314914125e+17
19486.0	3.772123288611498e+17
19487.0	3.7732345764468045e+17
19488.0	3.774114059081045e+17
19489.0	3.7746487028176205e+17
19490.0	3.773984288713385e+17
19491.0	3.7761378960452256e+17
19492.0	3.776705978870442e+17
19493.0	3.7771625085883725e+17
19494.0	3.7775459749287245e+17
19495.0	3.7778675731879245e+17
19496.0	3.7776206076750496e+17
19497.0	3.7783200169547085e+17
19498.0	3.773478429786109e+17
19499.0	3.742478323329706e+17
19500.0	3.778695033170602e+17
19501.0	3.77872293368081e+17
19502.0	3.7786987003903994e+17
19503.0	3.7786707565390496e+17
19504.0	3.778589446460757e+17
19505.0	3.778472838518101e+17
19506.0	3.7783388137280845e+17
19507.0	3.778142260254037e+17
19508.0	3.7779722700062714e+17
19509.0	3.777747414766932e+17
19510.0	3.777246479952555e+17
19511.0	3.695351447945204e+17
19512.0	3.7698342178433696e+17
19513.0	3.766120648889673e+17
19514.0	3.768072626940576e+17
19515.0	3.775269403885568e+17
19516.0	3.775572450039125e+17
19517.0	3.7751634396883616e+17
19518.0	3.774823565448532e+17
19519.0	3.774398632820736e+17
19520.0	3.7739052204905805e+17
19521.0	3.773611392718165e+17
19522.0	3.7731280117650765e+17
19523.0	3.772691567869951e+17
19524.0	3.7721961891102714e+17
19525.0	3.7717887523225594e+17
19526.0	3.771327983561386e+17
19527.0	3.7708346488258554e+17
19528.0	3.7703302914594125e+17
19529.0	3.769822003331072e+17
19530.0	3.7693425748104525e+17
19531.0	3.7688277337811616e+17
19532.0	3.768306250372436e+17
19533.0	3.7677786740381e+17
19534.0	3.7672400079639885e+17
19535.0	3.76668879393041e+17
19536.0	3.766118369285461e+17
19537.0	3.765610332815359e+17
19538.0	3.764777244076714e+17
19539.0	3.7639102122338995e+17
19540.0	3.7639051455146656e+17
19541.0	3.763340395763029e+17
19542.0	3.7627776313152845e+17
19543.0	3.7621111039808845e+17
19544.0	3.7616251610071034e+17
19545.0	3.760439248115029e+17
19546.0	3.7595038442236576e+17
19547.0	3.7598860466804045e+17
19548.0	3.7592870944768e+17
19549.0	3.7586087000582816e+17
19550.0	3.7581015115366394e+17
19551.0	3.757505235998036e+17
19552.0	3.7569019538746016e+17
19553.0	3.7562670320189434e+17
19554.0	3.7556485196786336e+17
19555.0	3.755054164432213e+17
19556.0	3.7544623229719885e+17
19557.0	3.7538534351612576e+17
19558.0	3.753238650159103e+17
19559.0	3.7526223216530765e+17
19560.0	3.751944803844096e+17
19561.0	3.75136012275985e+17
19562.0	3.7507215197033805e+17
19563.0	3.750144637228374e+17
19564.0	3.7495205331817805e+17
19565.0	3.748892143255551e+17
19566.0	3.7482349790057805e+17
19567.0	3.74763628335377e+17
19568.0	3.746985831388501e+17
19569.0	3.74635447259409e+17
19570.0	3.7457445341102074e+17
19571.0	3.7451023197579936e+17
19572.0	3.744455750320127e+17
19573.0	3.7438230157940045e+17
19574.0	3.7431410611104416e+17
19575.0	3.7425883713809056e+17
19576.0	3.7419412447996576e+17
19577.0	3.741254939224746e+17
19578.0	3.7406178349329056e+17
19579.0	3.740005227473578e+17
19580.0	3.7393613284092576e+17
19581.0	3.738731654326954e+17
19582.0	3.738107030186666e+17
19583.0	3.73746366869231e+17
19584.0	3.7367973888218445e+17
19585.0	3.736066522961237e+17
19586.0	3.7353812149316256e+17
19587.0	3.7347926729905485e+17
19588.0	3.733701628264448e+17
19589.0	3.73356464509201e+17
19590.0	3.7327926044480845e+17
19591.0	3.732282617626623e+17
19592.0	3.731642134123861e+17
19593.0	3.7309670518074016e+17
19594.0	3.7301015438950394e+17
19595.0	3.7296353085576525e+17
19596.0	3.72836653788911e+17
19597.0	3.728334543738197e+17
19598.0	3.7271366623996576e+17
19599.0	3.727089412866048e+17
19600.0	3.7264474319967565e+17
19601.0	3.725724578654891e+17
19602.0	3.725069563286869e+17
19603.0	3.723825701191679e+17
19604.0	3.723742653273429e+17
19605.0	3.722882226061312e+17
19606.0	3.722523945118378e+17
19607.0	3.721880642344276e+17
19608.0	3.7212065163291296e+17
19609.0	3.7205194592747514e+17
19610.0	3.7198605949337594e+17
19611.0	3.7191792470261754e+17
19612.0	3.7186106231357434e+17
19613.0	3.7179460999796045e+17
19614.0	3.7172635147523405e+17
19615.0	3.716632477521237e+17
19616.0	3.715731131378346e+17
19617.0	3.7152458958438394e+17
19618.0	3.713982375744852e+17
19619.0	3.713194317753002e+17
19620.0	3.712567043511637e+17
19621.0	3.7126126174207994e+17
19622.0	3.7120610706391034e+17
19623.0	3.711399929490089e+17
19624.0	3.71072510861858e+17
19625.0	3.7100920301595296e+17
19626.0	3.709430031974399e+17
19627.0	3.7087763007624525e+17
19628.0	3.7077450626170886e+17
19629.0	3.707118679665321e+17
19630.0	3.705200734197076e+17
19631.0	3.690402470516057e+17
19632.0	3.705489829396479e+17
19633.0	3.704761870887595e+17
19634.0	3.70418501357841e+17
19635.0	3.7034689179593376e+17
19636.0	3.7027536695896736e+17
19637.0	3.7017879513661434e+17
19638.0	3.7015231929166496e+17
19639.0	3.700885330154836e+17
19640.0	3.699997738532864e+17
19641.0	3.698175584676524e+17
19642.0	3.698916983133525e+17
19643.0	3.698252123034965e+17
19644.0	3.697547382794922e+17
19645.0	3.696651675893759e+17
19646.0	3.6961852629975034e+17
19647.0	3.695640989837995e+17
19648.0	3.694992018462037e+17
19649.0	3.6943314141839354e+17
19650.0	3.693681505381034e+17
19651.0	3.6930212702016845e+17
19652.0	3.692361629215402e+17
19653.0	3.6917026614149114e+17
19654.0	3.691049821492565e+17
19655.0	3.6903885510191776e+17
