# Flux units: erg / (cm m2 s)
# Wavelength units: Angstrom
wave	flux
19000.0	7.333869738349908e+17
19001.0	7.332469173562025e+17
19002.0	7.3311291703296e+17
19003.0	7.329758062138708e+17
19004.0	7.328386849090216e+17
19005.0	7.327016667840511e+17
19006.0	7.325645341545811e+17
19007.0	7.324182029970089e+17
19008.0	7.322882814945961e+17
19009.0	7.321508698041e+17
19010.0	7.320020610711551e+17
19011.0	7.318771576340479e+17
19012.0	7.31725825048576e+17
19013.0	7.316041165526356e+17
19014.0	7.314645636699475e+17
19015.0	7.313281246385492e+17
19016.0	7.31190497780258e+17
19017.0	7.310531766867283e+17
19018.0	7.309161181566291e+17
19019.0	7.307801382617088e+17
19020.0	7.306413625835519e+17
19021.0	7.305049675923455e+17
19022.0	7.303682323032744e+17
19023.0	7.302301081403391e+17
19024.0	7.300925237843284e+17
19025.0	7.299546312867837e+17
19026.0	7.298164563727699e+17
19027.0	7.296678271560361e+17
19028.0	7.295438724704938e+17
19029.0	7.294064563060735e+17
19030.0	7.292690514662739e+17
19031.0	7.291316259345747e+17
19032.0	7.289941869811028e+17
19033.0	7.288539932087636e+17
19034.0	7.287192613989033e+17
19035.0	7.285803457708032e+17
19036.0	7.275338498659666e+17
19037.0	7.28306753278225e+17
19038.0	7.28168809050931e+17
19039.0	7.280321772213587e+17
19040.0	7.278947421825705e+17
19041.0	7.277572860324521e+17
19042.0	7.27617362792721e+17
19043.0	7.274824534239914e+17
19044.0	7.27344876757538e+17
19045.0	7.272070266224639e+17
19046.0	7.270685607635625e+17
19047.0	7.269323222198953e+17
19048.0	7.267890993212076e+17
19049.0	7.266557847666687e+17
19050.0	7.265190163425962e+17
19051.0	7.262447296927058e+17
19052.0	7.262248739973802e+17
19053.0	7.261057294794751e+17
19054.0	7.259706222794067e+17
19055.0	7.25825396600559e+17
19056.0	7.2569513326237e+17
19057.0	7.255582194357587e+17
19058.0	7.254187771428863e+17
19059.0	7.252835726349651e+17
19060.0	7.251454635715241e+17
19061.0	7.250088169220778e+17
19062.0	7.248712992555007e+17
19063.0	7.24733979140642e+17
19064.0	7.245931377677651e+17
19065.0	7.244537522378068e+17
19066.0	7.243200046912851e+17
19067.0	7.241845518805674e+17
19068.0	7.240472388960253e+17
19069.0	7.239099322029395e+17
19070.0	7.237722916432553e+17
19071.0	7.23634826125858e+17
19072.0	7.234978194653183e+17
19073.0	7.233604957153961e+17
19074.0	7.232233660219391e+17
19075.0	7.230860790420819e+17
19076.0	7.229481317389651e+17
19077.0	7.228111650641238e+17
19078.0	7.226732794172756e+17
19079.0	7.225369944566441e+17
19080.0	7.223995349510825e+17
19081.0	7.222612340681385e+17
19082.0	7.22123845865745e+17
19083.0	7.219849373679615e+17
19084.0	7.218432241390932e+17
19085.0	7.217135415721984e+17
19086.0	7.2156343973533e+17
19087.0	7.214110901709481e+17
19088.0	7.212983531514538e+17
19089.0	7.211445262133929e+17
19090.0	7.210265924512425e+17
19091.0	7.208895027434836e+17
19092.0	7.207451515770195e+17
19093.0	7.206161977005398e+17
19094.0	7.204781771369129e+17
19095.0	7.203408255647744e+17
19096.0	7.202040842638676e+17
19097.0	7.200677498104489e+17
19098.0	7.199308801638399e+17
19099.0	7.197937651504468e+17
19100.0	7.196553369004714e+17
19101.0	7.195191724561747e+17
19102.0	7.193799574945791e+17
19103.0	7.192456532241066e+17
19104.0	7.191086392934399e+17
19105.0	7.18971578805999e+17
19106.0	7.188294920044543e+17
19107.0	7.18697091109137e+17
19108.0	7.185604791326036e+17
19109.0	7.183345739191635e+17
19110.0	7.182846088533331e+17
19111.0	7.181497905010004e+17
19112.0	7.180129208543914e+17
19113.0	7.178760298168319e+17
19114.0	7.17739123679778e+17
19115.0	7.175996759343101e+17
19116.0	7.174646057839272e+17
19117.0	7.173277027226963e+17
19118.0	7.171843548337492e+17
19119.0	7.169688187786578e+17
19120.0	7.16910308237858e+17
19121.0	7.167755923663529e+17
19122.0	7.16644221452288e+17
19123.0	7.165072549172564e+17
19124.0	7.163655941171881e+17
19125.0	7.162329169570474e+17
19126.0	7.160961167960745e+17
19127.0	7.159090968352083e+17
19128.0	7.157684189003773e+17
19129.0	7.156840192977577e+17
19130.0	7.155496965723476e+17
19131.0	7.154113516492116e+17
19132.0	7.1527631435421e+17
19133.0	7.151226426053972e+17
19134.0	7.149782276855126e+17
19135.0	7.148660183094612e+17
19136.0	7.147296331049642e+17
19137.0	7.145879811129343e+17
19138.0	7.144524154754387e+17
19139.0	7.143194087828138e+17
19140.0	7.141829426282496e+17
19141.0	7.140463028294998e+17
19142.0	7.139089031626751e+17
19143.0	7.137714419793919e+17
19144.0	7.13636127440896e+17
19145.0	7.134993518865066e+17
19146.0	7.133439032907092e+17
19147.0	7.132238009335807e+17
19148.0	7.130893515401897e+17
19149.0	7.129529059377151e+17
19150.0	7.128163231814995e+17
19151.0	7.126801068676436e+17
19152.0	7.125422996542803e+17
19153.0	7.124063404512595e+17
19154.0	7.122665068298239e+17
19155.0	7.121337678736041e+17
19156.0	7.119969826723155e+17
19157.0	7.118587329598804e+17
19158.0	7.116631787088552e+17
19159.0	7.115862829957119e+17
19160.0	7.114493835695442e+17
19161.0	7.113088612433919e+17
19162.0	7.110402763303596e+17
19163.0	7.110382383180457e+17
19164.0	7.109046988090025e+17
19165.0	7.107657968822953e+17
19166.0	7.10625513771281e+17
19167.0	7.104821500837887e+17
19168.0	7.103561294239059e+17
19169.0	7.102185934422015e+17
19170.0	7.100854936360276e+17
19171.0	7.099414047533738e+17
19172.0	7.0981181781661e+17
19173.0	7.09675703144721e+17
19174.0	7.095380034453504e+17
19175.0	7.094031694342826e+17
19176.0	7.0926662121117e+17
19177.0	7.09125454639923e+17
19178.0	7.089903608616276e+17
19179.0	7.088460884082687e+17
19180.0	7.08714060386577e+17
19181.0	7.085805576475987e+17
19182.0	7.084460675694591e+17
19183.0	7.083099782032041e+17
19184.0	7.081713188470783e+17
19185.0	7.080374692391594e+17
19186.0	7.079011034682708e+17
19187.0	7.077625382043647e+17
19188.0	7.076273198552403e+17
19189.0	7.074887854893738e+17
19190.0	7.073516081206611e+17
19191.0	7.072165079110995e+17
19192.0	7.070809794630995e+17
19193.0	7.069408466479785e+17
19194.0	7.068061741176147e+17
19195.0	7.066708544061439e+17
19196.0	7.065340746574505e+17
19197.0	7.06396722106641e+17
19198.0	7.062571126008489e+17
19199.0	7.053107036247378e+17
19200.0	7.054328371434839e+17
19201.0	7.0584753993373e+17
19202.0	7.057136000084649e+17
19203.0	7.055756746555391e+17
19204.0	7.054402533021012e+17
19205.0	7.053043504425641e+17
19206.0	7.05167224943411e+17
19207.0	7.05028904067618e+17
19208.0	7.048881191780348e+17
19209.0	7.047571946777258e+17
19210.0	7.046202899387731e+17
19211.0	7.044832999156393e+17
19212.0	7.043464176861183e+17
19213.0	7.042006481458516e+17
19214.0	7.04059431522577e+17
19215.0	7.039321571852288e+17
19216.0	7.037980251608404e+17
19217.0	7.036613476133545e+17
19218.0	7.034996981585236e+17
19219.0	7.033802828283901e+17
19220.0	7.032464460830035e+17
19221.0	7.031000702560937e+17
19222.0	7.029729567703039e+17
19223.0	7.028357179550378e+17
19224.0	7.026970569910953e+17
19225.0	7.025566851705513e+17
19226.0	7.024237899066026e+17
19227.0	7.022856686796799e+17
19228.0	7.021489473017172e+17
19229.0	7.020114194989056e+17
19230.0	7.018716315953834e+17
19231.0	7.017348143076692e+17
19232.0	7.015978927215955e+17
19233.0	7.014587111746217e+17
19234.0	7.013224580907007e+17
19235.0	7.011846944980991e+17
19236.0	7.010475443224575e+17
19237.0	7.009091578757119e+17
19238.0	7.007677232884393e+17
19239.0	7.006337182815571e+17
19240.0	7.004911740911615e+17
19241.0	7.003553776271359e+17
19242.0	7.002187498520575e+17
19243.0	7.000756613808127e+17
19244.0	6.999427526950911e+17
19245.0	6.998043463254015e+17
19246.0	6.996653869367293e+17
19247.0	6.995272607465472e+17
19248.0	6.993887234446676e+17
19249.0	6.992499812510376e+17
19250.0	6.991110498243924e+17
19251.0	6.989686144761855e+17
19252.0	6.988243659303593e+17
19253.0	6.986941079049555e+17
19254.0	6.985545941691049e+17
19255.0	6.984102458687487e+17
19256.0	6.98274138886417e+17
19257.0	6.981372238714195e+17
19258.0	6.979978396696575e+17
19259.0	6.978559853723647e+17
19260.0	6.977043874272595e+17
19261.0	6.975787343981225e+17
19262.0	6.974372884163242e+17
19263.0	6.972970752103763e+17
19264.0	6.971431543898111e+17
19265.0	6.970127655021225e+17
19266.0	6.968734270881791e+17
19267.0	6.967374011258195e+17
19268.0	6.96596736053521e+17
19269.0	6.964559340371965e+17
19270.0	6.963149483103572e+17
19271.0	6.961642238290602e+17
19272.0	6.960315583430655e+17
19273.0	6.957682916676948e+17
19274.0	6.956809770937001e+17
19275.0	6.956080041033725e+17
19276.0	6.954655765845332e+17
19277.0	6.953241689107113e+17
19278.0	6.951819673949523e+17
19279.0	6.950379107385343e+17
19280.0	6.948946702936745e+17
19281.0	6.947541248988499e+17
19282.0	6.946110367072255e+17
19283.0	6.944456832625322e+17
19284.0	6.942364665555625e+17
19285.0	6.941070882155177e+17
19286.0	6.939683077139113e+17
19287.0	6.938252361596927e+17
19288.0	6.934355231724882e+17
19289.0	6.929456517436748e+17
19290.0	6.933918761964884e+17
19291.0	6.932388900066644e+17
19292.0	6.931018174955519e+17
19293.0	6.92956087521553e+17
19294.0	6.928105995588948e+17
19295.0	6.926645791992489e+17
19296.0	6.925182678947155e+17
19297.0	6.923715906371583e+17
19298.0	6.922241784676351e+17
19299.0	6.920775051247615e+17
19300.0	6.919321278218239e+17
19301.0	6.91786058179106e+17
19302.0	6.916375444455423e+17
19303.0	6.914868098280105e+17
19304.0	6.913388638633983e+17
19305.0	6.911910077967017e+17
19306.0	6.910410369619284e+17
19307.0	6.908885870837759e+17
19308.0	6.907387891242324e+17
19309.0	6.905618311588521e+17
19310.0	6.904000624459775e+17
19311.0	6.902822435378515e+17
19312.0	6.901342050888361e+17
19313.0	6.899802630870356e+17
19314.0	6.893531679424511e+17
19315.0	6.892252086053551e+17
19316.0	6.895178240141993e+17
19317.0	6.89365504369186e+17
19318.0	6.892102059294719e+17
19319.0	6.89054335246882e+17
19320.0	6.888975239217151e+17
19321.0	6.887406698146473e+17
19322.0	6.885780818842963e+17
19323.0	6.883924492593834e+17
19324.0	6.882395483537407e+17
19325.0	6.879824235375273e+17
19326.0	6.878280400153257e+17
19327.0	6.876668942265002e+17
19328.0	6.875054453293055e+17
19329.0	6.873427327582207e+17
19330.0	6.871779823845375e+17
19331.0	6.87013425717794e+17
19332.0	6.868493785191763e+17
19333.0	6.866833170060627e+17
19334.0	6.865158865420287e+17
19335.0	6.863482529338708e+17
19336.0	6.861791857126057e+17
19337.0	6.860090265741993e+17
19338.0	6.858318110086484e+17
19339.0	6.856660492484605e+17
19340.0	6.85491194307106e+17
19341.0	6.853178015001257e+17
19342.0	6.851305987375103e+17
19343.0	6.849592045163859e+17
19344.0	6.846689953098409e+17
19345.0	6.844332805980157e+17
19346.0	6.842848466261332e+17
19347.0	6.841237123716436e+17
19348.0	6.839418511250772e+17
19349.0	6.837554364721834e+17
19350.0	6.8356806293149e+17
19351.0	6.833795300851711e+17
19352.0	6.831875096051711e+17
19353.0	6.829974574421331e+17
19354.0	6.828032915057321e+17
19355.0	6.825067809166678e+17
19356.0	6.822593248799401e+17
19357.0	6.820588639223807e+17
19358.0	6.818551507714047e+17
19359.0	6.816451193208831e+17
19360.0	6.814431522586623e+17
19361.0	6.812336351696212e+17
19362.0	6.810228005797887e+17
19363.0	6.806617058880169e+17
19364.0	6.804060712381098e+17
19365.0	6.80185365214003e+17
19366.0	6.799616292246868e+17
19367.0	6.79734802592563e+17
19368.0	6.795047429909162e+17
19369.0	6.790585112679764e+17
19370.0	6.787979531343188e+17
19371.0	6.785689494487039e+17
19372.0	6.783254810765993e+17
19373.0	6.779831084296874e+17
19374.0	6.775598078754813e+17
19375.0	6.772828579124566e+17
19376.0	6.769889561804799e+17
19377.0	6.765353435310762e+17
19378.0	6.761405186659668e+17
19379.0	6.758615785056937e+17
19380.0	6.754967338964308e+17
19381.0	6.751098511556605e+17
19382.0	6.748110327207252e+17
19383.0	6.74507544138001e+17
19384.0	6.74202041450496e+17
19385.0	6.738864929155753e+17
19386.0	6.735641849102335e+17
19387.0	6.732344781526355e+17
19388.0	6.728971634169172e+17
19389.0	6.725076885962752e+17
19390.0	6.721163980614314e+17
19391.0	6.710001144605343e+17
19392.0	6.71373010805282e+17
19393.0	6.710013525491711e+17
19394.0	6.706095902250326e+17
19395.0	6.702062141527379e+17
19396.0	6.697552843199827e+17
19397.0	6.692505936461823e+17
19398.0	6.688111787158186e+17
19399.0	6.683408662353235e+17
19400.0	6.678925891600383e+17
19401.0	6.673076404791976e+17
19402.0	6.667566994249043e+17
19403.0	6.662434634159444e+17
19404.0	6.656508068626431e+17
19405.0	6.649574102575785e+17
19406.0	6.643870704074751e+17
19407.0	6.636165393634644e+17
19408.0	6.629011053259433e+17
19409.0	6.62082368377105e+17
19410.0	6.612940225860948e+17
19411.0	6.602529209057275e+17
19412.0	6.592914806625622e+17
19413.0	6.581824008486913e+17
19414.0	6.569154526751397e+17
19415.0	6.554757910320474e+17
19416.0	6.538929148788735e+17
19417.0	6.526399079426729e+17
19418.0	6.516038217411242e+17
19419.0	6.505232496328703e+17
19420.0	6.49405684392482e+17
19421.0	6.48235045687569e+17
19422.0	6.47016687267567e+17
19423.0	6.457455884107775e+17
19424.0	6.44361675988446e+17
19425.0	6.429509779718143e+17
19426.0	6.414858513110356e+17
19427.0	6.398530630800724e+17
19428.0	6.382105529417727e+17
19429.0	6.363507931654825e+17
19430.0	6.344302902203735e+17
19431.0	6.322021784879105e+17
19432.0	6.299585029515946e+17
19433.0	6.271735111002796e+17
19434.0	6.239177594459483e+17
19435.0	6.198333987094519e+17
19436.0	6.157775042947756e+17
19437.0	6.125350304787114e+17
19438.0	6.08228566176017e+17
19439.0	6.05121615425263e+17
19440.0	6.009249125629952e+17
19441.0	5.961404681726632e+17
19442.0	5.904191458028201e+17
19443.0	5.830450425626627e+17
19444.0	5.753938843620688e+17
19445.0	5.676118281551873e+17
19446.0	5.5819786556975776e+17
19447.0	5.464069409953104e+17
19448.0	5.3270649814821606e+17
19449.0	5.149913330133675e+17
19450.0	4.886885982448254e+17
19451.0	4.803536966997335e+17
19452.0	5.02415602990012e+17
19453.0	5.245167253935452e+17
19454.0	5.394771315698341e+17
19455.0	5.520301200069972e+17
19456.0	5.622973264297987e+17
19457.0	5.7059552767508435e+17
19458.0	5.772604803645448e+17
19459.0	5.854285266944003e+17
19460.0	5.916378450100223e+17
19461.0	5.965987114734931e+17
19462.0	6.008217721809578e+17
19463.0	6.045921459219114e+17
19464.0	6.080439034139988e+17
19465.0	6.112139548819457e+17
19466.0	6.144571022333268e+17
19467.0	6.185286565014181e+17
19468.0	6.218849475100673e+17
19469.0	6.246303862358015e+17
19470.0	6.269180389097473e+17
19471.0	6.289275123400705e+17
19472.0	6.307066148115794e+17
19473.0	6.323048477097983e+17
19474.0	6.338008494811817e+17
19475.0	6.351863265187155e+17
19476.0	6.364910627149139e+17
19477.0	6.376725935379795e+17
19478.0	6.388349743573673e+17
19479.0	6.399022944922282e+17
19480.0	6.408941018458793e+17
19481.0	6.418376717675177e+17
19482.0	6.427304037187583e+17
19483.0	6.435733822068052e+17
19484.0	6.443903328015699e+17
19485.0	6.452465440391168e+17
19486.0	6.464500493101734e+17
19487.0	6.476838041812988e+17
19488.0	6.487246741263702e+17
19489.0	6.496221299124906e+17
19490.0	6.504931870987604e+17
19491.0	6.512109001812649e+17
19492.0	6.517863890288639e+17
19493.0	6.524509528697513e+17
19494.0	6.528664723608916e+17
19495.0	6.53406573586022e+17
19496.0	6.537811995219283e+17
19497.0	6.541204692227412e+17
19498.0	6.545019774522708e+17
19499.0	6.536466941345784e+17
19500.0	6.550962063103316e+17
19501.0	6.55442990666001e+17
19502.0	6.557003818904233e+17
19503.0	6.559043403382783e+17
19504.0	6.560934490625363e+17
19505.0	6.562711634706431e+17
19506.0	6.56544084594961e+17
19507.0	6.566998007174484e+17
19508.0	6.568411939908266e+17
19509.0	6.56971910942993e+17
19510.0	6.570873860041385e+17
19511.0	6.561319050280955e+17
19512.0	6.571223657305426e+17
19513.0	6.57103298354653e+17
19514.0	6.573181002667345e+17
19515.0	6.576162463547392e+17
19516.0	6.577108040723114e+17
19517.0	6.577728729208147e+17
19518.0	6.578309790608041e+17
19519.0	6.578804883455999e+17
19520.0	6.579241858629631e+17
19521.0	6.57962620227857e+17
19522.0	6.581176098968918e+17
19523.0	6.58188127122227e+17
19524.0	6.582088987137364e+17
19525.0	6.583668531964582e+17
19526.0	6.58523543376145e+17
19527.0	6.58528687620096e+17
19528.0	6.585649701672276e+17
19529.0	6.587263542624255e+17
19530.0	6.588103833681919e+17
19531.0	6.587979267047423e+17
19532.0	6.587817560550057e+17
19533.0	6.587620463214591e+17
19534.0	6.589033424966996e+17
19535.0	6.58918745448994e+17
19536.0	6.588873352850089e+17
19537.0	6.588553492430847e+17
19538.0	6.588166662957738e+17
19539.0	6.587649866683732e+17
19540.0	6.588376723488765e+17
19541.0	6.588648943605076e+17
19542.0	6.588179181557076e+17
19543.0	6.587685828646227e+17
19544.0	6.587170064870057e+17
19545.0	6.586503485106857e+17
19546.0	6.585820916656809e+17
19547.0	6.585495128986966e+17
19548.0	6.584906627590828e+17
19549.0	6.585621053177856e+17
19550.0	6.585017256553129e+17
19551.0	6.584363971335508e+17
19552.0	6.583692971474943e+17
19553.0	6.582999741803177e+17
19554.0	6.582293681755476e+17
19555.0	6.581587447644159e+17
19556.0	6.580856074971817e+17
19557.0	6.580109446217727e+17
19558.0	6.579351448802644e+17
19559.0	6.578576673472511e+17
19560.0	6.577787731181567e+17
19561.0	6.577177938100224e+17
19562.0	6.577265717193385e+17
19563.0	6.576444889803433e+17
19564.0	6.575614258227881e+17
19565.0	6.574772812338516e+17
19566.0	6.573915319741098e+17
19567.0	6.573059158835199e+17
19568.0	6.572180273889279e+17
19569.0	6.571307338563583e+17
19570.0	6.570421398798335e+17
19571.0	6.569523269686612e+17
19572.0	6.568610108189353e+17
19573.0	6.567699876413439e+17
19574.0	6.566756840985939e+17
19575.0	6.565857425620991e+17
19576.0	6.564922482404009e+17
19577.0	6.563971811246079e+17
19578.0	6.563018536823466e+17
19579.0	6.562067638474068e+17
19580.0	6.561106417243476e+17
19581.0	6.560140619328169e+17
19582.0	6.559171510009855e+17
19583.0	6.558191682147668e+17
19584.0	6.557204709288617e+17
19585.0	6.556968097415167e+17
19586.0	6.555975139983359e+17
19587.0	6.554969402507263e+17
19588.0	6.553875540606975e+17
19589.0	6.552987472931498e+17
19590.0	6.551965188926121e+17
19591.0	6.550968307722922e+17
19592.0	6.549943052752211e+17
19593.0	6.548907771297791e+17
19594.0	6.547799452330665e+17
19595.0	6.546831966907049e+17
19596.0	6.544519815583062e+17
19597.0	6.544726287187965e+17
19598.0	6.543629902413824e+17
19599.0	6.5426585302685e+17
19600.0	6.541603439815337e+17
19601.0	6.540524333476522e+17
19602.0	6.539468853652137e+17
19603.0	6.538238267927209e+17
19604.0	6.53754157306129e+17
19605.0	6.536408755863551e+17
19606.0	6.535423467017556e+17
19607.0	6.534348704579583e+17
19608.0	6.533267809370111e+17
19609.0	6.532173557399551e+17
19610.0	6.531102787239935e+17
19611.0	6.530014159831039e+17
19612.0	6.528926557929471e+17
19613.0	6.527834840716628e+17
19614.0	6.526727835265706e+17
19615.0	6.525642929602559e+17
19616.0	6.524478147614036e+17
19617.0	6.523445900738559e+17
19618.0	6.522184802151082e+17
19619.0	6.521041176231935e+17
19620.0	6.51994205397538e+17
19621.0	6.519024756894378e+17
19622.0	6.517914923783508e+17
19623.0	6.516803305297236e+17
19624.0	6.515689908426068e+17
19625.0	6.514573740518056e+17
19626.0	6.513457633427455e+17
19627.0	6.512338437231956e+17
19628.0	6.511028532325034e+17
19629.0	6.510067567646036e+17
19630.0	6.50857015148544e+17
19631.0	6.499180436520959e+17
19632.0	6.506715628087978e+17
19633.0	6.50559239627298e+17
19634.0	6.504471811063808e+17
19635.0	6.503330555625471e+17
19636.0	6.502213358714879e+17
19637.0	6.500960337657855e+17
19638.0	6.499947060920319e+17
19639.0	6.498810433896447e+17
19640.0	6.497654846521343e+17
19641.0	6.496361368606036e+17
19642.0	6.495408216517289e+17
19643.0	6.494267538494803e+17
19644.0	6.49311251665169e+17
19645.0	6.491912527675391e+17
19646.0	6.490851072365908e+17
19647.0	6.489709528918698e+17
19648.0	6.488567146610687e+17
19649.0	6.487423076095316e+17
19650.0	6.48627985912081e+17
19651.0	6.48513503572787e+17
19652.0	6.483989453165908e+17
19653.0	6.482842529824767e+17
19654.0	6.481696072051369e+17
19655.0	6.480546941108223e+17
19656.0	6.479397782902099e+17
19657.0	6.478251325827753e+17
19658.0	6.477101854446932e+17
19659.0	6.475951054869843e+17
19660.0	6.474800571962708e+17
19661.0	6.473917855520084e+17
19662.0	6.47306253697024e+17
19663.0	6.471893557881514e+17
19664.0	6.470723263179433e+17
19665.0	6.469602073291433e+17
19666.0	6.46844318290193e+17
