# Flux units: erg / (cm m2 s)
# Wavelength units: Angstrom
wave	flux
19000.0	7.981217692166825e+17
19001.0	7.979714976503124e+17
19002.0	7.9782557515776e+17
19003.0	7.976773575420585e+17
19004.0	7.975290988221779e+17
19005.0	7.97380859396096e+17
19006.0	7.972325092403881e+17
19007.0	7.970648745137492e+17
19008.0	7.969342202664275e+17
19009.0	7.96786098001237e+17
19010.0	7.966284223698259e+17
19011.0	7.964888418047315e+17
19012.0	7.963160444491092e+17
19013.0	7.96192692065621e+17
19014.0	7.960427111645181e+17
19015.0	7.958951776397992e+17
19016.0	7.957450840517289e+17
19017.0	7.955954244343123e+17
19018.0	7.954468213620735e+17
19019.0	7.952996021305343e+17
19020.0	7.951493540522664e+17
19021.0	7.9500113098397e+17
19022.0	7.948526580749651e+17
19023.0	7.947035637099176e+17
19024.0	7.945536996900863e+17
19025.0	7.944030319017983e+17
19026.0	7.942527722192892e+17
19027.0	7.940833626030079e+17
19028.0	7.939577637502975e+17
19029.0	7.938085305537875e+17
19030.0	7.936592528976553e+17
19031.0	7.93509933018863e+17
19032.0	7.933605808439296e+17
19033.0	7.932091839457961e+17
19034.0	7.930616902669651e+17
19035.0	7.929106507235328e+17
19036.0	7.911866968484512e+17
19037.0	7.926128280163667e+17
19038.0	7.924633435810473e+17
19039.0	7.923145163931645e+17
19040.0	7.921650213322752e+17
19041.0	7.920154927169535e+17
19042.0	7.918641144135679e+17
19043.0	7.917164489080832e+17
19044.0	7.915667305704105e+17
19045.0	7.914162375447892e+17
19046.0	7.912663904419837e+17
19047.0	7.911178295924054e+17
19048.0	7.909638048230058e+17
19049.0	7.908171158913021e+17
19050.0	7.906678510977024e+17
19051.0	7.902692873601018e+17
19052.0	7.903416881774591e+17
19053.0	7.902148886353236e+17
19054.0	7.900700460362409e+17
19055.0	7.899145919878483e+17
19056.0	7.897705588894377e+17
19057.0	7.896204159483903e+17
19058.0	7.894662590584147e+17
19059.0	7.893211687157757e+17
19060.0	7.891708212325033e+17
19061.0	7.890215465123837e+17
19062.0	7.888716120282451e+17
19063.0	7.887218155367081e+17
19064.0	7.88569446678528e+17
19065.0	7.884179878445053e+17
19066.0	7.882707870679039e+17
19067.0	7.881223879786496e+17
19068.0	7.879724971152723e+17
19069.0	7.878226335148714e+17
19070.0	7.876724758937599e+17
19071.0	7.875219563042131e+17
19072.0	7.873726958447273e+17
19073.0	7.872228834148348e+17
19074.0	7.870730831484244e+17
19075.0	7.869231553751721e+17
19076.0	7.867727262427817e+17
19077.0	7.866230731964415e+17
19078.0	7.86472531796514e+17
19079.0	7.863233726993746e+17
19080.0	7.861733065140905e+17
19081.0	7.86022445508198e+17
19082.0	7.858723748489898e+17
19083.0	7.857210937136467e+17
19084.0	7.855676944547839e+17
19085.0	7.854232848476841e+17
19086.0	7.852621402472447e+17
19087.0	7.850745476240723e+17
19088.0	7.849677606442323e+17
19089.0	7.847932015411199e+17
19090.0	7.846719801436842e+17
19091.0	7.845223022111404e+17
19092.0	7.843603433564842e+17
19093.0	7.84223219814673e+17
19094.0	7.840720178118653e+17
19095.0	7.839216218144764e+17
19096.0	7.837724362932221e+17
19097.0	7.836232851652605e+17
19098.0	7.834735640313855e+17
19099.0	7.833235698483197e+17
19100.0	7.83171034755891e+17
19101.0	7.830226457329661e+17
19102.0	7.82871719994982e+17
19103.0	7.827235817914365e+17
19104.0	7.825735177033042e+17
19105.0	7.824232707435177e+17
19106.0	7.822644290955944e+17
19107.0	7.821226744829268e+17
19108.0	7.819726575108093e+17
19109.0	7.816549763121148e+17
19110.0	7.816689437638655e+17
19111.0	7.815224891539453e+17
19112.0	7.813732186281299e+17
19113.0	7.812232916937386e+17
19114.0	7.810732695486461e+17
19115.0	7.809194318452051e+17
19116.0	7.807731409529514e+17
19117.0	7.806223910961148e+17
19118.0	7.804627311394815e+17
19119.0	7.802720257835007e+17
19120.0	7.801593571311615e+17
19121.0	7.800137027944447e+17
19122.0	7.79872835416883e+17
19123.0	7.797225862201344e+17
19124.0	7.795632009904127e+17
19125.0	7.794212695179261e+17
19126.0	7.792710257737727e+17
19127.0	7.790859263847084e+17
19128.0	7.788556525240317e+17
19129.0	7.788202426717523e+17
19130.0	7.786721707382099e+17
19131.0	7.785184030796457e+17
19132.0	7.783719817445375e+17
19133.0	7.781992572299944e+17
19134.0	7.780171567682903e+17
19135.0	7.779211922112511e+17
19136.0	7.77771565449216e+17
19137.0	7.776175208267775e+17
19138.0	7.774634535550975e+17
19139.0	7.773206739943424e+17
19140.0	7.771710732369919e+17
19141.0	7.770210144616444e+17
19142.0	7.768703258416467e+17
19143.0	7.76719509435187e+17
19144.0	7.765704508615338e+17
19145.0	7.764196706658985e+17
19146.0	7.762534568296445e+17
19147.0	7.761181642413395e+17
19148.0	7.759687273414655e+17
19149.0	7.758188167648596e+17
19150.0	7.756688617286314e+17
19151.0	7.75519096414754e+17
19152.0	7.75366911267089e+17
19153.0	7.752181176336383e+17
19154.0	7.750654760058879e+17
19155.0	7.74917326058291e+17
19156.0	7.747670269493245e+17
19157.0	7.746120023976617e+17
19158.0	7.743544198430717e+17
19159.0	7.743138019235156e+17
19160.0	7.741631695071914e+17
19161.0	7.740030965514239e+17
19162.0	7.736065214731607e+17
19163.0	7.737089504313343e+17
19164.0	7.735642891659945e+17
19165.0	7.733947103794515e+17
19166.0	7.732154311464276e+17
19167.0	7.730479886587219e+17
19168.0	7.729195490039123e+17
19169.0	7.72766824748373e+17
19170.0	7.726209422415187e+17
19171.0	7.724575715841364e+17
19172.0	7.723185594870441e+17
19173.0	7.721691985040723e+17
19174.0	7.720183082778624e+17
19175.0	7.718689298186237e+17
19176.0	7.717182519640061e+17
19177.0	7.715640357945343e+17
19178.0	7.714108817626451e+17
19179.0	7.712468398768127e+17
19180.0	7.711014634826408e+17
19181.0	7.709615003970217e+17
19182.0	7.708127980595881e+17
19183.0	7.706615682345641e+17
19184.0	7.705085523350867e+17
19185.0	7.703614846577321e+17
19186.0	7.702107960377343e+17
19187.0	7.700583381204992e+17
19188.0	7.699076569104384e+17
19189.0	7.697525012168701e+17
19190.0	7.6960021624477e+17
19191.0	7.694525299075753e+17
19192.0	7.693029628444671e+17
19193.0	7.691417879052287e+17
19194.0	7.689964649185279e+17
19195.0	7.688489902538752e+17
19196.0	7.686784313982975e+17
19197.0	7.685244052307967e+17
19198.0	7.683624405041151e+17
19199.0	7.667004557929124e+17
19200.0	7.670379127155375e+17
19201.0	7.679100192467626e+17
19202.0	7.677679755067391e+17
19203.0	7.676153980518399e+17
19204.0	7.67466917593088e+17
19205.0	7.673169225711615e+17
19206.0	7.671652200480767e+17
19207.0	7.670126971191292e+17
19208.0	7.668579352707071e+17
19209.0	7.667098174794409e+17
19210.0	7.665585317303634e+17
19211.0	7.664064742293503e+17
19212.0	7.662543638801066e+17
19213.0	7.660872840598867e+17
19214.0	7.659275897099604e+17
19215.0	7.657917082413738e+17
19216.0	7.656453192024063e+17
19217.0	7.654934258384896e+17
19218.0	7.653229733784233e+17
19219.0	7.651847059101012e+17
19220.0	7.650345234027858e+17
19221.0	7.648751443247103e+17
19222.0	7.647305413601961e+17
19223.0	7.645776946309802e+17
19224.0	7.644236472123392e+17
19225.0	7.642685780612436e+17
19226.0	7.641187687071744e+17
19227.0	7.639656370449064e+17
19228.0	7.638123699066195e+17
19229.0	7.636589907804161e+17
19230.0	7.635008427305641e+17
19231.0	7.633488418526548e+17
19232.0	7.631976497763668e+17
19233.0	7.630428931009194e+17
19234.0	7.628901236867071e+17
19235.0	7.627367089089194e+17
19236.0	7.625825876705279e+17
19237.0	7.624280247719251e+17
19238.0	7.622696749760511e+17
19239.0	7.621196420655786e+17
19240.0	7.619610368365908e+17
19241.0	7.61809151861282e+17
19242.0	7.61655579237854e+17
19243.0	7.614966655877119e+17
19244.0	7.6134555334301e+17
19245.0	7.611903173984255e+17
19246.0	7.610345919785642e+17
19247.0	7.60879350161954e+17
19248.0	7.60723776156467e+17
19249.0	7.605673628707498e+17
19250.0	7.604118308083028e+17
19251.0	7.602534231310335e+17
19252.0	7.600923290020521e+17
19253.0	7.5994284177053e+17
19254.0	7.597857729150973e+17
19255.0	7.596250034252458e+17
19256.0	7.594686111110484e+17
19257.0	7.593151279661056e+17
19258.0	7.591579391535785e+17
19259.0	7.589986104071508e+17
19260.0	7.588198153366185e+17
19261.0	7.586846016012288e+17
19262.0	7.585257399604564e+17
19263.0	7.58317648515345e+17
19264.0	7.581445316935679e+17
19265.0	7.579921899585535e+17
19266.0	7.578342085623807e+17
19267.0	7.576777622814719e+17
19268.0	7.575181870497792e+17
19269.0	7.573583630958591e+17
19270.0	7.571980534415357e+17
19271.0	7.570308986830845e+17
19272.0	7.5687648034816e+17
19273.0	7.566076581773308e+17
19274.0	7.564958434852863e+17
19275.0	7.5639369526586e+17
19276.0	7.562319686358356e+17
19277.0	7.560698786392748e+17
19278.0	7.559074795225087e+17
19279.0	7.557409821513044e+17
19280.0	7.555799489795411e+17
19281.0	7.554180478664705e+17
19282.0	7.552536427539113e+17
19283.0	7.550676043999913e+17
19284.0	7.548828776049321e+17
19285.0	7.547564113701545e+17
19286.0	7.545948562871638e+17
19287.0	7.544298176948906e+17
19288.0	7.538761764175867e+17
19289.0	7.530476608684012e+17
19290.0	7.539303420788735e+17
19291.0	7.537571835936765e+17
19292.0	7.535953933500415e+17
19293.0	7.534269366796289e+17
19294.0	7.532583340474365e+17
19295.0	7.530890740279977e+17
19296.0	7.529103343222784e+17
19297.0	7.526765355685202e+17
19298.0	7.52506457939422e+17
19299.0	7.523350962940585e+17
19300.0	7.521631285717672e+17
19301.0	7.519904552277331e+17
19302.0	7.518172099204436e+17
19303.0	7.516417395348819e+17
19304.0	7.514681363136513e+17
19305.0	7.51294213346645e+17
19306.0	7.511178828491433e+17
19307.0	7.509389620893011e+17
19308.0	7.507623255474173e+17
19309.0	7.505384842111657e+17
19310.0	7.503432459310418e+17
19311.0	7.502297223397373e+17
19312.0	7.500556938160808e+17
19313.0	7.498734960465236e+17
19314.0	7.490465077832358e+17
19315.0	7.48885179891713e+17
19316.0	7.492293850300416e+17
19317.0	7.490497887076351e+17
19318.0	7.488645539823615e+17
19319.0	7.486782080461481e+17
19320.0	7.48490467643665e+17
19321.0	7.483021865953961e+17
19322.0	7.48107141952307e+17
19323.0	7.478976574390271e+17
19324.0	7.477278971789311e+17
19325.0	7.474953147733331e+17
19326.0	7.473414208662186e+17
19327.0	7.471473199415293e+17
19328.0	7.468163244840276e+17
19329.0	7.466026562923177e+17
19330.0	7.46402526475059e+17
19331.0	7.462017519932756e+17
19332.0	7.460005352920404e+17
19333.0	7.457962039006547e+17
19334.0	7.455913968751956e+17
19335.0	7.453849810545321e+17
19336.0	7.451757961543679e+17
19337.0	7.448436848721919e+17
19338.0	7.446083410766506e+17
19339.0	7.44399298503202e+17
19340.0	7.441828680826879e+17
19341.0	7.439661502125395e+17
19342.0	7.437373133204138e+17
19343.0	7.435254920205651e+17
19344.0	7.431423827552936e+17
19345.0	7.428646696386557e+17
19346.0	7.42663413371153e+17
19347.0	7.424458219672915e+17
19348.0	7.422145588101117e+17
19349.0	7.419396126758227e+17
19350.0	7.41639274364928e+17
19351.0	7.413994510527145e+17
19352.0	7.411552530814291e+17
19353.0	7.409106377768957e+17
19354.0	7.406050670717608e+17
19355.0	7.403511756445014e+17
19356.0	7.400976804391593e+17
19357.0	7.398391499718655e+17
19358.0	7.39575822618897e+17
19359.0	7.393066011503272e+17
19360.0	7.390421490248361e+17
19361.0	7.387689292660736e+17
19362.0	7.38493053813828e+17
19363.0	7.382120990594387e+17
19364.0	7.37926879257122e+17
19365.0	7.376372933241514e+17
19366.0	7.373215957516287e+17
19367.0	7.36959532105728e+17
19368.0	7.366553242697727e+17
19369.0	7.36343614501683e+17
19370.0	7.360186087899135e+17
19371.0	7.357098695677268e+17
19372.0	7.353852955896489e+17
19373.0	7.350537666166783e+17
19374.0	7.346875601169066e+17
19375.0	7.342548281808212e+17
19376.0	7.339032972711251e+17
19377.0	7.33544554954752e+17
19378.0	7.331785837554345e+17
19379.0	7.328048468022612e+17
19380.0	7.323232719164755e+17
19381.0	7.318664685901139e+17
19382.0	7.314646542669139e+17
19383.0	7.31055000789538e+17
19384.0	7.305830526702931e+17
19385.0	7.300137321059668e+17
19386.0	7.295731378072234e+17
19387.0	7.291215892447232e+17
19388.0	7.284506383177046e+17
19389.0	7.27941480849954e+17
19390.0	7.274384684569939e+17
19391.0	7.254279663037078e+17
19392.0	7.261337531624104e+17
19393.0	7.253772538129068e+17
19394.0	7.2471477761693e+17
19395.0	7.23891643499588e+17
19396.0	7.231582020567039e+17
19397.0	7.221598034941268e+17
19398.0	7.213893881430015e+17
19399.0	7.205472325773993e+17
19400.0	7.198744836920659e+17
19401.0	7.191680360906751e+17
19402.0	7.184586151471786e+17
19403.0	7.177255377698816e+17
19404.0	7.169711432619348e+17
19405.0	7.161926495414953e+17
19406.0	7.153885055549437e+17
19407.0	7.145553710983849e+17
19408.0	7.136261929522516e+17
19409.0	7.127479736423764e+17
19410.0	7.118278732283904e+17
19411.0	7.108709803797161e+17
19412.0	7.098050725369172e+17
19413.0	7.087693972373504e+17
19414.0	7.077074135853738e+17
19415.0	7.064922163423913e+17
19416.0	7.053243181258068e+17
19417.0	7.039974809534461e+17
19418.0	7.027245904297983e+17
19419.0	7.012103416883881e+17
19420.0	6.996797796210003e+17
19421.0	6.980023203747158e+17
19422.0	6.961734760442536e+17
19423.0	6.941524306690049e+17
19424.0	6.919299282589015e+17
19425.0	6.892833863980376e+17
19426.0	6.86731582120482e+17
19427.0	6.846226596451668e+17
19428.0	6.824820466865492e+17
19429.0	6.801928693830995e+17
19430.0	6.778224202394284e+17
19431.0	6.751409389174785e+17
19432.0	6.726653939373394e+17
19433.0	6.697747381310806e+17
19434.0	6.66610331287552e+17
19435.0	6.631309357787817e+17
19436.0	6.591139275953495e+17
19437.0	6.546869013796179e+17
19438.0	6.486712487597402e+17
19439.0	6.448027912197462e+17
19440.0	6.399638796675753e+17
19441.0	6.345818554499068e+17
19442.0	6.286023863915862e+17
19443.0	6.218038378496e+17
19444.0	6.139682761648804e+17
19445.0	6.056045319290883e+17
19446.0	5.964129179271168e+17
19447.0	5.858945384054779e+17
19448.0	5.7403433756044e+17
19449.0	5.602451504409258e+17
19450.0	5.3923148481603757e+17
19451.0	5.305071389289134e+17
19452.0	5.5069135856817594e+17
19453.0	5.673391258337285e+17
19454.0	5.797017084581197e+17
19455.0	5.906562861585748e+17
19456.0	6.002399985882456e+17
19457.0	6.086680943525883e+17
19458.0	6.161674267175602e+17
19459.0	6.23674194115516e+17
19460.0	6.297631062665894e+17
19461.0	6.351874001207295e+17
19462.0	6.400330989655383e+17
19463.0	6.444700156996262e+17
19464.0	6.49282283564783e+17
19465.0	6.538260398473217e+17
19466.0	6.577647607873537e+17
19467.0	6.612084668235771e+17
19468.0	6.642539463442433e+17
19469.0	6.669924618119848e+17
19470.0	6.695092981071871e+17
19471.0	6.718354177217878e+17
19472.0	6.739938051620861e+17
19473.0	6.760461778638163e+17
19474.0	6.779919672191657e+17
19475.0	6.798044580282365e+17
19476.0	6.818664307228667e+17
19477.0	6.842618122076161e+17
19478.0	6.863754086055932e+17
19479.0	6.882508161417215e+17
19480.0	6.898761313812479e+17
19481.0	6.913506854393171e+17
19482.0	6.927152326202705e+17
19483.0	6.939091041342803e+17
19484.0	6.950117301725865e+17
19485.0	6.960828215459837e+17
19486.0	6.970109207074132e+17
19487.0	6.979369023744682e+17
19488.0	6.987887477609812e+17
19489.0	6.995516214738943e+17
19490.0	7.003207656013823e+17
19491.0	7.010668757996886e+17
19492.0	7.01728153473297e+17
19493.0	7.023556257557161e+17
19494.0	7.029783632281599e+17
19495.0	7.035759078233428e+17
19496.0	7.041088632127487e+17
19497.0	7.046271651020799e+17
19498.0	7.0503231389696e+17
19499.0	7.036780834455534e+17
19500.0	7.060209256103935e+17
19501.0	7.064402620579837e+17
19502.0	7.068690116422314e+17
19503.0	7.073060421806762e+17
19504.0	7.078610492631722e+17
19505.0	7.084890695314085e+17
19506.0	7.089575477029545e+17
19507.0	7.095818883082921e+17
19508.0	7.099163155453267e+17
19509.0	7.104455357672106e+17
19510.0	7.107476977614847e+17
19511.0	7.09540175395771e+17
19512.0	7.111994633093111e+17
19513.0	7.111269688191647e+17
19514.0	7.115963477873997e+17
19515.0	7.12239348851234e+17
19516.0	7.124357530080595e+17
19517.0	7.125997455409152e+17
19518.0	7.129192100178602e+17
19519.0	7.130516790007123e+17
19520.0	7.131758481549994e+17
19521.0	7.132910725365757e+17
19522.0	7.134949158507859e+17
19523.0	7.136444265704106e+17
19524.0	7.137393259140436e+17
19525.0	7.138202414481407e+17
19526.0	7.138952557363199e+17
19527.0	7.139629011916116e+17
19528.0	7.141139281521322e+17
19529.0	7.141870350106623e+17
19530.0	7.142351344500735e+17
19531.0	7.142774998564863e+17
19532.0	7.14314458665233e+17
19533.0	7.143460279331497e+17
19534.0	7.143723719371433e+17
19535.0	7.1439371730944e+17
19536.0	7.144450016236884e+17
19537.0	7.145001409227434e+17
19538.0	7.145059708654931e+17
19539.0	7.14498871726353e+17
19540.0	7.145080137711615e+17
19541.0	7.145033773875197e+17
19542.0	7.14494252818978e+17
19543.0	7.144814334880425e+17
19544.0	7.144650572475049e+17
19545.0	7.144371498866003e+17
19546.0	7.144037886722047e+17
19547.0	7.143957130990932e+17
19548.0	7.143663311607123e+17
19549.0	7.143318225245526e+17
19550.0	7.14337847362628e+17
19551.0	7.143132249806164e+17
19552.0	7.142724721442815e+17
19553.0	7.142506405123411e+17
19554.0	7.142755008511999e+17
19555.0	7.1422812646714e+17
19556.0	7.141776431251455e+17
19557.0	7.141248262122153e+17
19558.0	7.14069936054818e+17
19559.0	7.140723774193664e+17
19560.0	7.141083849599658e+17
19561.0	7.14047939866351e+17
19562.0	7.139849108018516e+17
19563.0	7.139199831157417e+17
19564.0	7.138533697388543e+17
19565.0	7.137849714059945e+17
19566.0	7.137144795561981e+17
19567.0	7.137599593731414e+17
19568.0	7.136968506168659e+17
19569.0	7.136225226566314e+17
19570.0	7.135463391363071e+17
19571.0	7.134685103303338e+17
19572.0	7.133886811209727e+17
19573.0	7.133084895237459e+17
19574.0	7.132248693626195e+17
19575.0	7.131440016435881e+17
19576.0	7.130613299544061e+17
19577.0	7.130766386047657e+17
19578.0	7.129897453486079e+17
19579.0	7.129022455960916e+17
19580.0	7.128273203669672e+17
19581.0	7.127547466044756e+17
19582.0	7.126641524342781e+17
19583.0	7.125721963735721e+17
19584.0	7.124786076101289e+17
19585.0	7.123826813610665e+17
19586.0	7.122857024815104e+17
19587.0	7.121851462800723e+17
19588.0	7.120879216143017e+17
19589.0	7.119979954569216e+17
19590.0	7.11900854817041e+17
19591.0	7.118807081768275e+17
19592.0	7.117856718192637e+17
19593.0	7.116848835330047e+17
19594.0	7.115766348382207e+17
19595.0	7.114822783773356e+17
19596.0	7.111057204751021e+17
19597.0	7.112741037451948e+17
19598.0	7.111682537728681e+17
19599.0	7.110691209783977e+17
19600.0	7.109642180799145e+17
19601.0	7.108572171905705e+17
19602.0	7.107516357935104e+17
19603.0	7.106133551830355e+17
19604.0	7.105357481159338e+17
19605.0	7.104244846952447e+17
19606.0	7.10322818261538e+17
19607.0	7.102142682759168e+17
19608.0	7.101050297253887e+17
19609.0	7.09994949378048e+17
19610.0	7.098854394560511e+17
19611.0	7.097748187425449e+17
19612.0	7.096639883138387e+17
19613.0	7.095526263270057e+17
19614.0	7.094934729392127e+17
19615.0	7.093897433273683e+17
19616.0	7.092655004931412e+17
19617.0	7.091643941388287e+17
19618.0	7.090402585389736e+17
19619.0	7.089232773032617e+17
19620.0	7.088099656641194e+17
19621.0	7.087090800700074e+17
19622.0	7.085944059811156e+17
19623.0	7.084794185777152e+17
19624.0	7.083640989854377e+17
19625.0	7.082483052969983e+17
19626.0	7.08132432196403e+17
19627.0	7.080159739903999e+17
19628.0	7.078640231645183e+17
19629.0	7.0777962509981e+17
19630.0	7.07607823192337e+17
19631.0	7.059324843764389e+17
19632.0	7.07427993666628e+17
19633.0	7.073121432152745e+17
19634.0	7.071954573983743e+17
19635.0	7.070764591218687e+17
19636.0	7.069590903324671e+17
19637.0	7.068312276740778e+17
19638.0	7.067214730843475e+17
19639.0	7.066015951224832e+17
19640.0	7.064820385841151e+17
19641.0	7.06351983563025e+17
19642.0	7.062441264764244e+17
19643.0	7.061239964368896e+17
19644.0	7.060028323616084e+17
19645.0	7.058783510112936e+17
19646.0	7.057635558468266e+17
19647.0	7.056429760380927e+17
19648.0	7.055222251017556e+17
19649.0	7.054012577393321e+17
19650.0	7.052802551447552e+17
19651.0	7.051590298326356e+17
19652.0	7.050376593975978e+17
19653.0	7.049154769453055e+17
19654.0	7.047944785450323e+17
19655.0	7.04672590672691e+17
19656.0	7.045505861986985e+17
19657.0	7.0442868029085e+17
19658.0	7.04306487632418e+17
19659.0	7.041841312563199e+17
19660.0	7.040617270651561e+17
19661.0	7.039391653079722e+17
19662.0	7.038164810771114e+17
19663.0	7.036922118187692e+17
19664.0	7.035645259502931e+17
19665.0	7.034546117672959e+17
19666.0	7.033684560095912e+17
