# Flux units: erg / (cm m2 s)
# Wavelength units: Angstrom
wave	flux
19000.0	5.037037454011049e+17
19001.0	5.0360893532624205e+17
19002.0	5.035168964280319e+17
19003.0	5.034234520185513e+17
19004.0	5.033300344526164e+17
19005.0	5.032366789623807e+17
19006.0	5.031432926440106e+17
19007.0	5.030499189085525e+17
19008.0	5.0295570274713594e+17
19009.0	5.028615790701225e+17
19010.0	5.0276290135763616e+17
19011.0	5.0267597699372365e+17
19012.0	5.025811778240511e+17
19013.0	5.024899340260693e+17
19014.0	5.0239664501555194e+17
19015.0	5.0230317040708256e+17
19016.0	5.0220907699896314e+17
19017.0	5.0211679287377914e+17
19018.0	5.020235625136128e+17
19019.0	5.019303912232276e+17
19020.0	5.0183714205859834e+17
19021.0	5.0174394762963616e+17
19022.0	5.016507977302014e+17
19023.0	5.0155761392680954e+17
19024.0	5.0146427157872634e+17
19025.0	5.0137128239103994e+17
19026.0	5.0127772941899085e+17
19027.0	5.011839375813289e+17
19028.0	5.010919739708756e+17
19029.0	5.009988728651775e+17
19030.0	5.0090581265394336e+17
19031.0	5.0081275419033594e+17
19032.0	5.007197060027732e+17
19033.0	5.0062541357492896e+17
19034.0	5.005336482152447e+17
19035.0	5.0044054235600205e+17
19036.0	5.002609398819497e+17
19037.0	5.002546364022783e+17
19038.0	5.0016173424639994e+17
19039.0	5.000687993749502e+17
19040.0	4.999758756184062e+17
19041.0	4.998829355040768e+17
19042.0	4.997880060313598e+17
19043.0	4.996971909611519e+17
19044.0	4.9960429355881805e+17
19045.0	4.9951147060538016e+17
19046.0	4.9941786520453114e+17
19047.0	4.993254877560832e+17
19048.0	4.9922991361884154e+17
19049.0	4.991375857330857e+17
19050.0	4.9904681162724685e+17
19051.0	4.9894377253765114e+17
19052.0	4.9885960334213114e+17
19053.0	4.987692265766911e+17
19054.0	4.986764936609791e+17
19055.0	4.9858007430157645e+17
19056.0	4.984910427892394e+17
19057.0	4.983984947724287e+17
19058.0	4.983048502247423e+17
19059.0	4.9821281419263994e+17
19060.0	4.981202811355134e+17
19061.0	4.980280125292543e+17
19062.0	4.9793535762759674e+17
19063.0	4.9784282100531194e+17
19064.0	4.977486906873172e+17
19065.0	4.9765608164338336e+17
19066.0	4.97564178920243e+17
19067.0	4.9747272799354874e+17
19068.0	4.9738028154879994e+17
19069.0	4.972878300708862e+17
19070.0	4.9719524605296634e+17
19071.0	4.9710295542661114e+17
19072.0	4.9701016337121274e+17
19073.0	4.9691806987714554e+17
19074.0	4.9682576142499834e+17
19075.0	4.967333982371839e+17
19076.0	4.9664076542552736e+17
19077.0	4.9654844467008845e+17
19078.0	4.964559813083135e+17
19079.0	4.9636410445004794e+17
19080.0	4.962718108876798e+17
19081.0	4.961795720609791e+17
19082.0	4.9608672499029325e+17
19083.0	4.9599485896731296e+17
19084.0	4.9590002442567674e+17
19085.0	4.9581066505857696e+17
19086.0	4.957140217233407e+17
19087.0	4.956234288813396e+17
19088.0	4.9553271734053536e+17
19089.0	4.9543898303474336e+17
19090.0	4.9534991426300576e+17
19091.0	4.9525735701872634e+17
19092.0	4.9516409548090016e+17
19093.0	4.9507372151166285e+17
19094.0	4.9498162913607674e+17
19095.0	4.9488959184568314e+17
19096.0	4.947974155141119e+17
19097.0	4.9470560625404576e+17
19098.0	4.946132665543338e+17
19099.0	4.9452124499258016e+17
19100.0	4.944295408697343e+17
19101.0	4.943377771877717e+17
19102.0	4.9424421624654496e+17
19103.0	4.941540738727935e+17
19104.0	4.940622020476927e+17
19105.0	4.939694563393536e+17
19106.0	4.938781379526655e+17
19107.0	4.93786249629969e+17
19108.0	4.9369455361611085e+17
19109.0	4.935978732311893e+17
19110.0	4.935111437626026e+17
19111.0	4.934193198923775e+17
19112.0	4.933275518763007e+17
19113.0	4.932361339447979e+17
19114.0	4.931444339463509e+17
19115.0	4.9305227243465376e+17
19116.0	4.9296107071952205e+17
19117.0	4.92869363381043e+17
19118.0	4.9277679830739616e+17
19119.0	4.92555969180467e+17
19120.0	4.9259393972524365e+17
19121.0	4.925025097001643e+17
19122.0	4.924114510807039e+17
19123.0	4.923199029859669e+17
19124.0	4.922283747442687e+17
19125.0	4.9213685761747616e+17
19126.0	4.920452861744468e+17
19127.0	4.919275055742974e+17
19128.0	4.918623172820992e+17
19129.0	4.917699876487166e+17
19130.0	4.9167939578538656e+17
19131.0	4.915881055704404e+17
19132.0	4.914966834446336e+17
19133.0	4.9140478980915194e+17
19134.0	4.9131401773056e+17
19135.0	4.912226542551038e+17
19136.0	4.911313455852202e+17
19137.0	4.9103769488588794e+17
19138.0	4.909484953916756e+17
19139.0	4.908574501939883e+17
19140.0	4.907662137360383e+17
19141.0	4.906749709866324e+17
19142.0	4.9058371439602336e+17
19143.0	4.904917645568681e+17
19144.0	4.904011495549609e+17
19145.0	4.9031016482515616e+17
19146.0	4.902107993866239e+17
19147.0	4.9012631512896845e+17
19148.0	4.9003637128560634e+17
19149.0	4.8994522829073056e+17
19150.0	4.898544046921045e+17
19151.0	4.897634482039466e+17
19152.0	4.8967237112954874e+17
19153.0	4.8958072027436365e+17
19154.0	4.894883769395883e+17
19155.0	4.893992885944319e+17
19156.0	4.893082580768083e+17
19157.0	4.8921699582388896e+17
19158.0	4.891223426859007e+17
19159.0	4.89035132969506e+17
19160.0	4.8894440779721376e+17
19161.0	4.888535161809578e+17
19162.0	4.887544467204777e+17
19163.0	4.886714963897002e+17
19164.0	4.8858088509276154e+17
19165.0	4.8848914510861645e+17
19166.0	4.8839709250901325e+17
19167.0	4.883076115770026e+17
19168.0	4.882174383751166e+17
19169.0	4.881265032080042e+17
19170.0	4.8803598670233594e+17
19171.0	4.8794470012245325e+17
19172.0	4.878544881232555e+17
19173.0	4.877637442863103e+17
19174.0	4.8767218570581325e+17
19175.0	4.87582352871697e+17
19176.0	4.874916671258623e+17
19177.0	4.87398866821666e+17
19178.0	4.8731010528269645e+17
19179.0	4.872189712356693e+17
19180.0	4.871289648272724e+17
19181.0	4.8703639639818234e+17
19182.0	4.869474415717035e+17
19183.0	4.868572433438036e+17
19184.0	4.8676655235508896e+17
19185.0	4.8667603480084474e+17
19186.0	4.865855361209685e+17
19187.0	4.86494959706658e+17
19188.0	4.86404468506624e+17
19189.0	4.8631404777089696e+17
19190.0	4.8622352378538656e+17
19191.0	4.861329842110462e+17
19192.0	4.860426176517461e+17
19193.0	4.8595215741965645e+17
19194.0	4.858617274564607e+17
19195.0	4.8577128491035296e+17
19196.0	4.856807186322773e+17
19197.0	4.8559033054221645e+17
19198.0	4.854999552447829e+17
19199.0	4.853621268501844e+17
19200.0	4.8528613403088205e+17
19201.0	4.852289126094164e+17
19202.0	4.851386821552811e+17
19203.0	4.850483873884843e+17
19204.0	4.8495769856682656e+17
19205.0	4.8486776898409805e+17
19206.0	4.8477728806010874e+17
19207.0	4.846860332870314e+17
19208.0	4.8459358348683936e+17
19209.0	4.845067309154303e+17
19210.0	4.8441649228240205e+17
19211.0	4.8432626476427936e+17
19212.0	4.8423604584447994e+17
19213.0	4.8414457240835405e+17
19214.0	4.840536490551978e+17
19215.0	4.839225284012714e+17
19216.0	4.8367652114705056e+17
19217.0	4.835863564735828e+17
19218.0	4.834845610650281e+17
19219.0	4.834042105036798e+17
19220.0	4.833159532598612e+17
19221.0	4.832213258469376e+17
19222.0	4.8313552345934496e+17
19223.0	4.8302834228483405e+17
19224.0	4.8283684791036576e+17
19225.0	4.8274482690785274e+17
19226.0	4.8265682964097696e+17
19227.0	4.8256685154413216e+17
19228.0	4.824768543632042e+17
19229.0	4.8238684082449056e+17
19230.0	4.8229681302514336e+17
19231.0	4.822068988914345e+17
19232.0	4.8211678475933005e+17
19233.0	4.820266344863061e+17
19234.0	4.819366555506004e+17
19235.0	4.818470167729492e+17
19236.0	4.8175705440474445e+17
19237.0	4.8166688085333325e+17
19238.0	4.815764856329557e+17
19239.0	4.814872502075392e+17
19240.0	4.8139707924261536e+17
19241.0	4.8130729457309e+17
19242.0	4.812173667379882e+17
19243.0	4.811255613227007e+17
19244.0	4.810375823709525e+17
19245.0	4.809476567029077e+17
19246.0	4.8085751544763725e+17
19247.0	4.8076779215476045e+17
19248.0	4.806778790696277e+17
19249.0	4.805879328494934e+17
19250.0	4.8049792091859616e+17
19251.0	4.804063608001876e+17
19252.0	4.8031478579199994e+17
19253.0	4.8022803234597536e+17
19254.0	4.801382660614826e+17
19255.0	4.8004612139690656e+17
19256.0	4.799577925003945e+17
19257.0	4.7986847514623994e+17
19258.0	4.797785204675924e+17
19259.0	4.7968770658577056e+17
19260.0	4.795967056379903e+17
19261.0	4.7950860882629965e+17
19262.0	4.794186317081257e+17
19263.0	4.7932802516473165e+17
19264.0	4.792307234635776e+17
19265.0	4.791455417630719e+17
19266.0	4.7905420778755405e+17
19267.0	4.7896863384971936e+17
19268.0	4.7887860584065696e+17
19269.0	4.787885627321001e+17
19270.0	4.7869845901585056e+17
19271.0	4.78603388195089e+17
19272.0	4.785178470427306e+17
19273.0	4.7841860792265376e+17
19274.0	4.783301878000298e+17
19275.0	4.7824800181125114e+17
19276.0	4.78157860905506e+17
19277.0	4.7806770322254496e+17
19278.0	4.779775063228415e+17
19279.0	4.778872641246549e+17
19280.0	4.777959578315435e+17
19281.0	4.777067560304639e+17
19282.0	4.776165287220564e+17
19283.0	4.775255221818709e+17
19284.0	4.774357765892778e+17
19285.0	4.7734335125585914e+17
19286.0	4.7725513441716896e+17
19287.0	4.7716471857479674e+17
19288.0	4.770485637567827e+17
19289.0	4.769291753401001e+17
19290.0	4.768932848205823e+17
19291.0	4.767994116134228e+17
19292.0	4.7671215722769056e+17
19293.0	4.766214417022976e+17
19294.0	4.7653088220501325e+17
19295.0	4.764401750682282e+17
19296.0	4.763490301160106e+17
19297.0	4.7625849019214496e+17
19298.0	4.7616778480298656e+17
19299.0	4.7607641937018874e+17
19300.0	4.759858730849621e+17
19301.0	4.758948375341738e+17
19302.0	4.7580359289733114e+17
19303.0	4.757117361018196e+17
19304.0	4.75621073354752e+17
19305.0	4.755303027441664e+17
19306.0	4.754390351085566e+17
19307.0	4.753473302866602e+17
19308.0	4.752561988261204e+17
19309.0	4.751628347375615e+17
19310.0	4.7507053264677536e+17
19311.0	4.7489395021141325e+17
19312.0	4.7475313491312634e+17
19313.0	4.746613880782847e+17
19314.0	4.7440620725207046e+17
19315.0	4.7432513806663686e+17
19316.0	4.7438514352728736e+17
19317.0	4.7429382919509325e+17
19318.0	4.742016713883647e+17
19319.0	4.7410943801425914e+17
19320.0	4.739808538656769e+17
19321.0	4.736917274886143e+17
19322.0	4.735980291839317e+17
19323.0	4.7350533513543674e+17
19324.0	4.734128292014762e+17
19325.0	4.7331778969818445e+17
19326.0	4.732259605151743e+17
19327.0	4.731320645888682e+17
19328.0	4.7303770973579936e+17
19329.0	4.7294452194781856e+17
19330.0	4.728498227423913e+17
19331.0	4.727553984735914e+17
19332.0	4.7266141894082554e+17
19333.0	4.7256677754688845e+17
19334.0	4.724717727165098e+17
19335.0	4.723751911074474e+17
19336.0	4.722812724619945e+17
19337.0	4.7218569489940474e+17
19338.0	4.720870581512874e+17
19339.0	4.7199391740941645e+17
19340.0	4.718188999387819e+17
19341.0	4.7171987647583565e+17
19342.0	4.7161945274449914e+17
19343.0	4.715277358290261e+17
19344.0	4.714298936918015e+17
19345.0	4.7130394510404243e+17
19346.0	4.712209509427881e+17
19347.0	4.7113496470487034e+17
19348.0	4.710380281877844e+17
19349.0	4.7079166071275514e+17
19350.0	4.705634010267647e+17
19351.0	4.704622425931776e+17
19352.0	4.7036006466409805e+17
19353.0	4.7025953376829434e+17
19354.0	4.7015734381554336e+17
19355.0	4.70053410640145e+17
19356.0	4.6995125892546554e+17
19357.0	4.6984743179605325e+17
19358.0	4.697429068043605e+17
19359.0	4.696371226127019e+17
19360.0	4.6953119539527674e+17
19361.0	4.694253318613674e+17
19362.0	4.693187857743871e+17
19363.0	4.6911891285824845e+17
19364.0	4.687781048265385e+17
19365.0	4.6866669439549434e+17
19366.0	4.6855432074253645e+17
19367.0	4.6844097848497485e+17
19368.0	4.6832662519043405e+17
19369.0	4.68210614936098e+17
19370.0	4.680937824583679e+17
19371.0	4.679768328197461e+17
19372.0	4.6778758826994336e+17
19373.0	4.675490953909589e+17
19374.0	4.674257339198121e+17
19375.0	4.673007830171647e+17
19376.0	4.6717433992096416e+17
19377.0	4.6704610005483514e+17
19378.0	4.669161721910613e+17
19379.0	4.667843442376704e+17
19380.0	4.6665053349696845e+17
19381.0	4.665146411231914e+17
19382.0	4.6637563154268154e+17
19383.0	4.662346105836884e+17
19384.0	4.660931280415402e+17
19385.0	4.6594784182490445e+17
19386.0	4.6579976751458976e+17
19387.0	4.656487561428991e+17
19388.0	4.654947009647957e+17
19389.0	4.6533743518679034e+17
19390.0	4.65176753148177e+17
19391.0	4.649366240712019e+17
19392.0	4.6484233499880096e+17
19393.0	4.6467242304471034e+17
19394.0	4.6449598461378554e+17
19395.0	4.6431498264029856e+17
19396.0	4.641295336559957e+17
19397.0	4.639391371405993e+17
19398.0	4.637436667756544e+17
19399.0	4.6353150706537805e+17
19400.0	4.6333406195220474e+17
19401.0	4.6312109665594016e+17
19402.0	4.629005908399445e+17
19403.0	4.626727995179008e+17
19404.0	4.6243757183467514e+17
19405.0	4.6219425522647034e+17
19406.0	4.619424725554517e+17
19407.0	4.616815105802239e+17
19408.0	4.6140017624132256e+17
19409.0	4.611322847865513e+17
19410.0	4.608436256549546e+17
19411.0	4.6054394808674976e+17
19412.0	4.602328853599573e+17
19413.0	4.5990970200337056e+17
19414.0	4.595741204938751e+17
19415.0	4.5922651936740685e+17
19416.0	4.5886305125881165e+17
19417.0	4.5848948116903245e+17
19418.0	4.5810409278887245e+17
19419.0	4.5770448194327885e+17
19420.0	4.572906985444692e+17
19421.0	4.5686268638877005e+17
19422.0	4.564200369509717e+17
19423.0	4.5596275442537805e+17
19424.0	4.5547788141854714e+17
19425.0	4.550021468913664e+17
19426.0	4.5451509214740474e+17
19427.0	4.5401599066330445e+17
19428.0	4.535058896169642e+17
19429.0	4.529849758646272e+17
19430.0	4.524469109740886e+17
19431.0	4.5189108761012896e+17
19432.0	4.513616900390911e+17
19433.0	4.507783618975062e+17
19434.0	4.5022659365655885e+17
19435.0	4.496386925352275e+17
19436.0	4.48961159696657e+17
19437.0	4.4824267087762765e+17
19438.0	4.4720100967710726e+17
19439.0	4.460807269471572e+17
19440.0	4.439702855745541e+17
19441.0	4.398323281341102e+17
19442.0	4.3661180849356806e+17
19443.0	4.340825296557397e+17
19444.0	4.3116851024800403e+17
19445.0	4.2809653356134406e+17
19446.0	4.24465047416559e+17
19447.0	4.1558890812975795e+17
19448.0	4.0482100016578586e+17
19449.0	3.915634662440999e+17
19450.0	3.45556748704155e+17
19451.0	3.2448603191159315e+17
19452.0	3.73948780869494e+17
19453.0	3.997963947518644e+17
19454.0	4.0923959820724845e+17
19455.0	4.2085072653079904e+17
19456.0	4.257384918679554e+17
19457.0	4.287641486185811e+17
19458.0	4.311686323022512e+17
19459.0	4.34169633885389e+17
19460.0	4.3649784946360275e+17
19461.0	4.407198035738634e+17
19462.0	4.434721276690424e+17
19463.0	4.448986691796994e+17
19464.0	4.457492487252651e+17
19465.0	4.463969871156565e+17
19466.0	4.469003799319893e+17
19467.0	4.4738090358538234e+17
19468.0	4.4777430567266976e+17
19469.0	4.481773206852948e+17
19470.0	4.4857594684811936e+17
19471.0	4.4895435898224634e+17
19472.0	4.493317983174655e+17
19473.0	4.496921654373034e+17
19474.0	4.500408075900245e+17
19475.0	4.5036570739561805e+17
19476.0	4.507020433904981e+17
19477.0	4.510149212722517e+17
19478.0	4.5132276850578765e+17
19479.0	4.516285872340991e+17
19480.0	4.519079755557546e+17
19481.0	4.521719175839744e+17
19482.0	4.524223508075861e+17
19483.0	4.5265830319663776e+17
19484.0	4.528795452527955e+17
19485.0	4.5308809932963834e+17
19486.0	4.53284130263313e+17
19487.0	4.5346818652897274e+17
19488.0	4.536379940448937e+17
19489.0	4.537928515933525e+17
19490.0	4.53919268545058e+17
19491.0	4.540732065622697e+17
19492.0	4.5419532721848314e+17
19493.0	4.5430702251267405e+17
19494.0	4.544097131255125e+17
19495.0	4.545029239821653e+17
19496.0	4.54580527693824e+17
19497.0	4.5466195332519245e+17
19498.0	4.5471760432933536e+17
19499.0	4.5466865407535763e+17
19500.0	4.5484119452986016e+17
19501.0	4.5488657564084896e+17
19502.0	4.5492521685483514e+17
19503.0	4.5495783539780256e+17
19504.0	4.54984544166434e+17
19505.0	4.550058758373375e+17
19506.0	4.5502227444749645e+17
19507.0	4.550336954673834e+17
19508.0	4.5504098188219725e+17
19509.0	4.550437088788479e+17
19510.0	4.5503952030706336e+17
19511.0	4.547739970262355e+17
19512.0	4.550076448549546e+17
19513.0	4.549781051408383e+17
19514.0	4.5497420800327674e+17
19515.0	4.5497494871736314e+17
19516.0	4.5496006460047354e+17
19517.0	4.5493515896313165e+17
19518.0	4.549093427423915e+17
19519.0	4.548800100171776e+17
19520.0	4.548476470471338e+17
19521.0	4.548145482563583e+17
19522.0	4.5477862397269325e+17
19523.0	4.5474061784623776e+17
19524.0	4.547005518271828e+17
19525.0	4.546591824281598e+17
19526.0	4.5461607323183776e+17
19527.0	4.545712028472661e+17
19528.0	4.545248088817664e+17
19529.0	4.5447695949277856e+17
19530.0	4.544277247251796e+17
19531.0	4.5437718531932154e+17
19532.0	4.5448217168445446e+17
19533.0	4.5444628661753165e+17
19534.0	4.543908737100458e+17
19535.0	4.5433443242912416e+17
19536.0	4.5427691041587194e+17
19537.0	4.542186724349268e+17
19538.0	4.54156977508625e+17
19539.0	4.5409151805467296e+17
19540.0	4.540384651422378e+17
19541.0	4.5397685934489594e+17
19542.0	4.539970733036884e+17
19543.0	4.541501693143721e+17
19544.0	4.540852819634857e+17
19545.0	4.540118131365205e+17
19546.0	4.5393998470184954e+17
19547.0	4.538858416898047e+17
19548.0	4.538182384571732e+17
19549.0	4.537490757823145e+17
19550.0	4.5368176936659616e+17
19551.0	4.536128691153578e+17
19552.0	4.535434898746025e+17
19553.0	4.5347334125868365e+17
19554.0	4.5340297614677325e+17
19555.0	4.533330088645972e+17
19556.0	4.532621044350975e+17
19557.0	4.5319079189981856e+17
19558.0	4.5311922812573005e+17
19559.0	4.530473397125118e+17
19560.0	4.5297514916959565e+17
19561.0	4.529215702215339e+17
19562.0	4.530818040288597e+17
19563.0	4.530079765189972e+17
19564.0	4.529339095143764e+17
19565.0	4.5285961699601056e+17
19566.0	4.5278480620148045e+17
19567.0	4.5271088397025274e+17
19568.0	4.5263863939071994e+17
19569.0	4.525633642168319e+17
19570.0	4.5248820040171514e+17
19571.0	4.5241270418800634e+17
19572.0	4.5233701783251616e+17
19573.0	4.5231819847980365e+17
19574.0	4.522566330875904e+17
19575.0	4.5218121062372685e+17
19576.0	4.5210493839387296e+17
19577.0	4.520283484454911e+17
19578.0	4.5195132550512634e+17
19579.0	4.5187527711129594e+17
19580.0	4.5179839251305805e+17
19581.0	4.517212708667391e+17
19582.0	4.5164445561432736e+17
19583.0	4.5156727986148685e+17
19584.0	4.5148988628445856e+17
19585.0	4.514115984818175e+17
19586.0	4.5133321616752634e+17
19587.0	4.5125719993002656e+17
19588.0	4.511729234302292e+17
19589.0	4.511020029225642e+17
19590.0	4.5102275112905376e+17
19591.0	4.509462208096938e+17
19592.0	4.508681499923797e+17
19593.0	4.5079009609209165e+17
19594.0	4.5070878531474765e+17
19595.0	4.506332269554345e+17
19596.0	4.505536771566251e+17
19597.0	4.5047684631538336e+17
19598.0	4.503914581153109e+17
19599.0	4.503199408280917e+17
19600.0	4.502413685118292e+17
19601.0	4.501621778852523e+17
19602.0	4.50083211444224e+17
19603.0	4.499987129259349e+17
19604.0	4.4992608435787085e+17
19605.0	4.498437789712383e+17
19606.0	4.497686917720746e+17
19607.0	4.496898027159551e+17
19608.0	4.496107514800811e+17
19609.0	4.4953143264761165e+17
19610.0	4.494524244033534e+17
19611.0	4.493731055708843e+17
19612.0	4.4929447607227725e+17
19613.0	4.4921529774899194e+17
19614.0	4.4913608265564154e+17
19615.0	4.490568040185855e+17
19616.0	4.489766046618964e+17
19617.0	4.48897627525393e+17
19618.0	4.488100447256574e+17
19619.0	4.487288894870868e+17
19620.0	4.4864999113359354e+17
19621.0	4.4858021539130016e+17
19622.0	4.485013026373632e+17
19623.0	4.484218409189375e+17
19624.0	4.4834235592212474e+17
19625.0	4.482628472274943e+17
19626.0	4.482701644005374e+17
19627.0	4.483079693402111e+17
19628.0	4.4822701291165005e+17
19629.0	4.4814591359713274e+17
19630.0	4.48064689082641e+17
19631.0	4.4793525831379616e+17
19632.0	4.4790908823360845e+17
19633.0	4.4782916227563514e+17
19634.0	4.477495357210623e+17
19635.0	4.476696061979306e+17
19636.0	4.475893090440531e+17
19637.0	4.4750516878923085e+17
19638.0	4.474299454849024e+17
19639.0	4.473503508769451e+17
19640.0	4.4726854845726714e+17
19641.0	4.4717213860495354e+17
19642.0	4.4711074070527994e+17
19643.0	4.4709045117911046e+17
19644.0	4.470684709989034e+17
19645.0	4.469849066919253e+17
19646.0	4.4690845180013216e+17
19647.0	4.4682914135627085e+17
19648.0	4.467492466458623e+17
19649.0	4.466692692377599e+17
19650.0	4.465893622939646e+17
19651.0	4.465094188597247e+17
19652.0	4.464294729089023e+17
19653.0	4.463494929842176e+17
19654.0	4.462695772323839e+17
