# Flux units: erg / (cm m2 s)
# Wavelength units: Angstrom
wave	flux
19000.0	6.2716856252061e+17
19001.0	6.270444958471508e+17
19002.0	6.269389879902207e+17
19003.0	6.268240070879914e+17
19004.0	6.267091507565908e+17
19005.0	6.265937576940884e+17
19006.0	6.264794866079059e+17
19007.0	6.263641519161344e+17
19008.0	6.262446963905876e+17
19009.0	6.261188659423914e+17
19010.0	6.259879554930004e+17
19011.0	6.259010282629802e+17
19012.0	6.257787698937855e+17
19013.0	6.256748774031359e+17
19014.0	6.255554818561363e+17
19015.0	6.254420206201514e+17
19016.0	6.253283541428905e+17
19017.0	6.252162716445353e+17
19018.0	6.251010947984042e+17
19019.0	6.249870713159679e+17
19020.0	6.248712868549972e+17
19021.0	6.247583312423593e+17
19022.0	6.246432232527188e+17
19023.0	6.245254310483284e+17
19024.0	6.2441267410589e+17
19025.0	6.242992220274687e+17
19026.0	6.241829798281215e+17
19027.0	6.240661531525119e+17
19028.0	6.239554974864724e+17
19029.0	6.238398880677887e+17
19030.0	6.237280749136552e+17
19031.0	6.236134293460308e+17
19032.0	6.234981263212544e+17
19033.0	6.233747614247593e+17
19034.0	6.232646446568788e+17
19035.0	6.231258526908415e+17
19036.0	6.226703079353001e+17
19037.0	6.229052926984191e+17
19038.0	6.228066747547647e+17
19039.0	6.226971581218815e+17
19040.0	6.225837191157076e+17
19041.0	6.224690526464682e+17
19042.0	6.223384465637373e+17
19043.0	6.222415477953876e+17
19044.0	6.221262628760234e+17
19045.0	6.220126883938304e+17
19046.0	6.218941155595604e+17
19047.0	6.217791051573929e+17
19048.0	6.216546907062271e+17
19049.0	6.215303576944637e+17
19050.0	6.214333274346836e+17
19051.0	6.212718709877418e+17
19052.0	6.211879621885952e+17
19053.0	6.210974327504896e+17
19054.0	6.209853273931775e+17
19055.0	6.208456800687446e+17
19056.0	6.207544131321855e+17
19057.0	6.206434331765418e+17
19058.0	6.205200133346644e+17
19059.0	6.204119953266004e+17
19060.0	6.203010633258324e+17
19061.0	6.201883154011476e+17
19062.0	6.200740677331625e+17
19063.0	6.199597839941632e+17
19064.0	6.198377373674154e+17
19065.0	6.197169688150015e+17
19066.0	6.196099156366676e+17
19067.0	6.195040173599402e+17
19068.0	6.193915243091283e+17
19069.0	6.192778002300927e+17
19070.0	6.191616656845482e+17
19071.0	6.190497854914559e+17
19072.0	6.189333389595988e+17
19073.0	6.188227849355263e+17
19074.0	6.187093528499539e+17
19075.0	6.185956277922474e+17
19076.0	6.184808984084479e+17
19077.0	6.183665641979904e+17
19078.0	6.182518210428928e+17
19079.0	6.181409131593727e+17
19080.0	6.180263824457727e+17
19081.0	6.179095245225983e+17
19082.0	6.177981259055101e+17
19083.0	6.176772114612223e+17
19084.0	6.175524781031424e+17
19085.0	6.174582652971689e+17
19086.0	6.173065349518676e+17
19087.0	6.172201969516543e+17
19088.0	6.171050005321044e+17
19089.0	6.169863164788736e+17
19090.0	6.16888544596241e+17
19091.0	6.167763306763604e+17
19092.0	6.166535331992916e+17
19093.0	6.165526666892627e+17
19094.0	6.164397913276416e+17
19095.0	6.163266285862912e+17
19096.0	6.162125611335679e+17
19097.0	6.160998599753727e+17
19098.0	6.159832809035092e+17
19099.0	6.15868888322321e+17
19100.0	6.157590494969855e+17
19101.0	6.156461736460287e+17
19102.0	6.155261746085887e+17
19103.0	6.154207992217599e+17
19104.0	6.153081546167638e+17
19105.0	6.15186380689681e+17
19106.0	6.150808150212608e+17
19107.0	6.149645368208042e+17
19108.0	6.14849548788258e+17
19109.0	6.147274147102719e+17
19110.0	6.146232946786304e+17
19111.0	6.145133625999359e+17
19112.0	6.144008747920042e+17
19113.0	6.142908547727359e+17
19114.0	6.141762117915988e+17
19115.0	6.14060690313489e+17
19116.0	6.139495341271721e+17
19117.0	6.138356887628457e+17
19118.0	6.137046197687635e+17
19119.0	6.131102706040824e+17
19120.0	6.134884628867753e+17
19121.0	6.133840268842324e+17
19122.0	6.132751402358099e+17
19123.0	6.131628029334868e+17
19124.0	6.130471022886912e+17
19125.0	6.129354213250388e+17
19126.0	6.128124134337193e+17
19127.0	6.1258969134749e+17
19128.0	6.125843053019135e+17
19129.0	6.124773097253545e+17
19130.0	6.123730867934548e+17
19131.0	6.122623082343082e+17
19132.0	6.121497804406783e+17
19133.0	6.120335494261418e+17
19134.0	6.119246473286996e+17
19135.0	6.118124902416383e+17
19136.0	6.116995170129238e+17
19137.0	6.115782782790314e+17
19138.0	6.11473285133107e+17
19139.0	6.113632897903274e+17
19140.0	6.112513871577087e+17
19141.0	6.111391240246612e+17
19142.0	6.110243805899433e+17
19143.0	6.109108104418644e+17
19144.0	6.107978576953343e+17
19145.0	6.106897692229631e+17
19146.0	6.105196775429462e+17
19147.0	6.104598715214505e+17
19148.0	6.10350060937762e+17
19149.0	6.102369690801492e+17
19150.0	6.101287413568851e+17
19151.0	6.100161815467347e+17
19152.0	6.099038638877353e+17
19153.0	6.097833312649215e+17
19154.0	6.09671995981824e+17
19155.0	6.095664648465066e+17
19156.0	6.094547307550035e+17
19157.0	6.093383694374228e+17
19158.0	6.092191081081514e+17
19159.0	6.091156777598976e+17
19160.0	6.090049256248662e+17
19161.0	6.088908899090431e+17
19162.0	6.087589568883369e+17
19163.0	6.086617944380755e+17
19164.0	6.085580432954707e+17
19165.0	6.084396697605459e+17
19166.0	6.083266001327443e+17
19167.0	6.082215435829247e+17
19168.0	6.081119376812714e+17
19169.0	6.080006521006761e+17
19170.0	6.078892978034006e+17
19171.0	6.077770352295936e+17
19172.0	6.076659321711274e+17
19173.0	6.075543121646932e+17
19174.0	6.074392540872704e+17
19175.0	6.073305854727507e+17
19176.0	6.072191557479082e+17
19177.0	6.070938525237247e+17
19178.0	6.069951372023124e+17
19179.0	6.068830454065834e+17
19180.0	6.067716605607933e+17
19181.0	6.066520545296383e+17
19182.0	6.065473405146452e+17
19183.0	6.064384969976489e+17
19184.0	6.063268500777641e+17
19185.0	6.062146371365545e+17
19186.0	6.061038609541802e+17
19187.0	6.059863424980308e+17
19188.0	6.058805494284287e+17
19189.0	6.057693224282793e+17
19190.0	6.056575058487977e+17
19191.0	6.055429466139306e+17
19192.0	6.05433994744081e+17
19193.0	6.053204385770153e+17
19194.0	6.052065089071786e+17
19195.0	6.050955567737514e+17
19196.0	6.049788569758378e+17
19197.0	6.048588549324799e+17
19198.0	6.04716093547042e+17
19199.0	6.04454079500561e+17
19200.0	6.043645260769962e+17
19201.0	6.043867470801578e+17
19202.0	6.043040868554068e+17
19203.0	6.042009276689066e+17
19204.0	6.040930786213887e+17
19205.0	6.039839255647572e+17
19206.0	6.038744563974144e+17
19207.0	6.037515323222697e+17
19208.0	6.036387407768234e+17
19209.0	6.035420312414889e+17
19210.0	6.034314469485225e+17
19211.0	6.033218286037674e+17
19212.0	6.032104722093395e+17
19213.0	6.030900500365312e+17
19214.0	6.029803510912339e+17
19215.0	6.028758762913791e+17
19216.0	6.027651830164137e+17
19217.0	6.026485573877759e+17
19218.0	6.024939129798655e+17
19219.0	6.024109785874431e+17
19220.0	6.023175673129641e+17
19221.0	6.021926374517418e+17
19222.0	6.020948040526505e+17
19223.0	6.019872841880916e+17
19224.0	6.018733393488553e+17
19225.0	6.017595383742463e+17
19226.0	6.016548131045375e+17
19227.0	6.015445930868736e+17
19228.0	6.014363605401599e+17
19229.0	6.013254105737897e+17
19230.0	6.012144669687808e+17
19231.0	6.011024512996692e+17
19232.0	6.00992140754944e+17
19233.0	6.008759321100287e+17
19234.0	6.007699294650367e+17
19235.0	6.006574947849556e+17
19236.0	6.005493443766953e+17
19237.0	6.004375868669951e+17
19238.0	6.003199826373289e+17
19239.0	6.002171747936938e+17
19240.0	6.001063929490089e+17
19241.0	5.999937474352468e+17
19242.0	5.998834417838761e+17
19243.0	5.997593224019967e+17
19244.0	5.996635347047763e+17
19245.0	5.995520910688255e+17
19246.0	5.994409745885866e+17
19247.0	5.993304753001812e+17
19248.0	5.992204101222399e+17
19249.0	5.991095327173289e+17
19250.0	5.989955857809407e+17
19251.0	5.988783609260714e+17
19252.0	5.987489964971348e+17
19253.0	5.986634079491412e+17
19254.0	5.985539706585087e+17
19255.0	5.984246649498281e+17
19256.0	5.983309195990356e+17
19257.0	5.982216777629695e+17
19258.0	5.981107875654314e+17
19259.0	5.979924647116799e+17
19260.0	5.978789807565482e+17
19261.0	5.977764317713747e+17
19262.0	5.976609583180458e+17
19263.0	5.975450252389033e+17
19264.0	5.974051661720233e+17
19265.0	5.973159800296787e+17
19266.0	5.97203462791714e+17
19267.0	5.971126871479636e+17
19268.0	5.970015545895593e+17
19269.0	5.968907326193663e+17
19270.0	5.967765333955923e+17
19271.0	5.966463979836756e+17
19272.0	5.965544909264212e+17
19273.0	5.96423809835554e+17
19274.0	5.962971551367167e+17
19275.0	5.96225757946402e+17
19276.0	5.961133708716713e+17
19277.0	5.960029504361812e+17
19278.0	5.958922232572585e+17
19279.0	5.957787181907967e+17
19280.0	5.956648090031444e+17
19281.0	5.955573891727359e+17
19282.0	5.95447966142737e+17
19283.0	5.953353643895466e+17
19284.0	5.952209069364563e+17
19285.0	5.951052348129279e+17
19286.0	5.949967829041151e+17
19287.0	5.948851638763519e+17
19288.0	5.946414607630333e+17
19289.0	5.944310154046121e+17
19290.0	5.945502914838527e+17
19291.0	5.944219018810708e+17
19292.0	5.943355090053802e+17
19293.0	5.942244865474559e+17
19294.0	5.941124593440084e+17
19295.0	5.940021964046335e+17
19296.0	5.938859094660436e+17
19297.0	5.937760161147562e+17
19298.0	5.936620453407402e+17
19299.0	5.93548150972962e+17
19300.0	5.934404589322239e+17
19301.0	5.933288477338282e+17
19302.0	5.932155832806056e+17
19303.0	5.930985733139112e+17
19304.0	5.929911305546409e+17
19305.0	5.928788439334912e+17
19306.0	5.927671845705044e+17
19307.0	5.926512698763946e+17
19308.0	5.925395234116948e+17
19309.0	5.924228742250496e+17
19310.0	5.923064777452202e+17
19311.0	5.921988840609107e+17
19312.0	5.920892219555839e+17
19313.0	5.919725381659306e+17
19314.0	5.912371749628582e+17
19315.0	5.911752634706609e+17
19316.0	5.91626070200593e+17
19317.0	5.915237263867904e+17
19318.0	5.914113797870932e+17
19319.0	5.912967375749119e+17
19320.0	5.911816956455593e+17
19321.0	5.910654304474452e+17
19322.0	5.909512129085439e+17
19323.0	5.908389349556223e+17
19324.0	5.907259919958015e+17
19325.0	5.906105690838356e+17
19326.0	5.904985037122218e+17
19327.0	5.903843449634815e+17
19328.0	5.902633010550099e+17
19329.0	5.90156349239023e+17
19330.0	5.90039408058914e+17
19331.0	5.899216227751252e+17
19332.0	5.898111073386495e+17
19333.0	5.896891370482346e+17
19334.0	5.895737351776938e+17
19335.0	5.894428729627988e+17
19336.0	5.893413159305213e+17
19337.0	5.892246080236202e+17
19338.0	5.890890925080575e+17
19339.0	5.889903776060756e+17
19340.0	5.888615863287807e+17
19341.0	5.88741427138833e+17
19342.0	5.886121879098707e+17
19343.0	5.885136441354921e+17
19344.0	5.883825089413119e+17
19345.0	5.881356745004372e+17
19346.0	5.88061707739682e+17
19347.0	5.880217068721492e+17
19348.0	5.8791807694493e+17
19349.0	5.877961482480297e+17
19350.0	5.876743432830975e+17
19351.0	5.875527081874772e+17
19352.0	5.874212607273641e+17
19353.0	5.873131987490131e+17
19354.0	5.871914197188607e+17
19355.0	5.870596643269292e+17
19356.0	5.869453984836266e+17
19357.0	5.868217380285097e+17
19358.0	5.866970854107818e+17
19359.0	5.865679374079315e+17
19360.0	5.864373230764032e+17
19361.0	5.863184290283519e+17
19362.0	5.8619389818525e+17
19363.0	5.86066571628817e+17
19364.0	5.85938386358545e+17
19365.0	5.858094258410836e+17
19366.0	5.856796363194368e+17
19367.0	5.855477240605354e+17
19368.0	5.85412218331682e+17
19369.0	5.852763290337279e+17
19370.0	5.851435283513344e+17
19371.0	5.850061743325181e+17
19372.0	5.848756855504895e+17
19373.0	5.847369948069885e+17
19374.0	5.845995859826004e+17
19375.0	5.844601401944746e+17
19376.0	5.843193318866943e+17
19377.0	5.841730637135871e+17
19378.0	5.840242732957695e+17
19379.0	5.838792468463613e+17
19380.0	5.837325087713961e+17
19381.0	5.835834111907156e+17
19382.0	5.834261970725546e+17
19383.0	5.832750815423144e+17
19384.0	5.831242602425001e+17
19385.0	5.829600408677033e+17
19386.0	5.828004717876563e+17
19387.0	5.826404574822399e+17
19388.0	5.824777179277994e+17
19389.0	5.823106797010944e+17
19390.0	5.821182648866132e+17
19391.0	5.816334127813969e+17
19392.0	5.817332083458048e+17
19393.0	5.81598120579345e+17
19394.0	5.814130854330367e+17
19395.0	5.812088927333033e+17
19396.0	5.810210066486612e+17
19397.0	5.808267077528234e+17
19398.0	5.806110434918399e+17
19399.0	5.803363244791124e+17
19400.0	5.801601499398143e+17
19401.0	5.799638606370131e+17
19402.0	5.797114536438441e+17
19403.0	5.794863475152212e+17
19404.0	5.792605468098559e+17
19405.0	5.790021274217129e+17
19406.0	5.78753945141248e+17
19407.0	5.784967181937322e+17
19408.0	5.781896702547284e+17
19409.0	5.779633028289876e+17
19410.0	5.776936945756842e+17
19411.0	5.773959312179199e+17
19412.0	5.770817666635092e+17
19413.0	5.767643827011581e+17
19414.0	5.7643260200004256e+17
19415.0	5.7607891619676154e+17
19416.0	5.756834821789011e+17
19417.0	5.7531929803270816e+17
19418.0	5.749238420646571e+17
19419.0	5.744818024087552e+17
19420.0	5.7405097727317325e+17
19421.0	5.7360184015585274e+17
19422.0	5.730747855929343e+17
19423.0	5.725575482179583e+17
19424.0	5.720083671635285e+17
19425.0	5.713670685676885e+17
19426.0	5.707489428723028e+17
19427.0	5.700723016029526e+17
19428.0	5.6930146087949645e+17
19429.0	5.6852534120502605e+17
19430.0	5.676921746620416e+17
19431.0	5.66769879228962e+17
19432.0	5.658513022560938e+17
19433.0	5.64810180792593e+17
19434.0	5.636594206419625e+17
19435.0	5.623744836577961e+17
19436.0	5.6100016256013645e+17
19437.0	5.594858345463807e+17
19438.0	5.572429735439017e+17
19439.0	5.558431546430805e+17
19440.0	5.5385621546052256e+17
19441.0	5.5143200351846374e+17
19442.0	5.48680683749376e+17
19443.0	5.454902843146239e+17
19444.0	5.417590593683453e+17
19445.0	5.372536624425643e+17
19446.0	5.31736131936802e+17
19447.0	5.2479120868638675e+17
19448.0	5.155354641956868e+17
19449.0	5.020856514248704e+17
19450.0	4.776179137511415e+17
19451.0	4.5871358332109024e+17
19452.0	4.92254959291597e+17
19453.0	5.093953500086277e+17
19454.0	5.20106399078809e+17
19455.0	5.278443255453013e+17
19456.0	5.3375581989546675e+17
19457.0	5.38518632023108e+17
19458.0	5.406447151437166e+17
19459.0	5.455147761139715e+17
19460.0	5.483763176483497e+17
19461.0	5.507597512387241e+17
19462.0	5.527944611670699e+17
19463.0	5.545551091903145e+17
19464.0	5.5611040765487776e+17
19465.0	5.575276235500202e+17
19466.0	5.587315493000532e+17
19467.0	5.598429114444458e+17
19468.0	5.608480138330112e+17
19469.0	5.617004897632255e+17
19470.0	5.6251848348139514e+17
19471.0	5.632258513829888e+17
19472.0	5.6387729495162874e+17
19473.0	5.6444485432770554e+17
19474.0	5.6500198309888006e+17
19475.0	5.654644286728873e+17
19476.0	5.659450162894164e+17
19477.0	5.663705060605951e+17
19478.0	5.6676240204322125e+17
19479.0	5.6706823069805216e+17
19480.0	5.673933305020416e+17
19481.0	5.6766223397246285e+17
19482.0	5.678853644440916e+17
19483.0	5.681187413906772e+17
19484.0	5.683242358625621e+17
19485.0	5.684948089088682e+17
19486.0	5.686527510183936e+17
19487.0	5.688242107405652e+17
19488.0	5.689502125260799e+17
19489.0	5.690335764851369e+17
19490.0	5.690674624069631e+17
19491.0	5.692569078639273e+17
19492.0	5.6933779152131405e+17
19493.0	5.694010724537683e+17
19494.0	5.694531290791936e+17
19495.0	5.6949430903548576e+17
19496.0	5.695024648596137e+17
19497.0	5.6956150786730656e+17
19498.0	5.6948520445979296e+17
19499.0	5.6911136334807014e+17
19500.0	5.6962874885188256e+17
19501.0	5.696670278178132e+17
19502.0	5.6966888764211194e+17
19503.0	5.6966918942228474e+17
19504.0	5.696908670533631e+17
19505.0	5.696767872641707e+17
19506.0	5.6965885983020365e+17
19507.0	5.6963536340910074e+17
19508.0	5.6962841414642336e+17
19509.0	5.695924024115199e+17
19510.0	5.695277312070996e+17
19511.0	5.6850179815724294e+17
19512.0	5.693500694375081e+17
19513.0	5.692707395600382e+17
19514.0	5.6926674937883296e+17
19515.0	5.693234087635626e+17
19516.0	5.693014285134506e+17
19517.0	5.692500704493567e+17
19518.0	5.6921043001234765e+17
19519.0	5.691526798289577e+17
19520.0	5.6908759555549856e+17
19521.0	5.6903421835345914e+17
19522.0	5.68967332766242e+17
19523.0	5.689055607346516e+17
19524.0	5.688367756869632e+17
19525.0	5.6877783991364256e+17
19526.0	5.687124593126058e+17
19527.0	5.6864185610403834e+17
19528.0	5.685695340696916e+17
19529.0	5.6849638617688723e+17
19530.0	5.684244326121471e+17
19531.0	5.683492389475667e+17
19532.0	5.682729703527764e+17
19533.0	5.6819567771866445e+17
19534.0	5.6811722766636365e+17
19535.0	5.680377643401215e+17
19536.0	5.679586076874068e+17
19537.0	5.678800451578537e+17
19538.0	5.6777694483141965e+17
19539.0	5.676809532211199e+17
19540.0	5.6762963283585683e+17
19541.0	5.675482539709781e+17
19542.0	5.6746429078568954e+17
19543.0	5.67373869420817e+17
19544.0	5.6729104799498234e+17
19545.0	5.671607127244798e+17
19546.0	5.670586260914175e+17
19547.0	5.670315782133077e+17
19548.0	5.669472420145834e+17
19549.0	5.668507807121406e+17
19550.0	5.667717241634815e+17
19551.0	5.666830747522389e+17
19552.0	5.6659363723127456e+17
19553.0	5.66502995595537e+17
19554.0	5.664137301109417e+17
19555.0	5.6632390384790176e+17
19556.0	5.6623489966844576e+17
19557.0	5.6614403985899514e+17
19558.0	5.660524156376405e+17
19559.0	5.6596085614837754e+17
19560.0	5.658664782266367e+17
19561.0	5.657776474816511e+17
19562.0	5.65685656748032e+17
19563.0	5.655948884443135e+17
19564.0	5.6550175329484794e+17
19565.0	5.654124499916117e+17
19566.0	5.6531855735084365e+17
19567.0	5.6522655990633805e+17
19568.0	5.651304133864105e+17
19569.0	5.650366824360618e+17
19570.0	5.649441340697258e+17
19571.0	5.64851863785745e+17
19572.0	5.6475634885809485e+17
19573.0	5.6466317644922874e+17
19574.0	5.645604256481279e+17
19575.0	5.644744606613503e+17
19576.0	5.64378098414387e+17
19577.0	5.6428002188547405e+17
19578.0	5.641848015377747e+17
19579.0	5.640886754301268e+17
19580.0	5.63992882979362e+17
19581.0	5.6389838419176096e+17
19582.0	5.6380313965690874e+17
19583.0	5.6370673274060794e+17
19584.0	5.636100497691988e+17
19585.0	5.6350251739163296e+17
19586.0	5.6340314950642336e+17
19587.0	5.633190867763199e+17
19588.0	5.631940163360083e+17
19589.0	5.631236033391274e+17
19590.0	5.6302278485387936e+17
19591.0	5.6293413068909216e+17
19592.0	5.628377780191231e+17
19593.0	5.627381217755134e+17
19594.0	5.626190387740671e+17
19595.0	5.6254341470399136e+17
19596.0	5.624438443038036e+17
19597.0	5.623482389889024e+17
19598.0	5.622167380514133e+17
19599.0	5.621533336666111e+17
19600.0	5.6205749368040096e+17
19601.0	5.619538052426411e+17
19602.0	5.618518372384767e+17
19603.0	5.617353340835155e+17
19604.0	5.6165778685515085e+17
19605.0	5.615429330403328e+17
19606.0	5.614684508695209e+17
19607.0	5.6137166982130336e+17
19608.0	5.6127212633456634e+17
19609.0	5.611713088279892e+17
19610.0	5.610740355082922e+17
19611.0	5.6097384938427725e+17
19612.0	5.60880411685683e+17
19613.0	5.6078320058149536e+17
19614.0	5.6068181642444794e+17
19615.0	5.6058633491141965e+17
19616.0	5.6048208597483514e+17
19617.0	5.6038135305338874e+17
19618.0	5.6023903927009254e+17
19619.0	5.6012669350925645e+17
19620.0	5.600434922192894e+17
19621.0	5.599853516860074e+17
19622.0	5.598954847382186e+17
19623.0	5.597970862964736e+17
19624.0	5.59696923730466e+17
19625.0	5.595998263618218e+17
19626.0	5.594999669740885e+17
19627.0	5.593995176574975e+17
19628.0	5.5929438484125005e+17
19629.0	5.591692165338452e+17
19630.0	5.5902581831325005e+17
19631.0	5.588194984722432e+17
19632.0	5.588827340363092e+17
19633.0	5.587990146099883e+17
19634.0	5.587081654261076e+17
19635.0	5.586069314950485e+17
19636.0	5.5850612999673165e+17
19637.0	5.5837598018437114e+17
19638.0	5.5831450790570656e+17
19639.0	5.582154483717459e+17
19640.0	5.581010573983743e+17
19641.0	5.579379516811948e+17
19642.0	5.5791770836227405e+17
19643.0	5.5781919275963706e+17
19644.0	5.577139376794281e+17
19645.0	5.5760510695505914e+17
19646.0	5.5751719972590925e+17
19647.0	5.574259339777364e+17
19648.0	5.5732736280057165e+17
19649.0	5.572279814935892e+17
19650.0	5.5712968490352634e+17
19651.0	5.5703017972476576e+17
19652.0	5.569311528364715e+17
19653.0	5.5683288274042854e+17
19654.0	5.5673326564365645e+17
19655.0	5.566341094309888e+17
19656.0	5.5653577005902496e+17
19657.0	5.564372996150613e+17
19658.0	5.5633839324310176e+17
19659.0	5.5623940508221434e+17
19660.0	5.5614057987003725e+17
19661.0	5.560416187624107e+17
