# Flux units: erg / (cm m2 s)
# Wavelength units: Angstrom
wave	flux
19000.0	2.7975790048051194e+17
19001.0	2.7970592190409386e+17
19002.0	2.7965703148885322e+17
19003.0	2.7960660679720957e+17
19004.0	2.7955625805742077e+17
19005.0	2.795054742984021e+17
19006.0	2.794534692629162e+17
19007.0	2.7940513634058234e+17
19008.0	2.7935383185872205e+17
19009.0	2.79302576345361e+17
19010.0	2.7924578228852045e+17
19011.0	2.7920321751285757e+17
19012.0	2.7915065435531946e+17
19013.0	2.7910325651810982e+17
19014.0	2.790522092868949e+17
19015.0	2.7900127614074883e+17
19016.0	2.7895080636033702e+17
19017.0	2.7890217882309968e+17
19018.0	2.788517203673087e+17
19019.0	2.7880133705946448e+17
19020.0	2.7875124567517862e+17
19021.0	2.7870132772536317e+17
19022.0	2.7865113815941114e+17
19023.0	2.7860071420177056e+17
19024.0	2.785498367350101e+17
19025.0	2.7850042342987088e+17
19026.0	2.784497871006378e+17
19027.0	2.7839898824212477e+17
19028.0	2.7835021981122554e+17
19029.0	2.7830011004190717e+17
19030.0	2.7824998139822074e+17
19031.0	2.7819989322956797e+17
19032.0	2.7814953358458874e+17
19033.0	2.7809843878297597e+17
19034.0	2.7804969646161914e+17
19035.0	2.7799921189628576e+17
19036.0	2.7783280043840848e+17
19037.0	2.7789957277941754e+17
19038.0	2.778492379856896e+17
19039.0	2.7779939109437434e+17
19040.0	2.7774947485723302e+17
19041.0	2.7769943719499088e+17
19042.0	2.7762522954137594e+17
19043.0	2.775996753248255e+17
19044.0	2.775497077773653e+17
19045.0	2.7749969419741862e+17
19046.0	2.774489620632917e+17
19047.0	2.7739966357722445e+17
19048.0	2.7734257773663565e+17
19049.0	2.7725280232953168e+17
19050.0	2.7724872200574288e+17
19051.0	2.7718600206144848e+17
19052.0	2.7714817101223248e+17
19053.0	2.771006814945279e+17
19054.0	2.770508292205226e+17
19055.0	2.7699059083618982e+17
19056.0	2.7694809687435936e+17
19057.0	2.7690138900015786e+17
19058.0	2.7682690627010554e+17
19059.0	2.7679174311280637e+17
19060.0	2.76751679225856e+17
19061.0	2.7670225777677648e+17
19062.0	2.7665252839587834e+17
19063.0	2.7660273326926506e+17
19064.0	2.7655131641501008e+17
19065.0	2.7650103586761386e+17
19066.0	2.7644342116024317e+17
19067.0	2.7640390581835088e+17
19068.0	2.7635424910376957e+17
19069.0	2.7630456848165546e+17
19070.0	2.7625468516980045e+17
19071.0	2.7620524596483414e+17
19072.0	2.7614576140178765e+17
19073.0	2.7610598492951894e+17
19074.0	2.760563653345279e+17
19075.0	2.7600675769330346e+17
19076.0	2.7595589127154342e+17
19077.0	2.7590719826821117e+17
19078.0	2.7585737122993488e+17
19079.0	2.7580842422654288e+17
19080.0	2.7575876611386026e+17
19081.0	2.757085170237439e+17
19082.0	2.7565915974751574e+17
19083.0	2.7560940184535034e+17
19084.0	2.755581556992682e+17
19085.0	2.7551101920215037e+17
19086.0	2.754461742836394e+17
19087.0	2.7539044012741965e+17
19088.0	2.7535085529989117e+17
19089.0	2.7531006440024742e+17
19090.0	2.7526372485584205e+17
19091.0	2.752115930125653e+17
19092.0	2.7514705176166397e+17
19093.0	2.751156526426794e+17
19094.0	2.7506624989320525e+17
19095.0	2.7501685734987088e+17
19096.0	2.7496720612283728e+17
19097.0	2.7491805789771085e+17
19098.0	2.7485882237146448e+17
19099.0	2.7480794336679254e+17
19100.0	2.747691344505515e+17
19101.0	2.7472033547113808e+17
19102.0	2.7466883357736954e+17
19103.0	2.7462199239420582e+17
19104.0	2.7457271292231674e+17
19105.0	2.7450252725671258e+17
19106.0	2.7447353916347725e+17
19107.0	2.7441947842969594e+17
19108.0	2.7436832340486816e+17
19109.0	2.7432107775098874e+17
19110.0	2.7427707439895882e+17
19111.0	2.7422219553122976e+17
19112.0	2.7417103173331616e+17
19113.0	2.741293020785322e+17
19114.0	2.7407687422225056e+17
19115.0	2.740288069741226e+17
19116.0	2.739812671946751e+17
19117.0	2.7393262829786445e+17
19118.0	2.7388220748595194e+17
19119.0	2.7351882983451258e+17
19120.0	2.7378467149796688e+17
19121.0	2.737357943297365e+17
19122.0	2.7368726172357965e+17
19123.0	2.7363817536443725e+17
19124.0	2.7358876702255786e+17
19125.0	2.7353998918942714e+17
19126.0	2.734909773141333e+17
19127.0	2.7341117127830186e+17
19128.0	2.7339286642687994e+17
19129.0	2.7334297028744534e+17
19130.0	2.7329472901065382e+17
19131.0	2.7324581958123514e+17
19132.0	2.731967446865237e+17
19133.0	2.7314722848112637e+17
19134.0	2.73098903458065e+17
19135.0	2.7304991636411734e+17
19136.0	2.7300098480974506e+17
19137.0	2.7294936086173008e+17
19138.0	2.7290296626708477e+17
19139.0	2.7285421510273702e+17
19140.0	2.7280530724618234e+17
19141.0	2.7275638806500688e+17
19142.0	2.7270718388087462e+17
19143.0	2.7265772062856525e+17
19144.0	2.7260958382489597e+17
19145.0	2.7256092923439776e+17
19146.0	2.7250313833130662e+17
19147.0	2.7246032497322662e+17
19148.0	2.724060449472512e+17
19149.0	2.723562680658602e+17
19150.0	2.7231684041987408e+17
19151.0	2.7226804947954346e+17
19152.0	2.7221921289120422e+17
19153.0	2.7215417150450342e+17
19154.0	2.7211719336700582e+17
19155.0	2.720730037179733e+17
19156.0	2.7202426964541437e+17
19157.0	2.719693398168917e+17
19158.0	2.7191197271326717e+17
19159.0	2.718772237085354e+17
19160.0	2.7182938934913702e+17
19161.0	2.717807162337962e+17
19162.0	2.7172388918176426e+17
19163.0	2.7168328971714557e+17
19164.0	2.7163440601279142e+17
19165.0	2.7156785128625485e+17
19166.0	2.7153503903634765e+17
19167.0	2.7148718943764477e+17
19168.0	2.7144027065985702e+17
19169.0	2.7139168363260586e+17
19170.0	2.7134309950641488e+17
19171.0	2.7129399371366397e+17
19172.0	2.712459555809963e+17
19173.0	2.7119740392570874e+17
19174.0	2.711478424917333e+17
19175.0	2.7110018467758077e+17
19176.0	2.7105180558295034e+17
19177.0	2.710010888978432e+17
19178.0	2.7095354038026237e+17
19179.0	2.7090432703856637e+17
19180.0	2.708578231123967e+17
19181.0	2.708060681622869e+17
19182.0	2.7076019687697066e+17
19183.0	2.7071241026273277e+17
19184.0	2.7066354420940797e+17
19185.0	2.7061545759757648e+17
19186.0	2.705671698688682e+17
19187.0	2.7051824684291405e+17
19188.0	2.7047014439758502e+17
19189.0	2.7042195114557434e+17
19190.0	2.7037361469303462e+17
19191.0	2.7032484357079034e+17
19192.0	2.7027685321823568e+17
19193.0	2.702265660997631e+17
19194.0	2.7017710319697917e+17
19195.0	2.7013185871544317e+17
19196.0	2.700833654658389e+17
19197.0	2.700352846211754e+17
19198.0	2.699870006673407e+17
19199.0	2.6988842683378342e+17
19200.0	2.6985656371991894e+17
19201.0	2.6984194947153917e+17
19202.0	2.6979395321200637e+17
19203.0	2.6974554286981117e+17
19204.0	2.6969705199697914e+17
19205.0	2.6964925391831034e+17
19206.0	2.696008476655615e+17
19207.0	2.6955110007439354e+17
19208.0	2.695000969183231e+17
19209.0	2.694565098859178e+17
19210.0	2.6940829779449168e+17
19211.0	2.6936010083751248e+17
19212.0	2.6931204424990717e+17
19213.0	2.6926259379022502e+17
19214.0	2.6921388575730342e+17
19215.0	2.691675165731498e+17
19216.0	2.691195966499498e+17
19217.0	2.6907151800729597e+17
19218.0	2.6901052206175565e+17
19219.0	2.6897361064864416e+17
19220.0	2.689269372376405e+17
19221.0	2.6887421403245222e+17
19222.0	2.6883113133015034e+17
19223.0	2.6878320773693437e+17
19224.0	2.6873475538179408e+17
19225.0	2.6868480272411296e+17
19226.0	2.686391987208191e+17
19227.0	2.6859121525391354e+17
19228.0	2.685432396513279e+17
19229.0	2.6849527991719245e+17
19230.0	2.6844732773280422e+17
19231.0	2.6839938414673914e+17
19232.0	2.6835133486421328e+17
19233.0	2.6830259083018234e+17
19234.0	2.682552192772778e+17
19235.0	2.6820744042250237e+17
19236.0	2.681598323458048e+17
19237.0	2.6811167879987194e+17
19238.0	2.680624702117205e+17
19239.0	2.6801621388929706e+17
19240.0	2.679683687645184e+17
19241.0	2.6792026848624637e+17
19242.0	2.6787247131634342e+17
19243.0	2.678229752436053e+17
19244.0	2.677770948007253e+17
19245.0	2.6772916103632205e+17
19246.0	2.6768129794594128e+17
19247.0	2.6763373621630288e+17
19248.0	2.6758597295035728e+17
19249.0	2.6753793055348045e+17
19250.0	2.6748746570137594e+17
19251.0	2.6743819252094288e+17
19252.0	2.6739167237679776e+17
19253.0	2.6734685176463354e+17
19254.0	2.6729961124877648e+17
19255.0	2.6724966435826342e+17
19256.0	2.6720372211930448e+17
19257.0	2.6715657202565117e+17
19258.0	2.671089107511978e+17
19259.0	2.6706038695307946e+17
19260.0	2.670105885758805e+17
19261.0	2.6696598840934394e+17
19262.0	2.6691760812632742e+17
19263.0	2.6686956447115946e+17
19264.0	2.6681337600191136e+17
19265.0	2.6677145826754554e+17
19266.0	2.6671939010778448e+17
19267.0	2.6668016522144426e+17
19268.0	2.6663263176840534e+17
19269.0	2.6658507587583994e+17
19270.0	2.6653752879131302e+17
19271.0	2.664839899338069e+17
19272.0	2.6644192816005114e+17
19273.0	2.663881435163306e+17
19274.0	2.663408103413077e+17
19275.0	2.6630000738304e+17
19276.0	2.6625222971665062e+17
19277.0	2.6620506787894605e+17
19278.0	2.6615740010332157e+17
19279.0	2.66110123970833e+17
19280.0	2.660616368379221e+17
19281.0	2.660150654533632e+17
19282.0	2.6596665004305062e+17
19283.0	2.6591839059094182e+17
19284.0	2.658715854438399e+17
19285.0	2.6582192366114128e+17
19286.0	2.6577641874827946e+17
19287.0	2.657295666948778e+17
19288.0	2.656491595803306e+17
19289.0	2.6555842888553792e+17
19290.0	2.6558755021783034e+17
19291.0	2.65536940871953e+17
19292.0	2.654929124939093e+17
19293.0	2.654456031215615e+17
19294.0	2.6539825379846822e+17
19295.0	2.653510480603818e+17
19296.0	2.6529491278888957e+17
19297.0	2.6525426739664205e+17
19298.0	2.6520900896904528e+17
19299.0	2.6515156853500586e+17
19300.0	2.6511392049725437e+17
19301.0	2.6506757483615565e+17
19302.0	2.6502010206071462e+17
19303.0	2.6497208486461434e+17
19304.0	2.6492547674494288e+17
19305.0	2.648785747793237e+17
19306.0	2.6483163684754768e+17
19307.0	2.647836370927615e+17
19308.0	2.6473691153257814e+17
19309.0	2.6468817008503456e+17
19310.0	2.6464047158613328e+17
19311.0	2.6459524521000957e+17
19312.0	2.6454883132156582e+17
19313.0	2.6450168783394128e+17
19314.0	2.6394776630722576e+17
19315.0	2.6392328432954074e+17
19316.0	2.6434814013166928e+17
19317.0	2.6431332300445008e+17
19318.0	2.642661893035349e+17
19319.0	2.6421936685492902e+17
19320.0	2.6416806111477754e+17
19321.0	2.6411730210215248e+17
19322.0	2.6407724359789222e+17
19323.0	2.6403056522362877e+17
19324.0	2.6398435619198285e+17
19325.0	2.6393567835805008e+17
19326.0	2.6389041363899728e+17
19327.0	2.638427693864277e+17
19328.0	2.6377778329463462e+17
19329.0	2.6374957754395302e+17
19330.0	2.6370202630007462e+17
19331.0	2.636550546041514e+17
19332.0	2.6360876231557114e+17
19333.0	2.6356193619694928e+17
19334.0	2.6351384325870928e+17
19335.0	2.634307583257259e+17
19336.0	2.6342046532894714e+17
19337.0	2.6337444972462077e+17
19338.0	2.6332446512032422e+17
19339.0	2.6328077522261328e+17
19340.0	2.632266336785749e+17
19341.0	2.6317206043579728e+17
19342.0	2.6312962582336848e+17
19343.0	2.6309352590322346e+17
19344.0	2.630334921659733e+17
19345.0	2.629573024940031e+17
19346.0	2.6293653495698765e+17
19347.0	2.6288849046295885e+17
19348.0	2.628596835636565e+17
19349.0	2.6281263235071997e+17
19350.0	2.6276015646965754e+17
19351.0	2.627187611009023e+17
19352.0	2.6265335243298128e+17
19353.0	2.626258326607189e+17
19354.0	2.6257939783570768e+17
19355.0	2.62531449426193e+17
19356.0	2.624860519224661e+17
19357.0	2.6243939256238077e+17
19358.0	2.6239272642150394e+17
19359.0	2.6234049625675082e+17
19360.0	2.6228547635554976e+17
19361.0	2.6225223209233062e+17
19362.0	2.6220623078359037e+17
19363.0	2.6215958617347408e+17
19364.0	2.6211294051478182e+17
19365.0	2.620664284446719e+17
19366.0	2.6201986667205965e+17
19367.0	2.6197328312401914e+17
19368.0	2.619267413093034e+17
19369.0	2.6187966451111245e+17
19370.0	2.618333398215338e+17
19371.0	2.617863803939498e+17
19372.0	2.617405632850602e+17
19373.0	2.6169405939384317e+17
19374.0	2.6164758175197862e+17
19375.0	2.6160101015770448e+17
19376.0	2.6155460130242563e+17
19377.0	2.615081206546432e+17
19378.0	2.6146165007319037e+17
19379.0	2.614151857482411e+17
19380.0	2.613687016052053e+17
19381.0	2.6132215192616957e+17
19382.0	2.6127492888657917e+17
19383.0	2.6122771877942608e+17
19384.0	2.6118236454693542e+17
19385.0	2.6113656445992957e+17
19386.0	2.6109017343044262e+17
19387.0	2.6104377998923088e+17
19388.0	2.6099736075304957e+17
19389.0	2.6095095637169488e+17
19390.0	2.6090459466738336e+17
19391.0	2.6075030097319232e+17
19392.0	2.6081014303074976e+17
19393.0	2.607655064436736e+17
19394.0	2.6071901174497277e+17
19395.0	2.6066749968001702e+17
19396.0	2.6062470579049805e+17
19397.0	2.6058012040888317e+17
19398.0	2.6052869768260262e+17
19399.0	2.6046729995769168e+17
19400.0	2.6043633030048426e+17
19401.0	2.6039476677509117e+17
19402.0	2.6034850353206608e+17
19403.0	2.6030172774509226e+17
19404.0	2.602549973964117e+17
19405.0	2.602085167136768e+17
19406.0	2.601623864300885e+17
19407.0	2.6010911345650342e+17
19408.0	2.6005494499901437e+17
19409.0	2.600233185138005e+17
19410.0	2.5997708176479568e+17
19411.0	2.599307395290453e+17
19412.0	2.598841783156735e+17
19413.0	2.5983091254231037e+17
19414.0	2.5979093715517437e+17
19415.0	2.597449854790314e+17
19416.0	2.5969639268461222e+17
19417.0	2.5965171674098342e+17
19418.0	2.5960594367228582e+17
19419.0	2.5955944250736637e+17
19420.0	2.5951292089521485e+17
19421.0	2.59466341716241e+17
19422.0	2.5941906638766077e+17
19423.0	2.593730424296789e+17
19424.0	2.5932628509764262e+17
19425.0	2.592793933381631e+17
19426.0	2.592324654028117e+17
19427.0	2.591854588941653e+17
19428.0	2.5913827213530448e+17
19429.0	2.5909090848167248e+17
19430.0	2.590417546990933e+17
19431.0	2.5897822434536106e+17
19432.0	2.589474471018496e+17
19433.0	2.5889897213242022e+17
19434.0	2.5885002827475626e+17
19435.0	2.5879807091452582e+17
19436.0	2.5874163683382608e+17
19437.0	2.5869895070296746e+17
19438.0	2.5839857230151683e+17
19439.0	2.5858352852500477e+17
19440.0	2.5853456743574182e+17
19441.0	2.5847441269282134e+17
19442.0	2.584086622939818e+17
19443.0	2.5833510192633168e+17
19444.0	2.582481312153599e+17
19445.0	2.5813714888294394e+17
19446.0	2.579820722869589e+17
19447.0	2.577254495988394e+17
19448.0	2.5718642162619738e+17
19449.0	2.531898917126146e+17
19450.0	2.1642425817278986e+17
19451.0	1.9210347706231392e+17
19452.0	2.288688358752251e+17
19453.0	2.5555996081739174e+17
19454.0	2.5709134409454928e+17
19455.0	2.5743084455198717e+17
19456.0	2.5755999615494822e+17
19457.0	2.5760929481577808e+17
19458.0	2.556235087172977e+17
19459.0	2.575254915732827e+17
19460.0	2.575927782058666e+17
19461.0	2.5756572162457597e+17
19462.0	2.575332981167445e+17
19463.0	2.5749811409278288e+17
19464.0	2.5746043714928637e+17
19465.0	2.574213896121002e+17
19466.0	2.5738057470006608e+17
19467.0	2.5733961414082554e+17
19468.0	2.5729763342199466e+17
19469.0	2.5723601028819626e+17
19470.0	2.572118082103978e+17
19471.0	2.5716862208354982e+17
19472.0	2.571237472250538e+17
19473.0	2.5707972821428902e+17
19474.0	2.570230688295594e+17
19475.0	2.5697542663918925e+17
19476.0	2.5694701624142502e+17
19477.0	2.5690309625118714e+17
19478.0	2.5685924948650662e+17
19479.0	2.568010568389973e+17
19480.0	2.5676942063697914e+17
19481.0	2.5672258801718608e+17
19482.0	2.5667996113087142e+17
19483.0	2.5663533083525117e+17
19484.0	2.5659024710041597e+17
19485.0	2.5654439619242662e+17
19486.0	2.564854421738837e+17
19487.0	2.5645542315567786e+17
19488.0	2.564105318694912e+17
19489.0	2.563632186873173e+17
19490.0	2.5629310600260266e+17
19491.0	2.5627488891699194e+17
19492.0	2.5623036033324368e+17
19493.0	2.5618529907288736e+17
19494.0	2.5614023131135997e+17
19495.0	2.5609508679406925e+17
19496.0	2.5604095856694605e+17
19497.0	2.5600450279505917e+17
19498.0	2.5594772562029222e+17
19499.0	2.5573937290499402e+17
19500.0	2.5586960422666237e+17
19501.0	2.5582660219480742e+17
19502.0	2.5578252233168205e+17
19503.0	2.557373814494549e+17
19504.0	2.5569226562819405e+17
19505.0	2.5564693362551466e+17
19506.0	2.5560189068028576e+17
19507.0	2.5555632218876586e+17
19508.0	2.5551164771314342e+17
19509.0	2.5546650515319466e+17
19510.0	2.5541652708502182e+17
19511.0	2.5461220945428432e+17
19512.0	2.5530382557730128e+17
19513.0	2.552323295062697e+17
19514.0	2.552036875479722e+17
19515.0	2.5518728823876266e+17
19516.0	2.551491102157482e+17
19517.0	2.5510411026213542e+17
19518.0	2.5505726327685107e+17
19519.0	2.5501203539776842e+17
19520.0	2.5495848472630608e+17
19521.0	2.5492554084515837e+17
19522.0	2.5487889039796906e+17
19523.0	2.5483225410655568e+17
19524.0	2.547819813885269e+17
19525.0	2.5474548622513488e+17
19526.0	2.5470083726486186e+17
19527.0	2.546555588793685e+17
19528.0	2.546101706031103e+17
19529.0	2.5456478375990608e+17
19530.0	2.5452109085627725e+17
19531.0	2.5447617699075405e+17
19532.0	2.544312720730794e+17
19533.0	2.5438637355171837e+17
19534.0	2.543414920172885e+17
19535.0	2.5429661635488426e+17
19536.0	2.5425115013447674e+17
19537.0	2.5420681543243088e+17
19538.0	2.5414838367464106e+17
19539.0	2.5410726680767142e+17
19540.0	2.5407200707652262e+17
19541.0	2.5402548630323194e+17
19542.0	2.5398178965968205e+17
19543.0	2.5392599444138662e+17
19544.0	2.5389232477088426e+17
19545.0	2.5383983218251088e+17
19546.0	2.5378771037061117e+17
19547.0	2.5375886988192422e+17
19548.0	2.5371406146819408e+17
19549.0	2.536681594945536e+17
19550.0	2.5362464774990502e+17
19551.0	2.535799328342016e+17
19552.0	2.5353521697477968e+17
19553.0	2.5349022086594557e+17
19554.0	2.5344503699210237e+17
19555.0	2.5339971942481917e+17
19556.0	2.5335565382232746e+17
19557.0	2.5331173093102928e+17
19558.0	2.5326713978224634e+17
19559.0	2.5322251458969597e+17
19560.0	2.53173409775616e+17
19561.0	2.5313301359493117e+17
19562.0	2.5308451828312742e+17
19563.0	2.5304403755226448e+17
19564.0	2.5299944776663037e+17
19565.0	2.5295485997329062e+17
19566.0	2.5290992915578874e+17
19567.0	2.5286570738537808e+17
19568.0	2.5282116433128102e+17
19569.0	2.5277643557437434e+17
19570.0	2.527320128968021e+17
19571.0	2.526873800146944e+17
19572.0	2.5264268820261542e+17
19573.0	2.5259709335688522e+17
19574.0	2.5255245484741968e+17
19575.0	2.5250952929170768e+17
19576.0	2.5246445289690448e+17
19577.0	2.5241876937659734e+17
19578.0	2.5237536046230186e+17
19579.0	2.5233136969318397e+17
19580.0	2.5228692272360102e+17
19581.0	2.5224250385585488e+17
19582.0	2.5219838183997434e+17
19583.0	2.5215397157055142e+17
19584.0	2.521094645525162e+17
19585.0	2.5206360183057053e+17
19586.0	2.5201891340888746e+17
19587.0	2.5197609152238928e+17
19588.0	2.519237165842432e+17
19589.0	2.5188750432665597e+17
19590.0	2.518404454241621e+17
19591.0	2.5179893516642982e+17
19592.0	2.5175453650124794e+17
19593.0	2.517091101267285e+17
19594.0	2.5166189184068266e+17
19595.0	2.5162109671178234e+17
19596.0	2.515764855351978e+17
19597.0	2.5153300063409488e+17
19598.0	2.514752763854847e+17
19599.0	2.514446310877867e+17
19600.0	2.5140038093591885e+17
19601.0	2.5135510971569488e+17
19602.0	2.5131112586717862e+17
19603.0	2.5125979873607674e+17
19604.0	2.512228244084053e+17
19605.0	2.511749454845269e+17
19606.0	2.5113502451848528e+17
19607.0	2.5109090030059514e+17
19608.0	2.510466410261163e+17
19609.0	2.510017630917973e+17
19610.0	2.5095200396629328e+17
19611.0	2.5090546662550182e+17
19612.0	2.508701269229567e+17
19613.0	2.5082600081762982e+17
19614.0	2.5078137443669328e+17
19615.0	2.5073774703411194e+17
19616.0	2.5068642021758288e+17
19617.0	2.5064014701308586e+17
19618.0	2.5059470878965754e+17
19619.0	2.5054691252852045e+17
19620.0	2.5050113054692688e+17
19621.0	2.5046142474868045e+17
19622.0	2.5042928792152742e+17
19623.0	2.5038478736971085e+17
19624.0	2.5033991866286077e+17
19625.0	2.5029720439521274e+17
19626.0	2.5025322890035194e+17
19627.0	2.502092254085119e+17
19628.0	2.5016350469870928e+17
19629.0	2.50089101660433e+17
19630.0	2.5007462515998717e+17
19631.0	2.4997768441364477e+17
19632.0	2.4998936149579094e+17
19633.0	2.4994499638504106e+17
19634.0	2.4990151795015674e+17
19635.0	2.4985479298416637e+17
19636.0	2.4979969283194874e+17
19637.0	2.4975239625222816e+17
19638.0	2.4972381203551565e+17
19639.0	2.4968185490964477e+17
19640.0	2.4963500631654397e+17
19641.0	2.4955835771781123e+17
19642.0	2.4954961815142397e+17
19643.0	2.4950568316654925e+17
19644.0	2.4946186667076262e+17
19645.0	2.49413936611328e+17
19646.0	2.4935969094369274e+17
19647.0	2.4933062560535885e+17
