# Flux units: erg / (cm m2 s)
# Wavelength units: Angstrom
wave	flux
19000.0	7.101189318858067e+17
19001.0	7.099874505217364e+17
19002.0	7.098575171354624e+17
19003.0	7.097267318860457e+17
19004.0	7.095959111248553e+17
19005.0	7.094650798779049e+17
19006.0	7.09334192427281e+17
19007.0	7.092032591189331e+17
19008.0	7.090718866669568e+17
19009.0	7.089405658049194e+17
19010.0	7.088068653744127e+17
19011.0	7.086790132017833e+17
19012.0	7.085476344583508e+17
19013.0	7.08420424573474e+17
19014.0	7.083001187926015e+17
19015.0	7.081688998521513e+17
19016.0	7.080372389718697e+17
19017.0	7.079063133530794e+17
19018.0	7.077750597397161e+17
19019.0	7.076437678183764e+17
19020.0	7.075123953663999e+17
19021.0	7.073810354973353e+17
19022.0	7.072496362018131e+17
19023.0	7.071182146764799e+17
19024.0	7.069867201702569e+17
19025.0	7.06855309550114e+17
19026.0	7.067236187504639e+17
19027.0	7.065917832473258e+17
19028.0	7.064608432280916e+17
19029.0	7.063293168451583e+17
19030.0	7.061977690712745e+17
19031.0	7.06066198228719e+17
19032.0	7.059346022203392e+17
19033.0	7.058022587869865e+17
19034.0	7.056713128957267e+17
19035.0	7.055391949761193e+17
19036.0	7.053709217366015e+17
19037.0	7.052760374924628e+17
19038.0	7.051447283744768e+17
19039.0	7.050130983922345e+17
19040.0	7.04881417658914e+17
19041.0	7.047497218260991e+17
19042.0	7.046180096354985e+17
19043.0	7.044862844425556e+17
19044.0	7.043545345032191e+17
19045.0	7.042227958885033e+17
19046.0	7.040906558788947e+17
19047.0	7.039590685387434e+17
19048.0	7.038260131921919e+17
19049.0	7.036956931609939e+17
19050.0	7.035638542325076e+17
19051.0	7.034264582706516e+17
19052.0	7.032989507999059e+17
19053.0	7.031684803330045e+17
19054.0	7.030367056472746e+17
19055.0	7.029034695961257e+17
19056.0	7.027730747665066e+17
19057.0	7.026412459043498e+17
19058.0	7.025094083040598e+17
19059.0	7.023775446291796e+17
19060.0	7.022455578514771e+17
19061.0	7.021138715257514e+17
19062.0	7.019819797490345e+17
19063.0	7.018501305445034e+17
19064.0	7.017175792833876e+17
19065.0	7.015859026744659e+17
19066.0	7.014545679013204e+17
19067.0	7.013227050653012e+17
19068.0	7.011908345397247e+17
19069.0	7.010589709347498e+17
19070.0	7.009270280574291e+17
19071.0	7.007952250601471e+17
19072.0	7.006633490819753e+17
19073.0	7.005314389202259e+17
19074.0	7.003995967062015e+17
19075.0	7.00267723034897e+17
19076.0	7.001356971802623e+17
19077.0	7.000038453193386e+17
19078.0	6.998718900688212e+17
19079.0	6.997402017158484e+17
19080.0	6.996083274153983e+17
19081.0	6.994764399028905e+17
19082.0	6.993442606765396e+17
19083.0	6.992125463887871e+17
19084.0	6.990789012531881e+17
19085.0	6.989489136904873e+17
19086.0	6.988143514004138e+17
19087.0	6.986843778886313e+17
19088.0	6.985530307422889e+17
19089.0	6.984196020327763e+17
19090.0	6.982894507524093e+17
19091.0	6.981576025265491e+17
19092.0	6.980256409845759e+17
19093.0	6.978939587832489e+17
19094.0	6.977620277897897e+17
19095.0	6.976301574040233e+17
19096.0	6.974982918417065e+17
19097.0	6.973665297388884e+17
19098.0	6.972347110129663e+17
19099.0	6.971028595714729e+17
19100.0	6.969710108562772e+17
19101.0	6.968391274681684e+17
19102.0	6.967065773954387e+17
19103.0	6.965754722604372e+17
19104.0	6.964436308852735e+17
19105.0	6.963117737814698e+17
19106.0	6.961797946234196e+17
19107.0	6.960479750586367e+17
19108.0	6.959161699642025e+17
19109.0	6.957818196961961e+17
19110.0	6.956522108092415e+17
19111.0	6.955207742543188e+17
19112.0	6.953889872652969e+17
19113.0	6.952571768580777e+17
19114.0	6.951253568039593e+17
19115.0	6.949933141022035e+17
19116.0	6.948617144587604e+17
19117.0	6.94729838830114e+17
19118.0	6.945976096216403e+17
19119.0	6.944361571592873e+17
19120.0	6.943340618579967e+17
19121.0	6.942024187336019e+17
19122.0	6.940708915118079e+17
19123.0	6.939390950156969e+17
19124.0	6.938072897115475e+17
19125.0	6.936754600804351e+17
19126.0	6.935434152815273e+17
19127.0	6.933989703024639e+17
19128.0	6.932797552503466e+17
19129.0	6.931482414503252e+17
19130.0	6.930165356909908e+17
19131.0	6.928847347209555e+17
19132.0	6.927529220068692e+17
19133.0	6.926208951735636e+17
19134.0	6.924893857775615e+17
19135.0	6.923575989283497e+17
19136.0	6.922257902687572e+17
19137.0	6.920928646660095e+17
19138.0	6.919620989201065e+17
19139.0	6.918304389485908e+17
19140.0	6.916986707640319e+17
19141.0	6.915668805593768e+17
19142.0	6.914350727386452e+17
19143.0	6.913029076331178e+17
19144.0	6.911714016624639e+17
19145.0	6.910396970915156e+17
19146.0	6.909031377534976e+17
19147.0	6.907754915211945e+17
19148.0	6.906442725807444e+17
19149.0	6.905124706320383e+17
19150.0	6.903806259014314e+17
19151.0	6.902488535225684e+17
19152.0	6.901170340975955e+17
19153.0	6.899851972662612e+17
19154.0	6.898524643917823e+17
19155.0	6.897215045195091e+17
19156.0	6.895896483244714e+17
19157.0	6.894575875872084e+17
19158.0	6.893244349328042e+17
19159.0	6.891938609364992e+17
19160.0	6.890622136178004e+17
19161.0	6.889302680141823e+17
19162.0	6.887944191912617e+17
19163.0	6.88666081108514e+17
19164.0	6.88534760596002e+17
19165.0	6.884028344259923e+17
19166.0	6.882701205656916e+17
19167.0	6.881387244158975e+17
19168.0	6.880071030319785e+17
19169.0	6.878751781202601e+17
19170.0	6.877433387024383e+17
19171.0	6.876112256062804e+17
19172.0	6.874794298791252e+17
19173.0	6.873474897281023e+17
19174.0	6.872151135791785e+17
19175.0	6.870835316217172e+17
19176.0	6.869515358961663e+17
19177.0	6.868182969789098e+17
19178.0	6.866873170438825e+17
19179.0	6.865512582261417e+17
19180.0	6.863981820684969e+17
19181.0	6.862653185414484e+17
19182.0	6.861339668512768e+17
19183.0	6.860020086647465e+17
19184.0	6.858698383862441e+17
19185.0	6.857377220045481e+17
19186.0	6.856056003799721e+17
19187.0	6.854734024190633e+17
19188.0	6.853412220043263e+17
19189.0	6.852090503976276e+17
19190.0	6.850767905707348e+17
19191.0	6.8494450767517e+17
19192.0	6.848122627380563e+17
19193.0	6.846799401364137e+17
19194.0	6.84547585937681e+17
19195.0	6.844151673563818e+17
19196.0	6.842825877138089e+17
19197.0	6.84149903073826e+17
19198.0	6.8401620320256e+17
19199.0	6.838589443451561e+17
19200.0	6.837319194989907e+17
19201.0	6.836189701079039e+17
19202.0	6.834875867507369e+17
19203.0	6.833553140613119e+17
19204.0	6.83222643122722e+17
19205.0	6.830902364252841e+17
19206.0	6.829575208872617e+17
19207.0	6.828246667274921e+17
19208.0	6.826906157230761e+17
19209.0	6.825594169851903e+17
19210.0	6.824266120385876e+17
19211.0	6.822937412414121e+17
19212.0	6.821608269632852e+17
19213.0	6.820271283503101e+17
19214.0	6.818939513689428e+17
19215.0	6.817617506817363e+17
19216.0	6.816287820174675e+17
19217.0	6.814955460362239e+17
19218.0	6.813566101356543e+17
19219.0	6.812278361948159e+17
19220.0	6.810960025092095e+17
19221.0	6.80960478674944e+17
19222.0	6.808291487252479e+17
19223.0	6.806959119051433e+17
19224.0	6.805624074185385e+17
19225.0	6.804279124470441e+17
19226.0	6.802953203613695e+17
19227.0	6.801616911641258e+17
19228.0	6.800279736767828e+17
19229.0	6.798941712547839e+17
19230.0	6.797602997665791e+17
19231.0	6.796264075165693e+17
19232.0	6.794923358901587e+17
19233.0	6.793581766726996e+17
19234.0	6.792240415724884e+17
19235.0	6.790900042694655e+17
19236.0	6.789557076186452e+17
19237.0	6.788212312418986e+17
19238.0	6.786866154045439e+17
19239.0	6.785523834159104e+17
19240.0	6.784176644685824e+17
19241.0	6.782830224867328e+17
19242.0	6.781482790027263e+17
19243.0	6.780120639471615e+17
19244.0	6.778784176930815e+17
19245.0	6.777433390142804e+17
19246.0	6.776080560728744e+17
19247.0	6.774728684819796e+17
19248.0	6.773374982291456e+17
19249.0	6.771732319480489e+17
19250.0	6.770287724287316e+17
19251.0	6.768923008914771e+17
19252.0	6.767548839581012e+17
19253.0	6.766212846802259e+17
19254.0	6.764852931810644e+17
19255.0	6.763475377673558e+17
19256.0	6.762126170740052e+17
19257.0	6.760763727282175e+17
19258.0	6.759397917895338e+17
19259.0	6.758030709009065e+17
19260.0	6.756655257616383e+17
19261.0	6.755291999065427e+17
19262.0	6.753920739879593e+17
19263.0	6.75254429094161e+17
19264.0	6.751135646526121e+17
19265.0	6.749782947135487e+17
19266.0	6.748406178032297e+17
19267.0	6.747041379472724e+17
19268.0	6.74566052511744e+17
19269.0	6.744277633728511e+17
19270.0	6.742892099928063e+17
19271.0	6.741482188832767e+17
19272.0	6.740114933809151e+17
19273.0	6.738679624105981e+17
19274.0	6.737289153609727e+17
19275.0	6.735940942124371e+17
19276.0	6.734544873630378e+17
19277.0	6.73314628575778e+17
19278.0	6.731745447641087e+17
19279.0	6.729832749247146e+17
19280.0	6.728392674115584e+17
19281.0	6.726990045031081e+17
19282.0	6.725579933308244e+17
19283.0	6.724164730399402e+17
19284.0	6.72274989519121e+17
19285.0	6.721323758430889e+17
19286.0	6.719912888238079e+17
19287.0	6.718489254778196e+17
19288.0	6.716959977286314e+17
19289.0	6.715391209024169e+17
19290.0	6.714201565997737e+17
19291.0	6.712746654214825e+17
19292.0	6.711329191974228e+17
19293.0	6.70988697215522e+17
19294.0	6.708442231559508e+17
19295.0	6.706993612630698e+17
19296.0	6.705511103725567e+17
19297.0	6.703411321197908e+17
19298.0	6.701645238894591e+17
19299.0	6.700181693136895e+17
19300.0	6.698714101972991e+17
19301.0	6.697243016953855e+17
19302.0	6.695768426894675e+17
19303.0	6.694286993828521e+17
19304.0	6.692804031239508e+17
19305.0	6.691318784152916e+17
19306.0	6.689826650019156e+17
19307.0	6.688327716219561e+17
19308.0	6.6868266677917e+17
19309.0	6.685266771181565e+17
19310.0	6.682818592287401e+17
19311.0	6.681311614511785e+17
19312.0	6.679790069918378e+17
19313.0	6.678260233185961e+17
19314.0	6.676402278148777e+17
19315.0	6.674888249748138e+17
19316.0	6.673634254913533e+17
19317.0	6.672082383405055e+17
19318.0	6.670503502675968e+17
19319.0	6.667700773672276e+17
19320.0	6.666126598952276e+17
19321.0	6.664545304401236e+17
19322.0	6.662951227009705e+17
19323.0	6.661358316333737e+17
19324.0	6.659758017391274e+17
19325.0	6.658142009382228e+17
19326.0	6.655391593835177e+17
19327.0	6.653333280391167e+17
19328.0	6.651699589895508e+17
19329.0	6.650056616006995e+17
19330.0	6.648402206348628e+17
19331.0	6.646743576521386e+17
19332.0	6.644640484687871e+17
19333.0	6.642419446928724e+17
19334.0	6.640265441138003e+17
19335.0	6.638570652915027e+17
19336.0	6.636865926288724e+17
19337.0	6.635151035465727e+17
19338.0	6.633409916261716e+17
19339.0	6.631690479512233e+17
19340.0	6.629937354113023e+17
19341.0	6.628179972194304e+17
19342.0	6.626380928253951e+17
19343.0	6.624614052528127e+17
19344.0	6.622808703150761e+17
19345.0	6.620850242803028e+17
19346.0	6.61909398495778e+17
19347.0	6.617307000340479e+17
19348.0	6.615450532883113e+17
19349.0	6.613573216239615e+17
19350.0	6.611447428328105e+17
19351.0	6.60892320670242e+17
19352.0	6.606991243171155e+17
19353.0	6.605043636284074e+17
19354.0	6.603076586700799e+17
19355.0	6.601083617017856e+17
19356.0	6.599083063334227e+17
19357.0	6.597054533642921e+17
19358.0	6.595006027879763e+17
19359.0	6.592940807116116e+17
19360.0	6.590286984992084e+17
19361.0	6.587434387111935e+17
19362.0	6.585299307418963e+17
19363.0	6.583136843115177e+17
19364.0	6.580948344766463e+17
19365.0	6.578731961985706e+17
19366.0	6.576487372510547e+17
19367.0	6.57343262315861e+17
19368.0	6.570019297864361e+17
19369.0	6.567668094074879e+17
19370.0	6.565284945767081e+17
19371.0	6.562870888235007e+17
19372.0	6.560415665706323e+17
19373.0	6.556256953871021e+17
19374.0	6.552833454593364e+17
19375.0	6.550239762710527e+17
19376.0	6.547512483643391e+17
19377.0	6.544581413830653e+17
19378.0	6.538780433448959e+17
19379.0	6.535991622544041e+17
19380.0	6.533150426879316e+17
19381.0	6.528334892630013e+17
19382.0	6.523141654315007e+17
19383.0	6.520091603981651e+17
19384.0	6.515098540223146e+17
19385.0	6.508745360845482e+17
19386.0	6.505459696883028e+17
19387.0	6.498041215320067e+17
19388.0	6.492615556639401e+17
19389.0	6.487342799912966e+17
19390.0	6.478372598535508e+17
19391.0	6.473974944890881e+17
19392.0	6.466637225350484e+17
19393.0	6.462353273694889e+17
19394.0	6.458274006171647e+17
19395.0	6.454127415175849e+17
19396.0	6.449912358458707e+17
19397.0	6.445628977228457e+17
19398.0	6.441275759438506e+17
19399.0	6.43680718570564e+17
19400.0	6.43179483234304e+17
19401.0	6.427026760837801e+17
19402.0	6.422382937199956e+17
19403.0	6.417667986554879e+17
19404.0	6.412841259805353e+17
19405.0	6.406982662968659e+17
19406.0	6.401331950518271e+17
19407.0	6.396009464725501e+17
19408.0	6.390075197751295e+17
19409.0	6.382994716972372e+17
19410.0	6.377189792546813e+17
19411.0	6.369711535860393e+17
19412.0	6.362313953116159e+17
19413.0	6.354628002185216e+17
19414.0	6.345656650170365e+17
19415.0	6.336379720040443e+17
19416.0	6.326742871790932e+17
19417.0	6.313923958188709e+17
19418.0	6.301873052407118e+17
19419.0	6.288162043898537e+17
19420.0	6.272517605949444e+17
19421.0	6.253713852552531e+17
19422.0	6.233880165438816e+17
19423.0	6.216614847796563e+17
19424.0	6.204125858846038e+17
19425.0	6.191986781104809e+17
19426.0	6.179456479657981e+17
19427.0	6.166199057164969e+17
19428.0	6.152270090250922e+17
19429.0	6.137527566772905e+17
19430.0	6.122413241313964e+17
19431.0	6.106420678929065e+17
19432.0	6.088836854229673e+17
19433.0	6.070473669825876e+17
19434.0	6.049593268983126e+17
19435.0	6.028155573065042e+17
19436.0	6.004589441231532e+17
19437.0	5.977050498902697e+17
19438.0	5.94605962131319e+17
19439.0	5.91155587291546e+17
19440.0	5.87199344017408e+17
19441.0	5.828912900734973e+17
19442.0	5.779991415488511e+17
19443.0	5.724952616151721e+17
19444.0	5.662110458926416e+17
19445.0	5.590046910447618e+17
19446.0	5.503261205331967e+17
19447.0	5.3975213439713216e+17
19448.0	5.2615203642845926e+17
19449.0	5.074728660238335e+17
19450.0	4.785865066108216e+17
19451.0	4.618263653427893e+17
19452.0	4.9488168089900365e+17
19453.0	5.175869154787335e+17
19454.0	5.330969352820047e+17
19455.0	5.44722873553169e+17
19456.0	5.5396932444487725e+17
19457.0	5.6176549455462355e+17
19458.0	5.6804415834685434e+17
19459.0	5.7376331037409286e+17
19460.0	5.787862609952764e+17
19461.0	5.831104910415185e+17
19462.0	5.870195254667945e+17
19463.0	5.905120593532242e+17
19464.0	5.935428352518825e+17
19465.0	5.96187029910323e+17
19466.0	5.984729552300712e+17
19467.0	6.00533174915345e+17
19468.0	6.023892687301289e+17
19469.0	6.041186267561983e+17
19470.0	6.056807759871999e+17
19471.0	6.071291977138176e+17
19472.0	6.084431798337535e+17
19473.0	6.096971384575316e+17
19474.0	6.109049570110122e+17
19475.0	6.120196916554409e+17
19476.0	6.130785694952105e+17
19477.0	6.140718857497258e+17
19478.0	6.150354000762195e+17
19479.0	6.163252628510042e+17
19480.0	6.180139412313434e+17
19481.0	6.196305279145299e+17
19482.0	6.210282211420835e+17
19483.0	6.222284121440255e+17
19484.0	6.234543970669908e+17
19485.0	6.243597853305514e+17
19486.0	6.250809834602492e+17
19487.0	6.259923825808724e+17
19488.0	6.265028148374184e+17
19489.0	6.271971606134783e+17
19490.0	6.27578094433075e+17
19491.0	6.282152377319421e+17
19492.0	6.285650294734847e+17
19493.0	6.289516046319616e+17
19494.0	6.293954305720319e+17
19495.0	6.296924787310592e+17
19496.0	6.299743203710291e+17
19497.0	6.303547856169642e+17
19498.0	6.306168636964863e+17
19499.0	6.308072676917247e+17
19500.0	6.310803409294676e+17
19501.0	6.312996538854057e+17
19502.0	6.31562262474479e+17
19503.0	6.317854850809855e+17
19504.0	6.319810447846058e+17
19505.0	6.321693763742377e+17
19506.0	6.323505831695702e+17
19507.0	6.325246531469311e+17
19508.0	6.326918806765567e+17
19509.0	6.328601263035731e+17
19510.0	6.33213718434065e+17
19511.0	6.335008380463785e+17
19512.0	6.338840619559596e+17
19513.0	6.344599558335146e+17
19514.0	6.345717344545448e+17
19515.0	6.351789711775059e+17
19516.0	6.353410076966911e+17
19517.0	6.35490379165423e+17
19518.0	6.359719061662377e+17
19519.0	6.360346811957247e+17
19520.0	6.361009535756969e+17
19521.0	6.365318820309674e+17
19522.0	6.365734981249706e+17
19523.0	6.366097701164371e+17
19524.0	6.36763512958703e+17
19525.0	6.369770154054996e+17
19526.0	6.369993885220863e+17
19527.0	6.370255118357844e+17
19528.0	6.370372820314794e+17
19529.0	6.37222433080388e+17
19530.0	6.372855254788777e+17
19531.0	6.372838968306346e+17
19532.0	6.372786308120576e+17
19533.0	6.372699130210985e+17
19534.0	6.372579159135572e+17
19535.0	6.373994665432404e+17
19536.0	6.373985566588928e+17
19537.0	6.373764149979817e+17
19538.0	6.373505863341395e+17
19539.0	6.373200053840553e+17
19540.0	6.372936432746496e+17
19541.0	6.372611432906751e+17
19542.0	6.373139065864191e+17
19543.0	6.373093792546815e+17
19544.0	6.372696952668159e+17
19545.0	6.372248315232255e+17
19546.0	6.371786629316607e+17
19547.0	6.371394872235348e+17
19548.0	6.370920668419412e+17
19549.0	6.370419746886995e+17
19550.0	6.369916217895593e+17
19551.0	6.369387677570388e+17
19552.0	6.369222760333311e+17
19553.0	6.369045300729171e+17
19554.0	6.368463394876074e+17
19555.0	6.367870042767359e+17
19556.0	6.367259203906218e+17
19557.0	6.366633923357353e+17
19558.0	6.365995202161321e+17
19559.0	6.365343184322559e+17
19560.0	6.364677846073343e+17
19561.0	6.363997320249341e+17
19562.0	6.363301494303402e+17
19563.0	6.362594308085075e+17
19564.0	6.361876283785215e+17
19565.0	6.361147750656681e+17
19566.0	6.360407562256383e+17
19567.0	6.35966022676207e+17
19568.0	6.358903192638804e+17
19569.0	6.358137233735679e+17
19570.0	6.358099888351914e+17
19571.0	6.357882689814528e+17
19572.0	6.357089970552832e+17
19573.0	6.356288342589439e+17
19574.0	6.355479337544361e+17
19575.0	6.354661725787476e+17
19576.0	6.353984170229759e+17
19577.0	6.3544114034333e+17
19578.0	6.353566505631743e+17
19579.0	6.352719670061738e+17
19580.0	6.351862513008639e+17
19581.0	6.350997708341247e+17
19582.0	6.350128197664767e+17
19583.0	6.349250944303101e+17
19584.0	6.34897488220433e+17
19585.0	6.348584999277908e+17
19586.0	6.347682468244137e+17
19587.0	6.346788143366143e+17
19588.0	6.345847425291604e+17
19589.0	6.344964233494527e+17
19590.0	6.344039190233087e+17
19591.0	6.343116978126847e+17
19592.0	6.342184896124243e+17
19593.0	6.341247939641341e+17
19594.0	6.341096672766633e+17
19595.0	6.340214853206015e+17
19596.0	6.339252542854484e+17
19597.0	6.338305994697385e+17
19598.0	6.337323113381887e+17
19599.0	6.336379099283455e+17
19600.0	6.335409636245504e+17
19601.0	6.334433000947711e+17
19602.0	6.333453749802324e+17
19603.0	6.332446346488489e+17
19604.0	6.331491966167721e+17
19605.0	6.330483657583274e+17
19606.0	6.329514523798185e+17
19607.0	6.32878456181009e+17
19608.0	6.328158726914047e+17
19609.0	6.32715531657762e+17
19610.0	6.326151802781695e+17
19611.0	6.325143127195647e+17
19612.0	6.324132331388927e+17
19613.0	6.323166087479296e+17
19614.0	6.322305128289622e+17
19615.0	6.321284802325161e+17
19616.0	6.320259117438292e+17
19617.0	6.319341001069908e+17
19618.0	6.318330440144212e+17
19619.0	6.317288380694527e+17
19620.0	6.316260918121812e+17
19621.0	6.315273244813994e+17
19622.0	6.314235967569919e+17
19623.0	6.313195901812733e+17
19624.0	6.312153545965567e+17
19625.0	6.311109080383485e+17
19626.0	6.310062490386431e+17
19627.0	6.309455994028031e+17
19628.0	6.308410049953791e+17
19629.0	6.307353941682857e+17
19630.0	6.306263618377044e+17
19631.0	6.304974199848959e+17
19632.0	6.304188168404991e+17
19633.0	6.303133957357567e+17
19634.0	6.30207369323042e+17
19635.0	6.301010878267391e+17
19636.0	6.299946219907753e+17
19637.0	6.298849627515561e+17
19638.0	6.297811352027133e+17
19639.0	6.296742487479636e+17
19640.0	6.295668136782506e+17
19641.0	6.294540130451455e+17
19642.0	6.293526119011668e+17
19643.0	6.292451399215786e+17
19644.0	6.291372378161151e+17
19645.0	6.290278358275412e+17
19646.0	6.289219624370175e+17
19647.0	6.288140137048746e+17
19648.0	6.287059288675667e+17
19649.0	6.285977079250944e+17
19650.0	6.284894086889471e+17
19651.0	6.283809880276991e+17
19652.0	6.282724581048319e+17
19653.0	6.281638088540159e+17
19654.0	6.280550897680383e+17
19655.0	6.279462217842687e+17
19656.0	6.278372789321727e+17
19657.0	6.277283027353597e+17
19658.0	6.276191998705663e+17
19659.0	6.275099879538687e+17
19660.0	6.274007156391935e+17
19661.0	6.272913472749565e+17
19662.0	6.272002685927423e+17
19663.0	6.27102401429504e+17
19664.0	6.269930116743167e+17
