# Flux units: erg / (cm m2 s)
# Wavelength units: Angstrom
wave	flux
19000.0	8.958141137245524e+17
19001.0	8.956701864624127e+17
19002.0	8.955258435447468e+17
19003.0	8.95381037995349e+17
19004.0	8.952357967975764e+17
19005.0	8.950901579797846e+17
19006.0	8.949440884069718e+17
19007.0	8.947975919938217e+17
19008.0	8.946505594088105e+17
19009.0	8.945030113438377e+17
19010.0	8.943546007901524e+17
19011.0	8.942075970060288e+17
19012.0	8.940591021468326e+17
19013.0	8.939104804798463e+17
19014.0	8.937612978946047e+17
19015.0	8.936117365637119e+17
19016.0	8.934616899518464e+17
19017.0	8.933114912265558e+17
19018.0	8.931609447934634e+17
19019.0	8.930324155203583e+17
19020.0	8.928963659999913e+17
19021.0	8.92787528704546e+17
19022.0	8.926446733666986e+17
19023.0	8.924923862974461e+17
19024.0	8.923397494232404e+17
19025.0	8.921868155923113e+17
19026.0	8.920334992408575e+17
19027.0	8.918798205015379e+17
19028.0	8.917261878995625e+17
19029.0	8.915720544976893e+17
19030.0	8.914176191059283e+17
19031.0	8.912628787882665e+17
19032.0	8.911078334048937e+17
19033.0	8.90952490225937e+17
19034.0	8.907968273012051e+17
19035.0	8.906405041930237e+17
19036.0	8.904715025427113e+17
19037.0	8.903279783531859e+17
19038.0	8.901715457736701e+17
19039.0	8.900145796786858e+17
19040.0	8.898573069800788e+17
19041.0	8.896997654265855e+17
19042.0	8.895419470490281e+17
19043.0	8.893838793900031e+17
19044.0	8.892255248405842e+17
19045.0	8.890669370878634e+17
19046.0	8.889079437459453e+17
19047.0	8.88748850299972e+17
19048.0	8.885890979288403e+17
19049.0	8.884299847696384e+17
19050.0	8.882700895125501e+17
19051.0	8.881081520488447e+17
19052.0	8.879489941503999e+17
19053.0	8.877891323079337e+17
19054.0	8.8762837120669e+17
19055.0	8.874673448856233e+17
19056.0	8.873060917925204e+17
19057.0	8.871445979463677e+17
19058.0	8.869828746717862e+17
19059.0	8.868208966631424e+17
19060.0	8.866586984535379e+17
19061.0	8.86496351625762e+17
19062.0	8.863337200047443e+17
19063.0	8.861708778296659e+17
19064.0	8.860075765181097e+17
19065.0	8.858443505642154e+17
19066.0	8.856810797312682e+17
19067.0	8.855173968778582e+17
19068.0	8.853535005343743e+17
19069.0	8.852020600154792e+17
19070.0	8.851306103264596e+17
19071.0	8.849658273071103e+17
19072.0	8.848008014375592e+17
19073.0	8.846355662722386e+17
19074.0	8.844701444603901e+17
19075.0	8.843045125139113e+17
19076.0	8.8413863687837e+17
19077.0	8.839725954280105e+17
19078.0	8.838063518121981e+17
19079.0	8.836399901966335e+17
19080.0	8.834733618233343e+17
19081.0	8.833065308651519e+17
19082.0	8.831393991753727e+17
19083.0	8.829722280591357e+17
19084.0	8.828039156727807e+17
19085.0	8.826372541644799e+17
19086.0	8.824681647134036e+17
19087.0	8.823013171178153e+17
19088.0	8.821332041007103e+17
19089.0	8.819648283803647e+17
19090.0	8.81796320539443e+17
19091.0	8.816275815923711e+17
19092.0	8.814586266386431e+17
19093.0	8.812894653251583e+17
19094.0	8.81119515901952e+17
19095.0	8.80949930823953e+17
19096.0	8.807809224627539e+17
19097.0	8.806111438875306e+17
19098.0	8.804411061043199e+17
19099.0	8.80270853153314e+17
19100.0	8.801003992951465e+17
19101.0	8.799297487241213e+17
19102.0	8.797587030496594e+17
19103.0	8.795879365760339e+17
19104.0	8.794167305393492e+17
19105.0	8.792453340812626e+17
19106.0	8.790737242729132e+17
19107.0	8.789019441758204e+17
19108.0	8.787299375863124e+17
19109.0	8.785570233494185e+17
19110.0	8.783852805816317e+17
19111.0	8.782130231727447e+17
19112.0	8.780373434914131e+17
19113.0	8.77863581725491e+17
19114.0	8.776905044699817e+17
19115.0	8.775172837692756e+17
19116.0	8.773440419572392e+17
19117.0	8.771705073827839e+17
19118.0	8.769966845198335e+17
19119.0	8.768167716672851e+17
19120.0	8.766487379225258e+17
19121.0	8.764745286243668e+17
19122.0	8.763001767198719e+17
19123.0	8.761255064677033e+17
19124.0	8.759506621519187e+17
19125.0	8.75775585751313e+17
19126.0	8.756001134084093e+17
19127.0	8.754202185913683e+17
19128.0	8.752489439079081e+17
19129.0	8.750733587382272e+17
19130.0	8.748973372211199e+17
19131.0	8.747210493657085e+17
19132.0	8.745445325012991e+17
19133.0	8.743676826091519e+17
19134.0	8.741909626006182e+17
19135.0	8.740138692990292e+17
19136.0	8.738365271354026e+17
19137.0	8.736586142668115e+17
19138.0	8.734811816460285e+17
19139.0	8.733032835973117e+17
19140.0	8.731251467528873e+17
19141.0	8.729467825771859e+17
19142.0	8.727681846389417e+17
19143.0	8.725892596847955e+17
19144.0	8.724103003373565e+17
19145.0	8.722310859762345e+17
19146.0	8.720495496484182e+17
19147.0	8.718716430712831e+17
19148.0	8.716917983062696e+17
19149.0	8.715091955067561e+17
19150.0	8.712691106097833e+17
19151.0	8.710649351066962e+17
19152.0	8.708840488959999e+17
19153.0	8.707029110270633e+17
19154.0	8.705212526450003e+17
19155.0	8.703399407124479e+17
19156.0	8.70158091489553e+17
19157.0	8.699759100777812e+17
19158.0	8.697933195815594e+17
19159.0	8.696109874544637e+17
19160.0	8.694282266694994e+17
19161.0	8.692450384849578e+17
19162.0	8.690604703743999e+17
19163.0	8.688778429683028e+17
19164.0	8.686943725071017e+17
19165.0	8.685102947106813e+17
19166.0	8.683256404770816e+17
19167.0	8.681411397550079e+17
19168.0	8.679562615455745e+17
19169.0	8.677710939291647e+17
19170.0	8.675856557801471e+17
19171.0	8.673998552432636e+17
19172.0	8.672138280741544e+17
19173.0	8.670274857730047e+17
19174.0	8.668407030699347e+17
19175.0	8.666539019119273e+17
19176.0	8.664666842595327e+17
19177.0	8.662791117690196e+17
19178.0	8.660912381274794e+17
19179.0	8.659030637543421e+17
19180.0	8.657146075239764e+17
19181.0	8.655255776526333e+17
19182.0	8.653366524990804e+17
19183.0	8.65147281491012e+17
19184.0	8.649577726301524e+17
19185.0	8.647681689780224e+17
19186.0	8.645782029380264e+17
19187.0	8.643879244223828e+17
19188.0	8.641394428084221e+17
19189.0	8.639425461004969e+17
19190.0	8.637513528071506e+17
19191.0	8.635598049553066e+17
19192.0	8.633679077179392e+17
19193.0	8.6317561020416e+17
19194.0	8.629829456887804e+17
19195.0	8.627898470629375e+17
19196.0	8.625962509926397e+17
19197.0	8.624020826794664e+17
19198.0	8.622066753688918e+17
19199.0	8.620049820549117e+17
19200.0	8.618110937814358e+17
19201.0	8.61621980303633e+17
19202.0	8.614273461430953e+17
19203.0	8.612316257976319e+17
19204.0	8.610352549156179e+17
19205.0	8.60838482079471e+17
19206.0	8.606411621662719e+17
19207.0	8.604432961546922e+17
19208.0	8.602446227395923e+17
19209.0	8.600462517338111e+17
19210.0	8.598468401212073e+17
19211.0	8.596469116305407e+17
19212.0	8.594098252414975e+17
19213.0	8.591651261906943e+17
19214.0	8.589637706579965e+17
19215.0	8.587623446609919e+17
19216.0	8.585601838219263e+17
19217.0	8.583573727259305e+17
19218.0	8.581521989784915e+17
19219.0	8.579503202762752e+17
19220.0	8.577461640669864e+17
19221.0	8.57484250194466e+17
19222.0	8.572714218422271e+17
19223.0	8.570656251008339e+17
19224.0	8.568590427663018e+17
19225.0	8.566516140212221e+17
19226.0	8.564442035912705e+17
19227.0	8.562358642627923e+17
19228.0	8.560268764949161e+17
19229.0	8.558172314796031e+17
19230.0	8.556069596954621e+17
19231.0	8.553770132701183e+17
19232.0	8.550870910937769e+17
19233.0	8.548752054812672e+17
19234.0	8.546626693322066e+17
19235.0	8.544494598575443e+17
19236.0	8.542354912138579e+17
19237.0	8.540207646594388e+17
19238.0	8.538052582440957e+17
19239.0	8.535881040265216e+17
19240.0	8.53369446150963e+17
19241.0	8.531501963193001e+17
19242.0	8.529302438019071e+17
19243.0	8.527095275017555e+17
19244.0	8.524880490965673e+17
19245.0	8.522658403232425e+17
19246.0	8.520428291795626e+17
19247.0	8.518191405159764e+17
19248.0	8.515465211019263e+17
19249.0	8.513126847392425e+17
19250.0	8.510868681654271e+17
19251.0	8.508598865537706e+17
19252.0	8.506317955487059e+17
19253.0	8.504046565108394e+17
19254.0	8.501602176466945e+17
19255.0	8.498448149337428e+17
19256.0	8.496153202349394e+17
19257.0	8.493844836384765e+17
19258.0	8.491527020653225e+17
19259.0	8.489200719844692e+17
19260.0	8.486863722162856e+17
19261.0	8.484522098163711e+17
19262.0	8.482169575964672e+17
19263.0	8.479806292579668e+17
19264.0	8.477425011436201e+17
19265.0	8.475053563139411e+17
19266.0	8.472667134186834e+17
19267.0	8.470273176458578e+17
19268.0	8.4678663995392e+17
19269.0	8.465450107142143e+17
19270.0	8.46302359742054e+17
19271.0	8.460580736903849e+17
19272.0	8.458142207705088e+17
19273.0	8.455654982636884e+17
19274.0	8.45304403398929e+17
19275.0	8.450580580838058e+17
19276.0	8.44803163099409e+17
19277.0	8.444151968301055e+17
19278.0	8.441650686722047e+17
19279.0	8.439138923577343e+17
19280.0	8.436615800859305e+17
19281.0	8.434076504905043e+17
19282.0	8.431491843358719e+17
19283.0	8.428872306174632e+17
19284.0	8.42623404282129e+17
19285.0	8.423579161635498e+17
19286.0	8.420911166259199e+17
19287.0	8.418224651632639e+17
19288.0	8.415482117881855e+17
19289.0	8.412724802005676e+17
19290.0	8.410067000186196e+17
19291.0	8.407304605007871e+17
19292.0	8.404541761039018e+17
19293.0	8.401683121963007e+17
19294.0	8.397008051459412e+17
19295.0	8.394197905528147e+17
19296.0	8.391370274941609e+17
19297.0	8.388523308613631e+17
19298.0	8.385656655620777e+17
19299.0	8.382769837812392e+17
19300.0	8.379862501468841e+17
19301.0	8.376934190809088e+17
19302.0	8.373984619222358e+17
19303.0	8.371012419365544e+17
19304.0	8.36801878242099e+17
19305.0	8.365003073650685e+17
19306.0	8.361963558010876e+17
19307.0	8.358104850060627e+17
19308.0	8.353374678985386e+17
19309.0	8.350272501841917e+17
19310.0	8.346853482779988e+17
19311.0	8.343570629001215e+17
19312.0	8.340393886919337e+17
19313.0	8.337189143663958e+17
19314.0	8.333906668770642e+17
19315.0	8.330651230360918e+17
19316.0	8.327410467820884e+17
19317.0	8.324088911801e+17
19318.0	8.320725597290496e+17
19319.0	8.315843558856019e+17
19320.0	8.310975395179178e+17
19321.0	8.307538843926527e+17
19322.0	8.304070590726143e+17
19323.0	8.300575707889663e+17
19324.0	8.29704663728128e+17
19325.0	8.293481873145855e+17
19326.0	8.289881605625172e+17
19327.0	8.28621380142148e+17
19328.0	8.282499643168084e+17
19329.0	8.278750578518697e+17
19330.0	8.27285215536742e+17
19331.0	8.266982731634004e+17
19332.0	8.263155191556777e+17
19333.0	8.259291932786684e+17
19334.0	8.25539257783637e+17
19335.0	8.251456940758355e+17
19336.0	8.247484305724755e+17
19337.0	8.243474690910889e+17
19338.0	8.239428777192106e+17
19339.0	8.235345370589866e+17
19340.0	8.228530099148114e+17
19341.0	8.223332348461055e+17
19342.0	8.219161627634345e+17
19343.0	8.214964404398762e+17
19344.0	8.210271197724671e+17
19345.0	8.205148020364628e+17
19346.0	8.200822532516522e+17
19347.0	8.196462150855337e+17
19348.0	8.19204333834513e+17
19349.0	8.187597296413354e+17
19350.0	8.179369197436928e+17
19351.0	8.174640318207318e+17
19352.0	8.170037406509737e+17
19353.0	8.165311173885952e+17
19354.0	8.16051802533615e+17
19355.0	8.154655099977728e+17
19356.0	8.148952269804883e+17
19357.0	8.143952644057769e+17
19358.0	8.138882225449641e+17
19359.0	8.133738786805076e+17
19360.0	8.126913008631808e+17
19361.0	8.121241943321257e+17
19362.0	8.115912853596841e+17
19363.0	8.110500771179177e+17
19364.0	8.105003714958676e+17
19365.0	8.097431385625939e+17
19366.0	8.091479617918289e+17
19367.0	8.085701052596224e+17
19368.0	8.079821387770537e+17
19369.0	8.073840308868434e+17
19370.0	8.067711094139561e+17
19371.0	8.061466580789928e+17
19372.0	8.055118250027689e+17
19373.0	8.048163519376044e+17
19374.0	8.039344497491967e+17
19375.0	8.032669377320275e+17
19376.0	8.025887965096617e+17
19377.0	8.018999426154496e+17
19378.0	8.012002510591315e+17
19379.0	8.00490065633826e+17
19380.0	7.99763276776516e+17
19381.0	7.990275569876991e+17
19382.0	7.9823425751395e+17
19383.0	7.972397130973181e+17
19384.0	7.964805219833172e+17
19385.0	7.957093515176617e+17
19386.0	7.949182951576914e+17
19387.0	7.940961699102719e+17
19388.0	7.932561196056575e+17
19389.0	7.923967170620072e+17
19390.0	7.915127279277394e+17
19391.0	7.906026151302484e+17
19392.0	7.8968783910557e+17
19393.0	7.884709003875667e+17
19394.0	7.875064438106796e+17
19395.0	7.86523162218769e+17
19396.0	7.854989337340582e+17
19397.0	7.844643141408083e+17
19398.0	7.834181809034578e+17
19399.0	7.823497478100308e+17
19400.0	7.812576761785002e+17
19401.0	7.801397170230612e+17
19402.0	7.789913231589375e+17
19403.0	7.77817887482402e+17
19404.0	7.766220106017449e+17
19405.0	7.754014842159101e+17
19406.0	7.741309459278505e+17
19407.0	7.728196022348458e+17
19408.0	7.71432087045188e+17
19409.0	7.70041723363874e+17
19410.0	7.686175333198505e+17
19411.0	7.671457400225791e+17
19412.0	7.656259988400809e+17
19413.0	7.640642407978326e+17
19414.0	7.624637043179519e+17
19415.0	7.608219551662079e+17
19416.0	7.591363551253844e+17
19417.0	7.574378257230504e+17
19418.0	7.55659756658142e+17
19419.0	7.537693035943251e+17
19420.0	7.518266209599487e+17
19421.0	7.498128651452415e+17
19422.0	7.477283300311039e+17
19423.0	7.455799504797693e+17
19424.0	7.433760021326506e+17
19425.0	7.410740027020628e+17
19426.0	7.386793108307964e+17
19427.0	7.361928372420608e+17
19428.0	7.336227067221332e+17
19429.0	7.309567644576425e+17
19430.0	7.281785672389974e+17
19431.0	7.252534379588266e+17
19432.0	7.222226818433023e+17
19433.0	7.19074008882654e+17
19434.0	7.157659807514624e+17
19435.0	7.122903369078099e+17
19436.0	7.086675984034476e+17
19437.0	7.048767929494186e+17
19438.0	7.008804139608745e+17
19439.0	6.966759133282304e+17
19440.0	6.922742457346729e+17
19441.0	6.876080454849874e+17
19442.0	6.827011846701056e+17
19443.0	6.775051586109439e+17
19444.0	6.720134139871228e+17
19445.0	6.661901676533079e+17
19446.0	6.600090838543017e+17
19447.0	6.534324453113852e+17
19448.0	6.464294766684844e+17
19449.0	6.389933997905236e+17
19450.0	6.309245700014075e+17
19451.0	6.264303466315776e+17
19452.0	6.349603898479956e+17
19453.0	6.423998420921005e+17
19454.0	6.493848828816038e+17
19455.0	6.559313870979071e+17
19456.0	6.620610093733207e+17
19457.0	6.67811087402052e+17
19458.0	6.732095718861481e+17
19459.0	6.783016653990572e+17
19460.0	6.830872412028924e+17
19461.0	6.876159042824874e+17
19462.0	6.918814534292822e+17
19463.0	6.959146985324541e+17
19464.0	6.997554922607955e+17
19465.0	7.03366648683998e+17
19466.0	7.067987399933948e+17
19467.0	7.100749954329257e+17
19468.0	7.131895923299668e+17
19469.0	7.161371795914751e+17
19470.0	7.189437547719338e+17
19471.0	7.21641475600111e+17
19472.0	7.242136515422889e+17
19473.0	7.2664636995229e+17
19474.0	7.289770304602111e+17
19475.0	7.312173129444008e+17
19476.0	7.33369381246293e+17
19477.0	7.3543510392832e+17
19478.0	7.373890491077972e+17
19479.0	7.392721112487251e+17
19480.0	7.411034483938644e+17
19481.0	7.428530554710698e+17
19482.0	7.445384547445416e+17
19483.0	7.461598250314409e+17
19484.0	7.477151109829974e+17
19485.0	7.491303871523497e+17
19486.0	7.505305202065407e+17
19487.0	7.518970011014484e+17
19488.0	7.532185710668457e+17
19489.0	7.544997339463679e+17
19490.0	7.557396613649746e+17
19491.0	7.569370117046271e+17
19492.0	7.58080761355742e+17
19493.0	7.591865349395795e+17
19494.0	7.602772794933245e+17
19495.0	7.613177301478057e+17
19496.0	7.623072086840659e+17
19497.0	7.632462697289044e+17
19498.0	7.641480912262483e+17
19499.0	7.650188396418386e+17
19500.0	7.658868992289449e+17
19501.0	7.667140572217343e+17
19502.0	7.675142175981565e+17
19503.0	7.682874436922025e+17
19504.0	7.6903755036317e+17
19505.0	7.697661643019603e+17
19506.0	7.704983299773782e+17
19507.0	7.711878253204819e+17
19508.0	7.718510255931391e+17
19509.0	7.727465889092947e+17
19510.0	7.733868873034409e+17
19511.0	7.739802297652564e+17
19512.0	7.745715040157693e+17
19513.0	7.751326019267242e+17
19514.0	7.75672812483379e+17
19515.0	7.761967330623487e+17
19516.0	7.766957545750528e+17
19517.0	7.771644509902163e+17
19518.0	7.776204990622377e+17
19519.0	7.782559446466556e+17
19520.0	7.787839943781033e+17
19521.0	7.792089990081194e+17
19522.0	7.796336102124202e+17
19523.0	7.800379379023871e+17
19524.0	7.80431348797713e+17
19525.0	7.808136707921234e+17
19526.0	7.811850397810688e+17
19527.0	7.815455924988586e+17
19528.0	7.820617610253655e+17
19529.0	7.824941244219391e+17
19530.0	7.828221993855658e+17
19531.0	7.831388192855379e+17
19532.0	7.834452287116628e+17
19533.0	7.837369239601151e+17
19534.0	7.840167937878696e+17
19535.0	7.84286945133636e+17
19536.0	7.845459833913344e+17
19537.0	7.849976307995987e+17
19538.0	7.852498654767785e+17
19539.0	7.854813211525119e+17
19540.0	7.857061393421651e+17
19541.0	7.859955790337364e+17
19542.0	7.863240134492157e+17
19543.0	7.865282041916073e+17
19544.0	7.86724937601297e+17
19545.0	7.869133028152659e+17
19546.0	7.871374508949505e+17
19547.0	7.87438135934976e+17
19548.0	7.876066913113428e+17
19549.0	7.87768776134929e+17
19550.0	7.87922480739123e+17
19551.0	7.881644855088467e+17
19552.0	7.885714367359658e+17
19553.0	7.887035655607634e+17
19554.0	7.88832881545489e+17
19555.0	7.889588672528384e+17
19556.0	7.890807512104957e+17
19557.0	7.892435346653183e+17
19558.0	7.894245620842493e+17
19559.0	7.895313806611796e+17
19560.0	7.896344368076118e+17
19561.0	7.899081394705743e+17
19562.0	7.901828642854227e+17
19563.0	7.902776926055084e+17
19564.0	7.903686281920512e+17
19565.0	7.904557816348671e+17
19566.0	7.905392166873769e+17
19567.0	7.906189729158484e+17
19568.0	7.906950162066088e+17
19569.0	7.907673665525075e+17
19570.0	7.908361680977919e+17
19571.0	7.911354822994597e+17
19572.0	7.913493678959273e+17
19573.0	7.914096631130792e+17
19574.0	7.914664896408233e+17
19575.0	7.915197359106728e+17
19576.0	7.915666030635689e+17
19577.0	7.916087825225046e+17
19578.0	7.916474189130409e+17
19579.0	7.91682847080448e+17
19580.0	7.917149453899092e+17
19581.0	7.917441875181565e+17
19582.0	7.919838989822634e+17
19583.0	7.920635064527528e+17
19584.0	7.920851736679764e+17
19585.0	7.921034040705021e+17
19586.0	7.921176052847956e+17
19587.0	7.921288908985684e+17
19588.0	7.921364049941844e+17
19589.0	7.921432874276182e+17
19590.0	7.92146417357073e+17
19591.0	7.921471066210301e+17
19592.0	7.921753981801812e+17
19593.0	7.921857927839743e+17
19594.0	7.923905304636073e+17
19595.0	7.923827149373437e+17
19596.0	7.923709117464575e+17
19597.0	7.923586354380799e+17
19598.0	7.923426803056637e+17
19599.0	7.923255057492649e+17
19600.0	7.923056527103314e+17
19601.0	7.922835810243926e+17
19602.0	7.922593667481599e+17
19603.0	7.922324987357866e+17
19604.0	7.92205374451439e+17
19605.0	7.921751237328893e+17
19606.0	7.921435065100969e+17
19607.0	7.921861052596221e+17
19608.0	7.922466561895084e+17
19609.0	7.922107330942292e+17
19610.0	7.921730720191828e+17
19611.0	7.921335878199978e+17
19612.0	7.920923575320573e+17
19613.0	7.920493498378921e+17
19614.0	7.920047594930175e+17
19615.0	7.919585522439506e+17
19616.0	7.919106497970173e+17
19617.0	7.918613012938752e+17
19618.0	7.918088070627325e+17
19619.0	7.917559286333437e+17
19620.0	7.917011745112063e+17
19621.0	7.916441403654143e+17
19622.0	7.915822376113492e+17
19623.0	7.915192297979901e+17
19624.0	7.915252782639786e+17
19625.0	7.915165429268479e+17
19626.0	7.914506648114515e+17
19627.0	7.913837620275881e+17
19628.0	7.913156624689834e+17
19629.0	7.912557742391293e+17
19630.0	7.9118835136157e+17
19631.0	7.911108576804861e+17
19632.0	7.910483689821523e+17
19633.0	7.909764137396905e+17
19634.0	7.90903034670831e+17
19635.0	7.90828656378948e+17
19636.0	7.907533322715133e+17
19637.0	7.9067626892602e+17
19638.0	7.906000011001853e+17
19639.0	7.905220396143958e+17
19640.0	7.904430296924156e+17
19641.0	7.90362050544708e+17
19642.0	7.902829303125331e+17
19643.0	7.902015318742355e+17
19644.0	7.901191649711442e+17
19645.0	7.900356010136915e+17
19646.0	7.900212257357821e+17
19647.0	7.899533407857322e+17
19648.0	7.898680251471187e+17
19649.0	7.89782172917214e+17
19650.0	7.897392326115327e+17
19651.0	7.896566838154578e+17
19652.0	7.895688082533033e+17
19653.0	7.894801649937068e+17
19654.0	7.893907470461609e+17
19655.0	7.893005457424381e+17
19656.0	7.892096555941885e+17
19657.0	7.891180759023612e+17
19658.0	7.890257563353085e+17
19659.0	7.889327400943615e+17
19660.0	7.888390393430015e+17
19661.0	7.887446539414186e+17
19662.0	7.886495939559424e+17
19663.0	7.885536594580819e+17
19664.0	7.884561729279314e+17
19665.0	7.884308752629756e+17
19666.0	7.883396204898986e+17
