# Flux units: erg / (cm m2 s)
# Wavelength units: Angstrom
wave	flux
19000.0	7.954887926437203e+17
19001.0	7.952944730559827e+17
19002.0	7.952089282685609e+17
19003.0	7.950648872009728e+17
19004.0	7.949228367500628e+17
19005.0	7.947805045817343e+17
19006.0	7.9463941434682e+17
19007.0	7.944789690766675e+17
19008.0	7.943255566756521e+17
19009.0	7.941582795833344e+17
19010.0	7.938454815331665e+17
19011.0	7.939086887157757e+17
19012.0	7.936610577066662e+17
19013.0	7.936400632578045e+17
19014.0	7.934637011632127e+17
19015.0	7.933353353281535e+17
19016.0	7.931919825458515e+17
19017.0	7.930594355489449e+17
19018.0	7.929168037675007e+17
19019.0	7.927763640691369e+17
19020.0	7.926268752997033e+17
19021.0	7.924947299773097e+17
19022.0	7.923506384382634e+17
19023.0	7.921843080003581e+17
19024.0	7.920524849403219e+17
19025.0	7.919070527619072e+17
19026.0	7.917513111240703e+17
19027.0	7.915420858187775e+17
19028.0	7.914823814392489e+17
19029.0	7.91329481302562e+17
19030.0	7.912010658349055e+17
19031.0	7.910590472607059e+17
19032.0	7.909111622533117e+17
19033.0	7.907108983581354e+17
19034.0	7.905984996791638e+17
19035.0	7.903589983496873e+17
19036.0	7.845509939068913e+17
19037.0	7.901058965700605e+17
19038.0	7.900153760798038e+17
19039.0	7.898894883793577e+17
19040.0	7.897493461969577e+17
19041.0	7.896014354644991e+17
19042.0	7.894057474151761e+17
19043.0	7.89313680764655e+17
19044.0	7.891627676095828e+17
19045.0	7.890193383511382e+17
19046.0	7.888848717611005e+17
19047.0	7.888016019641683e+17
19048.0	7.885662370572965e+17
19049.0	7.884718678736892e+17
19050.0	7.883332726904148e+17
19051.0	7.872613270071965e+17
19052.0	7.878354025141587e+17
19053.0	7.879222043344893e+17
19054.0	7.87783034671377e+17
19055.0	7.874979142740653e+17
19056.0	7.874811043424938e+17
19057.0	7.873448817371817e+17
19058.0	7.871867146731517e+17
19059.0	7.870519179913897e+17
19060.0	7.868972432446804e+17
19061.0	7.867619211564374e+17
19062.0	7.866117263458301e+17
19063.0	7.864649968691884e+17
19064.0	7.862521518795434e+17
19065.0	7.860666850694483e+17
19066.0	7.859856220356607e+17
19067.0	7.858682777130323e+17
19068.0	7.857273177811625e+17
19069.0	7.855806796005373e+17
19070.0	7.854171450856787e+17
19071.0	7.852780583299754e+17
19072.0	7.851348385071101e+17
19073.0	7.849853577068543e+17
19074.0	7.848420443510099e+17
19075.0	7.8469363952954e+17
19076.0	7.845355682354515e+17
19077.0	7.843892855919955e+17
19078.0	7.842257312240979e+17
19079.0	7.840977360257025e+17
19080.0	7.839419303548244e+17
19081.0	7.83774652423646e+17
19082.0	7.836318063132671e+17
19083.0	7.834318035834195e+17
19084.0	7.832114991639209e+17
19085.0	7.831912581518676e+17
19086.0	7.828064181769556e+17
19087.0	7.827759566247251e+17
19088.0	7.826624212893693e+17
19089.0	7.824255546818563e+17
19090.0	7.824184734384125e+17
19091.0	7.822834667618305e+17
19092.0	7.820923356839933e+17
19093.0	7.820043341529085e+17
19094.0	7.818605329995091e+17
19095.0	7.817148730703871e+17
19096.0	7.815586636278441e+17
19097.0	7.814155735487827e+17
19098.0	7.812636098603689e+17
19099.0	7.811134006493183e+17
19100.0	7.809565296252242e+17
19101.0	7.808131888665939e+17
19102.0	7.806215959958867e+17
19103.0	7.805148088762365e+17
19104.0	7.803684377329663e+17
19105.0	7.802083461824511e+17
19106.0	7.800416992144041e+17
19107.0	7.798972591286952e+17
19108.0	7.797389392521898e+17
19109.0	7.791469028966394e+17
19110.0	7.793683817212585e+17
19111.0	7.792926022522195e+17
19112.0	7.791527213749587e+17
19113.0	7.790051653408083e+17
19114.0	7.788529758590292e+17
19115.0	7.786685794353151e+17
19116.0	7.785410007313066e+17
19117.0	7.783770351818067e+17
19118.0	7.781512056056489e+17
19119.0	7.766189844114067e+17
19120.0	7.778502806514344e+17
19121.0	7.777264513755817e+17
19122.0	7.776189189281108e+17
19123.0	7.774671948742655e+17
19124.0	7.77275329933039e+17
19125.0	7.771590901104639e+17
19126.0	7.769948502534825e+17
19127.0	7.760084901822461e+17
19128.0	7.765522496793257e+17
19129.0	7.765084454868308e+17
19130.0	7.764016463435092e+17
19131.0	7.762553076361897e+17
19132.0	7.761058185871357e+17
19133.0	7.758890408782508e+17
19134.0	7.757392225763328e+17
19135.0	7.756515701511506e+17
19136.0	7.755024232174931e+17
19137.0	7.752749865238527e+17
19138.0	7.75189899055377e+17
19139.0	7.750485024964608e+17
19140.0	7.748988705614506e+17
19141.0	7.747472509457747e+17
19142.0	7.745780233622867e+17
19143.0	7.744142634734931e+17
19144.0	7.742656378918228e+17
19145.0	7.741355962925055e+17
19146.0	7.736516008738822e+17
19147.0	7.737915920613373e+17
19148.0	7.736755492312403e+17
19149.0	7.735214869927254e+17
19150.0	7.733721102112084e+17
19151.0	7.732194390835199e+17
19152.0	7.730613206734161e+17
19153.0	7.7289999068474e+17
19154.0	7.726992090726399e+17
19155.0	7.726006450257919e+17
19156.0	7.72440935576371e+17
19157.0	7.722387614553428e+17
19158.0	7.718849379390803e+17
19159.0	7.719442625942868e+17
19160.0	7.718095093934762e+17
19161.0	7.716289037817172e+17
19162.0	7.707986369708035e+17
19163.0	7.712450182905855e+17
19164.0	7.71209922871296e+17
19165.0	7.710509386170365e+17
19166.0	7.708504373242534e+17
19167.0	7.706932633316009e+17
19168.0	7.705909890034348e+17
19169.0	7.704431786546515e+17
19170.0	7.703011326776659e+17
19171.0	7.701217490064726e+17
19172.0	7.699849769473364e+17
19173.0	7.698423300663978e+17
19174.0	7.696627640827903e+17
19175.0	7.69536754328098e+17
19176.0	7.693794329755647e+17
19177.0	7.691411695250089e+17
19178.0	7.690468722038099e+17
19179.0	7.688743087505407e+17
19180.0	7.68748068029508e+17
19181.0	7.685543096396457e+17
19182.0	7.684403867506003e+17
19183.0	7.682971100250111e+17
19184.0	7.681333951550804e+17
19185.0	7.679781607484074e+17
19186.0	7.678296611356671e+17
19187.0	7.676248850082472e+17
19188.0	7.675128081722025e+17
19189.0	7.673529645050538e+17
19190.0	7.671910253636268e+17
19191.0	7.670168482217983e+17
19192.0	7.668805393536339e+17
19193.0	7.667118564704256e+17
19194.0	7.665396939926186e+17
19195.0	7.663758769214803e+17
19196.0	7.6617770612381e+17
19197.0	7.659465151086591e+17
19198.0	7.654868725181097e+17
19199.0	7.612076648999584e+17
19200.0	7.619021490880521e+17
19201.0	7.650612671239508e+17
19202.0	7.651048098714964e+17
19203.0	7.649817073287167e+17
19204.0	7.648530972453545e+17
19205.0	7.64718007661363e+17
19206.0	7.645672726244008e+17
19207.0	7.64362895794722e+17
19208.0	7.641708412709544e+17
19209.0	7.641033222040233e+17
19210.0	7.639487386135212e+17
19211.0	7.637985558265853e+17
19212.0	7.636346343172777e+17
19213.0	7.633989214229844e+17
19214.0	7.632171264464212e+17
19215.0	7.631380358539948e+17
19216.0	7.629977612713983e+17
19217.0	7.628260312263338e+17
19218.0	7.622844108242938e+17
19219.0	7.624134407574867e+17
19220.0	7.623422786579114e+17
19221.0	7.620462952928596e+17
19222.0	7.620231581138941e+17
19223.0	7.618646731216212e+17
19224.0	7.61687900684288e+17
19225.0	7.614843581016745e+17
19226.0	7.613775522474664e+17
19227.0	7.612161452234068e+17
19228.0	7.610694006472703e+17
19229.0	7.609063172997117e+17
19230.0	7.607356693850794e+17
19231.0	7.605702211491155e+17
19232.0	7.60411913855522e+17
19233.0	7.602115877448362e+17
19234.0	7.600768580321279e+17
19235.0	7.599025058480127e+17
19236.0	7.59759653306368e+17
19237.0	7.595850075209727e+17
19238.0	7.593749823619072e+17
19239.0	7.592639729762305e+17
19240.0	7.590841098960896e+17
19241.0	7.589137948693846e+17
19242.0	7.58623431172642e+17
19243.0	7.583598510429522e+17
19244.0	7.582943602016256e+17
19245.0	7.581237202561705e+17
19246.0	7.579509806421331e+17
19247.0	7.577841236792662e+17
19248.0	7.576211800020308e+17
19249.0	7.574511064274259e+17
19250.0	7.572728856969216e+17
19251.0	7.570528642531324e+17
19252.0	7.567732513964032e+17
19253.0	7.567621269837139e+17
19254.0	7.566026169035433e+17
19255.0	7.563210517381116e+17
19256.0	7.562434467681622e+17
19257.0	7.560877330923519e+17
19258.0	7.559167047543466e+17
19259.0	7.556986553324883e+17
19260.0	7.554588771789478e+17
19261.0	7.553875670204415e+17
19262.0	7.55187477328691e+17
19263.0	7.550070867449172e+17
19264.0	7.544566083922596e+17
19265.0	7.544095578084691e+17
19266.0	7.542542044233727e+17
19267.0	7.541544876419753e+17
19268.0	7.539730782617599e+17
19269.0	7.537945559607978e+17
19270.0	7.536112211154262e+17
19271.0	7.532766080707244e+17
19272.0	7.532328195369641e+17
19273.0	7.525788394629798e+17
19274.0	7.524844887343098e+17
19275.0	7.527131366031357e+17
19276.0	7.525248874315773e+17
19277.0	7.52343631003648e+17
19278.0	7.521633859622228e+17
19279.0	7.518288488344234e+17
19280.0	7.514919897399296e+17
19281.0	7.513223908207274e+17
19282.0	7.511387208504659e+17
19283.0	7.50912782082594e+17
19284.0	7.50692527575313e+17
19285.0	7.505014847176701e+17
19286.0	7.503612192227325e+17
19287.0	7.501816928053929e+17
19288.0	7.483728030160198e+17
19289.0	7.461535539877147e+17
19290.0	7.496064691776169e+17
19291.0	7.492899029647363e+17
19292.0	7.489447455795884e+17
19293.0	7.487365712270676e+17
19294.0	7.485383784792063e+17
19295.0	7.483495496548352e+17
19296.0	7.481471860910761e+17
19297.0	7.479351441708374e+17
19298.0	7.477372404105216e+17
19299.0	7.47551234073122e+17
19300.0	7.4735068147002e+17
19301.0	7.471457981082284e+17
19302.0	7.465502332245332e+17
19303.0	7.463092896137215e+17
19304.0	7.461262682226688e+17
19305.0	7.459242607553194e+17
19306.0	7.45716002516719e+17
19307.0	7.454804989181948e+17
19308.0	7.452718626329938e+17
19309.0	7.448529201703589e+17
19310.0	7.441713154315603e+17
19311.0	7.441364421705728e+17
19312.0	7.439622710405802e+17
19313.0	7.437422950350847e+17
19314.0	7.402836274970614e+17
19315.0	7.403029850488879e+17
19316.0	7.428723945679529e+17
19317.0	7.425280008257535e+17
19318.0	7.423063420654931e+17
19319.0	7.420907324702717e+17
19320.0	7.41863360368913e+17
19321.0	7.416297425294676e+17
19322.0	7.41346957660433e+17
19323.0	7.411022920242515e+17
19324.0	7.409052749398015e+17
19325.0	7.405998341182803e+17
19326.0	7.404376209489917e+17
19327.0	7.402096972966569e+17
19328.0	7.399773146797396e+17
19329.0	7.397401699898708e+17
19330.0	7.394142876685654e+17
19331.0	7.391203227424084e+17
19332.0	7.388942087924393e+17
19333.0	7.386352639279101e+17
19334.0	7.383922206485162e+17
19335.0	7.381332573290496e+17
19336.0	7.378804558615891e+17
19337.0	7.376248005896874e+17
19338.0	7.372604253230418e+17
19339.0	7.371022105837565e+17
19340.0	7.368103860109311e+17
19341.0	7.364917068475049e+17
19342.0	7.359664179467602e+17
19343.0	7.358703563614888e+17
19344.0	7.355846070981974e+17
19345.0	7.34463089075813e+17
19346.0	7.346348960164518e+17
19347.0	7.347380814872573e+17
19348.0	7.344904968951123e+17
19349.0	7.341842243431081e+17
19350.0	7.337225711430309e+17
19351.0	7.33364319700036e+17
19352.0	7.330449360333481e+17
19353.0	7.327831489686186e+17
19354.0	7.324764211948202e+17
19355.0	7.321161391494484e+17
19356.0	7.316910995668992e+17
19357.0	7.312202141444778e+17
19358.0	7.308867648793258e+17
19359.0	7.305372247261183e+17
19360.0	7.302063978796372e+17
19361.0	7.29723764631142e+17
19362.0	7.291514594000893e+17
19363.0	7.287995992375293e+17
19364.0	7.284431142955689e+17
19365.0	7.280636245748396e+17
19366.0	7.272209947732649e+17
19367.0	7.268438196092927e+17
19368.0	7.26463957574178e+17
19369.0	7.258742360550058e+17
19370.0	7.250312486191104e+17
19371.0	7.246425075220479e+17
19372.0	7.242229018001407e+17
19373.0	7.231055910841e+17
19374.0	7.226757611869523e+17
19375.0	7.221450737975299e+17
19376.0	7.209449247386284e+17
19377.0	7.204695077901651e+17
19378.0	7.19785534947328e+17
19379.0	7.190266449843539e+17
19380.0	7.185271983090345e+17
19381.0	7.180167067729919e+17
19382.0	7.174652859602262e+17
19383.0	7.169293747049811e+17
19384.0	7.164358838015316e+17
19385.0	7.158956080933545e+17
19386.0	7.153459965635241e+17
19387.0	7.147788209662633e+17
19388.0	7.141940210434047e+17
19389.0	7.136147819287892e+17
19390.0	7.13005605130513e+17
19391.0	7.084523574875423e+17
19392.0	7.11679586826103e+17
19393.0	7.112224757776381e+17
19394.0	7.106087147449002e+17
19395.0	7.09982445179153e+17
19396.0	7.093451911506602e+17
19397.0	7.086948532704598e+17
19398.0	7.080085630746623e+17
19399.0	7.07046192464964e+17
19400.0	7.065509624632662e+17
19401.0	7.058658005352447e+17
19402.0	7.051374653778602e+17
19403.0	7.043796796353194e+17
19404.0	7.036185391486292e+17
19405.0	7.027931008204797e+17
19406.0	7.019297030624596e+17
19407.0	7.010967834241706e+17
19408.0	6.999758187003908e+17
19409.0	6.993289541233322e+17
19410.0	6.982937751497385e+17
19411.0	6.973104451136169e+17
19412.0	6.963123836332713e+17
19413.0	6.952200743944191e+17
19414.0	6.940320620434771e+17
19415.0	6.929461476502185e+17
19416.0	6.916403555379881e+17
19417.0	6.903784310221481e+17
19418.0	6.8918297755648e+17
19419.0	6.875758907621375e+17
19420.0	6.862109193273343e+17
19421.0	6.844976017877674e+17
19422.0	6.828975823257599e+17
19423.0	6.810739783587156e+17
19424.0	6.792397274305876e+17
19425.0	6.77180267054148e+17
19426.0	6.751371372003327e+17
19427.0	6.729081201972566e+17
19428.0	6.707529537028096e+17
19429.0	6.68412411344759e+17
19430.0	6.658247665298093e+17
19431.0	6.627649292774067e+17
19432.0	6.605676453997225e+17
19433.0	6.578284599618218e+17
19434.0	6.548553243557887e+17
19435.0	6.516126766159186e+17
19436.0	6.480816843871569e+17
19437.0	6.447034053689343e+17
19438.0	6.369659771857583e+17
19439.0	6.362329230868483e+17
19440.0	6.317343539986431e+17
19441.0	6.265452359581693e+17
19442.0	6.207929505371479e+17
19443.0	6.144207422313812e+17
19444.0	6.073014142981458e+17
19445.0	5.992814960356013e+17
19446.0	5.901723021344768e+17
19447.0	5.797078581466447e+17
19448.0	5.6746726279959936e+17
19449.0	5.5278273850682016e+17
19450.0	5.339564283527155e+17
19451.0	5.2340996537931136e+17
19452.0	5.4414825795966304e+17
19453.0	5.6032625744500096e+17
19454.0	5.734275365557584e+17
19455.0	5.8447185327773e+17
19456.0	5.939728452244824e+17
19457.0	6.022602157981691e+17
19458.0	6.064819464219359e+17
19459.0	6.15985736668502e+17
19460.0	6.218507313567058e+17
19461.0	6.27101884551441e+17
19462.0	6.317753497550849e+17
19463.0	6.359801692946428e+17
19464.0	6.399214749745151e+17
19465.0	6.434476634669057e+17
19466.0	6.466558321404585e+17
19467.0	6.496407048770899e+17
19468.0	6.524932710203392e+17
19469.0	6.55014916015172e+17
19470.0	6.575207071001256e+17
19471.0	6.60084208242961e+17
19472.0	6.621727572361212e+17
19473.0	6.645224296153084e+17
19474.0	6.662958209826816e+17
19475.0	6.681829236364622e+17
19476.0	6.700787851853821e+17
19477.0	6.720662006311597e+17
19478.0	6.735736450230953e+17
19479.0	6.753071079445842e+17
19480.0	6.766031638888447e+17
19481.0	6.780887709865298e+17
19482.0	6.793048379883519e+17
19483.0	6.805423028611753e+17
19484.0	6.816929548686675e+17
19485.0	6.826231911677953e+17
19486.0	6.837128290544298e+17
19487.0	6.845617348629844e+17
19488.0	6.85404484551748e+17
19489.0	6.862761300590592e+17
19490.0	6.866049685957285e+17
19491.0	6.877640378722985e+17
19492.0	6.885551253400233e+17
19493.0	6.892422843858943e+17
19494.0	6.898458912882687e+17
19495.0	6.904203177885695e+17
19496.0	6.908540618801148e+17
19497.0	6.915521138130944e+17
19498.0	6.915077997330435e+17
19499.0	6.865140857176031e+17
19500.0	6.930133780092244e+17
19501.0	6.935014869215913e+17
19502.0	6.939458099565908e+17
19503.0	6.944074102385321e+17
19504.0	6.948223239323647e+17
19505.0	6.952194442701482e+17
19506.0	6.956036973221204e+17
19507.0	6.959519156404223e+17
19508.0	6.96306413740578e+17
19509.0	6.966368535926099e+17
19510.0	6.968718768035155e+17
19511.0	6.91102031858889e+17
19512.0	6.965237701935086e+17
19513.0	6.959782046990308e+17
19514.0	6.968235614273519e+17
19515.0	6.982939905272494e+17
19516.0	6.987981543265619e+17
19517.0	6.990592168951805e+17
19518.0	6.993484313526272e+17
19519.0	6.99602279019315e+17
19520.0	6.998398817970857e+17
19521.0	7.000913424154623e+17
19522.0	7.00302101717538e+17
19523.0	7.006322961328809e+17
19524.0	7.011989211578367e+17
19525.0	7.013930687092052e+17
19526.0	7.020108657109672e+17
19527.0	7.0254629762717e+17
19528.0	7.027115662770175e+17
19529.0	7.03267572372822e+17
19530.0	7.036873350316031e+17
19531.0	7.038250341018281e+17
19532.0	7.04153371768695e+17
19533.0	7.046362046660607e+17
19534.0	7.047422976283987e+17
19535.0	7.048334464253951e+17
19536.0	7.051885486451372e+17
19537.0	7.054876799751508e+17
19538.0	7.055130588697943e+17
19539.0	7.054198636718766e+17
19540.0	7.057876463910913e+17
19541.0	7.061564333664936e+17
19542.0	7.062126204026879e+17
19543.0	7.062632294339923e+17
19544.0	7.063144595019092e+17
19545.0	7.061785398651558e+17
19546.0	7.063059155648511e+17
19547.0	7.06727502815778e+17
19548.0	7.067633586623828e+17
19549.0	7.06737663517218e+17
19550.0	7.068172795161257e+17
19551.0	7.068401588852051e+17
19552.0	7.070066453512191e+17
19553.0	7.070715733169492e+17
19554.0	7.070741059775148e+17
19555.0	7.070912364937215e+17
19556.0	7.070977731766953e+17
19557.0	7.070950348554239e+17
19558.0	7.07089985053218e+17
19559.0	7.070836083130365e+17
19560.0	7.070616161790633e+17
19561.0	7.071907943109971e+17
19562.0	7.071962410341716e+17
19563.0	7.071863567373651e+17
19564.0	7.071677357053268e+17
19565.0	7.071488255459327e+17
19566.0	7.07113690140945e+17
19567.0	7.071061230572884e+17
19568.0	7.070647575729491e+17
19569.0	7.07043826737698e+17
19570.0	7.070271359243604e+17
19571.0	7.069971037290493e+17
19572.0	7.069886485714262e+17
19573.0	7.070193308838569e+17
19574.0	7.069391699050493e+17
19575.0	7.069531890865492e+17
19576.0	7.069139594816169e+17
19577.0	7.068634666325331e+17
19578.0	7.068135163865769e+17
19579.0	7.067737725599743e+17
19580.0	7.067302342863529e+17
19581.0	7.066912027923798e+17
19582.0	7.066492289941504e+17
19583.0	7.065981967575722e+17
19584.0	7.065420048280233e+17
19585.0	7.064415176927913e+17
19586.0	7.066079313177258e+17
19587.0	7.066051407074644e+17
19588.0	7.063581719789569e+17
19589.0	7.065052578316287e+17
19590.0	7.064612797153279e+17
19591.0	7.064382924128253e+17
19592.0	7.064907108668754e+17
19593.0	7.067245891725994e+17
19594.0	7.065372612100092e+17
19595.0	7.065857398145023e+17
19596.0	7.06235518086895e+17
19597.0	7.06451998839057e+17
19598.0	7.062465407178067e+17
19599.0	7.063154451633492e+17
19600.0	7.063549894808918e+17
19601.0	7.06482785030417e+17
19602.0	7.064059252484777e+17
19603.0	7.061150594935462e+17
19604.0	7.062390968068778e+17
19605.0	7.06048439405773e+17
19606.0	7.061238363542868e+17
19607.0	7.060446807501481e+17
19608.0	7.059583519074985e+17
19609.0	7.058546414496425e+17
19610.0	7.058304008891049e+17
19611.0	7.059865026778452e+17
19612.0	7.059093005008893e+17
19613.0	7.0581656499869e+17
19614.0	7.057120532889599e+17
19615.0	7.056444170611369e+17
19616.0	7.055140087398399e+17
19617.0	7.054627055512233e+17
19618.0	7.050996611372369e+17
19619.0	7.049409907567269e+17
19620.0	7.048805161631741e+17
19621.0	7.050931272504659e+17
19622.0	7.050119220297727e+17
19623.0	7.049668276693674e+17
19624.0	7.050356329895252e+17
19625.0	7.049447352915284e+17
19626.0	7.048562516951037e+17
19627.0	7.047586693950122e+17
19628.0	7.045381004547412e+17
19629.0	7.044445420300969e+17
19630.0	7.035780553768957e+17
19631.0	6.996026902708228e+17
19632.0	7.041231063700819e+17
19633.0	7.041215575534249e+17
19634.0	7.040769584005119e+17
19635.0	7.039626240502441e+17
19636.0	7.038806747600212e+17
19637.0	7.035634771645783e+17
19638.0	7.036846574578345e+17
19639.0	7.036360355479552e+17
19640.0	7.035988935879338e+17
19641.0	7.032307840625331e+17
19642.0	7.034342543633065e+17
19643.0	7.033281542706516e+17
19644.0	7.031955059813032e+17
19645.0	7.029996352700413e+17
19646.0	7.030198309137066e+17
19647.0	7.029191265834324e+17
19648.0	7.028107871518719e+17
19649.0	7.027031672531625e+17
19650.0	7.02599945851153e+17
19651.0	7.025250445994665e+17
19652.0	7.024221301506048e+17
19653.0	7.023161393195689e+17
19654.0	7.022041154016596e+17
19655.0	7.02092433039906e+17
19656.0	7.019890256205139e+17
19657.0	7.0187913066141e+17
19658.0	7.017729280180223e+17
19659.0	7.01662504296994e+17
19660.0	7.015551019428521e+17
19661.0	7.015028118345044e+17
19662.0	7.014467976735402e+17
19663.0	7.013083526463487e+17
19664.0	7.012017572063913e+17
19665.0	7.011129653286228e+17
