# Flux units: erg / (cm m2 s)
# Wavelength units: Angstrom
wave	flux
19000.0	6.044420063363071e+17
19001.0	6.043206731606698e+17
19002.0	6.042165482356735e+17
19003.0	6.041033761969492e+17
19004.0	6.039906879012863e+17
19005.0	6.038775960436736e+17
19006.0	6.037654479044608e+17
19007.0	6.036484947705855e+17
19008.0	6.03534626267682e+17
19009.0	6.034181086423721e+17
19010.0	6.032738952587945e+17
19011.0	6.031975387234303e+17
19012.0	6.030656821089619e+17
19013.0	6.029752114610176e+17
19014.0	6.028578356811092e+17
19015.0	6.027466464996009e+17
19016.0	6.026325702388394e+17
19017.0	6.025286093810346e+17
19018.0	6.024145681427114e+17
19019.0	6.023027833700351e+17
19020.0	6.02188605886737e+17
19021.0	6.020776915719508e+17
19022.0	6.019654692634623e+17
19023.0	6.018493432463359e+17
19024.0	6.017383711899647e+17
19025.0	6.016260741529599e+17
19026.0	6.015110120210431e+17
19027.0	6.013861113102335e+17
19028.0	6.012894794394282e+17
19029.0	6.011765765352105e+17
19030.0	6.010653419154089e+17
19031.0	6.009527997213353e+17
19032.0	6.008398484428116e+17
19033.0	6.007198194860031e+17
19034.0	6.006139290386431e+17
19035.0	6.004984358021801e+17
19036.0	5.991999988913492e+17
19037.0	6.002761208430592e+17
19038.0	6.001630178705405e+17
19039.0	6.000526906884095e+17
19040.0	5.99940261810449e+17
19041.0	5.998269849141247e+17
19042.0	5.997060821439827e+17
19043.0	5.996030422155263e+17
19044.0	5.994894949963092e+17
19045.0	5.993776554879658e+17
19046.0	5.992613354842793e+17
19047.0	5.991515643969533e+17
19048.0	5.99022374101538e+17
19049.0	5.989201568858111e+17
19050.0	5.988127564890112e+17
19051.0	5.985346556788732e+17
19052.0	5.985577851682815e+17
19053.0	5.984785739896148e+17
19054.0	5.983672564624041e+17
19055.0	5.982327466710356e+17
19056.0	5.981402764585641e+17
19057.0	5.980299942952959e+17
19058.0	5.979153927678634e+17
19059.0	5.978056657906345e+17
19060.0	5.976921750547114e+17
19061.0	5.97582076252433e+17
19062.0	5.974694924648447e+17
19063.0	5.973575428560211e+17
19064.0	5.972347278327805e+17
19065.0	5.971186819967657e+17
19066.0	5.970160996668756e+17
19067.0	5.96909192450321e+17
19068.0	5.967973658045098e+17
19069.0	5.966853816625833e+17
19070.0	5.965712958248276e+17
19071.0	5.964609450846889e+17
19072.0	5.963487224266751e+17
19073.0	5.962370621549225e+17
19074.0	5.96125593632768e+17
19075.0	5.960136696091988e+17
19076.0	5.958999918772223e+17
19077.0	5.957884783362045e+17
19078.0	5.956749836156927e+17
19079.0	5.955659189889705e+17
19080.0	5.95452779176482e+17
19081.0	5.953389651296255e+17
19082.0	5.952268400590847e+17
19083.0	5.951099434085033e+17
19084.0	5.949877824869716e+17
19085.0	5.948952537639593e+17
19086.0	5.947510457630719e+17
19087.0	5.946379282502996e+17
19088.0	5.945519930430804e+17
19089.0	5.944167929391785e+17
19090.0	5.943341489324031e+17
19091.0	5.942224098776404e+17
19092.0	5.941011501023231e+17
19093.0	5.940018512833194e+17
19094.0	5.938901494180522e+17
19095.0	5.937785366118399e+17
19096.0	5.936656453817684e+17
19097.0	5.935553229531817e+17
19098.0	5.934434476534441e+17
19099.0	5.933318049278634e+17
19100.0	5.93218631770658e+17
19101.0	5.931086093746173e+17
19102.0	5.929888924740266e+17
19103.0	5.928867247510867e+17
19104.0	5.927752913212756e+17
19105.0	5.926624368612692e+17
19106.0	5.925465608246611e+17
19107.0	5.924393647603711e+17
19108.0	5.923290462464681e+17
19109.0	5.921291088778579e+17
19110.0	5.921039552173396e+17
19111.0	5.919952908670292e+17
19112.0	5.918839951501994e+17
19113.0	5.917732264476671e+17
19114.0	5.91661773234722e+17
19115.0	5.915445773904554e+17
19116.0	5.91437602296081e+17
19117.0	5.913263387355818e+17
19118.0	5.91204979904785e+17
19119.0	5.906372052211022e+17
19120.0	5.909843909017599e+17
19121.0	5.908764720190804e+17
19122.0	5.907725978435583e+17
19123.0	5.906614501157546e+17
19124.0	5.905451411570688e+17
19125.0	5.904384347078655e+17
19126.0	5.903276859981823e+17
19127.0	5.900620868703571e+17
19128.0	5.900804101767168e+17
19129.0	5.899886248241834e+17
19130.0	5.89882380587281e+17
19131.0	5.89773011943424e+17
19132.0	5.896619980838227e+17
19133.0	5.895369088390484e+17
19134.0	5.89428705862178e+17
19135.0	5.893288562611539e+17
19136.0	5.892188354729302e+17
19137.0	5.890938239625897e+17
19138.0	5.889949047980031e+17
19139.0	5.88886188368418e+17
19140.0	5.887755397627904e+17
19141.0	5.886647206587048e+17
19142.0	5.88551837258001e+17
19143.0	5.884385514837332e+17
19144.0	5.883291691384832e+17
19145.0	5.882214937351508e+17
19146.0	5.880602650389161e+17
19147.0	5.879906938388479e+17
19148.0	5.878886125185705e+17
19149.0	5.877774422114303e+17
19150.0	5.87667552215586e+17
19151.0	5.875576699792041e+17
19152.0	5.874454875865087e+17
19153.0	5.873338714248532e+17
19154.0	5.872145845802324e+17
19155.0	5.871153272848383e+17
19156.0	5.870044679154346e+17
19157.0	5.86892332708659e+17
19158.0	5.867220415894867e+17
19159.0	5.866712015219369e+17
19160.0	5.865604810539008e+17
19161.0	5.86449670897664e+17
19162.0	5.862032326787072e+17
19163.0	5.862267490926591e+17
19164.0	5.861207681881428e+17
19165.0	5.860064506849961e+17
19166.0	5.858861437856425e+17
19167.0	5.857764998556329e+17
19168.0	5.856770931731114e+17
19169.0	5.855649493680127e+17
19170.0	5.854583683284991e+17
19171.0	5.853394642141183e+17
19172.0	5.852371352201898e+17
19173.0	5.851271286925994e+17
19174.0	5.850123328989865e+17
19175.0	5.849069445797203e+17
19176.0	5.847969320402943e+17
19177.0	5.846735413488298e+17
19178.0	5.84572702171682e+17
19179.0	5.844539716315818e+17
19180.0	5.843533439172608e+17
19181.0	5.842352060323156e+17
19182.0	5.841331693813759e+17
19183.0	5.84025135714577e+17
19184.0	5.839134219654484e+17
19185.0	5.838044347236351e+17
19186.0	5.836946264468138e+17
19187.0	5.83578762154257e+17
19188.0	5.8347418039965e+17
19189.0	5.833635206791167e+17
19190.0	5.832526506142377e+17
19191.0	5.831402236936191e+17
19192.0	5.830340303476052e+17
19193.0	5.829232246652927e+17
19194.0	5.828126203794772e+17
19195.0	5.827037175130793e+17
19196.0	5.825925559440724e+17
19197.0	5.824822073709908e+17
19198.0	5.823707793937748e+17
19199.0	5.814524702971218e+17
19200.0	5.815891048529923e+17
19201.0	5.820411873503914e+17
19202.0	5.81933091328273e+17
19203.0	5.818213573765802e+17
19204.0	5.817114729032364e+17
19205.0	5.816027436111188e+17
19206.0	5.814924788542121e+17
19207.0	5.813737871114237e+17
19208.0	5.812553724024148e+17
19209.0	5.811630388543487e+17
19210.0	5.810534365178538e+17
19211.0	5.809442445940052e+17
19212.0	5.808343123755008e+17
19213.0	5.807114380028586e+17
19214.0	5.805967688073215e+17
19215.0	5.805012096996692e+17
19216.0	5.803943702211242e+17
19217.0	5.802846354844329e+17
19218.0	5.801026807747924e+17
19219.0	5.800520339947519e+17
19220.0	5.799525693609299e+17
19221.0	5.798172677548713e+17
19222.0	5.797340975726591e+17
19223.0	5.796232387624959e+17
19224.0	5.795110330215081e+17
19225.0	5.793920115365206e+17
19226.0	5.792934608415401e+17
19227.0	5.791833567963818e+17
19228.0	5.790755967380137e+17
19229.0	5.78965631664128e+17
19230.0	5.788544732408489e+17
19231.0	5.787440022639956e+17
19232.0	5.786348519336618e+17
19233.0	5.785198971060223e+17
19234.0	5.784138994242899e+17
19235.0	5.7830411351709e+17
19236.0	5.781959755519316e+17
19237.0	5.780846121669972e+17
19238.0	5.779670903554047e+17
19239.0	5.778661170304339e+17
19240.0	5.777526887197353e+17
19241.0	5.776431655157759e+17
19242.0	5.775344814522368e+17
19243.0	5.774124368527359e+17
19244.0	5.77316174570018e+17
19245.0	5.772056376027818e+17
19246.0	5.770944322732031e+17
19247.0	5.769858865517908e+17
19248.0	5.76875884917555e+17
19249.0	5.767650465196714e+17
19250.0	5.766539057124692e+17
19251.0	5.765342067075754e+17
19252.0	5.7641268926218234e+17
19253.0	5.76322978062882e+17
19254.0	5.7621438389725856e+17
19255.0	5.760899035955199e+17
19256.0	5.759904943265108e+17
19257.0	5.758842012958719e+17
19258.0	5.757738389514922e+17
19259.0	5.7565779723987616e+17
19260.0	5.7552983398809594e+17
19261.0	5.754416056849749e+17
19262.0	5.7532740408442874e+17
19263.0	5.75216085508642e+17
19264.0	5.750637770484392e+17
19265.0	5.749832811544575e+17
19266.0	5.7487102109723296e+17
19267.0	5.747798969767252e+17
19268.0	5.7466928479163725e+17
19269.0	5.745586296848383e+17
19270.0	5.7444769775397523e+17
19271.0	5.743075023039147e+17
19272.0	5.7422327830282234e+17
19273.0	5.7399942361470266e+17
19274.0	5.7392571242687123e+17
19275.0	5.73893737779473e+17
19276.0	5.737810756283049e+17
19277.0	5.7367048658179405e+17
19278.0	5.7355958233333754e+17
19279.0	5.732775435610794e+17
19280.0	5.731569339028821e+17
19281.0	5.730515276879188e+17
19282.0	5.729416836896084e+17
19283.0	5.7281755976389965e+17
19284.0	5.727086093620564e+17
19285.0	5.7259083099886925e+17
19286.0	5.7249234321844896e+17
19287.0	5.7238356030914554e+17
19288.0	5.71919731034248e+17
19289.0	5.714091946890569e+17
19290.0	5.720479262310398e+17
19291.0	5.719142311832235e+17
19292.0	5.7182384120572576e+17
19293.0	5.717109661936298e+17
19294.0	5.715983791205034e+17
19295.0	5.714868917239807e+17
19296.0	5.713736226570239e+17
19297.0	5.712598660022271e+17
19298.0	5.711465549922303e+17
19299.0	5.7103525934530554e+17
19300.0	5.709224550072319e+17
19301.0	5.7080926332518394e+17
19302.0	5.706949198872575e+17
19303.0	5.7057672733655034e+17
19304.0	5.7046623650665805e+17
19305.0	5.703541073117183e+17
19306.0	5.7024088088685216e+17
19307.0	5.7012289595419296e+17
19308.0	5.7001052237114016e+17
19309.0	5.698684359191209e+17
19310.0	5.697446680898217e+17
19311.0	5.696640314769407e+17
19312.0	5.69554670592546e+17
19313.0	5.694403447007913e+17
19314.0	5.680496179325619e+17
19315.0	5.680091827448501e+17
19316.0	5.6909132988416e+17
19317.0	5.68978458087697e+17
19318.0	5.68862227702306e+17
19319.0	5.6874757654227616e+17
19320.0	5.6863081131322016e+17
19321.0	5.685141037558441e+17
19322.0	5.683890897289216e+17
19323.0	5.682680932859903e+17
19324.0	5.681625360760831e+17
19325.0	5.680175471656958e+17
19326.0	5.679274633723903e+17
19327.0	5.678082765619199e+17
19328.0	5.676899311288319e+17
19329.0	5.6757250879214925e+17
19330.0	5.674500698581674e+17
19331.0	5.673300916524373e+17
19332.0	5.672137408206164e+17
19333.0	5.6709285028386125e+17
19334.0	5.669732743817898e+17
19335.0	5.667371790368769e+17
19336.0	5.6651097637737805e+17
19337.0	5.6638848452526074e+17
19338.0	5.662481808621566e+17
19339.0	5.661428161708031e+17
19340.0	5.660098057033045e+17
19341.0	5.6589108956364794e+17
19342.0	5.657364844423849e+17
19343.0	5.6564518199405216e+17
19344.0	5.6551882040715936e+17
19345.0	5.652265667570343e+17
19346.0	5.6518544286460576e+17
19347.0	5.6513244112267936e+17
19348.0	5.6501188843711136e+17
19349.0	5.6488041112753485e+17
19350.0	5.6475130136275616e+17
19351.0	5.646214250889215e+17
19352.0	5.6448535760295245e+17
19353.0	5.643612630373717e+17
19354.0	5.6422913512133965e+17
19355.0	5.640808432664576e+17
19356.0	5.636880123035647e+17
19357.0	5.635519054610431e+17
19358.0	5.6341362806620154e+17
19359.0	5.632692044780885e+17
19360.0	5.631325120408234e+17
19361.0	5.62993618432819e+17
19362.0	5.628554974855167e+17
19363.0	5.627127334436863e+17
19364.0	5.6256869034885114e+17
19365.0	5.6242366522763936e+17
19366.0	5.6227716203369805e+17
19367.0	5.6192120494489594e+17
19368.0	5.616451364148565e+17
19369.0	5.6148631315196576e+17
19370.0	5.6132432311965e+17
19371.0	5.611757282263039e+17
19372.0	5.6102153582455456e+17
19373.0	5.6085931230931616e+17
19374.0	5.6064917040878925e+17
19375.0	5.601348588404735e+17
19376.0	5.599645723350356e+17
19377.0	5.597912978074281e+17
19378.0	5.596155058585599e+17
19379.0	5.5943796243824634e+17
19380.0	5.589455285693094e+17
19381.0	5.585995061089621e+17
19382.0	5.5840115691356154e+17
19383.0	5.5820135229467296e+17
19384.0	5.5774211046987136e+17
19385.0	5.572589612520787e+17
19386.0	5.570436185544021e+17
19387.0	5.567818400879955e+17
19388.0	5.5628592215053645e+17
19389.0	5.5605059974594554e+17
19390.0	5.55809460261137e+17
19391.0	5.5455374415407635e+17
19392.0	5.552832566525949e+17
19393.0	5.55050573373986e+17
19394.0	5.5478347764858874e+17
19395.0	5.545084588130303e+17
19396.0	5.5422782107811834e+17
19397.0	5.5394123330355194e+17
19398.0	5.536419969761279e+17
19399.0	5.5327846071009274e+17
19400.0	5.530170387595264e+17
19401.0	5.5269989499098445e+17
19402.0	5.523678343899818e+17
19403.0	5.5202270797277856e+17
19404.0	5.5166559157835085e+17
19405.0	5.5128365559971834e+17
19406.0	5.509063160889343e+17
19407.0	5.505157048915284e+17
19408.0	5.5004822804015795e+17
19409.0	5.496925323263999e+17
19410.0	5.4926287362676045e+17
19411.0	5.4881844594387616e+17
19412.0	5.4836014776756896e+17
19413.0	5.478859977785343e+17
19414.0	5.473936107459924e+17
19415.0	5.468890557579264e+17
19416.0	5.463509273236821e+17
19417.0	5.4581373904267936e+17
19418.0	5.452703831774547e+17
19419.0	5.446975159795711e+17
19420.0	5.4411420622301856e+17
19421.0	5.435054760482133e+17
19422.0	5.428314011336703e+17
19423.0	5.421951347239593e+17
19424.0	5.415424032243711e+17
19425.0	5.4086722360005965e+17
19426.0	5.4011044588858016e+17
19427.0	5.393390213879125e+17
19428.0	5.385949784921427e+17
19429.0	5.377007568639315e+17
19430.0	5.3680106159909536e+17
19431.0	5.356235487794518e+17
19432.0	5.3458197503016986e+17
19433.0	5.3311191817475475e+17
19434.0	5.310624471624359e+17
19435.0	5.2807990834626477e+17
19436.0	5.2424573854242086e+17
19437.0	5.220383868671315e+17
19438.0	5.182878821733722e+17
19439.0	5.174065977360386e+17
19440.0	5.148543534759935e+17
19441.0	5.1209607850229715e+17
19442.0	5.091576314680662e+17
19443.0	5.056836905118377e+17
19444.0	5.0047089094164474e+17
19445.0	4.9123906356073824e+17
19446.0	4.8388565082221235e+17
19447.0	4.759385031049214e+17
19448.0	4.630055233082705e+17
19449.0	4.42650196198468e+17
19450.0	3.9514363878440877e+17
19451.0	3.777602268080777e+17
19452.0	4.230557055582216e+17
19453.0	4.5368465973138963e+17
19454.0	4.703532805171889e+17
19455.0	4.795906682869075e+17
19456.0	4.8658854644285466e+17
19457.0	4.952236768275107e+17
19458.0	4.993208193559247e+17
19459.0	5.059728231803575e+17
19460.0	5.090763743778132e+17
19461.0	5.1172969479318176e+17
19462.0	5.1422765944668154e+17
19463.0	5.165335630752425e+17
19464.0	5.1860480294475085e+17
19465.0	5.2049149511598074e+17
19466.0	5.233945771070807e+17
19467.0	5.267528980190542e+17
19468.0	5.2897116264420634e+17
19469.0	5.304266365337596e+17
19470.0	5.316027620174507e+17
19471.0	5.3248468874253645e+17
19472.0	5.332813884686335e+17
19473.0	5.339056212104531e+17
19474.0	5.3453741271722656e+17
19475.0	5.349945475334142e+17
19476.0	5.356692366338729e+17
19477.0	5.36160231367202e+17
19478.0	5.3662267987722214e+17
19479.0	5.3706302454497274e+17
19480.0	5.3750692073963514e+17
19481.0	5.3795051354630816e+17
19482.0	5.383394168231253e+17
19483.0	5.3871337369763834e+17
19484.0	5.390723262185471e+17
19485.0	5.3941031358081696e+17
19486.0	5.397348634416469e+17
19487.0	5.4004595175369376e+17
19488.0	5.403376139370496e+17
19489.0	5.406004574770515e+17
19490.0	5.407561431908351e+17
19491.0	5.411102442302121e+17
19492.0	5.4134388947244365e+17
19493.0	5.4156037693549216e+17
19494.0	5.417628051614379e+17
19495.0	5.4195094968511136e+17
19496.0	5.4209332848011936e+17
19497.0	5.4228845232564896e+17
19498.0	5.422970273704617e+17
19499.0	5.4100677319720915e+17
19500.0	5.427303121158143e+17
19501.0	5.4284969270312954e+17
19502.0	5.4295903660059296e+17
19503.0	5.4306207464161274e+17
19504.0	5.4315473429681485e+17
19505.0	5.432393114583038e+17
19506.0	5.433157746688e+17
19507.0	5.433827428139006e+17
19508.0	5.434460816976553e+17
19509.0	5.435005184507903e+17
19510.0	5.435310168429908e+17
19511.0	5.4131439009355014e+17
19512.0	5.4335195718178106e+17
19513.0	5.431915986638158e+17
19514.0	5.433376747378e+17
19515.0	5.439334794657792e+17
19516.0	5.4400070059731616e+17
19517.0	5.4400274259421856e+17
19518.0	5.442431810710185e+17
19519.0	5.4451423545043616e+17
19520.0	5.444987061796862e+17
19521.0	5.4448546560081914e+17
19522.0	5.444698002948092e+17
19523.0	5.448825742644563e+17
19524.0	5.448514156888062e+17
19525.0	5.4481747503131296e+17
19526.0	5.447829629698047e+17
19527.0	5.4474463618880845e+17
19528.0	5.447768928332457e+17
19529.0	5.450339936720211e+17
19530.0	5.4498664962676045e+17
19531.0	5.4493699053540685e+17
19532.0	5.448855898991273e+17
19533.0	5.448325104227668e+17
19534.0	5.447775210700799e+17
19535.0	5.4472067909331616e+17
19536.0	5.446604301533183e+17
19537.0	5.4487927083062605e+17
19538.0	5.4484064499575456e+17
19539.0	5.447424936684203e+17
19540.0	5.4472121806138016e+17
19541.0	5.4465715866610336e+17
19542.0	5.445896737827497e+17
19543.0	5.445207259261609e+17
19544.0	5.444522958564011e+17
19545.0	5.4433886642722125e+17
19546.0	5.442356438368255e+17
19547.0	5.4423936432428365e+17
19548.0	5.4416617448843936e+17
19549.0	5.440848860807167e+17
19550.0	5.441682938003458e+17
19551.0	5.441944697525589e+17
19552.0	5.4411725149743776e+17
19553.0	5.440372687765502e+17
19554.0	5.4395778503802874e+17
19555.0	5.4388073609297914e+17
19556.0	5.438023776163157e+17
19557.0	5.437217488328021e+17
19558.0	5.436410837685588e+17
19559.0	5.435596404512086e+17
19560.0	5.4347542910293325e+17
19561.0	5.4339328030365005e+17
19562.0	5.4331261265291936e+17
19563.0	5.4322966302119245e+17
19564.0	5.4314594729983974e+17
19565.0	5.4306179292419405e+17
19566.0	5.4297457530852685e+17
19567.0	5.428921010312532e+17
19568.0	5.428047992498857e+17
19569.0	5.4271967410257914e+17
19570.0	5.42635030880802e+17
19571.0	5.4254810127400954e+17
19572.0	5.424593800702634e+17
19573.0	5.4237260586243405e+17
19574.0	5.4227983324064403e+17
19575.0	5.4219944884524365e+17
19576.0	5.421115413364735e+17
19577.0	5.4202062846907725e+17
19578.0	5.420806572081154e+17
19579.0	5.4204140236745376e+17
19580.0	5.419518474059775e+17
19581.0	5.418631638111572e+17
19582.0	5.417746289044138e+17
19583.0	5.416844339620522e+17
19584.0	5.4159324993290234e+17
19585.0	5.41494208504354e+17
19586.0	5.4140036276988576e+17
19587.0	5.413163451984553e+17
19588.0	5.411893372693162e+17
19589.0	5.4113681186051405e+17
19590.0	5.410383855266474e+17
19591.0	5.409549515227135e+17
19592.0	5.408636343943166e+17
19593.0	5.4077002780508154e+17
19594.0	5.406596972675071e+17
19595.0	5.405830676829523e+17
19596.0	5.404392374490454e+17
19597.0	5.403986017736021e+17
19598.0	5.402745162956799e+17
19599.0	5.402160115570004e+17
19600.0	5.401237275716266e+17
19601.0	5.400247188586496e+17
19602.0	5.399324733210623e+17
19603.0	5.397967053783039e+17
19604.0	5.397443745852074e+17
19605.0	5.3963163560837114e+17
19606.0	5.395626493039957e+17
19607.0	5.3946964991016954e+17
19608.0	5.393741151993855e+17
19609.0	5.392772712366079e+17
19610.0	5.391873147404287e+17
19611.0	5.3909245671069005e+17
19612.0	5.3899947689028256e+17
19613.0	5.389042945010345e+17
19614.0	5.3880742600157856e+17
19615.0	5.3871603903802016e+17
19616.0	5.3861240771269965e+17
19617.0	5.3852606439970125e+17
19618.0	5.383815995675988e+17
19619.0	5.382763645501439e+17
19620.0	5.381855660474367e+17
19621.0	5.381527779147775e+17
19622.0	5.3805875280390816e+17
19623.0	5.3796379620802534e+17
19624.0	5.378679588083028e+17
19625.0	5.3777364708666016e+17
19626.0	5.3767854515814394e+17
19627.0	5.3758318339249485e+17
19628.0	5.374680498176e+17
19629.0	5.3738275179506336e+17
19630.0	5.372336097547604e+17
19631.0	5.363094672201046e+17
19632.0	5.371057321366868e+17
19633.0	5.370070860911956e+17
19634.0	5.369158081096362e+17
19635.0	5.3681707230603936e+17
19636.0	5.367239941991083e+17
19637.0	5.3659834732161696e+17
19638.0	5.365327491760126e+17
19639.0	5.3643669660849485e+17
19640.0	5.363309172402858e+17
19641.0	5.3616721642127366e+17
19642.0	5.361502071903572e+17
19643.0	5.3605410436109645e+17
19644.0	5.359538822359722e+17
19645.0	5.358394512769023e+17
19646.0	5.357668559137449e+17
19647.0	5.356720048046079e+17
19648.0	5.355762062021972e+17
19649.0	5.354800827509417e+17
19650.0	5.353844074610687e+17
19651.0	5.352879803422036e+17
19652.0	5.351922840808106e+17
19653.0	5.350964013126996e+17
19654.0	5.3500058670202874e+17
19655.0	5.349041771293353e+17
19656.0	5.3480798279434234e+17
19657.0	5.347125553878357e+17
19658.0	5.3461651554304e+17
19659.0	5.345203284082687e+17
