# Flux units: erg / (cm m2 s)
# Wavelength units: Angstrom
wave	flux
19000.0	5.539165424844799e+17
19001.0	5.5380417847842125e+17
19002.0	5.5371664901625165e+17
19003.0	5.536163613201749e+17
19004.0	5.5351645285908474e+17
19005.0	5.5341442893086714e+17
19006.0	5.533152160251902e+17
19007.0	5.5321629413430605e+17
19008.0	5.531108099052884e+17
19009.0	5.52995121144354e+17
19010.0	5.528758884761599e+17
19011.0	5.528101802300758e+17
19012.0	5.526902392138409e+17
19013.0	5.5261701778090656e+17
19014.0	5.525123416544596e+17
19015.0	5.5241312923811834e+17
19016.0	5.5231462817573536e+17
19017.0	5.5221864061992954e+17
19018.0	5.5211823268713805e+17
19019.0	5.5201913365681485e+17
19020.0	5.5191877458766496e+17
19021.0	5.518209690107903e+17
19022.0	5.5172080490687136e+17
19023.0	5.5161616471162874e+17
19024.0	5.5151562717484365e+17
19025.0	5.514195044226389e+17
19026.0	5.513162565965141e+17
19027.0	5.512071044486484e+17
19028.0	5.511218157234857e+17
19029.0	5.5102134019249485e+17
19030.0	5.509249146814464e+17
19031.0	5.508254469718015e+17
19032.0	5.5072396047373645e+17
19033.0	5.506120712628905e+17
19034.0	5.5051230764509843e+17
19035.0	5.503418584006655e+17
19036.0	5.491512684402003e+17
19037.0	5.5016420732654925e+17
19038.0	5.501156943986687e+17
19039.0	5.5002637634546336e+17
19040.0	5.4992990574564685e+17
19041.0	5.4983112583195296e+17
19042.0	5.496141594492926e+17
19043.0	5.49635460501777e+17
19044.0	5.4953521020491085e+17
19045.0	5.494351595569151e+17
19046.0	5.493318908291753e+17
19047.0	5.4923204647103136e+17
19048.0	5.491049504615081e+17
19049.0	5.4880155925654144e+17
19050.0	5.4892287516562765e+17
19051.0	5.486766840610814e+17
19052.0	5.48663609856273e+17
19053.0	5.4863724173503136e+17
19054.0	5.4854423681870496e+17
19055.0	5.4838678551265274e+17
19056.0	5.483353861346644e+17
19057.0	5.48249519853841e+17
19058.0	5.480339397585576e+17
19059.0	5.4800792689486496e+17
19060.0	5.479526484847274e+17
19061.0	5.4785534943996576e+17
19062.0	5.4775618015505043e+17
19063.0	5.47657009402129e+17
19064.0	5.475485319080618e+17
19065.0	5.4744205712424954e+17
19066.0	5.473133854545237e+17
19067.0	5.4726189408146765e+17
19068.0	5.4716474309563725e+17
19069.0	5.470661830333781e+17
19070.0	5.469647198836052e+17
19071.0	5.4686756092859725e+17
19072.0	5.4672701630272826e+17
19073.0	5.466717594233515e+17
19074.0	5.465735395191466e+17
19075.0	5.464749526133418e+17
19076.0	5.463751253819391e+17
19077.0	5.4627555505165645e+17
19078.0	5.461749896227499e+17
19079.0	5.460807737409535e+17
19080.0	5.459811950220627e+17
19081.0	5.4587842611554976e+17
19082.0	5.457828296785919e+17
19083.0	5.4567656628770125e+17
19084.0	5.4556496166038176e+17
19085.0	5.4548703757380256e+17
19086.0	5.4528778946914976e+17
19087.0	5.4517991385770643e+17
19088.0	5.451179367945555e+17
19089.0	5.4506775691045536e+17
19090.0	5.449908985266175e+17
19091.0	5.448882630688767e+17
19092.0	5.447033176107693e+17
19093.0	5.447035313804628e+17
19094.0	5.4460663603746125e+17
19095.0	5.445089132281855e+17
19096.0	5.444099107367594e+17
19097.0	5.4431255492908365e+17
19098.0	5.441666315277651e+17
19099.0	5.4405873704195405e+17
19100.0	5.4401481610799776e+17
19101.0	5.4391798696509434e+17
19102.0	5.4381156523922765e+17
19103.0	5.4372388142667085e+17
19104.0	5.436267303010304e+17
19105.0	5.434228653861549e+17
19106.0	5.4342631701872634e+17
19107.0	5.4330249186727245e+17
19108.0	5.431865689942698e+17
19109.0	5.4309387788178765e+17
19110.0	5.4302094956079776e+17
19111.0	5.429079683629055e+17
19112.0	5.428067259733332e+17
19113.0	5.427454093033471e+17
19114.0	5.426264415054506e+17
19115.0	5.425396548545194e+17
19116.0	5.424490028029268e+17
19117.0	5.423484576464894e+17
19118.0	5.4222128474139296e+17
19119.0	5.41262309770307e+17
19120.0	5.4203622177286816e+17
19121.0	5.419530773856255e+17
19122.0	5.418660195729407e+17
19123.0	5.41769510105907e+17
19124.0	5.416639728189439e+17
19125.0	5.415721974628351e+17
19126.0	5.4146225615667194e+17
19127.0	5.412247278977023e+17
19128.0	5.4126251249500154e+17
19129.0	5.411739564769279e+17
19130.0	5.4108626630301e+17
19131.0	5.409909103394814e+17
19132.0	5.408935776004777e+17
19133.0	5.4079194604939936e+17
19134.0	5.406981800067071e+17
19135.0	5.406017539364181e+17
19136.0	5.405038794331476e+17
19137.0	5.403955712491519e+17
19138.0	5.403075976800938e+17
19139.0	5.402133763457023e+17
19140.0	5.401167387426815e+17
19141.0	5.400196563337215e+17
19142.0	5.399195789819904e+17
19143.0	5.3982069365145594e+17
19144.0	5.397231005859839e+17
19145.0	5.396305064318292e+17
19146.0	5.39463391449361e+17
19147.0	5.3942975327109114e+17
19148.0	5.3930190787925325e+17
19149.0	5.39197907734801e+17
19150.0	5.391456055328767e+17
19151.0	5.390481401839615e+17
19152.0	5.3894985107374074e+17
19153.0	5.387722581606398e+17
19154.0	5.3874088127146656e+17
19155.0	5.386574555163305e+17
19156.0	5.385602795743913e+17
19157.0	5.384310339840683e+17
19158.0	5.382909013786624e+17
19159.0	5.382625754961237e+17
19160.0	5.3816882909675514e+17
19161.0	5.380654011951785e+17
19162.0	5.37912526643746e+17
19163.0	5.3785663230006605e+17
19164.0	5.377822481361579e+17
19165.0	5.376019370344445e+17
19166.0	5.375801191038975e+17
19167.0	5.374906271967913e+17
19168.0	5.3739923506025805e+17
19169.0	5.37304171090193e+17
19170.0	5.372082207238826e+17
19171.0	5.371095843252906e+17
19172.0	5.370142375892308e+17
19173.0	5.3691932915793914e+17
19174.0	5.368187533830826e+17
19175.0	5.367264217923583e+17
19176.0	5.366302895330645e+17
19177.0	5.365166011755177e+17
19178.0	5.3643326902326605e+17
19179.0	5.3633623030497274e+17
19180.0	5.3624255562820256e+17
19181.0	5.361352727418196e+17
19182.0	5.36047843942946e+17
19183.0	5.359561302431059e+17
19184.0	5.358598743217492e+17
19185.0	5.3576239890650445e+17
19186.0	5.3566711249851725e+17
19187.0	5.3556382014286496e+17
19188.0	5.3547372173940045e+17
19189.0	5.353771295047679e+17
19190.0	5.3528015335150925e+17
19191.0	5.3517969201124685e+17
19192.0	5.35085666411042e+17
19193.0	5.3497649196346016e+17
19194.0	5.348699904060075e+17
19195.0	5.347862788090538e+17
19196.0	5.3467771386374816e+17
19197.0	5.345568208803157e+17
19198.0	5.343721906241535e+17
19199.0	5.3383386205170323e+17
19200.0	5.3379754860653216e+17
19201.0	5.3409572964706976e+17
19202.0	5.340805209609555e+17
19203.0	5.340059658092543e+17
19204.0	5.339211128023721e+17
19205.0	5.338313392477525e+17
19206.0	5.337387290154325e+17
19207.0	5.336295542183253e+17
19208.0	5.3353104183132154e+17
19209.0	5.334546941039957e+17
19210.0	5.3336019384838816e+17
19211.0	5.3326637293021856e+17
19212.0	5.331695582576639e+17
19213.0	5.330611371070805e+17
19214.0	5.3296503420791456e+17
19215.0	5.328800676752041e+17
19216.0	5.327866106129066e+17
19217.0	5.326847934638762e+17
19218.0	5.325342778589183e+17
19219.0	5.324760698672468e+17
19220.0	5.3240012381443405e+17
19221.0	5.322878199267326e+17
19222.0	5.3220860469357216e+17
19223.0	5.3211738550217376e+17
19224.0	5.3201832589830816e+17
19225.0	5.319189942938283e+17
19226.0	5.318310439332521e+17
19227.0	5.3173692857494176e+17
19228.0	5.316443827251881e+17
19229.0	5.315488967382356e+17
19230.0	5.314529068755625e+17
19231.0	5.313567695831039e+17
19232.0	5.312618304634879e+17
19233.0	5.311601522158249e+17
19234.0	5.310706722624852e+17
19235.0	5.309731405037567e+17
19236.0	5.3088134823062176e+17
19237.0	5.307844886091092e+17
19238.0	5.3068093096372896e+17
19239.0	5.3059584440401914e+17
19240.0	5.30500868304623e+17
19241.0	5.3040352284289696e+17
19242.0	5.303088514596862e+17
19243.0	5.301981884536147e+17
19244.0	5.301204207446699e+17
19245.0	5.30024529797666e+17
19246.0	5.2992896495779834e+17
19247.0	5.2983375306861216e+17
19248.0	5.2973960080042656e+17
19249.0	5.2964152245398176e+17
19250.0	5.295306999944533e+17
19251.0	5.294283085753002e+17
19252.0	5.293270267592703e+17
19253.0	5.292619878541994e+17
19254.0	5.2916975503933434e+17
19255.0	5.290532239922515e+17
19256.0	5.289780961782442e+17
19257.0	5.288844778449577e+17
19258.0	5.2878956452031136e+17
19259.0	5.286848681913002e+17
19260.0	5.285646903366996e+17
19261.0	5.2850182219366394e+17
19262.0	5.2840075198027085e+17
19263.0	5.2829933902233594e+17
19264.0	5.281684210231977e+17
19265.0	5.281007339743913e+17
19266.0	5.27998257340962e+17
19267.0	5.279349301313535e+17
19268.0	5.2784005280781645e+17
19269.0	5.2774533689507834e+17
19270.0	5.276464805751466e+17
19271.0	5.275267153002494e+17
19272.0	5.274571310978389e+17
19273.0	5.273425059424939e+17
19274.0	5.272271069380606e+17
19275.0	5.2717743785028256e+17
19276.0	5.270803555112276e+17
19277.0	5.2698635626523296e+17
19278.0	5.268894728759978e+17
19279.0	5.2679383435618976e+17
19280.0	5.26695820951552e+17
19281.0	5.2660523530977274e+17
19282.0	5.265120500383743e+17
19283.0	5.2641413072595616e+17
19284.0	5.263155482940756e+17
19285.0	5.262159864922111e+17
19286.0	5.2612250489323514e+17
19287.0	5.2601786819324576e+17
19288.0	5.2550573053269306e+17
19289.0	5.2508861965270957e+17
19290.0	5.257299888526677e+17
19291.0	5.256280346897067e+17
19292.0	5.2556575486771194e+17
19293.0	5.2547293317256525e+17
19294.0	5.253774906665641e+17
19295.0	5.25285779972642e+17
19296.0	5.2513934703329286e+17
19297.0	5.2508572439456403e+17
19298.0	5.2499949873179296e+17
19299.0	5.2485008664821754e+17
19300.0	5.248122742986068e+17
19301.0	5.2471924666313376e+17
19302.0	5.246231678113108e+17
19303.0	5.2452229004656634e+17
19304.0	5.244335635999402e+17
19305.0	5.243388002915668e+17
19306.0	5.242445518340094e+17
19307.0	5.241442119188479e+17
19308.0	5.2404917814777165e+17
19309.0	5.239388028709545e+17
19310.0	5.2383610575694496e+17
19311.0	5.2375612653131085e+17
19312.0	5.2366427302133754e+17
19313.0	5.2354516946780154e+17
19314.0	5.204986144576839e+17
19315.0	5.2065788364500006e+17
19316.0	5.2319296956661754e+17
19317.0	5.2319277914521594e+17
19318.0	5.2310636180275194e+17
19319.0	5.2301660894003194e+17
19320.0	5.229029947517609e+17
19321.0	5.227822905120085e+17
19322.0	5.2272782188216314e+17
19323.0	5.2263384717284685e+17
19324.0	5.2254029294250656e+17
19325.0	5.2244080544972794e+17
19326.0	5.223536939499519e+17
19327.0	5.222615738220543e+17
19328.0	5.220758951996075e+17
19329.0	5.220759762195798e+17
19330.0	5.219792105504767e+17
19331.0	5.2188167222067194e+17
19332.0	5.217924658058581e+17
19333.0	5.2169536319433376e+17
19334.0	5.216007489235626e+17
19335.0	5.2131803298092384e+17
19336.0	5.2141134499020794e+17
19337.0	5.213182697493844e+17
19338.0	5.21201038533154e+17
19339.0	5.211277835457877e+17
19340.0	5.2101241495005856e+17
19341.0	5.2085648596664326e+17
19342.0	5.2079290423268685e+17
19343.0	5.207435815944191e+17
19344.0	5.2057295479111686e+17
19345.0	5.2034910101176314e+17
19346.0	5.2034054945505274e+17
19347.0	5.2026743113209165e+17
19348.0	5.2027154127039136e+17
19349.0	5.201745225449471e+17
19350.0	5.20046712385263e+17
19351.0	5.199835641326249e+17
19352.0	5.1979189702273683e+17
19353.0	5.197985474412543e+17
19354.0	5.1970309633693005e+17
19355.0	5.1959666699141114e+17
19356.0	5.195117702239573e+17
19357.0	5.1941617001212576e+17
19358.0	5.1931944873274016e+17
19359.0	5.191999754513065e+17
19360.0	5.1904980657547936e+17
19361.0	5.190292651813545e+17
19362.0	5.189358369199444e+17
19363.0	5.1883967900549114e+17
19364.0	5.1874312123405645e+17
19365.0	5.1864643322948256e+17
19366.0	5.185496141529088e+17
19367.0	5.18452607590946e+17
19368.0	5.1835538222612474e+17
19369.0	5.1825374529235616e+17
19370.0	5.181572426061141e+17
19371.0	5.180566270552746e+17
19372.0	5.179645236346879e+17
19373.0	5.178648949336745e+17
19374.0	5.177677562511359e+17
19375.0	5.176693007668564e+17
19376.0	5.1756971932166816e+17
19377.0	5.174694297381546e+17
19378.0	5.173700805175977e+17
19379.0	5.172705538080767e+17
19380.0	5.171700122167977e+17
19381.0	5.170690205766996e+17
19382.0	5.1695958636189005e+17
19383.0	5.1685844058111994e+17
19384.0	5.1676252362943136e+17
19385.0	5.1666220531493536e+17
19386.0	5.165592425616725e+17
19387.0	5.164548587782143e+17
19388.0	5.163486843065685e+17
19389.0	5.16238043460403e+17
19390.0	5.1610011090725536e+17
19391.0	5.1498603497826886e+17
19392.0	5.157727577134419e+17
19393.0	5.158023228030974e+17
19394.0	5.1570349514424314e+17
19395.0	5.1556965224721075e+17
19396.0	5.1548186259838285e+17
19397.0	5.153781560552106e+17
19398.0	5.1523318657843194e+17
19399.0	5.150542205900115e+17
19400.0	5.149908069078356e+17
19401.0	5.149142380008787e+17
19402.0	5.1479848171165005e+17
19403.0	5.1467540174820685e+17
19404.0	5.14550627775283e+17
19405.0	5.1442350960585376e+17
19406.0	5.142965908755796e+17
19407.0	5.141305443221502e+17
19408.0	5.139587492653739e+17
19409.0	5.138796181280085e+17
19410.0	5.137528474566655e+17
19411.0	5.136024089569962e+17
19412.0	5.1345654693232634e+17
19413.0	5.1326693006813856e+17
19414.0	5.1313540452406605e+17
19415.0	5.129728326019754e+17
19416.0	5.1278050516882765e+17
19417.0	5.1261680847421434e+17
19418.0	5.124440133555541e+17
19419.0	5.1225701219915085e+17
19420.0	5.120612623537493e+17
19421.0	5.1185160776144205e+17
19422.0	5.1162914816873805e+17
19423.0	5.1140621755569485e+17
19424.0	5.111584496025598e+17
19425.0	5.1089294883116365e+17
19426.0	5.106105827633834e+17
19427.0	5.102918648725504e+17
19428.0	5.0996240292249594e+17
19429.0	5.095813749407742e+17
19430.0	5.091275301366443e+17
19431.0	5.085962113646592e+17
19432.0	5.082820403090772e+17
19433.0	5.077701532581888e+17
19434.0	5.0717653495098016e+17
19435.0	5.064519641814355e+17
19436.0	5.0568248527858336e+17
19437.0	5.049068159325525e+17
19438.0	5.020294299254786e+17
19439.0	5.027134802231294e+17
19440.0	5.0183546203013114e+17
19441.0	5.0043984197713894e+17
19442.0	4.988133373728085e+17
19443.0	4.968446318783146e+17
19444.0	4.944743305838591e+17
19445.0	4.9149620082005344e+17
19446.0	4.8782643298303994e+17
19447.0	4.829143781517991e+17
19448.0	4.761027606478851e+17
19449.0	4.653942784917504e+17
19450.0	4.429821367025647e+17
19451.0	4.2448959122527846e+17
19452.0	4.568434794823674e+17
19453.0	4.71274613287595e+17
19454.0	4.794064518687399e+17
19455.0	4.849269428540756e+17
19456.0	4.889394632720386e+17
19457.0	4.9194994139572896e+17
19458.0	4.852380680061062e+17
19459.0	4.95798900105764e+17
19460.0	4.980336659617108e+17
19461.0	4.9942601054289914e+17
19462.0	5.005605564230314e+17
19463.0	5.014870805534035e+17
19464.0	5.022622170131115e+17
19465.0	5.0290250219519974e+17
19466.0	5.034877250437119e+17
19467.0	5.0399396194768205e+17
19468.0	5.044337744980649e+17
19469.0	5.047251935515987e+17
19470.0	5.051229551285588e+17
19471.0	5.0538443202450765e+17
19472.0	5.0561211366550176e+17
19473.0	5.0580097946965325e+17
19474.0	5.058999588225023e+17
19475.0	5.0602227087878816e+17
19476.0	5.0621161063929165e+17
19477.0	5.063106380169215e+17
19478.0	5.063922591028564e+17
19479.0	5.063787563799892e+17
19480.0	5.064782232507732e+17
19481.0	5.0650882363446605e+17
19482.0	5.065322139396778e+17
19483.0	5.065432658608127e+17
19484.0	5.065437442211839e+17
19485.0	5.065341189925546e+17
19486.0	5.064566779499863e+17
19487.0	5.065153619951615e+17
19488.0	5.0648844630753274e+17
19489.0	5.064317569335296e+17
19490.0	5.063126472283477e+17
19491.0	5.063923621429246e+17
19492.0	5.063659867515562e+17
19493.0	5.0632135886766074e+17
19494.0	5.062719012427092e+17
19495.0	5.0622146236033696e+17
19496.0	5.061188780731049e+17
19497.0	5.060772544992596e+17
19498.0	5.056639753256959e+17
19499.0	5.043440485487952e+17
19500.0	5.058782388289535e+17
19501.0	5.0586009161345696e+17
19502.0	5.058034113970175e+17
19503.0	5.05740192120832e+17
19504.0	5.056737453277182e+17
19505.0	5.056040784975189e+17
19506.0	5.055348268335103e+17
19507.0	5.054584305920683e+17
19508.0	5.0538311857821e+17
19509.0	5.0529457290608634e+17
19510.0	5.0512391618341523e+17
19511.0	5.00530126747508e+17
19512.0	5.046066602835965e+17
19513.0	5.0445275022841126e+17
19514.0	5.0449368321010304e+17
19515.0	5.047942860417706e+17
19516.0	5.0475789059795616e+17
19517.0	5.046909332881407e+17
19518.0	5.0460120391352314e+17
19519.0	5.045204908244991e+17
19520.0	5.043917733669545e+17
19521.0	5.043831324016639e+17
19522.0	5.042880021615956e+17
19523.0	5.0420252965601274e+17
19524.0	5.0408629962014726e+17
19525.0	5.040539202224127e+17
19526.0	5.039753489547262e+17
19527.0	5.0389230956489376e+17
19528.0	5.038036454036821e+17
19529.0	5.037177875114666e+17
19530.0	5.036441450403156e+17
19531.0	5.035602388975614e+17
19532.0	5.034761112256511e+17
19533.0	5.0339176880537594e+17
19534.0	5.0330698283745274e+17
19535.0	5.0322004533138765e+17
19536.0	5.031327949302442e+17
19537.0	5.030495425396735e+17
19538.0	5.0288052005765114e+17
19539.0	5.028350416388096e+17
19540.0	5.0279084101468154e+17
19541.0	5.026942362670421e+17
19542.0	5.026171646727508e+17
19543.0	5.024685707580758e+17
19544.0	5.024443181039615e+17
19545.0	5.0230451691847674e+17
19546.0	5.0219997305241594e+17
19547.0	5.021907021725694e+17
19548.0	5.0210860132816205e+17
19549.0	5.020122222340778e+17
19550.0	5.019373000108713e+17
19551.0	5.018512173039615e+17
19552.0	5.017649433367893e+17
19553.0	5.0167649811824634e+17
19554.0	5.015887334954324e+17
19555.0	5.0149640714758816e+17
19556.0	5.014137343399254e+17
19557.0	5.0133151276946765e+17
19558.0	5.012454794155349e+17
19559.0	5.011591867837098e+17
19560.0	5.010450259378175e+17
19561.0	5.0098256764818765e+17
19562.0	5.008733632812373e+17
19563.0	5.008119309183657e+17
19564.0	5.007249380474879e+17
19565.0	5.006375166585514e+17
19566.0	5.005481743482879e+17
19567.0	5.004633518200148e+17
19568.0	5.003741201694719e+17
19569.0	5.0028730129230496e+17
19570.0	5.0020161907152205e+17
19571.0	5.001144560517119e+17
19572.0	5.00024017560098e+17
19573.0	4.9993111617317536e+17
19574.0	4.998401659764736e+17
19575.0	4.9976658558102176e+17
19576.0	4.996742564369748e+17
19577.0	4.9957672188204365e+17
19578.0	4.99500892291072e+17
19579.0	4.9941407467219616e+17
19580.0	4.9932710445055994e+17
19581.0	4.9924270275078816e+17
19582.0	4.9915674056021325e+17
19583.0	4.9906943395539616e+17
19584.0	4.9898131337598285e+17
19585.0	4.9888130530017274e+17
19586.0	4.987902289248256e+17
19587.0	4.9871359123128314e+17
19588.0	4.9859086988083194e+17
19589.0	4.985380679275861e+17
19590.0	4.9844344205257376e+17
19591.0	4.9836922419281914e+17
19592.0	4.9828308793862816e+17
19593.0	4.981873781855573e+17
19594.0	4.980741991563262e+17
19595.0	4.9801887118349645e+17
19596.0	4.9792787519897594e+17
19597.0	4.978441068391081e+17
19598.0	4.977049230551721e+17
19599.0	4.9766919590379514e+17
19600.0	4.975841745655124e+17
19601.0	4.974898158676649e+17
19602.0	4.973969806808404e+17
19603.0	4.972823093182462e+17
19604.0	4.972238410001066e+17
19605.0	4.97117787464226e+17
19606.0	4.9705943218257914e+17
19607.0	4.9697399274209274e+17
19608.0	4.9688525909524474e+17
19609.0	4.9679492930600954e+17
19610.0	4.966795529508181e+17
19611.0	4.965764402511871e+17
19612.0	4.9653818868804256e+17
19613.0	4.964497440287401e+17
19614.0	4.963590917674325e+17
19615.0	4.9627446630154234e+17
19616.0	4.961466996927147e+17
19617.0	4.960471676005034e+17
19618.0	4.959446846057129e+17
19619.0	4.958360601711955e+17
19620.0	4.957598020621651e+17
19621.0	4.9567849464026445e+17
19622.0	4.9566404854852256e+17
19623.0	4.9557376335872e+17
19624.0	4.954784953357653e+17
19625.0	4.954021227921408e+17
19626.0	4.953123590242303e+17
19627.0	4.9522028314624e+17
19628.0	4.951159274646187e+17
19629.0	4.948417100207444e+17
19630.0	4.947439976972287e+17
19631.0	4.943575311013205e+17
19632.0	4.947237917076138e+17
19633.0	4.946812257435647e+17
19634.0	4.9461243167812256e+17
19635.0	4.9451866046245536e+17
19636.0	4.943676254628521e+17
19637.0	4.942489730766164e+17
19638.0	4.9426656713332045e+17
19639.0	4.9418486020396365e+17
19640.0	4.9407588512563194e+17
19641.0	4.938840113064621e+17
19642.0	4.939183107167573e+17
19643.0	4.9383212650769056e+17
19644.0	4.9374279901730125e+17
19645.0	4.936430858010623e+17
19646.0	4.934966195869012e+17
19647.0	4.934923392996693e+17
19648.0	4.934067106960724e+17
19649.0	4.9331992523352736e+17
19650.0	4.932341027831806e+17
19651.0	4.931470736315732e+17
19652.0	4.930603331878911e+17
19653.0	4.929739092044457e+17
19654.0	4.9288697666164045e+17
19655.0	4.927997194797055e+17
