# Flux units: erg / (cm m2 s)
# Wavelength units: Angstrom
wave	flux
19000.0	5.012116480196607e+17
19001.0	5.0111104015837856e+17
19002.0	5.0103490494245536e+17
19003.0	5.009456537184938e+17
19004.0	5.0085761290076154e+17
19005.0	5.0076663502165325e+17
19006.0	5.0067880559684256e+17
19007.0	5.005903344435198e+17
19008.0	5.0049685228530336e+17
19009.0	5.0039068382549325e+17
19010.0	5.0028878789345274e+17
19011.0	5.002304887455743e+17
19012.0	5.001353084534783e+17
19013.0	5.000601261834238e+17
19014.0	4.9996673028805965e+17
19015.0	4.9987722083478176e+17
19016.0	4.997917154738175e+17
19017.0	4.9970669434525e+17
19018.0	4.9961764249053856e+17
19019.0	4.995302952009728e+17
19020.0	4.994412738248703e+17
19021.0	4.993546935336959e+17
19022.0	4.9926587033845754e+17
19023.0	4.9917294063998285e+17
19024.0	4.990840206961321e+17
19025.0	4.99000207806737e+17
19026.0	4.9891083690530125e+17
19027.0	4.988224332103679e+17
19028.0	4.987359485493248e+17
19029.0	4.986464065901908e+17
19030.0	4.985608001465002e+17
19031.0	4.984728764896596e+17
19032.0	4.9838376381754016e+17
19033.0	4.982842605961215e+17
19034.0	4.982020554533545e+17
19035.0	4.9808576453017594e+17
19036.0	4.977679450592596e+17
19037.0	4.979184111714303e+17
19038.0	4.978497042077012e+17
19039.0	4.9776688194300576e+17
19040.0	4.976800913773908e+17
19041.0	4.975922814560938e+17
19042.0	4.973977147539454e+17
19043.0	4.9741831927234554e+17
19044.0	4.973292437897215e+17
19045.0	4.9724097298431994e+17
19046.0	4.971480381128703e+17
19047.0	4.9705885637454496e+17
19048.0	4.9694964557632845e+17
19049.0	4.9667737771485824e+17
19050.0	4.9679151374445216e+17
19051.0	4.9667413279156896e+17
19052.0	4.966058500117844e+17
19053.0	4.9653728907973965e+17
19054.0	4.964516357297492e+17
19055.0	4.9630701270248115e+17
19056.0	4.9626583770944845e+17
19057.0	4.96189852300083e+17
19058.0	4.959980232201554e+17
19059.0	4.959742897509717e+17
19060.0	4.9592675213858125e+17
19061.0	4.9583996332059296e+17
19062.0	4.9575196507504634e+17
19063.0	4.956639309682005e+17
19064.0	4.9556836535937696e+17
19065.0	4.9547257109108045e+17
19066.0	4.9535810336194554e+17
19067.0	4.953135372042239e+17
19068.0	4.952283106945706e+17
19069.0	4.9514097445000525e+17
19070.0	4.950505107925674e+17
19071.0	4.949652411514879e+17
19072.0	4.948397112251732e+17
19073.0	4.947912535222953e+17
19074.0	4.9470398746241696e+17
19075.0	4.9461709742189216e+17
19076.0	4.94528460034321e+17
19077.0	4.944398894759935e+17
19078.0	4.943506570564949e+17
19079.0	4.9426738635079674e+17
19080.0	4.941795985195008e+17
19081.0	4.940874041524223e+17
19082.0	4.940042046100821e+17
19083.0	4.9390960564852045e+17
19084.0	4.9380908097426765e+17
19085.0	4.937428437565438e+17
19086.0	4.935663172452351e+17
19087.0	4.934816787070974e+17
19088.0	4.934231064401236e+17
19089.0	4.933759168850602e+17
19090.0	4.9330586648575994e+17
19091.0	4.932145922790741e+17
19092.0	4.9304933041001824e+17
19093.0	4.930489942365525e+17
19094.0	4.9296206868425376e+17
19095.0	4.928750874875221e+17
19096.0	4.9278774159605754e+17
19097.0	4.927012742015658e+17
19098.0	4.925723659031892e+17
19099.0	4.924763765997568e+17
19100.0	4.924378236059647e+17
19101.0	4.9235068064890874e+17
19102.0	4.922564629495808e+17
19103.0	4.9217902232644256e+17
19104.0	4.920939126980607e+17
19105.0	4.919144935150935e+17
19106.0	4.919189275235668e+17
19107.0	4.918093228102995e+17
19108.0	4.9170942853993805e+17
19109.0	4.9165324877387085e+17
19110.0	4.9156946132991994e+17
19111.0	4.914596354370217e+17
19112.0	4.913678772775594e+17
19113.0	4.9131238034418336e+17
19114.0	4.912072970906281e+17
19115.0	4.911306350701226e+17
19116.0	4.9104741546502816e+17
19117.0	4.909556902308522e+17
19118.0	4.9081278952461645e+17
19119.0	4.896374915071987e+17
19120.0	4.9067072103819936e+17
19121.0	4.906113641567572e+17
19122.0	4.905314677686271e+17
19123.0	4.904463085775529e+17
19124.0	4.903574377070591e+17
19125.0	4.9026958346594976e+17
19126.0	4.901647930447187e+17
19127.0	4.899669186445311e+17
19128.0	4.8998760837720736e+17
19129.0	4.899159424718164e+17
19130.0	4.898410229749076e+17
19131.0	4.8975719862108154e+17
19132.0	4.8967133520636576e+17
19133.0	4.8958143854892365e+17
19134.0	4.8949895846952954e+17
19135.0	4.894129048431274e+17
19136.0	4.893253958631423e+17
19137.0	4.8923086135405216e+17
19138.0	4.891515211306324e+17
19139.0	4.8906892584768845e+17
19140.0	4.8898355519378765e+17
19141.0	4.888976009024853e+17
19142.0	4.888081942096553e+17
19143.0	4.8872110067548154e+17
19144.0	4.8863397820061005e+17
19145.0	4.885526254103209e+17
19146.0	4.883937368560981e+17
19147.0	4.883751234437119e+17
19148.0	4.882613533671424e+17
19149.0	4.881693147485525e+17
19150.0	4.881236758276778e+17
19151.0	4.8803719885619194e+17
19152.0	4.879511622167209e+17
19153.0	4.8779051939484986e+17
19154.0	4.8776675957145574e+17
19155.0	4.876919043872085e+17
19156.0	4.8760725424482976e+17
19157.0	4.874983294282411e+17
19158.0	4.8738194958581766e+17
19159.0	4.8734762983314765e+17
19160.0	4.872626482708479e+17
19161.0	4.871753109078015e+17
19162.0	4.87081998548992e+17
19163.0	4.8700174501587616e+17
19164.0	4.869204459126783e+17
19165.0	4.8675697473181e+17
19166.0	4.867387839654569e+17
19167.0	4.866628273569791e+17
19168.0	4.8657916245661005e+17
19169.0	4.864939992809472e+17
19170.0	4.864089241856681e+17
19171.0	4.863222433011028e+17
19172.0	4.8623789214269434e+17
19173.0	4.861523486834687e+17
19174.0	4.860629787607039e+17
19175.0	4.8598043457836365e+17
19176.0	4.858959152982697e+17
19177.0	4.8579330032271354e+17
19178.0	4.857244404766037e+17
19179.0	4.856392291363497e+17
19180.0	4.85552423960576e+17
19181.0	4.8545615063285754e+17
19182.0	4.8537866394228045e+17
19183.0	4.8529852687100576e+17
19184.0	4.852134415695871e+17
19185.0	4.851269306941439e+17
19186.0	4.8504291815587834e+17
19187.0	4.8495134112044365e+17
19188.0	4.848720598269951e+17
19189.0	4.8478681297496736e+17
19190.0	4.847016346998102e+17
19191.0	4.8461275599994874e+17
19192.0	4.845301832264362e+17
19193.0	4.8443478406157645e+17
19194.0	4.8434130854434125e+17
19195.0	4.842702358533461e+17
19196.0	4.8417989096461645e+17
19197.0	4.840870660538366e+17
19198.0	4.8397799849110176e+17
19199.0	4.8382186650337274e+17
19200.0	4.83746673537843e+17
19201.0	4.8372537821757434e+17
19202.0	4.836629757121877e+17
19203.0	4.835858421121023e+17
19204.0	4.835040169732777e+17
19205.0	4.8342032166420486e+17
19206.0	4.8333668255880525e+17
19207.0	4.8323513692105376e+17
19208.0	4.831508842588842e+17
19209.0	4.83083247891251e+17
19210.0	4.8299981871076685e+17
19211.0	4.829169145173332e+17
19212.0	4.828314413126996e+17
19213.0	4.827356515882325e+17
19214.0	4.8265431837136205e+17
19215.0	4.8257577017234765e+17
19216.0	4.824903355553109e+17
19217.0	4.8239658279458125e+17
19218.0	4.822719898058751e+17
19219.0	4.822088467262121e+17
19220.0	4.821457267851263e+17
19221.0	4.820498961661951e+17
19222.0	4.819763756793855e+17
19223.0	4.818962226697557e+17
19224.0	4.8180832879247354e+17
19225.0	4.817230634855082e+17
19226.0	4.816436162374314e+17
19227.0	4.815608850590377e+17
19228.0	4.814792760666794e+17
19229.0	4.8139424626988365e+17
19230.0	4.8130956655766176e+17
19231.0	4.812244720287743e+17
19232.0	4.8114072771624954e+17
19233.0	4.8105034179324576e+17
19234.0	4.8097117332657485e+17
19235.0	4.8088426720788474e+17
19236.0	4.8080371217421645e+17
19237.0	4.807179354417834e+17
19238.0	4.806254571902294e+17
19239.0	4.805510978426196e+17
19240.0	4.8046615584658765e+17
19241.0	4.8038067746897914e+17
19242.0	4.8029656489656314e+17
19243.0	4.801972408418303e+17
19244.0	4.8013008933573965e+17
19245.0	4.800449469917866e+17
19246.0	4.7996076136857594e+17
19247.0	4.7987627291661645e+17
19248.0	4.7979330343185056e+17
19249.0	4.797067878727678e+17
19250.0	4.796082177441791e+17
19251.0	4.795174959972351e+17
19252.0	4.7942322146508794e+17
19253.0	4.7936947334676474e+17
19254.0	4.7928857507921914e+17
19255.0	4.791825871142911e+17
19256.0	4.7911913232793594e+17
19257.0	4.790361383064917e+17
19258.0	4.789520913050281e+17
19259.0	4.788592702390271e+17
19260.0	4.787725962750634e+17
19261.0	4.7869758142764365e+17
19262.0	4.786063925750442e+17
19263.0	4.7851346881850016e+17
19264.0	4.7839986106149536e+17
19265.0	4.7833658593116154e+17
19266.0	4.782429671085398e+17
19267.0	4.781948055235242e+17
19268.0	4.781112129049941e+17
19269.0	4.780274976729769e+17
19270.0	4.779377644535808e+17
19271.0	4.7783494829124256e+17
19272.0	4.7777190832155296e+17
19273.0	4.7767187878488736e+17
19274.0	4.775640441378131e+17
19275.0	4.775267392989866e+17
19276.0	4.7744101080104954e+17
19277.0	4.773581187710976e+17
19278.0	4.7727292134195194e+17
19279.0	4.771879164313598e+17
19280.0	4.7710192369227085e+17
19281.0	4.770215276926292e+17
19282.0	4.769401705682261e+17
19283.0	4.7685572818370554e+17
19284.0	4.767677109239808e+17
19285.0	4.766809293062143e+17
19286.0	4.765975675142143e+17
19287.0	4.765130545255764e+17
19288.0	4.7632337313901216e+17
19289.0	4.7618320005857274e+17
19290.0	4.7626186031540896e+17
19291.0	4.761590628177237e+17
19292.0	4.7610494210539514e+17
19293.0	4.7602249704843936e+17
19294.0	4.759377736455509e+17
19295.0	4.758565361287166e+17
19296.0	4.757274414634325e+17
19297.0	4.7568069524630176e+17
19298.0	4.7560295731691514e+17
19299.0	4.754725561259349e+17
19300.0	4.75437965840657e+17
19301.0	4.753560135445162e+17
19302.0	4.7527111530905574e+17
19303.0	4.751818973599059e+17
19304.0	4.7510457466661536e+17
19305.0	4.7502051899692365e+17
19306.0	4.749379873275904e+17
19307.0	4.7485002242676045e+17
19308.0	4.747679166190932e+17
19309.0	4.746829515543892e+17
19310.0	4.745971049867946e+17
19311.0	4.745138253332479e+17
19312.0	4.7443073190679885e+17
19313.0	4.7433299050277536e+17
19314.0	4.731423268623697e+17
19315.0	4.731451866087435e+17
19316.0	4.7402628006543366e+17
19317.0	4.740137781734057e+17
19318.0	4.739369522255189e+17
19319.0	4.7385727715682976e+17
19320.0	4.737576304203093e+17
19321.0	4.7365116080947194e+17
19322.0	4.736058885406719e+17
19323.0	4.735241862949545e+17
19324.0	4.7344223532701005e+17
19325.0	4.733596722703019e+17
19326.0	4.7327744916193274e+17
19327.0	4.7319416468493645e+17
19328.0	4.730289764259158e+17
19329.0	4.730296981957289e+17
19330.0	4.7294504155217914e+17
19331.0	4.7285836619011405e+17
19332.0	4.727814365031082e+17
19333.0	4.726974180229119e+17
19334.0	4.726139700379647e+17
19335.0	4.7236370626423475e+17
19336.0	4.724486900634964e+17
19337.0	4.723662108928683e+17
19338.0	4.7226013365917e+17
19339.0	4.721986844491774e+17
19340.0	4.720883095917908e+17
19341.0	4.719543795231403e+17
19342.0	4.7190874920058874e+17
19343.0	4.7185909024904525e+17
19344.0	4.717034294214656e+17
19345.0	4.7151077672004256e+17
19346.0	4.7149159756595194e+17
19347.0	4.7144076784435194e+17
19348.0	4.714494779457536e+17
19349.0	4.7136671328283296e+17
19350.0	4.712556296579753e+17
19351.0	4.7120113558268576e+17
19352.0	4.7103444772017466e+17
19353.0	4.7104185318331725e+17
19354.0	4.709598969025876e+17
19355.0	4.7086599887912954e+17
19356.0	4.707941417833812e+17
19357.0	4.707113667046057e+17
19358.0	4.706281106090666e+17
19359.0	4.705251956708692e+17
19360.0	4.703928067293183e+17
19361.0	4.7037786193483085e+17
19362.0	4.7029743573620045e+17
19363.0	4.70214962507503e+17
19364.0	4.701321328328704e+17
19365.0	4.70048663806498e+17
19366.0	4.699660122499753e+17
19367.0	4.6988346583067296e+17
19368.0	4.69800390369826e+17
19369.0	4.6971410899271674e+17
19370.0	4.6963222331610445e+17
19371.0	4.69545182700066e+17
19372.0	4.6946768328676685e+17
19373.0	4.6938371975195296e+17
19374.0	4.6930165665628154e+17
19375.0	4.692190732571987e+17
19376.0	4.691361892663295e+17
19377.0	4.6905194925697696e+17
19378.0	4.6896877355226445e+17
19379.0	4.6888581399401805e+17
19380.0	4.688019759387989e+17
19381.0	4.687176265979221e+17
19382.0	4.686258137027925e+17
19383.0	4.6854394906760525e+17
19384.0	4.6846397396637e+17
19385.0	4.6838257433968634e+17
19386.0	4.682998481245526e+17
19387.0	4.682153598823081e+17
19388.0	4.6813000432790176e+17
19389.0	4.680431312743083e+17
19390.0	4.6794632883514016e+17
19391.0	4.6764380375394963e+17
19392.0	4.6773838391104845e+17
19393.0	4.6770136903843834e+17
19394.0	4.676205576628906e+17
19395.0	4.67511910928657e+17
19396.0	4.674463824784042e+17
19397.0	4.6736521311901e+17
19398.0	4.672510004734634e+17
19399.0	4.6711021565378554e+17
19400.0	4.670637431149908e+17
19401.0	4.67016955723776e+17
19402.0	4.6693354891291296e+17
19403.0	4.66844341309713e+17
19404.0	4.667576014252714e+17
19405.0	4.6666662277720736e+17
19406.0	4.665777529552895e+17
19407.0	4.6645404007137274e+17
19408.0	4.663381424340991e+17
19409.0	4.662906424306346e+17
19410.0	4.662153577496575e+17
19411.0	4.6612331451733325e+17
19412.0	4.6602919244813645e+17
19413.0	4.659049758283092e+17
19414.0	4.6583588012250445e+17
19415.0	4.657380832837632e+17
19416.0	4.656219961338538e+17
19417.0	4.655373509547348e+17
19418.0	4.6543571996289696e+17
19419.0	4.653280848248831e+17
19420.0	4.652213028083029e+17
19421.0	4.6511030439772154e+17
19422.0	4.649899549261823e+17
19423.0	4.648759434674175e+17
19424.0	4.647537670968661e+17
19425.0	4.646247597430102e+17
19426.0	4.644912365917524e+17
19427.0	4.6435153397241165e+17
19428.0	4.642021961280169e+17
19429.0	4.640406180462591e+17
19430.0	4.6385370413137914e+17
19431.0	4.636475838693376e+17
19432.0	4.63478877008691e+17
19433.0	4.632615120273407e+17
19434.0	4.630161388120746e+17
19435.0	4.6273176339305805e+17
19436.0	4.624090918813695e+17
19437.0	4.620379405768021e+17
19438.0	4.611701312498347e+17
19439.0	4.610530222276607e+17
19440.0	4.6060920880059725e+17
19441.0	4.599462931114665e+17
19442.0	4.5912851407175674e+17
19443.0	4.5812521803011405e+17
19444.0	4.568675932351145e+17
19445.0	4.55210548854784e+17
19446.0	4.5307568579761485e+17
19447.0	4.5009929352424083e+17
19448.0	4.458395149707947e+17
19449.0	4.389842349719551e+17
19450.0	4.238766100534609e+17
19451.0	4.1014563546944915e+17
19452.0	4.3329640908281165e+17
19453.0	4.426673572631896e+17
19454.0	4.4777579290296294e+17
19455.0	4.511015783191893e+17
19456.0	4.534243127110315e+17
19457.0	4.550777043419134e+17
19458.0	4.52590195598955e+17
19459.0	4.569546662871047e+17
19460.0	4.580799579947006e+17
19461.0	4.5868478788621645e+17
19462.0	4.5913792028781216e+17
19463.0	4.5949293498641056e+17
19464.0	4.597729340686334e+17
19465.0	4.5999952812660045e+17
19466.0	4.601651488882688e+17
19467.0	4.6029853341777914e+17
19468.0	4.603865653575679e+17
19469.0	4.603838669520895e+17
19470.0	4.605006428766207e+17
19471.0	4.605411235725311e+17
19472.0	4.605506158417236e+17
19473.0	4.605510484142762e+17
19474.0	4.604785395236861e+17
19475.0	4.6044665938793805e+17
19476.0	4.604840908248404e+17
19477.0	4.604677135357268e+17
19478.0	4.6043789427124896e+17
19479.0	4.603386250220884e+17
19480.0	4.6034814217748474e+17
19481.0	4.602960796101291e+17
19482.0	4.602499736535039e+17
19483.0	4.601970181887316e+17
19484.0	4.6013984234536954e+17
19485.0	4.600751860307284e+17
19486.0	4.5995292850039475e+17
19487.0	4.5995467724554234e+17
19488.0	4.598871945991508e+17
19489.0	4.597763155864234e+17
19490.0	4.5964695451293e+17
19491.0	4.5967732749544096e+17
19492.0	4.596233651879936e+17
19493.0	4.595550588502015e+17
19494.0	4.59483273826577e+17
19495.0	4.594075287508308e+17
19496.0	4.592934404663978e+17
19497.0	4.5924576975476045e+17
19498.0	4.5907074571304954e+17
19499.0	4.5875341620674554e+17
19500.0	4.590239102271487e+17
19501.0	4.589684910981119e+17
19502.0	4.5889780575109114e+17
19503.0	4.588248020724394e+17
19504.0	4.587495760418132e+17
19505.0	4.586728993412436e+17
19506.0	4.585987313238015e+17
19507.0	4.5851944772348576e+17
19508.0	4.584428498059264e+17
19509.0	4.5835694661522765e+17
19510.0	4.582205150636714e+17
19511.0	4.565880102977525e+17
19512.0	4.5797254865005216e+17
19513.0	4.578965988922707e+17
19514.0	4.5785291850164896e+17
19515.0	4.57866672742946e+17
19516.0	4.578139711733759e+17
19517.0	4.5774620583089485e+17
19518.0	4.576608263689555e+17
19519.0	4.575834536236372e+17
19520.0	4.5746354609192934e+17
19521.0	4.5744789162120525e+17
19522.0	4.573580063582891e+17
19523.0	4.5727840657735674e+17
19524.0	4.5716972628869126e+17
19525.0	4.571354821033983e+17
19526.0	4.5705960385850016e+17
19527.0	4.569797183056555e+17
19528.0	4.568983207062187e+17
19529.0	4.568176485116587e+17
19530.0	4.5674759999979514e+17
19531.0	4.566695506433364e+17
19532.0	4.5659103515989325e+17
19533.0	4.5651268437278714e+17
19534.0	4.564348048157355e+17
19535.0	4.563542611066879e+17
19536.0	4.5627266218065914e+17
19537.0	4.561957963169791e+17
19538.0	4.5604108598859085e+17
19539.0	4.560012981917013e+17
19540.0	4.559572028446036e+17
19541.0	4.558719879391914e+17
19542.0	4.558005488757418e+17
19543.0	4.556669430966955e+17
19544.0	4.5563920203994445e+17
19545.0	4.555097836442964e+17
19546.0	4.554192699348308e+17
19547.0	4.5540770155506336e+17
19548.0	4.5533594484299085e+17
19549.0	4.5524813002833914e+17
19550.0	4.551809869807615e+17
19551.0	4.55103479877905e+17
19552.0	4.550245890741587e+17
19553.0	4.5494439698759674e+17
19554.0	4.548646998289065e+17
19555.0	4.5478150692754765e+17
19556.0	4.5470710395917645e+17
19557.0	4.5463298753167354e+17
19558.0	4.5455511636322976e+17
19559.0	4.544771851463338e+17
19560.0	4.543751468875775e+17
19561.0	4.5431760558052685e+17
19562.0	4.5422079761885856e+17
19563.0	4.541642243571711e+17
19564.0	4.5408504463578445e+17
19565.0	4.5400695795002016e+17
19566.0	4.539264367504042e+17
19567.0	4.5385039611603616e+17
19568.0	4.5377015202010445e+17
19569.0	4.5369212810909e+17
19570.0	4.536152066708821e+17
19571.0	4.5353708174704634e+17
19572.0	4.5345545702604806e+17
19573.0	4.533733667373055e+17
19574.0	4.5328990735783245e+17
19575.0	4.5322456744154445e+17
19576.0	4.5314243520976205e+17
19577.0	4.5305500620117325e+17
19578.0	4.5298676683243514e+17
19579.0	4.529083485170345e+17
19580.0	4.52830307549184e+17
19581.0	4.5275385160881485e+17
19582.0	4.526773021354665e+17
19583.0	4.525992620763818e+17
19584.0	4.5252060140011514e+17
19585.0	4.524291092993365e+17
19586.0	4.5234784165341856e+17
19587.0	4.5227997271162874e+17
19588.0	4.5217229835687245e+17
19589.0	4.521204085249364e+17
19590.0	4.520362303815679e+17
19591.0	4.5197216224815776e+17
19592.0	4.5189547701917e+17
19593.0	4.5181062373266765e+17
19594.0	4.517055304127828e+17
19595.0	4.5165919838317216e+17
19596.0	4.5158178963674445e+17
19597.0	4.515020822020095e+17
19598.0	4.5136518277584205e+17
19599.0	4.5134491247356576e+17
19600.0	4.5127037186211834e+17
19601.0	4.511862207720106e+17
19602.0	4.51101569720866e+17
19603.0	4.510077723607039e+17
19604.0	4.5094970865309e+17
19605.0	4.508533526975829e+17
19606.0	4.508021601686868e+17
19607.0	4.507266910781438e+17
19608.0	4.506472118834517e+17
19609.0	4.5056698484435616e+17
19610.0	4.5046550365907616e+17
19611.0	4.5037295641122125e+17
19612.0	4.503385065652223e+17
19613.0	4.5025896906970445e+17
19614.0	4.501782446560596e+17
19615.0	4.5010349733533e+17
19616.0	4.499953082695679e+17
19617.0	4.4989669528917325e+17
19618.0	4.498018076895915e+17
19619.0	4.4970300610532685e+17
19620.0	4.49643401060898e+17
19621.0	4.4956843563636045e+17
19622.0	4.4955842208508576e+17
19623.0	4.4947967193033376e+17
19624.0	4.4939606330354336e+17
19625.0	4.4932788824746656e+17
19626.0	4.492487016054783e+17
19627.0	4.491706115642709e+17
19628.0	4.4908824081640096e+17
19629.0	4.488517264605183e+17
19630.0	4.488896718394708e+17
19631.0	4.487678085038079e+17
19632.0	4.4876393086975994e+17
19633.0	4.4869702354206714e+17
19634.0	4.4862820717690874e+17
19635.0	4.4854305805216416e+17
19636.0	4.484063087121748e+17
19637.0	4.482974161218219e+17
19638.0	4.483155641761791e+17
19639.0	4.4824105984546125e+17
19640.0	4.481294840190293e+17
19641.0	4.479434857906177e+17
19642.0	4.48002723483921e+17
19643.0	4.479273332462932e+17
19644.0	4.478460042936319e+17
19645.0	4.477602725800617e+17
19646.0	4.476290370721107e+17
19647.0	4.476247007210155e+17
19648.0	4.4754947706716154e+17
19649.0	4.4747199142516045e+17
19650.0	4.473956287381504e+17
19651.0	4.473181908413098e+17
19652.0	4.472410371085653e+17
19653.0	4.471643814494208e+17
19654.0	4.470867323693738e+17
19655.0	4.470087344630443e+17
