# Flux units: erg / (cm m2 s)
# Wavelength units: Angstrom
wave	flux
19000.0	4.788385426178047e+17
19001.0	4.787398610605395e+17
19002.0	4.7866236514249376e+17
19003.0	4.785732644241407e+17
19004.0	4.784846652047359e+17
19005.0	4.783963277099007e+17
19006.0	4.783090408882174e+17
19007.0	4.7821503290408954e+17
19008.0	4.781253502260566e+17
19009.0	4.780301696543401e+17
19010.0	4.779032442131796e+17
19011.0	4.7786076577027405e+17
19012.0	4.7773321950221645e+17
19013.0	4.776902796159658e+17
19014.0	4.775967193038847e+17
19015.0	4.775094114407764e+17
19016.0	4.7741905592647674e+17
19017.0	4.773373672423423e+17
19018.0	4.7724691456e+17
19019.0	4.7716014286875296e+17
19020.0	4.770709677015039e+17
19021.0	4.7698474133968205e+17
19022.0	4.7689618560122874e+17
19023.0	4.7680470265801376e+17
19024.0	4.767176260408661e+17
19025.0	4.766295313263275e+17
19026.0	4.7653790221161805e+17
19027.0	4.764227690561534e+17
19028.0	4.763681182537044e+17
19029.0	4.762777768602282e+17
19030.0	4.7619296796344314e+17
19031.0	4.7610522836664314e+17
19032.0	4.760163955944106e+17
19033.0	4.7591905278907725e+17
19034.0	4.7583975744471034e+17
19035.0	4.757465265253034e+17
19036.0	4.7306270345352544e+17
19037.0	4.755752277945002e+17
19038.0	4.7548670672895974e+17
19039.0	4.7540095704978765e+17
19040.0	4.753134417783465e+17
19041.0	4.752244238275924e+17
19042.0	4.75115723895603e+17
19043.0	4.7504992253597e+17
19044.0	4.7496058532877645e+17
19045.0	4.7487294262039885e+17
19046.0	4.7477963941915296e+17
19047.0	4.746952835072e+17
19048.0	4.7458421910623565e+17
19049.0	4.744915248480255e+17
19050.0	4.744290655797246e+17
19051.0	4.740149711732731e+17
19052.0	4.741820558868478e+17
19053.0	4.7417034413178874e+17
19054.0	4.740838062030846e+17
19055.0	4.739659600319829e+17
19056.0	4.7390413284529485e+17
19057.0	4.738201769301332e+17
19058.0	4.737182302470143e+17
19059.0	4.7363997040639994e+17
19060.0	4.735550655299583e+17
19061.0	4.734704377572011e+17
19062.0	4.733822289575936e+17
19063.0	4.732948349015381e+17
19064.0	4.7319341656091296e+17
19065.0	4.7310211676897274e+17
19066.0	4.7302212209431885e+17
19067.0	4.7294321087829325e+17
19068.0	4.728571629142015e+17
19069.0	4.727697830488745e+17
19070.0	4.7267914735506765e+17
19071.0	4.725932863870293e+17
19072.0	4.725020583875925e+17
19073.0	4.7241940298629114e+17
19074.0	4.723325399990271e+17
19075.0	4.7224511078072314e+17
19076.0	4.7215552729797965e+17
19077.0	4.72068171899426e+17
19078.0	4.7197818814027085e+17
19079.0	4.718950155113813e+17
19080.0	4.718063338739029e+17
19081.0	4.7171647846045005e+17
19082.0	4.7162886937640954e+17
19083.0	4.7153626312867834e+17
19084.0	4.714366544904191e+17
19085.0	4.713698269943125e+17
19086.0	4.7124023851963725e+17
19087.0	4.7112446314632525e+17
19088.0	4.710932768882687e+17
19089.0	4.709732679243092e+17
19090.0	4.709324188986026e+17
19091.0	4.708433335593643e+17
19092.0	4.7073311605828256e+17
19093.0	4.706738773863082e+17
19094.0	4.7058664865573536e+17
19095.0	4.704994873136468e+17
19096.0	4.7041060295147514e+17
19097.0	4.7032501174708896e+17
19098.0	4.702326965840555e+17
19099.0	4.7014427751000736e+17
19100.0	4.7005911244690765e+17
19101.0	4.699750632084821e+17
19102.0	4.6987665267316045e+17
19103.0	4.6980282774978554e+17
19104.0	4.6971619426085536e+17
19105.0	4.696171607315797e+17
19106.0	4.6953032151203834e+17
19107.0	4.6944993998274554e+17
19108.0	4.6936393452093434e+17
19109.0	4.691165811747495e+17
19110.0	4.691881262841855e+17
19111.0	4.691034526537044e+17
19112.0	4.690166671911594e+17
19113.0	4.6893344248299514e+17
19114.0	4.68844613345826e+17
19115.0	4.6874979278520314e+17
19116.0	4.686712085850794e+17
19117.0	4.68584241439266e+17
19118.0	4.6848008617547085e+17
19119.0	4.674928850064713e+17
19120.0	4.6830631070815565e+17
19121.0	4.6822490108504736e+17
19122.0	4.6815294521343994e+17
19123.0	4.6806621511570765e+17
19124.0	4.679699480794451e+17
19125.0	4.6789099869525325e+17
19126.0	4.678054680286549e+17
19127.0	4.675168149787989e+17
19128.0	4.675950437116585e+17
19129.0	4.675387099447295e+17
19130.0	4.6745730081095674e+17
19131.0	4.67371905061137e+17
19132.0	4.6728603598411085e+17
19133.0	4.6718369748309325e+17
19134.0	4.670969671057407e+17
19135.0	4.670256998689449e+17
19136.0	4.6694047168157e+17
19137.0	4.6683596095051085e+17
19138.0	4.6676440381740365e+17
19139.0	4.6668085621773645e+17
19140.0	4.6659461105145165e+17
19141.0	4.665081094034772e+17
19142.0	4.664185346588671e+17
19143.0	4.663289896938155e+17
19144.0	4.662446116918612e+17
19145.0	4.661621725069311e+17
19146.0	4.660119750399317e+17
19147.0	4.6597640874011296e+17
19148.0	4.658981277881685e+17
19149.0	4.6581083824018765e+17
19150.0	4.6572992592172365e+17
19151.0	4.656438489470292e+17
19152.0	4.65555440079121e+17
19153.0	4.6546198777036806e+17
19154.0	4.653700503743146e+17
19155.0	4.6529883130210976e+17
19156.0	4.652129736895147e+17
19157.0	4.651216802589355e+17
19158.0	4.649238975741951e+17
19159.0	4.6495238081303885e+17
19160.0	4.6486518186202445e+17
19161.0	4.647790989453994e+17
19162.0	4.64440669293773e+17
19163.0	4.646005017761109e+17
19164.0	4.645235099435007e+17
19165.0	4.6442223434902176e+17
19166.0	4.643304479479125e+17
19167.0	4.6424136757193376e+17
19168.0	4.641774156906495e+17
19169.0	4.640872877872468e+17
19170.0	4.640072908756308e+17
19171.0	4.6390487394112845e+17
19172.0	4.638340472460629e+17
19173.0	4.63748374462464e+17
19174.0	4.6365661972834976e+17
19175.0	4.63577261679138e+17
19176.0	4.6349125894362445e+17
19177.0	4.63389339034146e+17
19178.0	4.6331298648337056e+17
19179.0	4.632112086908928e+17
19180.0	4.631447693776213e+17
19181.0	4.63046979040051e+17
19182.0	4.6297211847311354e+17
19183.0	4.6289005418905594e+17
19184.0	4.628028019703808e+17
19185.0	4.627173812644521e+17
19186.0	4.626324907185491e+17
19187.0	4.6253977947340794e+17
19188.0	4.624598729490431e+17
19189.0	4.623737208963071e+17
19190.0	4.622868734279679e+17
19191.0	4.621980010195626e+17
19192.0	4.621176973645141e+17
19193.0	4.620294540318036e+17
19194.0	4.6194304025449805e+17
19195.0	4.618604141434197e+17
19196.0	4.6177284057115296e+17
19197.0	4.6168766781849594e+17
19198.0	4.616011323364692e+17
19199.0	4.600611516798288e+17
19200.0	4.6040774980840166e+17
19201.0	4.6134442023976954e+17
19202.0	4.6126032619219616e+17
19203.0	4.6117046518633805e+17
19204.0	4.6108585146449914e+17
19205.0	4.610025661486421e+17
19206.0	4.609163607583402e+17
19207.0	4.6081891358474234e+17
19208.0	4.607217942659072e+17
19209.0	4.6066027962477216e+17
19210.0	4.605745741256021e+17
19211.0	4.6049029420045645e+17
19212.0	4.604044086258345e+17
19213.0	4.602986569400318e+17
19214.0	4.602043613664596e+17
19215.0	4.601420332400638e+17
19216.0	4.600623249664682e+17
19217.0	4.599763582320639e+17
19218.0	4.597992837349374e+17
19219.0	4.59790998306816e+17
19220.0	4.597168609776981e+17
19221.0	4.5959925828594336e+17
19222.0	4.5954737593384954e+17
19223.0	4.594614594611882e+17
19224.0	4.5937326394354336e+17
19225.0	4.592760104069801e+17
19226.0	4.592050158698496e+17
19227.0	4.5911943466188794e+17
19228.0	4.5903624043233274e+17
19229.0	4.589507006780757e+17
19230.0	4.5886311969587194e+17
19231.0	4.5877754505898656e+17
19232.0	4.5869283542739616e+17
19233.0	4.586012367213908e+17
19234.0	4.5852070426705914e+17
19235.0	4.58434423099665e+17
19236.0	4.5835226227671034e+17
19237.0	4.58265038089967e+17
19238.0	4.581691935599274e+17
19239.0	4.580958639139498e+17
19240.0	4.5800766105627296e+17
19241.0	4.579219220026709e+17
19242.0	4.5783740530906445e+17
19243.0	4.5773786545739085e+17
19244.0	4.5766861665949005e+17
19245.0	4.5758265369995936e+17
19246.0	4.5749571975905274e+17
19247.0	4.574112015275349e+17
19248.0	4.5732623897941325e+17
19249.0	4.5723950433785165e+17
19250.0	4.5715171909304314e+17
19251.0	4.5705372610068474e+17
19252.0	4.5695851330273274e+17
19253.0	4.5689613281744205e+17
19254.0	4.5681299143611725e+17
19255.0	4.567108758623572e+17
19256.0	4.566364448620543e+17
19257.0	4.5655685158229325e+17
19258.0	4.564713590139562e+17
19259.0	4.5637915248339616e+17
19260.0	4.562461801141587e+17
19261.0	4.5621301120860154e+17
19262.0	4.561228972862123e+17
19263.0	4.560350099800064e+17
19264.0	4.558950313055571e+17
19265.0	4.558479054340095e+17
19266.0	4.557539896546645e+17
19267.0	4.557007798053545e+17
19268.0	4.5561435162760525e+17
19269.0	4.555289036587007e+17
19270.0	4.554431958526635e+17
19271.0	4.553184792717994e+17
19272.0	4.5526817964031994e+17
19273.0	4.5507896654779725e+17
19274.0	4.5502089633901203e+17
19275.0	4.550145432966485e+17
19276.0	4.5492651792793594e+17
19277.0	4.548412459799893e+17
19278.0	4.5475519759646714e+17
19279.0	4.546665495833258e+17
19280.0	4.5457453906657254e+17
19281.0	4.54496843080226e+17
19282.0	4.544127816084137e+17
19283.0	4.543033383758506e+17
19284.0	4.542271934431232e+17
19285.0	4.5413560801908045e+17
19286.0	4.540643684646911e+17
19287.0	4.5398168698879994e+17
19288.0	4.530923584356341e+17
19289.0	4.521879886888939e+17
19290.0	4.5372290591184205e+17
19291.0	4.53610698772753e+17
19292.0	4.5355018314492576e+17
19293.0	4.534630273253375e+17
19294.0	4.5337624207250765e+17
19295.0	4.5329068589055994e+17
19296.0	4.531982564327423e+17
19297.0	4.531125827403774e+17
19298.0	4.530274290018985e+17
19299.0	4.529376321688916e+17
19300.0	4.5285540605460474e+17
19301.0	4.527691898989225e+17
19302.0	4.5268058340939085e+17
19303.0	4.525871666823166e+17
19304.0	4.525044129245866e+17
19305.0	4.524189130162175e+17
19306.0	4.523317194478932e+17
19307.0	4.522392497247573e+17
19308.0	4.521541430323881e+17
19309.0	4.520126974001151e+17
19310.0	4.519098519475539e+17
19311.0	4.518845560302249e+17
19312.0	4.518064236265472e+17
19313.0	4.517192408935083e+17
19314.0	4.473901836927015e+17
19315.0	4.4754899129685594e+17
19316.0	4.5144275279325856e+17
19317.0	4.5136573656378016e+17
19318.0	4.512769601350314e+17
19319.0	4.511900122830165e+17
19320.0	4.5109839840761165e+17
19321.0	4.510077265728852e+17
19322.0	4.509114384951978e+17
19323.0	4.5081054360371194e+17
19324.0	4.5072606815409485e+17
19325.0	4.505799028113408e+17
19326.0	4.505442352190805e+17
19327.0	4.5045262798465696e+17
19328.0	4.503544836478293e+17
19329.0	4.5027462493853e+17
19330.0	4.501800746308949e+17
19331.0	4.5008874764588365e+17
19332.0	4.500015853950292e+17
19333.0	4.4990938515592525e+17
19334.0	4.498193918197759e+17
19335.0	4.4970908868498765e+17
19336.0	4.4963530829114016e+17
19337.0	4.495446788887893e+17
19338.0	4.4943043310824096e+17
19339.0	4.4935964660858874e+17
19340.0	4.492486270866772e+17
19341.0	4.491598163345408e+17
19342.0	4.4903371486440096e+17
19343.0	4.489870143651839e+17
19344.0	4.4888595596574714e+17
19345.0	4.485770291183612e+17
19346.0	4.485913335125331e+17
19347.0	4.48592340844544e+17
19348.0	4.4851439984093856e+17
19349.0	4.48414085091601e+17
19350.0	4.483150258372608e+17
19351.0	4.4822125140596045e+17
19352.0	4.481099139558057e+17
19353.0	4.480303234722475e+17
19354.0	4.479328077916842e+17
19355.0	4.47823879270127e+17
19356.0	4.4773477177098234e+17
19357.0	4.47635281482001e+17
19358.0	4.475332461592575e+17
19359.0	4.474239077143892e+17
19360.0	4.4732029847906976e+17
19361.0	4.47226011853346e+17
19362.0	4.4712763948619085e+17
19363.0	4.470238145238357e+17
19364.0	4.46919182717201e+17
19365.0	4.468143841869823e+17
19366.0	4.467083751806292e+17
19367.0	4.4660158750173856e+17
19368.0	4.4649399025227085e+17
19369.0	4.4637809981521914e+17
19370.0	4.462632945844224e+17
19371.0	4.4615948590994765e+17
19372.0	4.460529607944874e+17
19373.0	4.459375377427113e+17
19374.0	4.4582535877536403e+17
19375.0	4.457102855285418e+17
19376.0	4.455940190721365e+17
19377.0	4.454748169524564e+17
19378.0	4.453557100434772e+17
19379.0	4.452350872431274e+17
19380.0	4.4511250626205005e+17
19381.0	4.449879310991359e+17
19382.0	4.448553031521621e+17
19383.0	4.447224598276778e+17
19384.0	4.446036776976383e+17
19385.0	4.444728397398015e+17
19386.0	4.4433950526231885e+17
19387.0	4.442031309630123e+17
19388.0	4.44064999739665e+17
19389.0	4.4392401562064205e+17
19390.0	4.437802898948095e+17
19391.0	4.4132175729131226e+17
19392.0	4.434022566461435e+17
19393.0	4.433336663539712e+17
19394.0	4.43176800293137e+17
19395.0	4.4301298909402445e+17
19396.0	4.4285328768368634e+17
19397.0	4.426934417096704e+17
19398.0	4.4251782620119034e+17
19399.0	4.4226540208127994e+17
19400.0	4.4216218592215034e+17
19401.0	4.4199288787435514e+17
19402.0	4.4180824244879354e+17
19403.0	4.4161608076055885e+17
19404.0	4.4142259807627936e+17
19405.0	4.4122059277598714e+17
19406.0	4.410160485935785e+17
19407.0	4.4080207414777165e+17
19408.0	4.404980666597377e+17
19409.0	4.403632004224341e+17
19410.0	4.401376587852459e+17
19411.0	4.3990364863856634e+17
19412.0	4.3966248972014925e+17
19413.0	4.394127726739455e+17
19414.0	4.391582703463082e+17
19415.0	4.389002107595434e+17
19416.0	4.38608404222225e+17
19417.0	4.383319989594793e+17
19418.0	4.3807876883415034e+17
19419.0	4.377906656575487e+17
19420.0	4.3749895684751354e+17
19421.0	4.371979463994025e+17
19422.0	4.3688509291451725e+17
19423.0	4.365726932533247e+17
19424.0	4.362145663112533e+17
19425.0	4.358629226446847e+17
19426.0	4.355257310816938e+17
19427.0	4.3517766704387405e+17
19428.0	4.348258723124565e+17
19429.0	4.3444004667610445e+17
19430.0	4.3392293813616666e+17
19431.0	4.33192913513131e+17
19432.0	4.330779791676757e+17
19433.0	4.325747713900544e+17
19434.0	4.319303054655487e+17
19435.0	4.3107205209128915e+17
19436.0	4.299004630269948e+17
19437.0	4.284553994698753e+17
19438.0	4.216662158999565e+17
19439.0	4.228856925913086e+17
19440.0	4.215929667147091e+17
19441.0	4.198668509555369e+17
19442.0	4.1788027520942086e+17
19443.0	4.157635300775253e+17
19444.0	4.133580740143786e+17
19445.0	4.098865581348188e+17
19446.0	4.017530702135282e+17
19447.0	3.9424307627731584e+17
19448.0	3.8683933091211994e+17
19449.0	3.710991086212418e+17
19450.0	3.2315689633054726e+17
19451.0	3.030788184823116e+17
19452.0	3.51992889317788e+17
19453.0	3.814976029108926e+17
19454.0	3.903458010726396e+17
19455.0	3.970887039931733e+17
19456.0	4.059850875775656e+17
19457.0	4.1104535093684845e+17
19458.0	4.01847580465573e+17
19459.0	4.1472609939183366e+17
19460.0	4.1759774493463885e+17
19461.0	4.192958125441024e+17
19462.0	4.207794962737834e+17
19463.0	4.224274560013659e+17
19464.0	4.253399276410196e+17
19465.0	4.272354686752087e+17
19466.0	4.28352675582225e+17
19467.0	4.2910275869518515e+17
19468.0	4.2962922500696755e+17
19469.0	4.2999564975035725e+17
19470.0	4.304112970279594e+17
19471.0	4.306872939053055e+17
19472.0	4.3094277881855994e+17
19473.0	4.312211793816234e+17
19474.0	4.314214429971798e+17
19475.0	4.315180285209257e+17
19476.0	4.3179122066718714e+17
19477.0	4.31972907360802e+17
19478.0	4.32183691129651e+17
19479.0	4.323494451303765e+17
19480.0	4.325054192724651e+17
19481.0	4.3264747244967245e+17
19482.0	4.327874763598505e+17
19483.0	4.3291908725800954e+17
19484.0	4.330406163775486e+17
19485.0	4.3315138228387834e+17
19486.0	4.3325409135165446e+17
19487.0	4.333675648909312e+17
19488.0	4.334639971827711e+17
19489.0	4.3353216259194874e+17
19490.0	4.334725439160318e+17
19491.0	4.3370431493352096e+17
19492.0	4.33776963494434e+17
19493.0	4.338400139498838e+17
19494.0	4.3389650542264314e+17
19495.0	4.3394735975082656e+17
19496.0	4.33942540006195e+17
19497.0	4.3403003857032525e+17
19498.0	4.3364558691805843e+17
19499.0	4.3050068330850944e+17
19500.0	4.3412286180338336e+17
19501.0	4.3414299907631776e+17
19502.0	4.3415772318050976e+17
19503.0	4.3417175130985805e+17
19504.0	4.341793340522495e+17
19505.0	4.3418336687554554e+17
19506.0	4.341849591731541e+17
19507.0	4.341795335613098e+17
19508.0	4.3417614302576634e+17
19509.0	4.341665737211902e+17
19510.0	4.3412951956193274e+17
19511.0	4.2697731646422874e+17
19512.0	4.334607954608126e+17
19513.0	4.330657910095858e+17
19514.0	4.3328232579836486e+17
19515.0	4.339797858451456e+17
19516.0	4.340214415054164e+17
19517.0	4.3398768504777376e+17
19518.0	4.339616647741438e+17
19519.0	4.3392574929851725e+17
19520.0	4.338841360706219e+17
19521.0	4.338573242619221e+17
19522.0	4.3381384093368314e+17
19523.0	4.3377545487319034e+17
19524.0	4.3373058882273274e+17
19525.0	4.3369092014407674e+17
19526.0	4.336476290547711e+17
19527.0	4.336007272988672e+17
19528.0	4.3355230363975674e+17
19529.0	4.3350305586981536e+17
19530.0	4.3345585512994125e+17
19531.0	4.334050319794175e+17
19532.0	4.3335317262609056e+17
19533.0	4.3330032579379194e+17
19534.0	4.3324616215975245e+17
19535.0	4.3319034855642445e+17
19536.0	4.3313188436268365e+17
19537.0	4.3307981186880845e+17
19538.0	4.329993282082133e+17
19539.0	4.329044334084096e+17
19540.0	4.329031699442346e+17
19541.0	4.328448282940757e+17
19542.0	4.3278535984414714e+17
19543.0	4.3271837939575456e+17
19544.0	4.326638448454314e+17
19545.0	4.325426242868565e+17
19546.0	4.324419769991168e+17
19547.0	4.324782398330197e+17
19548.0	4.324143099718314e+17
19549.0	4.3234132712488954e+17
19550.0	4.3228661529531725e+17
19551.0	4.322221700240725e+17
19552.0	4.3215686806623565e+17
19553.0	4.320883332087807e+17
19554.0	4.320210584600575e+17
19555.0	4.319565708263423e+17
19556.0	4.318917428248576e+17
19557.0	4.3182482962513914e+17
19558.0	4.317574445662206e+17
19559.0	4.3168978429105485e+17
19560.0	4.3161685687883085e+17
19561.0	4.315510000145748e+17
19562.0	4.3148194611199994e+17
19563.0	4.314166214350165e+17
19564.0	4.3134754788911776e+17
19565.0	4.3127819598124365e+17
19566.0	4.3120530785566714e+17
19567.0	4.311385715157673e+17
19568.0	4.3106623557031226e+17
19569.0	4.3099605647578445e+17
19570.0	4.3092787701568845e+17
19571.0	4.3085635923913376e+17
19572.0	4.307830991486975e+17
19573.0	4.3071168371316045e+17
19574.0	4.3063510327186765e+17
19575.0	4.305725891979946e+17
19576.0	4.305002633887743e+17
19577.0	4.304243452979881e+17
19578.0	4.3035245849258656e+17
19579.0	4.302826583534249e+17
19580.0	4.302103224778751e+17
19581.0	4.301424975762773e+17
19582.0	4.3007194239249056e+17
19583.0	4.299993757603157e+17
19584.0	4.2992466688737274e+17
19585.0	4.2984260833553056e+17
19586.0	4.297656985714688e+17
19587.0	4.2969828932539725e+17
19588.0	4.2958083678972595e+17
19589.0	4.295589030963882e+17
19590.0	4.294738679868075e+17
19591.0	4.29413546135825e+17
19592.0	4.293408070478506e+17
19593.0	4.2926473502610765e+17
19594.0	4.291682782674942e+17
19595.0	4.291141969816233e+17
19596.0	4.2897220601992525e+17
19597.0	4.2896667443199994e+17
19598.0	4.288412929840468e+17
19599.0	4.2882356240274765e+17
19600.0	4.287503288063317e+17
19601.0	4.2866879712897696e+17
19602.0	4.285950230964906e+17
19603.0	4.2845860356860576e+17
19604.0	4.2844391120131405e+17
19605.0	4.283474083752618e+17
19606.0	4.2830335783731194e+17
19607.0	4.2822971473701536e+17
19608.0	4.2815301077346976e+17
19609.0	4.280748369160874e+17
19610.0	4.2800168720575136e+17
19611.0	4.2792460799180806e+17
19612.0	4.2785621539116365e+17
19613.0	4.277803325325311e+17
19614.0	4.277025174978559e+17
19615.0	4.2763051451023354e+17
19616.0	4.2753257779145376e+17
19617.0	4.274751406429525e+17
19618.0	4.273372731015167e+17
19619.0	4.272487068073982e+17
19620.0	4.2717664223341216e+17
19621.0	4.2717466426955085e+17
19622.0	4.2710649760208205e+17
19623.0	4.2703094301764256e+17
19624.0	4.2695406450114554e+17
19625.0	4.2688081860143776e+17
19626.0	4.268052182291796e+17
19627.0	4.26730047143936e+17
19628.0	4.26616158158848e+17
19629.0	4.265522791885482e+17
19630.0	4.263640021947732e+17
19631.0	4.247696047079427e+17
19632.0	4.2635250427931296e+17
19633.0	4.2627074289390925e+17
19634.0	4.262028988383231e+17
19635.0	4.261222984362666e+17
19636.0	4.2604350535980365e+17
19637.0	4.259351799791615e+17
19638.0	4.2589871470018554e+17
19639.0	4.258240093224959e+17
19640.0	4.2572993290130784e+17
19641.0	4.2554171784342195e+17
19642.0	4.2559791872081914e+17
19643.0	4.255215547755178e+17
19644.0	4.254411699606868e+17
19645.0	4.2534117237063674e+17
19646.0	4.2528884549222394e+17
19647.0	4.252212704313344e+17
19648.0	4.251459763830783e+17
19649.0	4.2507002326985376e+17
19650.0	4.249951367681364e+17
19651.0	4.249191582793728e+17
19652.0	4.2484327031767034e+17
19653.0	4.2476749679056205e+17
19654.0	4.2469223056452256e+17
19655.0	4.2461620132468045e+17
