# Flux units: erg / (cm m2 s)
# Wavelength units: Angstrom
wave	flux
19000.0	6.965254028962473e+17
19001.0	6.963508510632617e+17
19002.0	6.962681534393001e+17
19003.0	6.961368075512489e+17
19004.0	6.960077041478314e+17
19005.0	6.958764834597546e+17
19006.0	6.957468882741929e+17
19007.0	6.956045774269098e+17
19008.0	6.954591553148244e+17
19009.0	6.953018670972927e+17
19010.0	6.95030035862869e+17
19011.0	6.950808091011753e+17
19012.0	6.949086859100157e+17
19013.0	6.948365645032106e+17
19014.0	6.946791259897855e+17
19015.0	6.945608750683476e+17
19016.0	6.944255529101993e+17
19017.0	6.943031122285907e+17
19018.0	6.941818614710271e+17
19019.0	6.940520787301716e+17
19020.0	6.939134968288598e+17
19021.0	6.937948521321812e+17
19022.0	6.93666758856977e+17
19023.0	6.935198297314644e+17
19024.0	6.933999219900415e+17
19025.0	6.932749016716628e+17
19026.0	6.931351466235219e+17
19027.0	6.929907669357907e+17
19028.0	6.928881672694442e+17
19029.0	6.927508533062313e+17
19030.0	6.926331798006441e+17
19031.0	6.925061928430249e+17
19032.0	6.923749088209577e+17
19033.0	6.922021349534377e+17
19034.0	6.92107593383936e+17
19035.0	6.919643927849641e+17
19036.0	6.895312857027927e+17
19037.0	6.917184271941632e+17
19038.0	6.915842911851859e+17
19039.0	6.914639091378858e+17
19040.0	6.913362927550464e+17
19041.0	6.912014021208746e+17
19042.0	6.910342619026771e+17
19043.0	6.909452663215443e+17
19044.0	6.908109112999935e+17
19045.0	6.9068566064442e+17
19046.0	6.905269063778301e+17
19047.0	6.904125209269587e+17
19048.0	6.902031818861225e+17
19049.0	6.901325872758783e+17
19050.0	6.900131445429587e+17
19051.0	6.89553080075332e+17
19052.0	6.896887677670739e+17
19053.0	6.896426597832019e+17
19054.0	6.895129775658323e+17
19055.0	6.892669838032896e+17
19056.0	6.8924456566784e+17
19057.0	6.891228979265535e+17
19058.0	6.889874723788116e+17
19059.0	6.88864753754658e+17
19060.0	6.887266231604564e+17
19061.0	6.886083688136701e+17
19062.0	6.884749640116906e+17
19063.0	6.883469904139603e+17
19064.0	6.881538702573568e+17
19065.0	6.880028539923113e+17
19066.0	6.879309519476051e+17
19067.0	6.878201650697556e+17
19068.0	6.876964584073897e+17
19069.0	6.875675359182847e+17
19070.0	6.874245404906835e+17
19071.0	6.873055615079764e+17
19072.0	6.871789675566422e+17
19073.0	6.870454840415572e+17
19074.0	6.869199530666665e+17
19075.0	6.867901990567933e+17
19076.0	6.866510901411837e+17
19077.0	6.865231607933609e+17
19078.0	6.863809011864916e+17
19079.0	6.86268153471522e+17
19080.0	6.861316401310378e+17
19081.0	6.859923923140607e+17
19082.0	6.858598811085481e+17
19083.0	6.856961572208639e+17
19084.0	6.855080690406742e+17
19085.0	6.854850025357311e+17
19086.0	6.851839054053375e+17
19087.0	6.851531326357504e+17
19088.0	6.850584177016832e+17
19089.0	6.84853893931554e+17
19090.0	6.848279577537194e+17
19091.0	6.846978704364884e+17
19092.0	6.845427097097556e+17
19093.0	6.84451847873058e+17
19094.0	6.843227407646719e+17
19095.0	6.841939708783274e+17
19096.0	6.840574843114836e+17
19097.0	6.839336351126868e+17
19098.0	6.838038280448681e+17
19099.0	6.836734293704703e+17
19100.0	6.835407380895059e+17
19101.0	6.834126975926272e+17
19102.0	6.832430397434537e+17
19103.0	6.831544813486079e+17
19104.0	6.830282806831785e+17
19105.0	6.828968742573396e+17
19106.0	6.827558392474282e+17
19107.0	6.826299338610003e+17
19108.0	6.825092965203965e+17
19109.0	6.821751831571112e+17
19110.0	6.822391705501695e+17
19111.0	6.821203886298452e+17
19112.0	6.819915562483711e+17
19113.0	6.818612244032168e+17
19114.0	6.817295510099284e+17
19115.0	6.81577563623697e+17
19116.0	6.814623871969961e+17
19117.0	6.813299751168681e+17
19118.0	6.81163188478498e+17
19119.0	6.794760333994648e+17
19120.0	6.809289890988031e+17
19121.0	6.808103539092137e+17
19122.0	6.806968724706644e+17
19123.0	6.805654020816893e+17
19124.0	6.804261637718015e+17
19125.0	6.803043053294932e+17
19126.0	6.801757196429993e+17
19127.0	6.792420912704172e+17
19128.0	6.798128548151293e+17
19129.0	6.797531339380052e+17
19130.0	6.796488032124927e+17
19131.0	6.795267528108713e+17
19132.0	6.793995268478291e+17
19133.0	6.791566769258496e+17
19134.0	6.790968860737536e+17
19135.0	6.790109630300159e+17
19136.0	6.788851926302719e+17
19137.0	6.786818179596287e+17
19138.0	6.786137794281471e+17
19139.0	6.784959490555903e+17
19140.0	6.783681140796074e+17
19141.0	6.782384354973012e+17
19142.0	6.780980840890367e+17
19143.0	6.779540045736618e+17
19144.0	6.778305796986195e+17
19145.0	6.777181814390783e+17
19146.0	6.773225637107031e+17
19147.0	6.774067955411625e+17
19148.0	6.773310225732948e+17
19149.0	6.772002518641322e+17
19150.0	6.770696671723519e+17
19151.0	6.769426779777706e+17
19152.0	6.768100391256063e+17
19153.0	6.766784478008659e+17
19154.0	6.764977641051476e+17
19155.0	6.764278609958227e+17
19156.0	6.762979130692947e+17
19157.0	6.76163277099281e+17
19158.0	6.758938814272851e+17
19159.0	6.759019272208384e+17
19160.0	6.75772315537681e+17
19161.0	6.756414427671209e+17
19162.0	6.752025646377644e+17
19163.0	6.753761487050068e+17
19164.0	6.752648977274198e+17
19165.0	6.751260784285011e+17
19166.0	6.749493419223721e+17
19167.0	6.748471876212052e+17
19168.0	6.747243289772031e+17
19169.0	6.745986620369578e+17
19170.0	6.744890947229012e+17
19171.0	6.743395919724543e+17
19172.0	6.742271459677524e+17
19173.0	6.741012725279402e+17
19174.0	6.739449249529855e+17
19175.0	6.738431920395604e+17
19176.0	6.737123737949523e+17
19177.0	6.735136048895316e+17
19178.0	6.734465342636031e+17
19179.0	6.733000256869716e+17
19180.0	6.731843001559724e+17
19181.0	6.730218068071764e+17
19182.0	6.729208812273663e+17
19183.0	6.728073576360617e+17
19184.0	6.726587458256895e+17
19185.0	6.725431990419455e+17
19186.0	6.724204252626943e+17
19187.0	6.722551764658857e+17
19188.0	6.721596982383956e+17
19189.0	6.720294479724543e+17
19190.0	6.718987250084522e+17
19191.0	6.717579186580137e+17
19192.0	6.716438533024426e+17
19193.0	6.715082494268756e+17
19194.0	6.713760165833385e+17
19195.0	6.71254081385267e+17
19196.0	6.711180951988906e+17
19197.0	6.709910959379795e+17
19198.0	6.708583175553024e+17
19199.0	6.688583542199631e+17
19200.0	6.692491517842779e+17
19201.0	6.704716699751763e+17
19202.0	6.703489426128895e+17
19203.0	6.702163070462633e+17
19204.0	6.700794610275668e+17
19205.0	6.699552660783103e+17
19206.0	6.69821175996962e+17
19207.0	6.696469875305129e+17
19208.0	6.694848870481917e+17
19209.0	6.694365238569642e+17
19210.0	6.693082048582996e+17
19211.0	6.691846068284073e+17
19212.0	6.690540438071977e+17
19213.0	6.688776448027306e+17
19214.0	6.687243510306134e+17
19215.0	6.686582852201129e+17
19216.0	6.685333034893311e+17
19217.0	6.684025146747561e+17
19218.0	6.678908257348261e+17
19219.0	6.680726374886057e+17
19220.0	6.68004136325393e+17
19221.0	6.677379512532992e+17
19222.0	6.677478396745044e+17
19223.0	6.676146268318378e+17
19224.0	6.674695054513492e+17
19225.0	6.672933107793917e+17
19226.0	6.672237118270121e+17
19227.0	6.670931332868777e+17
19228.0	6.669743352883881e+17
19229.0	6.668444076343296e+17
19230.0	6.667061400261972e+17
19231.0	6.665758288030377e+17
19232.0	6.664456106934272e+17
19233.0	6.662899019808767e+17
19234.0	6.661802253352959e+17
19235.0	6.660447175791956e+17
19236.0	6.659312301987155e+17
19237.0	6.657918945809747e+17
19238.0	6.656269110738944e+17
19239.0	6.655391946855766e+17
19240.0	6.653675938949801e+17
19241.0	6.652523914635945e+17
19242.0	6.651346843336703e+17
19243.0	6.649350611883347e+17
19244.0	6.648849952494931e+17
19245.0	6.64751533335074e+17
19246.0	6.64613868937762e+17
19247.0	6.644860025044991e+17
19248.0	6.643603050157396e+17
19249.0	6.642268340136617e+17
19250.0	6.640914155962368e+17
19251.0	6.638979324925267e+17
19252.0	6.637113211267753e+17
19253.0	6.63694190121233e+17
19254.0	6.635671418568703e+17
19255.0	6.633610917795155e+17
19256.0	6.63281228526387e+17
19257.0	6.631756256684713e+17
19258.0	6.630441055769939e+17
19259.0	6.628810385872212e+17
19260.0	6.627289784298153e+17
19261.0	6.626394740097023e+17
19262.0	6.624867363323903e+17
19263.0	6.623472835537577e+17
19264.0	6.620045202773329e+17
19265.0	6.620253379362813e+17
19266.0	6.61906578805009e+17
19267.0	6.618494518252884e+17
19268.0	6.617125857438378e+17
19269.0	6.61579274335027e+17
19270.0	6.614462554789204e+17
19271.0	6.611585349626541e+17
19272.0	6.611618062401535e+17
19273.0	6.598684373767501e+17
19274.0	6.601738147244705e+17
19275.0	6.607770127521107e+17
19276.0	6.60633507017523e+17
19277.0	6.605007285649407e+17
19278.0	6.603663195067732e+17
19279.0	6.602199141100201e+17
19280.0	6.6005792994973e+17
19281.0	6.599575915025748e+17
19282.0	6.598304151721299e+17
19283.0	6.596640008481449e+17
19284.0	6.595135021602131e+17
19285.0	6.593272090722301e+17
19286.0	6.592683654337876e+17
19287.0	6.591491515700563e+17
19288.0	6.582762919515468e+17
19289.0	6.574612259274735e+17
19290.0	6.587390136505683e+17
19291.0	6.584787891038892e+17
19292.0	6.584619559638355e+17
19293.0	6.582761056545449e+17
19294.0	6.581279610896381e+17
19295.0	6.579944417831593e+17
19296.0	6.578526000687785e+17
19297.0	6.577031580658346e+17
19298.0	6.575629100471636e+17
19299.0	6.574366479351807e+17
19300.0	6.572955732191913e+17
19301.0	6.571533896690346e+17
19302.0	6.570043999518719e+17
19303.0	6.568395381495123e+17
19304.0	6.567123371425791e+17
19305.0	6.56581081432064e+17
19306.0	6.564436210876415e+17
19307.0	6.562808328792745e+17
19308.0	6.561450357161983e+17
19309.0	6.5594585527965e+17
19310.0	6.557734930830675e+17
19311.0	6.557075768694102e+17
19312.0	6.555801996318036e+17
19313.0	6.554339270546772e+17
19314.0	6.537641112982883e+17
19315.0	6.536732108739932e+17
19316.0	6.549981483062612e+17
19317.0	6.548547319802537e+17
19318.0	6.547051108106239e+17
19319.0	6.545633313117523e+17
19320.0	6.54415172346402e+17
19321.0	6.542673281635668e+17
19322.0	6.54070794752273e+17
19323.0	6.539357337594537e+17
19324.0	6.538136663009961e+17
19325.0	6.536061818415786e+17
19326.0	6.535120463506089e+17
19327.0	6.533555660958377e+17
19328.0	6.532092951964329e+17
19329.0	6.530565433283923e+17
19330.0	6.528848487251967e+17
19331.0	6.527259292729344e+17
19332.0	6.525875723261268e+17
19333.0	6.524248676543145e+17
19334.0	6.522726200115197e+17
19335.0	6.521158685949951e+17
19336.0	6.519554977038333e+17
19337.0	6.517951119228928e+17
19338.0	6.515380405141501e+17
19339.0	6.514727874199551e+17
19340.0	6.512787703813459e+17
19341.0	6.511308183349929e+17
19342.0	6.508012871090172e+17
19343.0	6.50812374262306e+17
19344.0	6.506417923380563e+17
19345.0	6.496578832782665e+17
19346.0	6.498660874802511e+17
19347.0	6.501074912062121e+17
19348.0	6.499674972225535e+17
19349.0	6.497785285181439e+17
19350.0	6.496064282558463e+17
19351.0	6.494270443749376e+17
19352.0	6.492127809415849e+17
19353.0	6.490051008178857e+17
19354.0	6.488254627621546e+17
19355.0	6.485983820251136e+17
19356.0	6.484601095236265e+17
19357.0	6.482740865488212e+17
19358.0	6.480726272070995e+17
19359.0	6.478368421008724e+17
19360.0	6.47687587373602e+17
19361.0	6.475011889386835e+17
19362.0	6.473251032487252e+17
19363.0	6.471284421907795e+17
19364.0	6.469294138676564e+17
19365.0	6.467273961941674e+17
19366.0	6.465267492192255e+17
19367.0	6.463223716205908e+17
19368.0	6.461155107842729e+17
19369.0	6.458591127011327e+17
19370.0	6.455421167119017e+17
19371.0	6.453317682419028e+17
19372.0	6.451371171643391e+17
19373.0	6.449059461420372e+17
19374.0	6.446899232680617e+17
19375.0	6.444653733740543e+17
19376.0	6.442365357828778e+17
19377.0	6.439979520972115e+17
19378.0	6.437628062728191e+17
19379.0	6.435234511847423e+17
19380.0	6.432032408906409e+17
19381.0	6.42860787573282e+17
19382.0	6.425762746509993e+17
19383.0	6.422991007820457e+17
19384.0	6.420868935363241e+17
19385.0	6.418210052811434e+17
19386.0	6.415100310541654e+17
19387.0	6.410537709600768e+17
19388.0	6.407664224785748e+17
19389.0	6.40470337261841e+17
19390.0	6.401610215325695e+17
19391.0	6.378107320314519e+17
19392.0	6.391822208554321e+17
19393.0	6.389510709444607e+17
19394.0	6.385517602712233e+17
19395.0	6.379485744070655e+17
19396.0	6.376023926330708e+17
19397.0	6.370861070854824e+17
19398.0	6.364751637861716e+17
19399.0	6.357733915754491e+17
19400.0	6.351954924710569e+17
19401.0	6.347375014576133e+17
19402.0	6.338558029026643e+17
19403.0	6.331057313939452e+17
19404.0	6.323035167173289e+17
19405.0	6.314661665658195e+17
19406.0	6.309532730916863e+17
19407.0	6.304277032424788e+17
19408.0	6.295692312750765e+17
19409.0	6.292915009617919e+17
19410.0	6.287223039896233e+17
19411.0	6.280643419133267e+17
19412.0	6.274286494242131e+17
19413.0	6.267750540378111e+17
19414.0	6.260799237171881e+17
19415.0	6.253810672467968e+17
19416.0	6.245887583977471e+17
19417.0	6.2380085608448e+17
19418.0	6.230196318721364e+17
19419.0	6.221985689021097e+17
19420.0	6.213007990325247e+17
19421.0	6.203239536001023e+17
19422.0	6.193562112054611e+17
19423.0	6.182188501084841e+17
19424.0	6.17077973066274e+17
19425.0	6.158119807746049e+17
19426.0	6.143696748325546e+17
19427.0	6.127062833517908e+17
19428.0	6.108393081842346e+17
19429.0	6.084936391983104e+17
19430.0	6.054468625192283e+17
19431.0	6.021111368821416e+17
19432.0	6.003439414804479e+17
19433.0	5.982386366622378e+17
19434.0	5.959641813658282e+17
19435.0	5.935205234420392e+17
19436.0	5.908714539537748e+17
19437.0	5.883235999416319e+17
19438.0	5.830804861790899e+17
19439.0	5.818728617519785e+17
19440.0	5.781100283210413e+17
19441.0	5.730486029298341e+17
19442.0	5.6590051584245696e+17
19443.0	5.5980908291467936e+17
19444.0	5.5373883688441146e+17
19445.0	5.46467534147857e+17
19446.0	5.3707031878915405e+17
19447.0	5.2456367859957696e+17
19448.0	5.104206871177905e+17
19449.0	4.8973458859622355e+17
19450.0	4.564289573967134e+17
19451.0	4.4696523589550086e+17
19452.0	4.737348009634481e+17
19453.0	5.012705166841178e+17
19454.0	5.176414475124729e+17
19455.0	5.304878510025388e+17
19456.0	5.4131607159002477e+17
19457.0	5.492413584550568e+17
19458.0	5.5348216645113363e+17
19459.0	5.6093715998965824e+17
19460.0	5.6801501303712237e+17
19461.0	5.738278362458801e+17
19462.0	5.779838326188714e+17
19463.0	5.813599141014182e+17
19464.0	5.842258841217705e+17
19465.0	5.867865824209578e+17
19466.0	5.891633525205672e+17
19467.0	5.914448660616531e+17
19468.0	5.935465832120319e+17
19469.0	5.953413628035071e+17
19470.0	5.973014327853055e+17
19471.0	5.995929763053569e+17
19472.0	6.026044573570386e+17
19473.0	6.049232746184708e+17
19474.0	6.068581023001261e+17
19475.0	6.080329502687228e+17
19476.0	6.095600385436326e+17
19477.0	6.106776635528532e+17
19478.0	6.117312907531603e+17
19479.0	6.125700764052138e+17
19480.0	6.133906650693631e+17
19481.0	6.1408254375581e+17
19482.0	6.148382248665087e+17
19483.0	6.154436169345706e+17
19484.0	6.160026158060883e+17
19485.0	6.165851022906708e+17
19486.0	6.171174964122966e+17
19487.0	6.176092431843327e+17
19488.0	6.180680195112959e+17
19489.0	6.184221531963391e+17
19490.0	6.183746004844541e+17
19491.0	6.192858713991848e+17
19492.0	6.196882828514644e+17
19493.0	6.200264841232383e+17
19494.0	6.203423912012457e+17
19495.0	6.206378678244692e+17
19496.0	6.20766444143684e+17
19497.0	6.213299677604521e+17
19498.0	6.214236288756396e+17
19499.0	6.196880139266729e+17
19500.0	6.229454191154516e+17
19501.0	6.234875302510592e+17
19502.0	6.237966696797527e+17
19503.0	6.242481133846527e+17
19504.0	6.243832610597546e+17
19505.0	6.248816217598636e+17
19506.0	6.250035331902121e+17
19507.0	6.251401714510506e+17
19508.0	6.255159276819795e+17
19509.0	6.255968344779433e+17
19510.0	6.255886282522624e+17
19511.0	6.227832478192973e+17
19512.0	6.254854001393663e+17
19513.0	6.251277437282976e+17
19514.0	6.254779697201144e+17
19515.0	6.260166491460951e+17
19516.0	6.264427796671144e+17
19517.0	6.264677679322452e+17
19518.0	6.265165874637482e+17
19519.0	6.265325288947712e+17
19520.0	6.265355459974484e+17
19521.0	6.265600131203072e+17
19522.0	6.266073673018025e+17
19523.0	6.267247774050985e+17
19524.0	6.267216429318144e+17
19525.0	6.267046313940307e+17
19526.0	6.267040929153023e+17
19527.0	6.266884248130899e+17
19528.0	6.266718924745385e+17
19529.0	6.266507004040532e+17
19530.0	6.266340564970153e+17
19531.0	6.266114883452927e+17
19532.0	6.265823449229994e+17
19533.0	6.266676848186707e+17
19534.0	6.266327555637247e+17
19535.0	6.265908141315411e+17
19536.0	6.26543196967185e+17
19537.0	6.265199426273279e+17
19538.0	6.264128413543084e+17
19539.0	6.262107274215427e+17
19540.0	6.263750455022934e+17
19541.0	6.263386195099647e+17
19542.0	6.262866741734057e+17
19543.0	6.262335168927059e+17
19544.0	6.261817026980521e+17
19545.0	6.258910851061076e+17
19546.0	6.256940720062463e+17
19547.0	6.260116793152854e+17
19548.0	6.259489383994708e+17
19549.0	6.258447527269716e+17
19550.0	6.258261916035753e+17
19551.0	6.25762786030387e+17
19552.0	6.256962259211604e+17
19553.0	6.256420472575316e+17
19554.0	6.256203099974314e+17
19555.0	6.255610572046336e+17
19556.0	6.254958000559444e+17
19557.0	6.254225827474089e+17
19558.0	6.253485158825983e+17
19559.0	6.252711761324713e+17
19560.0	6.251873426909865e+17
19561.0	6.251102421559978e+17
19562.0	6.250427326660607e+17
19563.0	6.24967514394897e+17
19564.0	6.248871859934548e+17
19565.0	6.248067448351401e+17
19566.0	6.247115679683924e+17
19567.0	6.24643249537024e+17
19568.0	6.245470610740564e+17
19569.0	6.244665955188733e+17
19570.0	6.243920810519209e+17
19571.0	6.243040517685247e+17
19572.0	6.242060066269865e+17
19573.0	6.241222309270868e+17
19574.0	6.240068259807231e+17
19575.0	6.239570739855359e+17
19576.0	6.238692656021503e+17
19577.0	6.237651036274687e+17
19578.0	6.236696294544724e+17
19579.0	6.235873505618601e+17
19580.0	6.234957246627837e+17
19581.0	6.234116234149887e+17
19582.0	6.233265696407551e+17
19583.0	6.232339249452371e+17
19584.0	6.231339525909162e+17
19585.0	6.229973348122623e+17
19586.0	6.228863713542144e+17
19587.0	6.228445211481427e+17
19588.0	6.225477243677357e+17
19589.0	6.226546712903679e+17
19590.0	6.225311890931711e+17
19591.0	6.224712380186623e+17
19592.0	6.223775934010708e+17
19593.0	6.222713019083433e+17
19594.0	6.220790871621631e+17
19595.0	6.220577164842324e+17
19596.0	6.21765520855313e+17
19597.0	6.218668266487807e+17
19598.0	6.216417337322153e+17
19599.0	6.216875329454079e+17
19600.0	6.215910741595475e+17
19601.0	6.214601337907882e+17
19602.0	6.213612196593663e+17
19603.0	6.21089588073813e+17
19604.0	6.211569247584255e+17
19605.0	6.209523461128192e+17
19606.0	6.20983245340672e+17
19607.0	6.208837055589034e+17
19608.0	6.207753648690516e+17
19609.0	6.206563408674815e+17
19610.0	6.205788994753876e+17
19611.0	6.204733116470612e+17
19612.0	6.203750781113684e+17
19613.0	6.202670905819135e+17
19614.0	6.201496755852627e+17
19615.0	6.200638501989033e+17
19616.0	6.199453876049236e+17
19617.0	6.198565261716137e+17
19618.0	6.19488689415782e+17
19619.0	6.193375544519333e+17
19620.0	6.192442760669865e+17
19621.0	6.194381042920106e+17
19622.0	6.193357181157376e+17
19623.0	6.192318117838847e+17
19624.0	6.191221475115008e+17
19625.0	6.190214928138239e+17
19626.0	6.189110003761151e+17
19627.0	6.188099218440191e+17
19628.0	6.186539396628479e+17
19629.0	6.18556174770722e+17
19630.0	6.182888761109161e+17
19631.0	6.164082348523524e+17
19632.0	6.182760313345364e+17
19633.0	6.181523066366633e+17
19634.0	6.180674393691476e+17
19635.0	6.179425186654889e+17
19636.0	6.178493129818111e+17
19637.0	6.175662210897236e+17
19638.0	6.176349537785172e+17
19639.0	6.175247645889876e+17
19640.0	6.1736255750144e+17
19641.0	6.17016058358443e+17
19642.0	6.172071223973204e+17
19643.0	6.170964611388756e+17
19644.0	6.169658829482665e+17
19645.0	6.167662281359356e+17
19646.0	6.167826101086889e+17
19647.0	6.166748954187092e+17
19648.0	6.165648493248512e+17
19649.0	6.164553876373503e+17
19650.0	6.163506521615017e+17
19651.0	6.162401742640467e+17
19652.0	6.161301350907901e+17
19653.0	6.160247409694035e+17
19654.0	6.159124912581289e+17
19655.0	6.158021121365331e+17
19656.0	6.156974285302441e+17
19657.0	6.155888194748415e+17
19658.0	6.154826178800298e+17
19659.0	6.153736254652415e+17
19660.0	6.152668784710996e+17
19661.0	6.151559892522326e+17
19662.0	6.150492291858432e+17
19663.0	6.149168698141353e+17
19664.0	6.148211641155583e+17
