# Flux units: erg / (cm m2 s)
# Wavelength units: Angstrom
wave	flux
19000.0	6.492681928703997e+17
19001.0	6.491450669094228e+17
19002.0	6.490228833386495e+17
19003.0	6.489002436373162e+17
19004.0	6.487776167286099e+17
19005.0	6.48655032881425e+17
19006.0	6.485324475662333e+17
19007.0	6.484063172253012e+17
19008.0	6.482869537647273e+17
19009.0	6.481646878457855e+17
19010.0	6.480400294958419e+17
19011.0	6.479196289936042e+17
19012.0	6.477937578606591e+17
19013.0	6.47674222223906e+17
19014.0	6.475503699492863e+17
19015.0	6.474281987517098e+17
19016.0	6.473055309485395e+17
19017.0	6.471813339720361e+17
19018.0	6.470607782805504e+17
19019.0	6.469386913884842e+17
19020.0	6.468160338613588e+17
19021.0	6.466938031046655e+17
19022.0	6.465717676627284e+17
19023.0	6.464494884618237e+17
19024.0	6.463271828368042e+17
19025.0	6.46204738380322e+17
19026.0	6.460822859546623e+17
19027.0	6.459584261302953e+17
19028.0	6.458384398155775e+17
19029.0	6.457162859544576e+17
19030.0	6.45594156630016e+17
19031.0	6.454720447119359e+17
19032.0	6.453499567013888e+17
19033.0	6.452274666668032e+17
19034.0	6.451058146541567e+17
19035.0	6.449836200383827e+17
19036.0	6.446477036137128e+17
19037.0	6.447398027001855e+17
19038.0	6.446178547094867e+17
19039.0	6.444959132199593e+17
19040.0	6.443739903950847e+17
19041.0	6.442520925962239e+17
19042.0	6.441298311512064e+17
19043.0	6.440083707483476e+17
19044.0	6.438865110477482e+17
19045.0	6.437645831897087e+17
19046.0	6.436425634764116e+17
19047.0	6.435211520070996e+17
19048.0	6.433984440784212e+17
19049.0	6.432773745147903e+17
19050.0	6.43155783529267e+17
19051.0	6.430099968622591e+17
19052.0	6.429112908382207e+17
19053.0	6.427901020864511e+17
19054.0	6.426693927436287e+17
19055.0	6.425466112049151e+17
19056.0	6.424262357286911e+17
19057.0	6.423046346768383e+17
19058.0	6.421822740365311e+17
19059.0	6.420616640288084e+17
19060.0	6.419400658430633e+17
19061.0	6.418187260264448e+17
19062.0	6.416972759695359e+17
19063.0	6.415758787608573e+17
19064.0	6.414539612487679e+17
19065.0	6.413322651959296e+17
19066.0	6.4121148014592e+17
19067.0	6.410904748949503e+17
19068.0	6.409691726872575e+17
19069.0	6.408479101157376e+17
19070.0	6.407265795964928e+17
19071.0	6.406053189124095e+17
19072.0	6.404842148855808e+17
19073.0	6.403630330544128e+17
19074.0	6.402419035122346e+17
19075.0	6.401207731311956e+17
19076.0	6.399995529221459e+17
19077.0	6.398785403311444e+17
19078.0	6.397570762233172e+17
19079.0	6.396364787985065e+17
19080.0	6.395154535546879e+17
19081.0	6.393942427129172e+17
19082.0	6.392730880049151e+17
19083.0	6.391520944979967e+17
19084.0	6.390304548585471e+17
19085.0	6.389107429212159e+17
19086.0	6.387878184266409e+17
19087.0	6.386640670250324e+17
19088.0	6.385478387367936e+17
19089.0	6.384239671683753e+17
19090.0	6.38306597610018e+17
19091.0	6.381857118268073e+17
19092.0	6.380636905755988e+17
19093.0	6.379444214169599e+17
19094.0	6.378220000990548e+17
19095.0	6.377008516126036e+17
19096.0	6.37581539811874e+17
19097.0	6.37461735739665e+17
19098.0	6.373412443608403e+17
19099.0	6.372206323957759e+17
19100.0	6.370998046337705e+17
19101.0	6.369795136727721e+17
19102.0	6.368587474971305e+17
19103.0	6.367386790439593e+17
19104.0	6.366182330335231e+17
19105.0	6.36497810301474e+17
19106.0	6.363765185096361e+17
19107.0	6.362569727366486e+17
19108.0	6.361366841524223e+17
19109.0	6.359934412608851e+17
19110.0	6.358959775896916e+17
19111.0	6.357758000846164e+17
19112.0	6.356555233143465e+17
19113.0	6.355353157500927e+17
19114.0	6.35415106298402e+17
19115.0	6.35294510621218e+17
19116.0	6.351747682751827e+17
19117.0	6.350545656042836e+17
19118.0	6.349332197758294e+17
19119.0	6.348034717777919e+17
19120.0	6.346930762984106e+17
19121.0	6.345735260514985e+17
19122.0	6.344543155432106e+17
19123.0	6.343341554444969e+17
19124.0	6.342134382723072e+17
19125.0	6.340940486672381e+17
19126.0	6.33972967289651e+17
19127.0	6.338469183182164e+17
19128.0	6.33713178321442e+17
19129.0	6.336144265794899e+17
19130.0	6.334950432658772e+17
19131.0	6.33374545735407e+17
19132.0	6.33255453925922e+17
19133.0	6.331298604559017e+17
19134.0	6.330054492203689e+17
19135.0	6.328962222041769e+17
19136.0	6.327765906576724e+17
19137.0	6.32656164500275e+17
19138.0	6.325325724822185e+17
19139.0	6.324176391853396e+17
19140.0	6.322980920841556e+17
19141.0	6.321785326097748e+17
19142.0	6.320588716332372e+17
19143.0	6.3193915340445e+17
19144.0	6.318197839320403e+17
19145.0	6.317003902724777e+17
19146.0	6.315776178913277e+17
19147.0	6.314612231591252e+17
19148.0	6.31342059627042e+17
19149.0	6.312227290218495e+17
19150.0	6.31103146758417e+17
19151.0	6.30984134430993e+17
19152.0	6.308643618859689e+17
19153.0	6.307454265240233e+17
19154.0	6.306256759990953e+17
19155.0	6.305070166223529e+17
19156.0	6.303877757053609e+17
19157.0	6.302683858206719e+17
19158.0	6.301334070362111e+17
19159.0	6.300301365608447e+17
19160.0	6.299105522701652e+17
19161.0	6.297897667308201e+17
19162.0	6.296377275449344e+17
19163.0	6.295537365374292e+17
19164.0	6.294348264112127e+17
19165.0	6.293153777363625e+17
19166.0	6.291958420297044e+17
19167.0	6.290745589759999e+17
19168.0	6.289579548781225e+17
19169.0	6.288391118607699e+17
19170.0	6.287210865229823e+17
19171.0	6.286007232801449e+17
19172.0	6.284832007695018e+17
19173.0	6.283644254202538e+17
19174.0	6.282454189648553e+17
19175.0	6.281268781471059e+17
19176.0	6.280080919625728e+17
19177.0	6.278886395128489e+17
19178.0	6.277703260263763e+17
19179.0	6.276496968646656e+17
19180.0	6.275248794806953e+17
19181.0	6.274139600628394e+17
19182.0	6.272947403270825e+17
19183.0	6.271762684357289e+17
19184.0	6.270573529268223e+17
19185.0	6.269399500936532e+17
19186.0	6.268214288493226e+17
19187.0	6.267025571009876e+17
19188.0	6.265841049927679e+17
19189.0	6.264648544987817e+17
19190.0	6.263461848459946e+17
19191.0	6.262284149413204e+17
19192.0	6.261096103018495e+17
19193.0	6.259830366928895e+17
19194.0	6.258697179234301e+17
19195.0	6.257542644629503e+17
19196.0	6.256367281111039e+17
19197.0	6.255183421330772e+17
19198.0	6.253998934502057e+17
19199.0	6.250684553538217e+17
19200.0	6.250300729283924e+17
19201.0	6.250450240143359e+17
19202.0	6.249269087786324e+17
19203.0	6.248082709326506e+17
19204.0	6.246903746396159e+17
19205.0	6.245722886242304e+17
19206.0	6.244540513342803e+17
19207.0	6.243357167364778e+17
19208.0	6.242167325807956e+17
19209.0	6.240996529187498e+17
19210.0	6.239815085326333e+17
19211.0	6.238633345766739e+17
19212.0	6.237453409757865e+17
19213.0	6.236251269103615e+17
19214.0	6.235060216091988e+17
19215.0	6.233904326027945e+17
19216.0	6.232727036624895e+17
19217.0	6.231551354339327e+17
19218.0	6.230333831774208e+17
19219.0	6.229184074481664e+17
19220.0	6.228010913671849e+17
19221.0	6.2268157474461e+17
19222.0	6.225653613461503e+17
19223.0	6.22447424647987e+17
19224.0	6.223286788685823e+17
19225.0	6.222107950186495e+17
19226.0	6.220937776420179e+17
19227.0	6.219759230823082e+17
19228.0	6.218580764917759e+17
19229.0	6.21740238639377e+17
19230.0	6.21621542003234e+17
19231.0	6.215039497273343e+17
19232.0	6.213861418642089e+17
19233.0	6.212686687065427e+17
19234.0	6.211511133405183e+17
19235.0	6.210334738087933e+17
19236.0	6.209157159976959e+17
19237.0	6.207978984177663e+17
19238.0	6.206794969907199e+17
19239.0	6.205625186910208e+17
19240.0	6.204428778471423e+17
19241.0	6.203265785353556e+17
19242.0	6.20209237987601e+17
19243.0	6.200908346032127e+17
19244.0	6.19973975212032e+17
19245.0	6.198563377774591e+17
19246.0	6.197386066001919e+17
19247.0	6.196209240768511e+17
19248.0	6.195033642369023e+17
19249.0	6.193856326402047e+17
19250.0	6.19268036309811e+17
19251.0	6.191500211781631e+17
19252.0	6.190309950095359e+17
19253.0	6.189149145006079e+17
19254.0	6.187962964377599e+17
19255.0	6.186779551989759e+17
19256.0	6.185606205931519e+17
19257.0	6.184436739604479e+17
19258.0	6.183260390424575e+17
19259.0	6.18208068440337e+17
19260.0	6.180886784158377e+17
19261.0	6.179732014672553e+17
19262.0	6.178554310033407e+17
19263.0	6.177377111506944e+17
19264.0	6.176179805487103e+17
19265.0	6.175017988871507e+17
19266.0	6.173844026949632e+17
19267.0	6.172673670032041e+17
19268.0	6.171497108340735e+17
19269.0	6.170320471851005e+17
19270.0	6.169142262497279e+17
19271.0	6.167950945943551e+17
19272.0	6.166788337303551e+17
19273.0	6.165114837270527e+17
19274.0	6.16419624484864e+17
19275.0	6.163258497040383e+17
19276.0	6.162081126547455e+17
19277.0	6.160903544242175e+17
19278.0	6.159725838204927e+17
19279.0	6.158539802279933e+17
19280.0	6.157366173805225e+17
19281.0	6.1561914799773e+17
19282.0	6.155012969332735e+17
19283.0	6.153800545643178e+17
19284.0	6.152577352379049e+17
19285.0	6.15146608202001e+17
19286.0	6.150295383965695e+17
19287.0	6.149117107503103e+17
19288.0	6.147467009589247e+17
19289.0	6.1452567749591e+17
19290.0	6.145576288649215e+17
19291.0	6.144382788960255e+17
19292.0	6.143214052442112e+17
19293.0	6.142032015086932e+17
19294.0	6.140850250361514e+17
19295.0	6.139667783090173e+17
19296.0	6.138484990760275e+17
19297.0	6.137300665412266e+17
19298.0	6.13611784512034e+17
19299.0	6.134933535850496e+17
19300.0	6.133748672932522e+17
19301.0	6.132562950182228e+17
19302.0	6.131377005133823e+17
19303.0	6.130185706056362e+17
19304.0	6.129000018258601e+17
19305.0	6.127815842507434e+17
19306.0	6.126626644077226e+17
19307.0	6.125433005976233e+17
19308.0	6.124245260872361e+17
19309.0	6.122996996156074e+17
19310.0	6.121767247194793e+17
19311.0	6.120667890057215e+17
19312.0	6.119480156837203e+17
19313.0	6.118272472012116e+17
19314.0	6.116438330834941e+17
19315.0	6.115294324632234e+17
19316.0	6.114696797792937e+17
19317.0	6.113502496292863e+17
19318.0	6.11230355169826e+17
19319.0	6.111103514487466e+17
19320.0	6.109898544775167e+17
19321.0	6.108699677775188e+17
19322.0	6.107486326445396e+17
19323.0	6.106255073826131e+17
19324.0	6.105083283854676e+17
19325.0	6.103832517935104e+17
19326.0	6.102666588105386e+17
19327.0	6.101455043122518e+17
19328.0	6.100243139526655e+17
19329.0	6.099028751504724e+17
19330.0	6.097810584414889e+17
19331.0	6.096592473249108e+17
19332.0	6.095374424997887e+17
19333.0	6.09415155749137e+17
19334.0	6.092923807814996e+17
19335.0	6.091702144073727e+17
19336.0	6.090473408735914e+17
19337.0	6.089242054055252e+17
19338.0	6.087999306945875e+17
19339.0	6.086773152503123e+17
19340.0	6.085532140437504e+17
19341.0	6.084256326134441e+17
19342.0	6.082983152145748e+17
19343.0	6.081743043952637e+17
19344.0	6.080492357025791e+17
19345.0	6.079141805817855e+17
19346.0	6.077956327735295e+17
19347.0	6.076716597029546e+17
19348.0	6.075449427187028e+17
19349.0	6.074174841815039e+17
19350.0	6.072900715719337e+17
19351.0	6.071623863326036e+17
19352.0	6.070339422737748e+17
19353.0	6.06905588392482e+17
19354.0	6.06774564626978e+17
19355.0	6.06642660057634e+17
19356.0	6.065127421902847e+17
19357.0	6.06381840339217e+17
19358.0	6.062500000126291e+17
19359.0	6.061156790348457e+17
19360.0	6.059853447430144e+17
19361.0	6.058517353988095e+17
19362.0	6.05717856780288e+17
19363.0	6.055828513619968e+17
19364.0	6.05446990795025e+17
19365.0	6.053103853895679e+17
19366.0	6.051728538817876e+17
19367.0	6.050343634163028e+17
19368.0	6.048948805784916e+17
19369.0	6.047534853477716e+17
19370.0	6.046066120764074e+17
19371.0	6.044696158317225e+17
19372.0	6.043258434792105e+17
19373.0	6.041801284648959e+17
19374.0	6.04032762782242e+17
19375.0	6.038846064732841e+17
19376.0	6.037349513297919e+17
19377.0	6.035836492928339e+17
19378.0	6.034296641596074e+17
19379.0	6.032741584513705e+17
19380.0	6.031175193023827e+17
19381.0	6.029587695796223e+17
19382.0	6.027974256798377e+17
19383.0	6.026341481360042e+17
19384.0	6.024690414561961e+17
19385.0	6.023004702113791e+17
19386.0	6.021270249056937e+17
19387.0	6.019525010347348e+17
19388.0	6.017755130800809e+17
19389.0	6.015952025376084e+17
19390.0	6.014109015343103e+17
19391.0	6.010310073428646e+17
19392.0	6.010283701043199e+17
19393.0	6.00829975470626e+17
19394.0	6.006264493856084e+17
19395.0	6.004206819344383e+17
19396.0	6.002095755537065e+17
19397.0	5.99993613427234e+17
19398.0	5.997707814502399e+17
19399.0	5.995352382155433e+17
19400.0	5.993019376052906e+17
19401.0	5.99058327675426e+17
19402.0	5.988062911791104e+17
19403.0	5.985447984846166e+17
19404.0	5.982665491262121e+17
19405.0	5.979833393741823e+17
19406.0	5.976915404565161e+17
19407.0	5.973847407504041e+17
19408.0	5.970629105461929e+17
19409.0	5.967345097550506e+17
19410.0	5.963784940858026e+17
19411.0	5.960062852573866e+17
19412.0	5.956166746811052e+17
19413.0	5.95214120133154e+17
19414.0	5.94776231719731e+17
19415.0	5.943232493344084e+17
19416.0	5.938444419203071e+17
19417.0	5.933199837014697e+17
19418.0	5.927850566396586e+17
19419.0	5.921978237408595e+17
19420.0	5.915830023880701e+17
19421.0	5.909208757873321e+17
19422.0	5.902106089925289e+17
19423.0	5.894501707721386e+17
19424.0	5.886188328058879e+17
19425.0	5.877070543803731e+17
19426.0	5.867365850589866e+17
19427.0	5.856414784290815e+17
19428.0	5.844675014077097e+17
19429.0	5.832692838258003e+17
19430.0	5.81978973728495e+17
19431.0	5.805253846193494e+17
19432.0	5.7899966543517e+17
19433.0	5.772724883073708e+17
19434.0	5.753107351513771e+17
19435.0	5.730452994960043e+17
19436.0	5.704147765209771e+17
19437.0	5.678853976489983e+17
19438.0	5.6499735167849805e+17
19439.0	5.6228966154895366e+17
19440.0	5.588830560889515e+17
19441.0	5.548626823959891e+17
19442.0	5.4997069010916685e+17
19443.0	5.449816655353172e+17
19444.0	5.397207194096977e+17
19445.0	5.333951567975767e+17
19446.0	5.255217701104297e+17
19447.0	5.171494229377017e+17
19448.0	5.06657127163495e+17
19449.0	4.9229744703187616e+17
19450.0	4.608068655863106e+17
19451.0	4.4931276757183104e+17
19452.0	4.7858683006156845e+17
19453.0	5.004152186164571e+17
19454.0	5.1179920230973357e+17
19455.0	5.2084103771586554e+17
19456.0	5.2879125139947514e+17
19457.0	5.3567230693430566e+17
19458.0	5.4109240976998406e+17
19459.0	5.4592675414452934e+17
19460.0	5.508507677753339e+17
19461.0	5.5503815138344954e+17
19462.0	5.5850032137502726e+17
19463.0	5.6143050604980883e+17
19464.0	5.640019964329983e+17
19465.0	5.6629881254270304e+17
19466.0	5.687370435963562e+17
19467.0	5.709365189978791e+17
19468.0	5.7281604974455456e+17
19469.0	5.7441397743725203e+17
19470.0	5.758406038825641e+17
19471.0	5.771020491991722e+17
19472.0	5.782163040152233e+17
19473.0	5.792121953626793e+17
19474.0	5.801876851960492e+17
19475.0	5.810853039308799e+17
19476.0	5.818969959869097e+17
19477.0	5.825957209658708e+17
19478.0	5.832467627900927e+17
19479.0	5.838097715560448e+17
19480.0	5.843140785209344e+17
19481.0	5.847639595679743e+17
19482.0	5.851864374793555e+17
19483.0	5.855532072741545e+17
19484.0	5.858879473363625e+17
19485.0	5.861874794321236e+17
19486.0	5.864605398073344e+17
19487.0	5.86699039117585e+17
19488.0	5.869160512181588e+17
19489.0	5.871093283815423e+17
19490.0	5.872704731916969e+17
19491.0	5.874284662620159e+17
19492.0	5.875678894708052e+17
19493.0	5.876871072492202e+17
19494.0	5.877847192589652e+17
19495.0	5.878700738347005e+17
19496.0	5.879429606320809e+17
19497.0	5.880051110597972e+17
19498.0	5.880483785211904e+17
19499.0	5.877816432962214e+17
19500.0	5.881362294767615e+17
19501.0	5.881584028046676e+17
19502.0	5.881731997499391e+17
19503.0	5.881807614509055e+17
19504.0	5.881827256434687e+17
19505.0	5.881794877106857e+17
19506.0	5.881682593491625e+17
19507.0	5.881515823770282e+17
19508.0	5.881299591320915e+17
19509.0	5.881035889836031e+17
19510.0	5.880732206148265e+17
19511.0	5.878300524150781e+17
19512.0	5.879685621743613e+17
19513.0	5.878793514254335e+17
19514.0	5.878618547464873e+17
19515.0	5.878650745039529e+17
19516.0	5.878188652276393e+17
19517.0	5.877639913581226e+17
19518.0	5.877073169438035e+17
19519.0	5.87647663734784e+17
19520.0	5.875860419990868e+17
19521.0	5.87522969243921e+17
19522.0	5.874568568766464e+17
19523.0	5.873889354361513e+17
19524.0	5.873191332697427e+17
19525.0	5.87247267086336e+17
19526.0	5.87174402658577e+17
19527.0	5.870998984676692e+17
19528.0	5.870259047235583e+17
19529.0	5.869502913489578e+17
19530.0	5.868722637329748e+17
19531.0	5.867922708758528e+17
19532.0	5.867111048719018e+17
19533.0	5.866288557588479e+17
19534.0	5.865455484228948e+17
19535.0	5.864612510913876e+17
19536.0	5.863758282883072e+17
19537.0	5.862898914732714e+17
19538.0	5.862030046483795e+17
19539.0	5.861135105043114e+17
19540.0	5.86027435556864e+17
19541.0	5.859383075755348e+17
19542.0	5.858483378672979e+17
19543.0	5.857577039910227e+17
19544.0	5.856664474004137e+17
19545.0	5.855730843604307e+17
19546.0	5.854778127024127e+17
19547.0	5.853889783223636e+17
19548.0	5.852954327602516e+17
19549.0	5.85201025478383e+17
19550.0	5.851072112011946e+17
19551.0	5.850123052864852e+17
19552.0	5.849169459675135e+17
19553.0	5.848211001092778e+17
19554.0	5.847248528561492e+17
19555.0	5.846284900499455e+17
19556.0	5.845315961050452e+17
19557.0	5.844343278185129e+17
19558.0	5.843367730610176e+17
19559.0	5.84238717084194e+17
19560.0	5.84140565127714e+17
19561.0	5.840422309287252e+17
19562.0	5.839434638076585e+17
19563.0	5.838443678531583e+17
19564.0	5.837451750102356e+17
19565.0	5.836456599748607e+17
19566.0	5.835458255432361e+17
19567.0	5.834458732516692e+17
19568.0	5.833457550753791e+17
19569.0	5.8324532854784e+17
19570.0	5.831447774494719e+17
19571.0	5.830439923788458e+17
19572.0	5.829428790340265e+17
19573.0	5.828418353146537e+17
19574.0	5.827400979972095e+17
19575.0	5.826391183807828e+17
19576.0	5.825375406566057e+17
19577.0	5.824350527684607e+17
19578.0	5.82333679936034e+17
19579.0	5.82231724724497e+17
19580.0	5.821295855927295e+17
19581.0	5.820273128723795e+17
19582.0	5.819249837386409e+17
19583.0	5.818224562842282e+17
19584.0	5.817204859032916e+17
19585.0	5.816196154785791e+17
19586.0	5.815153223619924e+17
19587.0	5.81411329417762e+17
19588.0	5.813089215010132e+17
19589.0	5.812050188741289e+17
19590.0	5.811045257969663e+17
19591.0	5.810017457755476e+17
19592.0	5.808983477234346e+17
19593.0	5.807949597376511e+17
19594.0	5.806898101441876e+17
19595.0	5.805878115216042e+17
19596.0	5.804324494682794e+17
19597.0	5.803802985409193e+17
19598.0	5.802755783043754e+17
19599.0	5.801728505020415e+17
19600.0	5.800689493431635e+17
19601.0	5.799646969812308e+17
19602.0	5.798608098033663e+17
19603.0	5.797518013803177e+17
19604.0	5.796524819393194e+17
19605.0	5.795472906824361e+17
19606.0	5.794443830143657e+17
19607.0	5.793402849329151e+17
19608.0	5.792359934241449e+17
19609.0	5.791315865720148e+17
19610.0	5.790273657372672e+17
19611.0	5.789229646872576e+17
19612.0	5.788185774784511e+17
19613.0	5.787140994629632e+17
19614.0	5.786094626930687e+17
19615.0	5.785051568537599e+17
19616.0	5.783990338322432e+17
19617.0	5.782960248717311e+17
19618.0	5.781893253431296e+17
19619.0	5.780838385975295e+17
19620.0	5.779794591481855e+17
19621.0	5.778776661164031e+17
19622.0	5.777730104721407e+17
19623.0	5.776683376312319e+17
19624.0	5.775636503199743e+17
19625.0	5.774588760468137e+17
19626.0	5.773542131324244e+17
19627.0	5.772494824800253e+17
19628.0	5.771399882866687e+17
19629.0	5.770395569356799e+17
19630.0	5.769325893910527e+17
19631.0	5.766065856446461e+17
19632.0	5.767255168122879e+17
19633.0	5.766207269502975e+17
19634.0	5.765160360738815e+17
19635.0	5.7641102202634234e+17
19636.0	5.7630641440686074e+17
19637.0	5.7619967398379514e+17
19638.0	5.760967247921151e+17
19639.0	5.759918755807231e+17
19640.0	5.7588687348695034e+17
19641.0	5.7577969224253434e+17
19642.0	5.756774202212352e+17
19643.0	5.7557247146502816e+17
19644.0	5.7546745601938765e+17
19645.0	5.753617267032063e+17
19646.0	5.752580630118399e+17
19647.0	5.7515322952908794e+17
19648.0	5.750483897548799e+17
19649.0	5.749435445280768e+17
19650.0	5.7483871677754016e+17
19651.0	5.747339007710547e+17
19652.0	5.746290694553598e+17
19653.0	5.7452424037662714e+17
19654.0	5.7441942891397114e+17
19655.0	5.743142686949375e+17
19656.0	5.7420932846714874e+17
19657.0	5.7410455370465274e+17
19658.0	5.739996841508863e+17
19659.0	5.738949689475071e+17
19660.0	5.7379019712102394e+17
19661.0	5.736854204710911e+17
19662.0	5.735806540972031e+17
19663.0	5.734756706680831e+17
19664.0	5.73370270954291e+17
