# Flux units: erg / (cm m2 s)
# Wavelength units: Angstrom
wave	flux
19000.0	6.921804817891327e+17
19001.0	6.92048749535778e+17
19002.0	6.919186570455721e+17
19003.0	6.917877407940607e+17
19004.0	6.916568277581823e+17
19005.0	6.915259681297748e+17
19006.0	6.913950898367146e+17
19007.0	6.912642238469459e+17
19008.0	6.9113276282525e+17
19009.0	6.910023212291411e+17
19010.0	6.908676957448873e+17
19011.0	6.907406202874537e+17
19012.0	6.906091280181929e+17
19013.0	6.904792428664148e+17
19014.0	6.903479975018495e+17
19015.0	6.902176713190057e+17
19016.0	6.900864421025108e+17
19017.0	6.899539351612073e+17
19018.0	6.898253909983232e+17
19019.0	6.89694689075746e+17
19020.0	6.895634915961513e+17
19021.0	6.894328991449087e+17
19022.0	6.893026007842815e+17
19023.0	6.891719243071488e+17
19024.0	6.890411874320383e+17
19025.0	6.889106304925695e+17
19026.0	6.887797365407743e+17
19027.0	6.886492980903936e+17
19028.0	6.885190150389759e+17
19029.0	6.883884308365311e+17
19030.0	6.882578717999104e+17
19031.0	6.881273276530687e+17
19032.0	6.879967983960063e+17
19033.0	6.878655481380863e+17
19034.0	6.877357648379904e+17
19035.0	6.876053030393172e+17
19036.0	6.874509861366442e+17
19037.0	6.873443946812755e+17
19038.0	6.872139723090601e+17
19039.0	6.870835660849151e+17
19040.0	6.86953172443682e+17
19041.0	6.868227973971965e+17
19042.0	6.866917711850154e+17
19043.0	6.865621041370452e+17
19044.0	6.864317604080297e+17
19045.0	6.863014819004415e+17
19046.0	6.861707943084032e+17
19047.0	6.860409222288724e+17
19048.0	6.859089905363625e+17
19049.0	6.857799205475668e+17
19050.0	6.856499046034089e+17
19051.0	6.855165684482047e+17
19052.0	6.853897161277439e+17
19053.0	6.852597266776063e+17
19054.0	6.851296183189503e+17
19055.0	6.849974063071232e+17
19056.0	6.848694185885693e+17
19057.0	6.847393465106431e+17
19058.0	6.846092995985408e+17
19059.0	6.844792491212799e+17
19060.0	6.843490539405311e+17
19061.0	6.842192603643901e+17
19062.0	6.840892518301695e+17
19063.0	6.839593320054783e+17
19064.0	6.838284710488745e+17
19065.0	6.836979722704212e+17
19066.0	6.835690729897983e+17
19067.0	6.834397523214335e+17
19068.0	6.833099014930431e+17
19069.0	6.831800846385151e+17
19070.0	6.830501913078442e+17
19071.0	6.829204983250943e+17
19072.0	6.827907355071827e+17
19073.0	6.82660952276992e+17
19074.0	6.82531276001553e+17
19075.0	6.824015800128852e+17
19076.0	6.822717144345258e+17
19077.0	6.821421819538089e+17
19078.0	6.820120754825897e+17
19079.0	6.818830026276861e+17
19080.0	6.817533930416809e+17
19081.0	6.816234453947734e+17
19082.0	6.814936847439188e+17
19083.0	6.813639502375593e+17
19084.0	6.812331780603903e+17
19085.0	6.811057840455679e+17
19086.0	6.809730489341268e+17
19087.0	6.808462500211369e+17
19088.0	6.807169141134676e+17
19089.0	6.805862770627924e+17
19090.0	6.804586846573908e+17
19091.0	6.803291245641727e+17
19092.0	6.801994338183849e+17
19093.0	6.800707174094164e+17
19094.0	6.799400780518739e+17
19095.0	6.798104716815017e+17
19096.0	6.796827223392255e+17
19097.0	6.795536986275839e+17
19098.0	6.794245180489727e+17
19099.0	6.792952915427327e+17
19100.0	6.791661856926378e+17
19101.0	6.790370671198207e+17
19102.0	6.789072634074451e+17
19103.0	6.787788777193471e+17
19104.0	6.78649814790963e+17
19105.0	6.785207738826751e+17
19106.0	6.783916417482751e+17
19107.0	6.782626407557801e+17
19108.0	6.781337899193683e+17
19109.0	6.780023065979562e+17
19110.0	6.778758971260927e+17
19111.0	6.777470044165459e+17
19112.0	6.776181213538985e+17
19113.0	6.774892584239103e+17
19114.0	6.773604200306004e+17
19115.0	6.772313939421866e+17
19116.0	6.771028030128127e+17
19117.0	6.769739063186772e+17
19118.0	6.768444663922687e+17
19119.0	6.766970540829353e+17
19120.0	6.765876803360084e+17
19121.0	6.764590418012842e+17
19122.0	6.763304993161215e+17
19123.0	6.76201671828002e+17
19124.0	6.760732000168617e+17
19125.0	6.759446164275197e+17
19126.0	6.758159265125716e+17
19127.0	6.756740642461012e+17
19128.0	6.755582826512383e+17
19129.0	6.754296822147753e+17
19130.0	6.753019679648425e+17
19131.0	6.751734932176895e+17
19132.0	6.750450341991763e+17
19133.0	6.749112591100585e+17
19134.0	6.747882487021567e+17
19135.0	6.746598666491219e+17
19136.0	6.745315179408042e+17
19137.0	6.744018762683731e+17
19138.0	6.742744097619967e+17
19139.0	6.741465651391146e+17
19140.0	6.74018296542003e+17
19141.0	6.738900499649876e+17
19142.0	6.737618072327508e+17
19143.0	6.736331488449875e+17
19144.0	6.735053978948948e+17
19145.0	6.73377256804625e+17
19146.0	6.732444433296042e+17
19147.0	6.731202923506346e+17
19148.0	6.729928638027092e+17
19149.0	6.728647849279487e+17
19150.0	6.727366318140072e+17
19151.0	6.726086930290004e+17
19152.0	6.724804255503699e+17
19153.0	6.723526710351188e+17
19154.0	6.722236506789203e+17
19155.0	6.720967256571903e+17
19156.0	6.71968758141201e+17
19157.0	6.718408308206249e+17
19158.0	6.717111630736041e+17
19159.0	6.715849138940586e+17
19160.0	6.714569197442388e+17
19161.0	6.713293609631743e+17
19162.0	6.711975875357353e+17
19163.0	6.71073736729122e+17
19164.0	6.709459701202943e+17
19165.0	6.708181305305769e+17
19166.0	6.706883390515882e+17
19167.0	6.705580555807401e+17
19168.0	6.704292485049002e+17
19169.0	6.703022624560467e+17
19170.0	6.701753563086847e+17
19171.0	6.700475284630185e+17
19172.0	6.699200866331306e+17
19173.0	6.697924682230441e+17
19174.0	6.696644356254378e+17
19175.0	6.695373050828116e+17
19176.0	6.694097439948799e+17
19177.0	6.692809856428714e+17
19178.0	6.691546316057257e+17
19179.0	6.690268911413929e+17
19180.0	6.688990032472745e+17
19181.0	6.687713795244031e+17
19182.0	6.68643582087441e+17
19183.0	6.685172302173524e+17
19184.0	6.683885741364564e+17
19185.0	6.682623715835903e+17
19186.0	6.681350554430122e+17
19187.0	6.680071149802836e+17
19188.0	6.678802992201727e+17
19189.0	6.677529990179497e+17
19190.0	6.676256553347753e+17
19191.0	6.674982990686889e+17
19192.0	6.673709941828265e+17
19193.0	6.67243185770769e+17
19194.0	6.671162556459689e+17
19195.0	6.669887427226281e+17
19196.0	6.668591035667795e+17
19197.0	6.667318826369023e+17
19198.0	6.666047239924394e+17
19199.0	6.664534593546921e+17
19200.0	6.66334815077444e+17
19201.0	6.662231603980969e+17
19202.0	6.660960254514516e+17
19203.0	6.659688779218943e+17
19204.0	6.658415303240362e+17
19205.0	6.657146090771795e+17
19206.0	6.655873876579668e+17
19207.0	6.654599915459923e+17
19208.0	6.653315042858323e+17
19209.0	6.652061921837055e+17
19210.0	6.650790901623465e+17
19211.0	6.649519380190548e+17
19212.0	6.648249809108991e+17
19213.0	6.646971341908649e+17
19214.0	6.645699737987754e+17
19215.0	6.644437619485353e+17
19216.0	6.643163381541546e+17
19217.0	6.641897732134227e+17
19218.0	6.640562197233663e+17
19219.0	6.639344048319146e+17
19220.0	6.638087758501204e+17
19221.0	6.63679138931234e+17
19222.0	6.635547838993748e+17
19223.0	6.634277609406463e+17
19224.0	6.633000362049535e+17
19225.0	6.631724568018943e+17
19226.0	6.630468415214932e+17
19227.0	6.62919878611217e+17
19228.0	6.627929079414783e+17
19229.0	6.626659317492393e+17
19230.0	6.625389160606378e+17
19231.0	6.624119901301417e+17
19232.0	6.622843128599891e+17
19233.0	6.621574283132927e+17
19234.0	6.620308533062314e+17
19235.0	6.619040992023894e+17
19236.0	6.617771123146751e+17
19237.0	6.616500021144234e+17
19238.0	6.615223948891476e+17
19239.0	6.613961766076415e+17
19240.0	6.612662910364329e+17
19241.0	6.61141399413282e+17
19242.0	6.610151760986111e+17
19243.0	6.608866312366762e+17
19244.0	6.60760940179183e+17
19245.0	6.606339459514367e+17
19246.0	6.605067843709609e+17
19247.0	6.603797716882772e+17
19248.0	6.602528083585706e+17
19249.0	6.601257246523391e+17
19250.0	6.599985914533204e+17
19251.0	6.598708343515817e+17
19252.0	6.597414437781504e+17
19253.0	6.596172082140502e+17
19254.0	6.594896982966271e+17
19255.0	6.593611981040297e+17
19256.0	6.592356553151827e+17
19257.0	6.591085677641727e+17
19258.0	6.58981298390084e+17
19259.0	6.588534007092563e+17
19260.0	6.58726509032243e+17
19261.0	6.585995053673129e+17
19262.0	6.584721747563862e+17
19263.0	6.583434319233023e+17
19264.0	6.582114961762985e+17
19265.0	6.580864184658601e+17
19266.0	6.579594017286825e+17
19267.0	6.578330170731178e+17
19268.0	6.577055008642388e+17
19269.0	6.575779504717823e+17
19270.0	6.574503554099882e+17
19271.0	6.573201788938921e+17
19272.0	6.571947719305898e+17
19273.0	6.569925869742761e+17
19274.0	6.569041191064916e+17
19275.0	6.568117845098495e+17
19276.0	6.566839434521257e+17
19277.0	6.565560371729747e+17
19278.0	6.564280883216383e+17
19279.0	6.562998305598121e+17
19280.0	6.561713804192426e+17
19281.0	6.560438768631807e+17
19282.0	6.559157020087636e+17
19283.0	6.557870750083753e+17
19284.0	6.556584328385876e+17
19285.0	6.555290151419901e+17
19286.0	6.554022925653332e+17
19287.0	6.552737763644756e+17
19288.0	6.55139958563362e+17
19289.0	6.549997777234601e+17
19290.0	6.548877364690943e+17
19291.0	6.547566704809299e+17
19292.0	6.546299458071208e+17
19293.0	6.545008481359187e+17
19294.0	6.543717934563327e+17
19295.0	6.54242572472593e+17
19296.0	6.541132469108735e+17
19297.0	6.539838005531987e+17
19298.0	6.538542744338431e+17
19299.0	6.537246243028991e+17
19300.0	6.535948414222335e+17
19301.0	6.534648834293759e+17
19302.0	6.533345720664063e+17
19303.0	6.532023487299583e+17
19304.0	6.530723374694399e+17
19305.0	6.529424973365247e+17
19306.0	6.528119513022463e+17
19307.0	6.526810223280127e+17
19308.0	6.52550331310626e+17
19309.0	6.524185709554346e+17
19310.0	6.522868384923647e+17
19311.0	6.521563464947028e+17
19312.0	6.520250066184873e+17
19313.0	6.51891813978385e+17
19314.0	6.517527541361322e+17
19315.0	6.516213080042153e+17
19316.0	6.51496923402513e+17
19317.0	6.513644003131391e+17
19318.0	6.512316029162836e+17
19319.0	6.510985764405245e+17
19320.0	6.509649210288809e+17
19321.0	6.50831784452642e+17
19322.0	6.506967321979561e+17
19323.0	6.505635664713044e+17
19324.0	6.504296233304064e+17
19325.0	6.502944506991956e+17
19326.0	6.501576280287914e+17
19327.0	6.500193310605311e+17
19328.0	6.49883914740258e+17
19329.0	6.497480398427475e+17
19330.0	6.496114680616276e+17
19331.0	6.494748493742079e+17
19332.0	6.493382241157119e+17
19333.0	6.492008665317375e+17
19334.0	6.490626117861376e+17
19335.0	6.489248962183167e+17
19336.0	6.487862318989311e+17
19337.0	6.486470715331923e+17
19338.0	6.485058493175123e+17
19339.0	6.483675087983956e+17
19340.0	6.482256082938537e+17
19341.0	6.480799328458068e+17
19342.0	6.479351207952383e+17
19343.0	6.477960403309907e+17
19344.0	6.476531679363072e+17
19345.0	6.474927297964713e+17
19346.0	6.473614870882985e+17
19347.0	6.472200610294442e+17
19348.0	6.470750693927594e+17
19349.0	6.469287509579092e+17
19350.0	6.467816473493504e+17
19351.0	6.466334943259306e+17
19352.0	6.464843624917673e+17
19353.0	6.463353362142547e+17
19354.0	6.461847379116031e+17
19355.0	6.460325466821972e+17
19356.0	6.458806503822676e+17
19357.0	6.45722445849122e+17
19358.0	6.455646932522324e+17
19359.0	6.454055610788521e+17
19360.0	6.452522067689471e+17
19361.0	6.4509362845341e+17
19362.0	6.44934469156864e+17
19363.0	6.44773414244625e+17
19364.0	6.446102185596244e+17
19365.0	6.444458668545363e+17
19366.0	6.442802558096724e+17
19367.0	6.441129546700116e+17
19368.0	6.439438921323859e+17
19369.0	6.437716438111572e+17
19370.0	6.435910279932585e+17
19371.0	6.434208211096915e+17
19372.0	6.432390821969919e+17
19373.0	6.430597888431444e+17
19374.0	6.428781200452265e+17
19375.0	6.426939136933887e+17
19376.0	6.425071029583871e+17
19377.0	6.423174571535017e+17
19378.0	6.421249271354708e+17
19379.0	6.41929264042257e+17
19380.0	6.417131289007443e+17
19381.0	6.415052326305791e+17
19382.0	6.412985518697129e+17
19383.0	6.410886370208425e+17
19384.0	6.408756951427753e+17
19385.0	6.406574828421119e+17
19386.0	6.404214777446397e+17
19387.0	6.401903315386365e+17
19388.0	6.399577673083562e+17
19389.0	6.397197603394899e+17
19390.0	6.394692511989759e+17
19391.0	6.391886222021971e+17
19392.0	6.389527646743209e+17
19393.0	6.386733285375999e+17
19394.0	6.383852814947668e+17
19395.0	6.381052828319741e+17
19396.0	6.378179281988266e+17
19397.0	6.375011724733097e+17
19398.0	6.371970262237183e+17
19399.0	6.368656876721491e+17
19400.0	6.365211940356095e+17
19401.0	6.361818305921023e+17
19402.0	6.358282421665791e+17
19403.0	6.354664934430035e+17
19404.0	6.350703669455529e+17
19405.0	6.346692662132736e+17
19406.0	6.342621580492799e+17
19407.0	6.33821035827473e+17
19408.0	6.333500944110932e+17
19409.0	6.328915929508522e+17
19410.0	6.323632505967956e+17
19411.0	6.318539319279615e+17
19412.0	6.312752605123924e+17
19413.0	6.306940148427434e+17
19414.0	6.300295682326527e+17
19415.0	6.293482082314921e+17
19416.0	6.286254543645353e+17
19417.0	6.278496677178025e+17
19418.0	6.270111400154452e+17
19419.0	6.261159484544339e+17
19420.0	6.252711434868051e+17
19421.0	6.24408387457297e+17
19422.0	6.234542122379944e+17
19423.0	6.22463563351108e+17
19424.0	6.213781649970516e+17
19425.0	6.202431548773715e+17
19426.0	6.189805743723859e+17
19427.0	6.17614474809617e+17
19428.0	6.161283509037738e+17
19429.0	6.144666221849256e+17
19430.0	6.126299016506028e+17
19431.0	6.105250895932077e+17
19432.0	6.08177004967799e+17
19433.0	6.06027517001728e+17
19434.0	6.038229075623935e+17
19435.0	6.014330115981312e+17
19436.0	5.987910924195158e+17
19437.0	5.958467506405375e+17
19438.0	5.924932012386984e+17
19439.0	5.8868037582848e+17
19440.0	5.840970125235542e+17
19441.0	5.793400027261608e+17
19442.0	5.74616165539294e+17
19443.0	5.692432774245031e+17
19444.0	5.6286015742716544e+17
19445.0	5.55167925665792e+17
19446.0	5.470909585074858e+17
19447.0	5.3745460658394394e+17
19448.0	5.259635086153049e+17
19449.0	5.105780466384896e+17
19450.0	4.8116462588176826e+17
19451.0	4.717188522967037e+17
19452.0	4.972454271953583e+17
19453.0	5.1910194897442176e+17
19454.0	5.3151453895720896e+17
19455.0	5.419342848065533e+17
19456.0	5.50345365048525e+17
19457.0	5.580752763398821e+17
19458.0	5.648801836564477e+17
19459.0	5.7049189746824544e+17
19460.0	5.752820747031889e+17
19461.0	5.796448847964842e+17
19462.0	5.842832585654273e+17
19463.0	5.882056590491645e+17
19464.0	5.915314854996649e+17
19465.0	5.944090593416532e+17
19466.0	5.969605260476413e+17
19467.0	5.992447554704724e+17
19468.0	6.012899959679657e+17
19469.0	6.03161473790771e+17
19470.0	6.052294990757887e+17
19471.0	6.072412460285951e+17
19472.0	6.089500127483218e+17
19473.0	6.104509194786132e+17
19474.0	6.11765787435554e+17
19475.0	6.129487374712831e+17
19476.0	6.14010021024017e+17
19477.0	6.149654424409427e+17
19478.0	6.158405786577577e+17
19479.0	6.166242203271168e+17
19480.0	6.173612901225812e+17
19481.0	6.180220309951827e+17
19482.0	6.186161938628607e+17
19483.0	6.192422065973929e+17
19484.0	6.198805911306239e+17
19485.0	6.204381250715647e+17
19486.0	6.209504064569344e+17
19487.0	6.214025623546537e+17
19488.0	6.218157951112532e+17
19489.0	6.222014299766783e+17
19490.0	6.225281629028351e+17
19491.0	6.228348905368233e+17
19492.0	6.231085186110803e+17
19493.0	6.233636785356799e+17
19494.0	6.235735873727145e+17
19495.0	6.237975655830868e+17
19496.0	6.239712161300479e+17
19497.0	6.241301472564563e+17
19498.0	6.242871188040361e+17
19499.0	6.2439115208349e+17
19500.0	6.245387290192553e+17
19501.0	6.246421126709247e+17
19502.0	6.247346599886847e+17
19503.0	6.248405724561408e+17
19504.0	6.249135718006783e+17
19505.0	6.249728378754388e+17
19506.0	6.250413725930836e+17
19507.0	6.250815317955924e+17
19508.0	6.251160155455487e+17
19509.0	6.251574343674537e+17
19510.0	6.251852961502548e+17
19511.0	6.251778518898004e+17
19512.0	6.252110887430825e+17
19513.0	6.252110700085245e+17
19514.0	6.252106934998356e+17
19515.0	6.252019481662804e+17
19516.0	6.25189711913506e+17
19517.0	6.251774130257919e+17
19518.0	6.251583637553151e+17
19519.0	6.251308908544e+17
19520.0	6.250977634724521e+17
19521.0	6.250612523357524e+17
19522.0	6.250210376286207e+17
19523.0	6.249798432718847e+17
19524.0	6.249493878713001e+17
19525.0	6.249023781819731e+17
19526.0	6.248505799955795e+17
19527.0	6.247957466710015e+17
19528.0	6.247384332544681e+17
19529.0	6.246786635836074e+17
19530.0	6.246166291983017e+17
19531.0	6.245524372630185e+17
19532.0	6.244861943829844e+17
19533.0	6.244212738970964e+17
19534.0	6.24356252328482e+17
19535.0	6.24284486668561e+17
19536.0	6.242107198362964e+17
19537.0	6.241360220782591e+17
19538.0	6.240592191990442e+17
19539.0	6.239768880873471e+17
19540.0	6.239020570203476e+17
19541.0	6.238213799324329e+17
19542.0	6.237394193175892e+17
19543.0	6.236562566152191e+17
19544.0	6.235719443240276e+17
19545.0	6.234839054636372e+17
19546.0	6.233924908176724e+17
19547.0	6.233124412675412e+17
19548.0	6.232240368735572e+17
19549.0	6.231339188966739e+17
19550.0	6.230447137401514e+17
19551.0	6.229578936745983e+17
19552.0	6.228681770227028e+17
19553.0	6.227754490702506e+17
19554.0	6.226819611798186e+17
19555.0	6.225882503621289e+17
19556.0	6.224935484304042e+17
19557.0	6.223981593318739e+17
19558.0	6.223021991788543e+17
19559.0	6.222053831781034e+17
19560.0	6.221085100649132e+17
19561.0	6.220108270316202e+17
19562.0	6.219125983193769e+17
19563.0	6.218138014187519e+17
19564.0	6.217146767332691e+17
19565.0	6.216150121709567e+17
19566.0	6.215147325139626e+17
19567.0	6.214142676784467e+17
19568.0	6.213133783094612e+17
19569.0	6.212119536074751e+17
19570.0	6.211102690683561e+17
19571.0	6.210081397932031e+17
19572.0	6.209054005963433e+17
19573.0	6.208027423495508e+17
19574.0	6.206988499987113e+17
19575.0	6.205962413146112e+17
19576.0	6.204925221885267e+17
19577.0	6.203876639593812e+17
19578.0	6.202838091475625e+17
19579.0	6.201793111392255e+17
19580.0	6.200745031718227e+17
19581.0	6.199694154443434e+17
19582.0	6.198648616517631e+17
19583.0	6.19759512199714e+17
19584.0	6.19653687602927e+17
19585.0	6.195467294954835e+17
19586.0	6.194457521160191e+17
19587.0	6.193408443241812e+17
19588.0	6.192306059913897e+17
19589.0	6.191274335229267e+17
19590.0	6.190201463723348e+17
19591.0	6.18913554637346e+17
19592.0	6.18806189822225e+17
19593.0	6.186986981294079e+17
19594.0	6.18589007572719e+17
19595.0	6.184831661288106e+17
19596.0	6.183697690656767e+17
19597.0	6.182671020807508e+17
19598.0	6.181569226080255e+17
19599.0	6.180505094105769e+17
19600.0	6.1794200598173e+17
19601.0	6.178330677433683e+17
19602.0	6.17724315172864e+17
19603.0	6.176124036623017e+17
19604.0	6.175064318454442e+17
19605.0	6.173952913877673e+17
19606.0	6.172884609968809e+17
19607.0	6.171793458987007e+17
19608.0	6.170699510404436e+17
19609.0	6.169603273829033e+17
19610.0	6.168542444868948e+17
19611.0	6.167458677959338e+17
19612.0	6.166362137296895e+17
19613.0	6.165263915417599e+17
19614.0	6.164162161235284e+17
19615.0	6.163066367158953e+17
19616.0	6.161964591306068e+17
19617.0	6.160865606762495e+17
19618.0	6.159725708880553e+17
19619.0	6.158608034518356e+17
19620.0	6.157509626691583e+17
19621.0	6.156456655760042e+17
19622.0	6.155352940041556e+17
19623.0	6.154248572108799e+17
19624.0	6.153143927351977e+17
19625.0	6.152038630380884e+17
19626.0	6.150932897202175e+17
19627.0	6.149826711038634e+17
19628.0	6.148714795455827e+17
19629.0	6.147605945909247e+17
19630.0	6.146502374894249e+17
19631.0	6.145146236873386e+17
19632.0	6.144289262971562e+17
19633.0	6.143180641315497e+17
19634.0	6.14207180574993e+17
19635.0	6.140959021247146e+17
19636.0	6.139853029419689e+17
19637.0	6.138709438453076e+17
19638.0	6.137632320214356e+17
19639.0	6.136521488160084e+17
19640.0	6.135407769026559e+17
19641.0	6.134255223919956e+17
19642.0	6.133189641415338e+17
19643.0	6.132076403228672e+17
19644.0	6.130964080798376e+17
19645.0	6.129833882244436e+17
19646.0	6.128742678833834e+17
19647.0	6.127630439590569e+17
19648.0	6.126518066129577e+17
19649.0	6.125405252266666e+17
19650.0	6.124292803308201e+17
19651.0	6.123179955890857e+17
19652.0	6.12206695747857e+17
19653.0	6.120953669659305e+17
19654.0	6.119840599943849e+17
19655.0	6.118726948618239e+17
19656.0	6.117613229484714e+17
19657.0	6.11650024435439e+17
19658.0	6.115386672720553e+17
19659.0	6.114272826359807e+17
19660.0	6.113159237948756e+17
19661.0	6.112045354538324e+17
19662.0	6.110931478118399e+17
19663.0	6.109814191729321e+17
19664.0	6.108702587923114e+17
19665.0	6.107589522401961e+17
