# Flux units: erg / (cm m2 s)
# Wavelength units: Angstrom
wave	flux
19000.0	8.108692069853866e+17
19001.0	8.106863150585172e+17
19002.0	8.105887250688681e+17
19003.0	8.104448228327424e+17
19004.0	8.103018704666624e+17
19005.0	8.101614542564009e+17
19006.0	8.100189786428756e+17
19007.0	8.098349260122792e+17
19008.0	8.097092448114003e+17
19009.0	8.095560103886845e+17
19010.0	8.092631287114406e+17
19011.0	8.092892185406122e+17
19012.0	8.090206484474534e+17
19013.0	8.090167833963178e+17
19014.0	8.088461438702931e+17
19015.0	8.087145310846975e+17
19016.0	8.08568628724804e+17
19017.0	8.084301256764073e+17
19018.0	8.082876594301609e+17
19019.0	8.081483807151446e+17
19020.0	8.079973627024723e+17
19021.0	8.078624579474772e+17
19022.0	8.077188272226303e+17
19023.0	8.075559530310313e+17
19024.0	8.074205993456979e+17
19025.0	8.07269579235874e+17
19026.0	8.071152299671552e+17
19027.0	8.068753999440553e+17
19028.0	8.068449358752425e+17
19029.0	8.066915382941011e+17
19030.0	8.065587146129408e+17
19031.0	8.064150262863187e+17
19032.0	8.062672949302612e+17
19033.0	8.060793494263123e+17
19034.0	8.059599085109247e+17
19035.0	8.057636654153727e+17
19036.0	7.983912982675438e+17
19037.0	8.054922752120147e+17
19038.0	8.053701156885844e+17
19039.0	8.052358258185555e+17
19040.0	8.050924432566952e+17
19041.0	8.049420511739901e+17
19042.0	8.047702744323411e+17
19043.0	8.046755578205523e+17
19044.0	8.045233789643433e+17
19045.0	8.043763859456e+17
19046.0	8.042059334855337e+17
19047.0	8.040758534384298e+17
19048.0	8.038490439330472e+17
19049.0	8.037499613304147e+17
19050.0	8.036083256961706e+17
19051.0	8.022403561029614e+17
19052.0	8.030922146316288e+17
19053.0	8.031764031209472e+17
19054.0	8.030393336856573e+17
19055.0	8.027809242939393e+17
19056.0	8.027331831878996e+17
19057.0	8.025919544011433e+17
19058.0	8.024282051379199e+17
19059.0	8.022948974340777e+17
19060.0	8.021375781786964e+17
19061.0	8.01999324971008e+17
19062.0	8.01846373524002e+17
19063.0	8.016981792565928e+17
19064.0	8.014914150290774e+17
19065.0	8.01315800219648e+17
19066.0	8.012199308733098e+17
19067.0	8.010914088703315e+17
19068.0	8.0094639961757e+17
19069.0	8.007970375161172e+17
19070.0	8.006337756310188e+17
19071.0	8.004887599469908e+17
19072.0	8.003433512566783e+17
19073.0	8.001913358385152e+17
19074.0	8.000445146464253e+17
19075.0	7.998933888401407e+17
19076.0	7.997336498907816e+17
19077.0	7.995856222770515e+17
19078.0	7.994208023478271e+17
19079.0	7.992862748005715e+17
19080.0	7.991288002161321e+17
19081.0	7.989644155158524e+17
19082.0	7.988134411239421e+17
19083.0	7.986726885305002e+17
19084.0	7.984652431480148e+17
19085.0	7.984156555695444e+17
19086.0	7.980714638529876e+17
19087.0	7.979255884764502e+17
19088.0	7.978797676625917e+17
19089.0	7.976214467706881e+17
19090.0	7.976277495513085e+17
19091.0	7.974881439602004e+17
19092.0	7.972835932067155e+17
19093.0	7.971999059367251e+17
19094.0	7.970522527345322e+17
19095.0	7.969013671220566e+17
19096.0	7.967434296262656e+17
19097.0	7.965964912732842e+17
19098.0	7.964419815025322e+17
19099.0	7.96288317722897e+17
19100.0	7.96124175733009e+17
19101.0	7.959794866454525e+17
19102.0	7.957934727583059e+17
19103.0	7.956744532306602e+17
19104.0	7.955234701705216e+17
19105.0	7.953627429033298e+17
19106.0	7.95176868127266e+17
19107.0	7.950448740794365e+17
19108.0	7.948876802337449e+17
19109.0	7.940509575501133e+17
19110.0	7.945205367264595e+17
19111.0	7.94435513570645e+17
19112.0	7.942895078910633e+17
19113.0	7.9413698901661e+17
19114.0	7.939810949857279e+17
19115.0	7.937925780777642e+17
19116.0	7.936633540881066e+17
19117.0	7.935043140496041e+17
19118.0	7.932972317540353e+17
19119.0	7.921482664858949e+17
19120.0	7.929764449528489e+17
19121.0	7.928384796142246e+17
19122.0	7.927214329473705e+17
19123.0	7.925649933773481e+17
19124.0	7.923617660665855e+17
19125.0	7.922490607839914e+17
19126.0	7.920926177187156e+17
19127.0	7.912481115253416e+17
19128.0	7.915095118752422e+17
19129.0	7.915929323874986e+17
19130.0	7.914696032124927e+17
19131.0	7.913119004579156e+17
19132.0	7.911635375794858e+17
19133.0	7.909090750278314e+17
19134.0	7.90724537675503e+17
19135.0	7.90691712073728e+17
19136.0	7.905392930237097e+17
19137.0	7.903174540481875e+17
19138.0	7.902153146367997e+17
19139.0	7.900691803318954e+17
19140.0	7.89914577867025e+17
19141.0	7.89758075801873e+17
19142.0	7.895874330602153e+17
19143.0	7.894200272027645e+17
19144.0	7.892679058085204e+17
19145.0	7.891262124326911e+17
19146.0	7.887070671055533e+17
19147.0	7.887779259569492e+17
19148.0	7.886511108958893e+17
19149.0	7.884927032186195e+17
19150.0	7.883378560860157e+17
19151.0	7.881807792614057e+17
19152.0	7.880149416542208e+17
19153.0	7.878556383532374e+17
19154.0	7.876543934103551e+17
19155.0	7.875427244004692e+17
19156.0	7.87378338861329e+17
19157.0	7.871664156398932e+17
19158.0	7.866559006157478e+17
19159.0	7.868671745589244e+17
19160.0	7.867255949885437e+17
19161.0	7.865380419316396e+17
19162.0	7.853496583148893e+17
19163.0	7.861619356161364e+17
19164.0	7.861070307786751e+17
19165.0	7.859356182424234e+17
19166.0	7.857362062103891e+17
19167.0	7.855348647985151e+17
19168.0	7.854573719562921e+17
19169.0	7.852997038746281e+17
19170.0	7.851579390558207e+17
19171.0	7.849552779760979e+17
19172.0	7.848285237324458e+17
19173.0	7.846810195678547e+17
19174.0	7.845016525340672e+17
19175.0	7.843644597862399e+17
19176.0	7.842019759445331e+17
19177.0	7.839750055176872e+17
19178.0	7.83846832201182e+17
19179.0	7.836528677311828e+17
19180.0	7.835402337517569e+17
19181.0	7.83356681082197e+17
19182.0	7.832262587798868e+17
19183.0	7.830754278331732e+17
19184.0	7.829006281168211e+17
19185.0	7.827469356761088e+17
19186.0	7.82591121756433e+17
19187.0	7.823888181712211e+17
19188.0	7.822608818328918e+17
19189.0	7.820907268887892e+17
19190.0	7.819206548520957e+17
19191.0	7.817480853869908e+17
19192.0	7.816056540932778e+17
19193.0	7.814272739792212e+17
19194.0	7.812568135499775e+17
19195.0	7.810925640460968e+17
19196.0	7.808999248363519e+17
19197.0	7.806826208821247e+17
19198.0	7.802845747216383e+17
19199.0	7.741037606862833e+17
19200.0	7.753879001235474e+17
19201.0	7.798289185374207e+17
19202.0	7.798720020086783e+17
19203.0	7.797449025738067e+17
19204.0	7.796055419300521e+17
19205.0	7.794583261937663e+17
19206.0	7.792970918352212e+17
19207.0	7.79097826464017e+17
19208.0	7.789006891428518e+17
19209.0	7.788067182783145e+17
19210.0	7.786450945485481e+17
19211.0	7.784852391373481e+17
19212.0	7.783147139760127e+17
19213.0	7.780651505112403e+17
19214.0	7.778613116709545e+17
19215.0	7.777870242556585e+17
19216.0	7.776474998942377e+17
19217.0	7.774756403849898e+17
19218.0	7.769811339007311e+17
19219.0	7.770683325022207e+17
19220.0	7.769635208997548e+17
19221.0	7.766753424353965e+17
19222.0	7.76633321381342e+17
19223.0	7.764598146291028e+17
19224.0	7.762777664563881e+17
19225.0	7.760696657838076e+17
19226.0	7.759481439343956e+17
19227.0	7.757773525745663e+17
19228.0	7.756196499597994e+17
19229.0	7.754484497951402e+17
19230.0	7.752638647675561e+17
19231.0	7.750929124862633e+17
19232.0	7.74928235163375e+17
19233.0	7.747286039090515e+17
19234.0	7.745783941387603e+17
19235.0	7.743990308798463e+17
19236.0	7.742435034311338e+17
19237.0	7.74062278320674e+17
19238.0	7.738489354671442e+17
19239.0	7.737224601447081e+17
19240.0	7.735268798889981e+17
19241.0	7.733569339610454e+17
19242.0	7.731923705834154e+17
19243.0	7.729449944481791e+17
19244.0	7.728513205403648e+17
19245.0	7.72673022075426e+17
19246.0	7.72492382769425e+17
19247.0	7.723188465172479e+17
19248.0	7.721458770553513e+17
19249.0	7.719670443758931e+17
19250.0	7.717845103629651e+17
19251.0	7.715621574453926e+17
19252.0	7.713061796315135e+17
19253.0	7.712506291508564e+17
19254.0	7.710782213062656e+17
19255.0	7.70817390822468e+17
19256.0	7.707027336506026e+17
19257.0	7.705429914856105e+17
19258.0	7.703645553076905e+17
19259.0	7.701509331135142e+17
19260.0	7.698728844525565e+17
19261.0	7.698163969643858e+17
19262.0	7.696153589405012e+17
19263.0	7.694337278214143e+17
19264.0	7.690671002135205e+17
19265.0	7.690176134381565e+17
19266.0	7.688520307048448e+17
19267.0	7.687044654432255e+17
19268.0	7.68489179648273e+17
19269.0	7.683029724037119e+17
19270.0	7.681155169342804e+17
19271.0	7.677983568079533e+17
19272.0	7.67724424090965e+17
19273.0	7.668752376135672e+17
19274.0	7.66907382339993e+17
19275.0	7.671761213237928e+17
19276.0	7.6698065319581e+17
19277.0	7.667909674751314e+17
19278.0	7.666024384036863e+17
19279.0	7.663912902896297e+17
19280.0	7.661836655307434e+17
19281.0	7.660211920349864e+17
19282.0	7.658279474473641e+17
19283.0	7.655654125382313e+17
19284.0	7.65327418921233e+17
19285.0	7.651769323268777e+17
19286.0	7.650352748822525e+17
19287.0	7.648515700992681e+17
19288.0	7.626679565768e+17
19289.0	7.598553017526879e+17
19290.0	7.642581479456767e+17
19291.0	7.639540149081431e+17
19292.0	7.63871085269265e+17
19293.0	7.636695390355455e+17
19294.0	7.634660940404051e+17
19295.0	7.632694930309119e+17
19296.0	7.63062794653969e+17
19297.0	7.628468759385427e+17
19298.0	7.626443250292051e+17
19299.0	7.624507054708051e+17
19300.0	7.6224474920605e+17
19301.0	7.620353812944211e+17
19302.0	7.617592589374803e+17
19303.0	7.61505123541538e+17
19304.0	7.613124503579306e+17
19305.0	7.611063148565844e+17
19306.0	7.608920654741503e+17
19307.0	7.606559257395199e+17
19308.0	7.604431172403199e+17
19309.0	7.600349326082045e+17
19310.0	7.597124680854182e+17
19311.0	7.597646691347114e+17
19312.0	7.595903643462313e+17
19313.0	7.593711090619731e+17
19314.0	7.556518871651674e+17
19315.0	7.556449460114821e+17
19316.0	7.586753038079318e+17
19317.0	7.584785708176726e+17
19318.0	7.582541084448084e+17
19319.0	7.580341823515305e+17
19320.0	7.577381641737555e+17
19321.0	7.574484433240063e+17
19322.0	7.571609702017705e+17
19323.0	7.568872651620352e+17
19324.0	7.567192578413908e+17
19325.0	7.563558978759338e+17
19326.0	7.562496607693481e+17
19327.0	7.560238964845224e+17
19328.0	7.557904332750847e+17
19329.0	7.555500638644906e+17
19330.0	7.552900743386451e+17
19331.0	7.550387129155581e+17
19332.0	7.546936729709224e+17
19333.0	7.543705415538003e+17
19334.0	7.541240560091136e+17
19335.0	7.538644167076521e+17
19336.0	7.536045551080787e+17
19337.0	7.53345389343539e+17
19338.0	7.529974623196499e+17
19339.0	7.528137959844521e+17
19340.0	7.524832680520365e+17
19341.0	7.520273873327444e+17
19342.0	7.516051579338747e+17
19343.0	7.514795315385684e+17
19344.0	7.511893609196202e+17
19345.0	7.501992058421235e+17
19346.0	7.503100552850086e+17
19347.0	7.500106079840938e+17
19348.0	7.497316674742953e+17
19349.0	7.494159918519636e+17
19350.0	7.491188175841961e+17
19351.0	7.48810672694886e+17
19352.0	7.481651114278915e+17
19353.0	7.478196755409578e+17
19354.0	7.475014392960339e+17
19355.0	7.471402180061866e+17
19356.0	7.46666536940339e+17
19357.0	7.46049916510754e+17
19358.0	7.457026011561983e+17
19359.0	7.4532784205114e+17
19360.0	7.447649927386458e+17
19361.0	7.440827212453203e+17
19362.0	7.437398117274964e+17
19363.0	7.433766332355923e+17
19364.0	7.425394821737129e+17
19365.0	7.419672981580458e+17
19366.0	7.415770219457193e+17
19367.0	7.408851892568065e+17
19368.0	7.403952259028308e+17
19369.0	7.399508198206121e+17
19370.0	7.394977223016445e+17
19371.0	7.391203216239274e+17
19372.0	7.387122593256787e+17
19373.0	7.382671555908948e+17
19374.0	7.378331139134804e+17
19375.0	7.373861051258195e+17
19376.0	7.369328609460224e+17
19377.0	7.364664936278698e+17
19378.0	7.3598767216285e+17
19379.0	7.354840350982143e+17
19380.0	7.349989330823849e+17
19381.0	7.345024942822739e+17
19382.0	7.339732613376681e+17
19383.0	7.334519150826836e+17
19384.0	7.329690821853183e+17
19385.0	7.324390591736489e+17
19386.0	7.318999287900842e+17
19387.0	7.31331702100241e+17
19388.0	7.307060201564842e+17
19389.0	7.301309707321343e+17
19390.0	7.29535579772245e+17
19391.0	7.23790012577648e+17
19392.0	7.282328033645903e+17
19393.0	7.276580468424701e+17
19394.0	7.269806130593791e+17
19395.0	7.263339155554304e+17
19396.0	7.256812688506879e+17
19397.0	7.249797383716864e+17
19398.0	7.241530121125888e+17
19399.0	7.232415323914236e+17
19400.0	7.227085256916991e+17
19401.0	7.218023309333842e+17
19402.0	7.209661357533866e+17
19403.0	7.201531922568531e+17
19404.0	7.190476432080893e+17
19405.0	7.181964765997736e+17
19406.0	7.170108517165738e+17
19407.0	7.160228961320957e+17
19408.0	7.144811640739156e+17
19409.0	7.135695762795183e+17
19410.0	7.120531537701545e+17
19411.0	7.106555747674796e+17
19412.0	7.091785069931183e+17
19413.0	7.073549305686697e+17
19414.0	7.055244641610414e+17
19415.0	7.038681140079269e+17
19416.0	7.022854391813459e+17
19417.0	7.009419864834045e+17
19418.0	6.996582853509119e+17
19419.0	6.982605582893055e+17
19420.0	6.968231170408445e+17
19421.0	6.952625724107434e+17
19422.0	6.936446373986303e+17
19423.0	6.919998970090835e+17
19424.0	6.90204896517598e+17
19425.0	6.883576827434324e+17
19426.0	6.863595843354624e+17
19427.0	6.842076032051881e+17
19428.0	6.819518677166761e+17
19429.0	6.796005616560808e+17
19430.0	6.769299894392152e+17
19431.0	6.73574246696005e+17
19432.0	6.713487053029373e+17
19433.0	6.681173459730435e+17
19434.0	6.646196460322817e+17
19435.0	6.607742682791933e+17
19436.0	6.566218967635281e+17
19437.0	6.527054400978943e+17
19438.0	6.442837875534514e+17
19439.0	6.433664739748526e+17
19440.0	6.385367401889791e+17
19441.0	6.330745106027857e+17
19442.0	6.269476801959254e+17
19443.0	6.202114553064105e+17
19444.0	6.126954438721532e+17
19445.0	6.043281286758403e+17
19446.0	5.949623154420394e+17
19447.0	5.844371401692495e+17
19448.0	5.725374507210074e+17
19449.0	5.5897077890853536e+17
19450.0	5.423431839383541e+17
19451.0	5.3313374589201146e+17
19452.0	5.5120655814055264e+17
19453.0	5.6580545445888045e+17
19454.0	5.782422903848955e+17
19455.0	5.891932281984339e+17
19456.0	5.988715707673261e+17
19457.0	6.074800471889233e+17
19458.0	6.126395997902205e+17
19459.0	6.219800031614301e+17
19460.0	6.281868082500946e+17
19461.0	6.337529871597567e+17
19462.0	6.386877417040556e+17
19463.0	6.432525664649213e+17
19464.0	6.475957307179005e+17
19465.0	6.517289056731137e+17
19466.0	6.554683542514342e+17
19467.0	6.590809084264445e+17
19468.0	6.624556109616467e+17
19469.0	6.654768228685139e+17
19470.0	6.684120359545514e+17
19471.0	6.710181503172609e+17
19472.0	6.733286297217706e+17
19473.0	6.75476588864034e+17
19474.0	6.776003330310143e+17
19475.0	6.792917368700924e+17
19476.0	6.813133486860969e+17
19477.0	6.829326424429908e+17
19478.0	6.845225164428627e+17
19479.0	6.859528852559188e+17
19480.0	6.87295199060514e+17
19481.0	6.88640702423586e+17
19482.0	6.898625917485055e+17
19483.0	6.91014784323857e+17
19484.0	6.921139375483561e+17
19485.0	6.931755144227497e+17
19486.0	6.942561013508778e+17
19487.0	6.956703246800211e+17
19488.0	6.972663935270915e+17
19489.0	6.986262622415532e+17
19490.0	6.995635142131707e+17
19491.0	7.013133874888701e+17
19492.0	7.023462096830464e+17
19493.0	7.033583938043903e+17
19494.0	7.04374675411217e+17
19495.0	7.051503035831636e+17
19496.0	7.059420536810147e+17
19497.0	7.067098895351807e+17
19498.0	7.06826547110434e+17
19499.0	7.004340051683972e+17
19500.0	7.085941210480639e+17
19501.0	7.09287146876655e+17
19502.0	7.097878304522237e+17
19503.0	7.10228344639761e+17
19504.0	7.106932348638547e+17
19505.0	7.112178318442493e+17
19506.0	7.116028806955007e+17
19507.0	7.119648701022207e+17
19508.0	7.123263914246141e+17
19509.0	7.127701211054077e+17
19510.0	7.130397649403901e+17
19511.0	7.061067062575066e+17
19512.0	7.124071805703488e+17
19513.0	7.116292335774341e+17
19514.0	7.125987455489341e+17
19515.0	7.144469041599831e+17
19516.0	7.149370534614356e+17
19517.0	7.151806800287058e+17
19518.0	7.154457895414442e+17
19519.0	7.156774264111101e+17
19520.0	7.15895055983138e+17
19521.0	7.161238239488681e+17
19522.0	7.163178924376063e+17
19523.0	7.165340141573462e+17
19524.0	7.167578065600511e+17
19525.0	7.169364539910825e+17
19526.0	7.171187304737449e+17
19527.0	7.17285451960593e+17
19528.0	7.174469091764905e+17
19529.0	7.176011109455187e+17
19530.0	7.17754790244079e+17
19531.0	7.179003103630676e+17
19532.0	7.180364522979327e+17
19533.0	7.181709925679104e+17
19534.0	7.182960050569216e+17
19535.0	7.186954104515241e+17
19536.0	7.188696995812691e+17
19537.0	7.189879591010301e+17
19538.0	7.195770794366292e+17
19539.0	7.195928645599236e+17
19540.0	7.19847133614353e+17
19541.0	7.199920998055935e+17
19542.0	7.205218047492093e+17
19543.0	7.205811629588479e+17
19544.0	7.20651065369122e+17
19545.0	7.205888290280786e+17
19546.0	7.20871960486434e+17
19547.0	7.212303444694356e+17
19548.0	7.212683631788032e+17
19549.0	7.212588864285353e+17
19550.0	7.215433274884099e+17
19551.0	7.217123631125846e+17
19552.0	7.217315735841449e+17
19553.0	7.217402100755114e+17
19554.0	7.217478740475905e+17
19555.0	7.218830255674703e+17
19556.0	7.220625866577236e+17
19557.0	7.220648254373888e+17
19558.0	7.220642871683753e+17
19559.0	7.220612524496211e+17
19560.0	7.220449600951636e+17
19561.0	7.220455699469651e+17
19562.0	7.222485643340457e+17
19563.0	7.222357512945663e+17
19564.0	7.222165046121811e+17
19565.0	7.221954842984445e+17
19566.0	7.221603788128255e+17
19567.0	7.221477753487357e+17
19568.0	7.221061688317267e+17
19569.0	7.220808472592383e+17
19570.0	7.221077032479402e+17
19571.0	7.221810835750911e+17
19572.0	7.221287740331348e+17
19573.0	7.220985609235113e+17
19574.0	7.220251543120552e+17
19575.0	7.220222847090687e+17
19576.0	7.219780940813651e+17
19577.0	7.219240659932499e+17
19578.0	7.218695180910591e+17
19579.0	7.218244816120489e+17
19580.0	7.217751325496659e+17
19581.0	7.217294393824598e+17
19582.0	7.216825189619027e+17
19583.0	7.217223224874323e+17
19584.0	7.216758170233514e+17
19585.0	7.215739106754557e+17
19586.0	7.2149718007808e+17
19587.0	7.214681339636394e+17
19588.0	7.212612401321302e+17
19589.0	7.213647254956714e+17
19590.0	7.212796475342847e+17
19591.0	7.212457883161939e+17
19592.0	7.21183187350323e+17
19593.0	7.211071867016531e+17
19594.0	7.209420407351976e+17
19595.0	7.209632897783123e+17
19596.0	7.203064847007749e+17
19597.0	7.208204390541994e+17
19598.0	7.206526540316671e+17
19599.0	7.206878276048211e+17
19600.0	7.206161101793961e+17
19601.0	7.205127574956713e+17
19602.0	7.204639446051496e+17
19603.0	7.202039556385445e+17
19604.0	7.203362529345536e+17
19605.0	7.201698288238592e+17
19606.0	7.202148077010943e+17
19607.0	7.201344091848704e+17
19608.0	7.200486896347817e+17
19609.0	7.199483781010772e+17
19610.0	7.198887836123135e+17
19611.0	7.198007538395817e+17
19612.0	7.197218861045075e+17
19613.0	7.196313197565268e+17
19614.0	7.195313841722706e+17
19615.0	7.194601862813012e+17
19616.0	7.193183972753408e+17
19617.0	7.192835595261267e+17
19618.0	7.189776162269862e+17
19619.0	7.188356510602577e+17
19620.0	7.18758025118788e+17
19621.0	7.189194409508863e+17
19622.0	7.188337127325696e+17
19623.0	7.187426682339325e+17
19624.0	7.186450642632704e+17
19625.0	7.185551940299433e+17
19626.0	7.184541396850003e+17
19627.0	7.183550113644543e+17
19628.0	7.180945243941548e+17
19629.0	7.180847100024147e+17
19630.0	7.172930270134271e+17
19631.0	7.113016269078533e+17
19632.0	7.177876896656041e+17
19633.0	7.177435235046739e+17
19634.0	7.17685049733939e+17
19635.0	7.175735827496957e+17
19636.0	7.174893124714496e+17
19637.0	7.172171565279914e+17
19638.0	7.172946886568617e+17
19639.0	7.171901791840938e+17
19640.0	7.170618308253011e+17
19641.0	7.167616924428975e+17
19642.0	7.169048794103807e+17
19643.0	7.168220125462527e+17
19644.0	7.167000042973865e+17
19645.0	7.165179407455571e+17
19646.0	7.165194039984127e+17
19647.0	7.164171583313236e+17
19648.0	7.163107422677674e+17
19649.0	7.162049043191123e+17
19650.0	7.161030769639423e+17
19651.0	7.159946939116202e+17
19652.0	7.158876358399316e+17
19653.0	7.157820819854676e+17
19654.0	7.156738563593556e+17
19655.0	7.155648529694719e+17
19656.0	7.154621715141972e+17
19657.0	7.153545030314666e+17
19658.0	7.1524967003805e+17
19659.0	7.151413283695274e+17
19660.0	7.150350318436351e+17
19661.0	7.149243915567104e+17
19662.0	7.148174050678099e+17
19663.0	7.146839864945322e+17
19664.0	7.14568526532881e+17
19665.0	7.144896162955263e+17
