# Flux units: erg / (cm m2 s)
# Wavelength units: Angstrom
wave	flux
19000.0	5.413423415645526e+17
19001.0	5.412361447931903e+17
19002.0	5.41140774499123e+17
19003.0	5.410398991810558e+17
19004.0	5.409389817102335e+17
19005.0	5.4083793400627194e+17
19006.0	5.4073737451929594e+17
19007.0	5.4063575701913594e+17
19008.0	5.4053237483547296e+17
19009.0	5.404340740511059e+17
19010.0	5.403045340905471e+17
19011.0	5.402322810525013e+17
19012.0	5.4012658661894816e+17
19013.0	5.400319601147904e+17
19014.0	5.399283788414975e+17
19015.0	5.3982864290611194e+17
19016.0	5.397271931781119e+17
19017.0	5.396287463620607e+17
19018.0	5.3952824978964474e+17
19019.0	5.3942784730944845e+17
19020.0	5.3932604532981754e+17
19021.0	5.3922659761302176e+17
19022.0	5.391264109996713e+17
19023.0	5.3902399119906125e+17
19024.0	5.389243039875071e+17
19025.0	5.388251207914837e+17
19026.0	5.387230525434538e+17
19027.0	5.386221297598462e+17
19028.0	5.3852364002208403e+17
19029.0	5.384222700557652e+17
19030.0	5.383231696273407e+17
19031.0	5.3822303991671443e+17
19032.0	5.3812242073081165e+17
19033.0	5.380172146540543e+17
19034.0	5.379209459400702e+17
19035.0	5.378196925054975e+17
19036.0	5.375308133826557e+17
19037.0	5.3762037456568314e+17
19038.0	5.375193585287167e+17
19039.0	5.3742012863610874e+17
19040.0	5.373201423706794e+17
19041.0	5.372194579633492e+17
19042.0	5.3711464027914234e+17
19043.0	5.370194836848639e+17
19044.0	5.36918630806323e+17
19045.0	5.36819113603891e+17
19046.0	5.3671545732246176e+17
19047.0	5.3661867753253536e+17
19048.0	5.36505899618577e+17
19049.0	5.3641494592662176e+17
19050.0	5.363157928596821e+17
19051.0	5.361859119022079e+17
19052.0	5.3611675272260256e+17
19053.0	5.3601808332881914e+17
19054.0	5.3591835571213645e+17
19055.0	5.358044752554667e+17
19056.0	5.3571669972746234e+17
19057.0	5.356179820991828e+17
19058.0	5.3551784525824e+17
19059.0	5.354182698947924e+17
19060.0	5.352100488456873e+17
19061.0	5.349883335322281e+17
19062.0	5.348882684138837e+17
19063.0	5.347886678147071e+17
19064.0	5.346817953409706e+17
19065.0	5.345798285251925e+17
19066.0	5.344863000199167e+17
19067.0	5.3438909052354554e+17
19068.0	5.342900908982271e+17
19069.0	5.341905112006655e+17
19070.0	5.340891709439999e+17
19071.0	5.339909043432106e+17
19072.0	5.338916258665812e+17
19073.0	5.337917358604287e+17
19074.0	5.33692462207249e+17
19075.0	5.335929071162708e+17
19076.0	5.334920892601686e+17
19077.0	5.333932456629588e+17
19078.0	5.3329182089106765e+17
19079.0	5.3319475686714016e+17
19080.0	5.3309471635537914e+17
19081.0	5.3299340182377805e+17
19082.0	5.3289363995361274e+17
19083.0	5.327919864523434e+17
19084.0	5.3268559087097165e+17
19085.0	5.3259758137070925e+17
19086.0	5.3247934771582285e+17
19087.0	5.32394386006562e+17
19088.0	5.322966893417814e+17
19089.0	5.321887146049535e+17
19090.0	5.3210014712244896e+17
19091.0	5.3200147591113376e+17
19092.0	5.3189942234316794e+17
19093.0	5.3180406477182285e+17
19094.0	5.3170467647433376e+17
19095.0	5.3160543644549114e+17
19096.0	5.315054118720852e+17
19097.0	5.3140733450431136e+17
19098.0	5.313079950704639e+17
19099.0	5.3120879908181325e+17
19100.0	5.311093067655851e+17
19101.0	5.310109701898239e+17
19102.0	5.309057601983827e+17
19103.0	5.308126811826858e+17
19104.0	5.3071386834370554e+17
19105.0	5.306146849379668e+17
19106.0	5.30514940334353e+17
19107.0	5.3041586199592954e+17
19108.0	5.3031798595474765e+17
19109.0	5.3020428480457376e+17
19110.0	5.301201228791807e+17
19111.0	5.3002128361608525e+17
19112.0	5.299224209347925e+17
19113.0	5.2982341529763834e+17
19114.0	5.2972450717805216e+17
19115.0	5.2962319040948896e+17
19116.0	5.2952596308732576e+17
19117.0	5.2942745587329696e+17
19118.0	5.293248232117588e+17
19119.0	5.2894925873042726e+17
19120.0	5.2912993089181e+17
19121.0	5.290324378604883e+17
19122.0	5.289347995664383e+17
19123.0	5.2883605775100576e+17
19124.0	5.287365769691135e+17
19125.0	5.286388331184126e+17
19126.0	5.285399542890496e+17
19127.0	5.283446204486995e+17
19128.0	5.283363911543466e+17
19129.0	5.282398182834175e+17
19130.0	5.2814533941876045e+17
19131.0	5.280473716621311e+17
19132.0	5.279487992965802e+17
19133.0	5.2783883541108045e+17
19134.0	5.2774826004534605e+17
19135.0	5.2765336140076365e+17
19136.0	5.275552679548244e+17
19137.0	5.274477789883049e+17
19138.0	5.273574610829311e+17
19139.0	5.272601070228821e+17
19140.0	5.2716178337955834e+17
19141.0	5.270634578487977e+17
19142.0	5.269637708469589e+17
19143.0	5.268633115339434e+17
19144.0	5.267668458274815e+17
19145.0	5.266701273442986e+17
19146.0	5.2653963849236474e+17
19147.0	5.2646857621722426e+17
19148.0	5.263755896859306e+17
19149.0	5.2627707659987616e+17
19150.0	5.261788099291819e+17
19151.0	5.260808825776809e+17
19152.0	5.25982642540817e+17
19153.0	5.258836869556906e+17
19154.0	5.257798471734613e+17
19155.0	5.2568879959900154e+17
19156.0	5.2559059171846816e+17
19157.0	5.2549253182696083e+17
19158.0	5.253845281494356e+17
19159.0	5.252954531561472e+17
19160.0	5.2519781828744525e+17
19161.0	5.251000626926932e+17
19162.0	5.2497934160581965e+17
19163.0	5.249047754790228e+17
19164.0	5.248069327825579e+17
19165.0	5.247080404615167e+17
19166.0	5.2460417474450765e+17
19167.0	5.245111332678313e+17
19168.0	5.244129168588798e+17
19169.0	5.243158132686847e+17
19170.0	5.2421973001284256e+17
19171.0	5.2412049956099405e+17
19172.0	5.240242295887189e+17
19173.0	5.239264109395967e+17
19174.0	5.238252974549674e+17
19175.0	5.237308552205653e+17
19176.0	5.2363296869362336e+17
19177.0	5.235273887645696e+17
19178.0	5.234376465274198e+17
19179.0	5.233379511369726e+17
19180.0	5.2324132283132576e+17
19181.0	5.2313763704995834e+17
19182.0	5.230462179300692e+17
19183.0	5.229496582711978e+17
19184.0	5.228498939543551e+17
19185.0	5.227538061546837e+17
19186.0	5.2265687613876896e+17
19187.0	5.2255570393388365e+17
19188.0	5.224617356558334e+17
19189.0	5.2236426303679136e+17
19190.0	5.222666435472042e+17
19191.0	5.221676604893866e+17
19192.0	5.2207207460809376e+17
19193.0	5.2197406672595616e+17
19194.0	5.2187633713588896e+17
19195.0	5.2177972595698336e+17
19196.0	5.216813270259028e+17
19197.0	5.215844374151167e+17
19198.0	5.214875100555946e+17
19199.0	5.212518934205781e+17
19200.0	5.212084430875306e+17
19201.0	5.211955363053566e+17
19202.0	5.2109831436588365e+17
19203.0	5.210006924995243e+17
19204.0	5.209022368055296e+17
19205.0	5.208058688962559e+17
19206.0	5.20708357759522e+17
19207.0	5.206072355367593e+17
19208.0	5.2050112356024314e+17
19209.0	5.2041684985664845e+17
19210.0	5.20319540465937e+17
19211.0	5.20223106216755e+17
19212.0	5.2012578424313165e+17
19213.0	5.200230769928874e+17
19214.0	5.199255041998847e+17
19215.0	5.1983405970445645e+17
19216.0	5.1973702483094176e+17
19217.0	5.1963991173365754e+17
19218.0	5.194981761351678e+17
19219.0	5.1943801492602874e+17
19220.0	5.193476029284351e+17
19221.0	5.192335264579583e+17
19222.0	5.1915481677823994e+17
19223.0	5.190564418945023e+17
19224.0	5.1895781514280954e+17
19225.0	5.188552430190591e+17
19226.0	5.1876510742609914e+17
19227.0	5.1866820921698976e+17
19228.0	5.1857266849437e+17
19229.0	5.184756490698751e+17
19230.0	5.1837810151260154e+17
19231.0	5.1828091697233914e+17
19232.0	5.1818399807133005e+17
19233.0	5.180838623488681e+17
19234.0	5.1798927988490234e+17
19235.0	5.178918808059904e+17
19236.0	5.17796803973393e+17
19237.0	5.176988120995157e+17
19238.0	5.1759790287749114e+17
19239.0	5.1750615100948474e+17
19240.0	5.1740427115560954e+17
19241.0	5.1730995740671994e+17
19242.0	5.172153803953492e+17
19243.0	5.1711035663100576e+17
19244.0	5.170224825368575e+17
19245.0	5.169253123970389e+17
19246.0	5.16827793920273e+17
19247.0	5.1673140706672634e+17
19248.0	5.166350246871039e+17
19249.0	5.1653805468549126e+17
19250.0	5.164401065721855e+17
19251.0	5.1634006263507616e+17
19252.0	5.162301780219221e+17
19253.0	5.1614922320117754e+17
19254.0	5.1605302760789325e+17
19255.0	5.1594576681151136e+17
19256.0	5.1585933129373005e+17
19257.0	5.1576295499584845e+17
19258.0	5.156661819168083e+17
19259.0	5.15565199364369e+17
19260.0	5.154684002806441e+17
19261.0	5.1537489896843936e+17
19262.0	5.152754930548735e+17
19263.0	5.1517889592688634e+17
19264.0	5.150553971621887e+17
19265.0	5.1497647539049805e+17
19266.0	5.1487874775777274e+17
19267.0	5.147942000962217e+17
19268.0	5.146968749069653e+17
19269.0	5.146001306288127e+17
19270.0	5.1450334545619616e+17
19271.0	5.1438750227496966e+17
19272.0	5.1430753052917754e+17
19273.0	5.140687725002749e+17
19274.0	5.1403784712792723e+17
19275.0	5.140184953083221e+17
19276.0	5.1392038284820474e+17
19277.0	5.1382361878691834e+17
19278.0	5.137268039745535e+17
19279.0	5.1362867928104954e+17
19280.0	5.1352787987988474e+17
19281.0	5.134352413360127e+17
19282.0	5.133390500069375e+17
19283.0	5.132397972553727e+17
19284.0	5.131417272276308e+17
19285.0	5.1303680035170976e+17
19286.0	5.1294847488054605e+17
19287.0	5.128530895568894e+17
19288.0	5.127158943623849e+17
19289.0	5.1233288883623226e+17
19290.0	5.123176407935658e+17
19291.0	5.122065245929472e+17
19292.0	5.1212288422925645e+17
19293.0	5.120249997295615e+17
19294.0	5.1192736940468896e+17
19295.0	5.118304638555476e+17
19296.0	5.1173255244240205e+17
19297.0	5.1163412156470605e+17
19298.0	5.1153591571141965e+17
19299.0	5.114399914196991e+17
19300.0	5.113420255505066e+17
19301.0	5.1124397943029754e+17
19302.0	5.111461861567145e+17
19303.0	5.110437936190805e+17
19304.0	5.1094830595440634e+17
19305.0	5.1085156342388045e+17
19306.0	5.107539195374249e+17
19307.0	5.106533494248788e+17
19308.0	5.1055668455888205e+17
19309.0	5.104545444484437e+17
19310.0	5.1035358524429645e+17
19311.0	5.1026090063298554e+17
19312.0	5.1016377677032083e+17
19313.0	5.100650762687828e+17
19314.0	5.0977217026457536e+17
19315.0	5.0969519898405574e+17
19316.0	5.0976963166207994e+17
19317.0	5.096702179191466e+17
19318.0	5.0957101347198285e+17
19319.0	5.094729409276587e+17
19320.0	5.0937342889820154e+17
19321.0	5.0927435035006285e+17
19322.0	5.091699247633749e+17
19323.0	5.09072731415074e+17
19324.0	5.0897530108859725e+17
19325.0	5.0887126801885856e+17
19326.0	5.0877575770494285e+17
19327.0	5.0867471866920954e+17
19328.0	5.0857541768314874e+17
19329.0	5.084750150631424e+17
19330.0	5.083720895692798e+17
19331.0	5.082712677984938e+17
19332.0	5.081727958865236e+17
19333.0	5.080710230573054e+17
19334.0	5.0797014410417485e+17
19335.0	5.0785117462855654e+17
19336.0	5.074920797809321e+17
19337.0	5.0738973694580045e+17
19338.0	5.072763477819391e+17
19339.0	5.071848881171114e+17
19340.0	5.0707531905542816e+17
19341.0	5.069785805094911e+17
19342.0	5.0685439674504525e+17
19343.0	5.0677212512255994e+17
19344.0	5.066678064207189e+17
19345.0	5.0643620988627584e+17
19346.0	5.064315683296598e+17
19347.0	5.063511948394494e+17
19348.0	5.0624966066612896e+17
19349.0	5.061423447845546e+17
19350.0	5.060369712851625e+17
19351.0	5.0592963338349216e+17
19352.0	5.0582159559229434e+17
19353.0	5.057184545811113e+17
19354.0	5.056109433148757e+17
19355.0	5.0544718307655654e+17
19356.0	5.052386459866453e+17
19357.0	5.0512941156051616e+17
19358.0	5.050187577819134e+17
19359.0	5.049014235256149e+17
19360.0	5.0479628106246816e+17
19361.0	5.0468424526069766e+17
19362.0	5.0457463970856954e+17
19363.0	5.0446167892295674e+17
19364.0	5.0434779322340685e+17
19365.0	5.042338031555924e+17
19366.0	5.04118707888674e+17
19367.0	5.0400287393491616e+17
19368.0	5.038862205539668e+17
19369.0	5.0376472862392314e+17
19370.0	5.036339865059327e+17
19371.0	5.035275399637675e+17
19372.0	5.0341002024932685e+17
19373.0	5.0328708484956154e+17
19374.0	5.031653481818794e+17
19375.0	5.029967034668372e+17
19376.0	5.0285544266356045e+17
19377.0	5.0272826801083725e+17
19378.0	5.0260057011869e+17
19379.0	5.024712730782378e+17
19380.0	5.0234045525306016e+17
19381.0	5.0220757676632736e+17
19382.0	5.020690765141334e+17
19383.0	5.0193181386123936e+17
19384.0	5.017995527061504e+17
19385.0	5.0165956026040314e+17
19386.0	5.0151775077225805e+17
19387.0	5.01373467693329e+17
19388.0	5.0122684307428685e+17
19389.0	5.010777245919914e+17
19390.0	5.0092597984624634e+17
19391.0	5.005991326952103e+17
19392.0	5.006138291169961e+17
19393.0	5.0045351275178656e+17
19394.0	5.0028916223508474e+17
19395.0	5.0012172401158816e+17
19396.0	4.999510108755285e+17
19397.0	4.997764939251711e+17
19398.0	4.995960948828842e+17
19399.0	4.993720153101651e+17
19400.0	4.992232285973162e+17
19401.0	4.990324624938325e+17
19402.0	4.988347093090304e+17
19403.0	4.986298337067006e+17
19404.0	4.984212175541588e+17
19405.0	4.982042264251049e+17
19406.0	4.9798204365646496e+17
19407.0	4.9775316712816634e+17
19408.0	4.973876552750422e+17
19409.0	4.97170074636561e+17
19410.0	4.969188384134483e+17
19411.0	4.9665550015528954e+17
19412.0	4.96382362185455e+17
19413.0	4.960997174061738e+17
19414.0	4.958038930751488e+17
19415.0	4.954998870551211e+17
19416.0	4.950412601152854e+17
19417.0	4.9470529790279674e+17
19418.0	4.943612944405845e+17
19419.0	4.940000103060821e+17
19420.0	4.934572096968021e+17
19421.0	4.930374909384022e+17
19422.0	4.925471184300713e+17
19423.0	4.919392269762559e+17
19424.0	4.913383913903446e+17
19425.0	4.9067131872651936e+17
19426.0	4.898127603564543e+17
19427.0	4.888834907744936e+17
19428.0	4.876881136451585e+17
19429.0	4.862730250311002e+17
19430.0	4.84375525256943e+17
19431.0	4.825996359718227e+17
19432.0	4.814999242757461e+17
19433.0	4.8034815644357965e+17
19434.0	4.7910347736787616e+17
19435.0	4.777604267638783e+17
19436.0	4.7630809545659725e+17
19437.0	4.747202821881855e+17
19438.0	4.72750614660164e+17
19439.0	4.7120691386559123e+17
19440.0	4.691819916951552e+17
19441.0	4.6678324253381946e+17
19442.0	4.6349761226560806e+17
19443.0	4.578834451354956e+17
19444.0	4.51646292579669e+17
19445.0	4.4685685738700826e+17
19446.0	4.412656986707286e+17
19447.0	4.3368627523201594e+17
19448.0	4.2021269963189005e+17
19449.0	4.030196794873186e+17
19450.0	3.5591036380119046e+17
19451.0	3.409028787295567e+17
19452.0	3.828849190808244e+17
19453.0	4.13282413523764e+17
19454.0	4.2713420419563405e+17
19455.0	4.374399369084923e+17
19456.0	4.434813899505664e+17
19457.0	4.4844989794658963e+17
19458.0	4.529285613573461e+17
19459.0	4.59920927778406e+17
19460.0	4.6388258799615994e+17
19461.0	4.664009317242197e+17
19462.0	4.684186336799402e+17
19463.0	4.70184967291972e+17
19464.0	4.717119082769066e+17
19465.0	4.732050890992299e+17
19466.0	4.7452488948776934e+17
19467.0	4.757374838155946e+17
19468.0	4.768477555807573e+17
19469.0	4.778351903025832e+17
19470.0	4.7878532675665914e+17
19471.0	4.7996887811577197e+17
19472.0	4.817341082763261e+17
19473.0	4.83243150698086e+17
19474.0	4.842931099795454e+17
19475.0	4.851040815240536e+17
19476.0	4.858261306081279e+17
19477.0	4.8635171136252576e+17
19478.0	4.869166820141738e+17
19479.0	4.872343541951143e+17
19480.0	4.8767310901193376e+17
19481.0	4.878970429024938e+17
19482.0	4.8820118859284474e+17
19483.0	4.8847049031243085e+17
19484.0	4.8863896026480634e+17
19485.0	4.8879136645229216e+17
19486.0	4.889898642658644e+17
19487.0	4.8920039274141e+17
19488.0	4.893159320453119e+17
19489.0	4.8941867704429216e+17
19490.0	4.894289795831123e+17
19491.0	4.895935708528638e+17
19492.0	4.8966966021106336e+17
19493.0	4.897324251043156e+17
19494.0	4.898011364720639e+17
19495.0	4.899334922087083e+17
19496.0	4.8995249722927763e+17
19497.0	4.9000790482397856e+17
19498.0	4.900329716624042e+17
19499.0	4.8976748480211584e+17
19500.0	4.900757270691839e+17
19501.0	4.9008651558802765e+17
19502.0	4.9009211037013325e+17
19503.0	4.900935618090325e+17
19504.0	4.90090031882786e+17
19505.0	4.9008250436539725e+17
19506.0	4.900713323473577e+17
19507.0	4.9005458714787834e+17
19508.0	4.900370555163987e+17
19509.0	4.900147392326314e+17
19510.0	4.8997847646863354e+17
19511.0	4.895910985902758e+17
19512.0	4.898993451914578e+17
19513.0	4.8979899842559974e+17
19514.0	4.898086822346751e+17
19515.0	4.897923857558187e+17
19516.0	4.8977968778007885e+17
19517.0	4.897327116451839e+17
19518.0	4.896918307427668e+17
19519.0	4.896445308775081e+17
19520.0	4.895941607817215e+17
19521.0	4.8954531601448954e+17
19522.0	4.89491054932787e+17
19523.0	4.894393884475392e+17
19524.0	4.8938417386072736e+17
19525.0	4.8932630469891405e+17
19526.0	4.892694929211391e+17
19527.0	4.8921006242966176e+17
19528.0	4.891494464181589e+17
19529.0	4.89087847960849e+17
19530.0	4.8902604034757965e+17
19531.0	4.8896243924991994e+17
19532.0	4.8889785731426976e+17
19533.0	4.8883235291135994e+17
19534.0	4.8876587270362445e+17
19535.0	4.8869750303184205e+17
19536.0	4.886284698910719e+17
19537.0	4.885917075155625e+17
19538.0	4.885476522939732e+17
19539.0	4.884442697607852e+17
19540.0	4.8840623762964474e+17
19541.0	4.8833600449850016e+17
19542.0	4.8826344031300256e+17
19543.0	4.881907997911721e+17
19544.0	4.881175095716521e+17
19545.0	4.8802537028976614e+17
19546.0	4.879125434422612e+17
19547.0	4.878945566588927e+17
19548.0	4.878193535571285e+17
19549.0	4.877380171246249e+17
19550.0	4.876673012989951e+17
19551.0	4.875908378088789e+17
19552.0	4.8751379131050656e+17
19553.0	4.8743546813590176e+17
19554.0	4.874129461215232e+17
19555.0	4.874230604059989e+17
19556.0	4.873452220230314e+17
19557.0	4.8726600231594656e+17
19558.0	4.871867264051882e+17
19559.0	4.8710690460576416e+17
19560.0	4.8702614691730765e+17
19561.0	4.869459978223616e+17
19562.0	4.868668496281598e+17
19563.0	4.8678667830340256e+17
19564.0	4.8670593990874445e+17
19565.0	4.8662493825160525e+17
19566.0	4.865420075641514e+17
19567.0	4.8646225259397114e+17
19568.0	4.8637931065180154e+17
19569.0	4.862976476228265e+17
19570.0	4.862169205527892e+17
19571.0	4.861346397727403e+17
19572.0	4.860504370926934e+17
19573.0	4.85969214255923e+17
19574.0	4.8588198517582496e+17
19575.0	4.858045498654719e+17
19576.0	4.857213987673428e+17
19577.0	4.856355798821546e+17
19578.0	4.855529165116757e+17
19579.0	4.8547045530664954e+17
19580.0	4.853873523731113e+17
19581.0	4.853040408428543e+17
19582.0	4.8522144842601805e+17
19583.0	4.8513767964671994e+17
19584.0	4.850537876946943e+17
19585.0	4.8496366971781114e+17
19586.0	4.848782233567232e+17
19587.0	4.8480048815363405e+17
19588.0	4.8469127260187296e+17
19589.0	4.846318599361876e+17
19590.0	4.8467049527814803e+17
19591.0	4.8471096562810874e+17
19592.0	4.846264165684564e+17
19593.0	4.845405755932672e+17
19594.0	4.8444284879940256e+17
19595.0	4.843706216961364e+17
19596.0	4.8427094504024736e+17
19597.0	4.8420066374451194e+17
19598.0	4.840949249212414e+17
19599.0	4.840307264148821e+17
19600.0	4.8394593177873056e+17
19601.0	4.8385690054601376e+17
19602.0	4.837729670703785e+17
19603.0	4.8366517052156576e+17
19604.0	4.836021356549462e+17
19605.0	4.8350192219805005e+17
19606.0	4.834326780138836e+17
19607.0	4.8334762822423885e+17
19608.0	4.832610663880019e+17
19609.0	4.8317325339088205e+17
19610.0	4.8309061232011936e+17
19611.0	4.830041993816746e+17
19612.0	4.829191093267113e+17
19613.0	4.82832617115921e+17
19614.0	4.827452929649321e+17
19615.0	4.8266162079443616e+17
19616.0	4.8257424610208416e+17
19617.0	4.8248943741501434e+17
19618.0	4.8237504756012365e+17
19619.0	4.822765216115369e+17
19620.0	4.8219478769882426e+17
19621.0	4.8214567959920634e+17
19622.0	4.8205996473275725e+17
19623.0	4.8197393438474234e+17
19624.0	4.8188736674638496e+17
19625.0	4.818017970727594e+17
19626.0	4.8171548263055354e+17
19627.0	4.816296306103635e+17
19628.0	4.815400108468906e+17
19629.0	4.8145268837362336e+17
19630.0	4.8137003017611936e+17
19631.0	4.811306824979795e+17
19632.0	4.8119882106361165e+17
19633.0	4.811107606025556e+17
19634.0	4.810265798726995e+17
19635.0	4.8093840889173325e+17
19636.0	4.8085381166749005e+17
19637.0	4.8074877518042445e+17
19638.0	4.806812253552639e+17
19639.0	4.805951817951914e+17
19640.0	4.8050620047469216e+17
19641.0	4.8037022358568966e+17
19642.0	4.8033641176323405e+17
19643.0	4.802497661807274e+17
19644.0	4.801610901356543e+17
19645.0	4.8006288442217805e+17
19646.0	4.7999200166324896e+17
19647.0	4.799057650253823e+17
19648.0	4.7981928931218765e+17
19649.0	4.7973287315810976e+17
19650.0	4.796469657731071e+17
19651.0	4.795604160304468e+17
19652.0	4.7947413954669216e+17
19653.0	4.793882108406442e+17
19654.0	4.7930162383858336e+17
19655.0	4.7921523431833594e+17
