# Flux units: erg / (cm m2 s)
# Wavelength units: Angstrom
wave	flux
19000.0	3.7162709592746656e+17
19001.0	3.715584021058901e+17
19002.0	3.7149073295278074e+17
19003.0	3.7142256299977376e+17
19004.0	3.7135439346619725e+17
19005.0	3.712862595842047e+17
19006.0	3.712181414308522e+17
19007.0	3.711499075846142e+17
19008.0	3.710815969826133e+17
19009.0	3.710137332837034e+17
19010.0	3.7094278733059405e+17
19011.0	3.7087751382411936e+17
19012.0	3.7080882888048634e+17
19013.0	3.707415799267327e+17
19014.0	3.7067323199542605e+17
19015.0	3.706052636486314e+17
19016.0	3.7053717695255885e+17
19017.0	3.704694727770112e+17
19018.0	3.70401429491985e+17
19019.0	3.703335839683925e+17
19020.0	3.7026544861839354e+17
19021.0	3.701976448281258e+17
19022.0	3.7012976700839245e+17
19023.0	3.700618493427712e+17
19024.0	3.6999376621185696e+17
19025.0	3.6992603938706765e+17
19026.0	3.6985801308897274e+17
19027.0	3.697899201014442e+17
19028.0	3.6972247247749114e+17
19029.0	3.696546333851648e+17
19030.0	3.6958681065062394e+17
19031.0	3.695189967241216e+17
19032.0	3.6945117923246074e+17
19033.0	3.6938295845847034e+17
19034.0	3.693156521825621e+17
19035.0	3.6924772535937696e+17
19036.0	3.691491652272126e+17
19037.0	3.6911241865024845e+17
19038.0	3.690445844512768e+17
19039.0	3.6897699939396256e+17
19040.0	3.689093096887637e+17
19041.0	3.688416324266666e+17
19042.0	3.6877351706951674e+17
19043.0	3.6870632054456314e+17
19044.0	3.6863867501936634e+17
19045.0	3.6857106158059514e+17
19046.0	3.685031763509247e+17
19047.0	3.6843585071131296e+17
19048.0	3.683670759396693e+17
19049.0	3.68300340997871e+17
19050.0	3.682329254603434e+17
19051.0	3.681609075130367e+17
19052.0	3.6809789732290554e+17
19053.0	3.680305657413632e+17
19054.0	3.679630661779455e+17
19055.0	3.6789427742528845e+17
19056.0	3.6782798596123296e+17
19057.0	3.6776064613089274e+17
19058.0	3.676931694264319e+17
19059.0	3.676257706661205e+17
19060.0	3.6755821923314336e+17
19061.0	3.674909468611925e+17
19062.0	3.674235321625258e+17
19063.0	3.6735617136066554e+17
19064.0	3.6728821210152954e+17
19065.0	3.672206020182015e+17
19066.0	3.6715384128143354e+17
19067.0	3.670868100120576e+17
19068.0	3.670194956271615e+17
19069.0	3.669522108121087e+17
19070.0	3.668848013563221e+17
19071.0	3.668176647400106e+17
19072.0	3.667504134094847e+17
19073.0	3.6668314474250234e+17
19074.0	3.6661595031470074e+17
19075.0	3.6654874015825914e+17
19076.0	3.6648142500440736e+17
19077.0	3.664142983845205e+17
19078.0	3.663470228668416e+17
19079.0	3.6628003899310074e+17
19080.0	3.6621289328913056e+17
19081.0	3.6614551899559245e+17
19082.0	3.6607837671697056e+17
19083.0	3.6601120375002445e+17
19084.0	3.659318758998015e+17
19085.0	3.658526335434751e+17
19086.0	3.657838157103104e+17
19087.0	3.657177862504447e+17
19088.0	3.656507087039146e+17
19089.0	3.6558266758594554e+17
19090.0	3.655167963911508e+17
19091.0	3.6544982915481594e+17
19092.0	3.6538251435048954e+17
19093.0	3.653160073691136e+17
19094.0	3.652490124503722e+17
19095.0	3.6518207352558925e+17
19096.0	3.6511513355223034e+17
19097.0	3.650483422669482e+17
19098.0	3.649814522058069e+17
19099.0	3.649145799704576e+17
19100.0	3.6484767683706874e+17
19101.0	3.6478090917969914e+17
19102.0	3.647134538661887e+17
19103.0	3.646472706850815e+17
19104.0	3.645804749258751e+17
19105.0	3.6451366092144634e+17
19106.0	3.6444678945505274e+17
19107.0	3.6438009317075616e+17
19108.0	3.6431342939231565e+17
19109.0	3.642445947120298e+17
19110.0	3.6417998726103034e+17
19111.0	3.641132916757845e+17
19112.0	3.6404660902297594e+17
19113.0	3.639799369957376e+17
19114.0	3.6391328258457594e+17
19115.0	3.63846467391761e+17
19116.0	3.637799038571861e+17
19117.0	3.6371333487001594e+17
19118.0	3.6364630569779194e+17
19119.0	3.635425623146495e+17
19120.0	3.6351339281776634e+17
19121.0	3.634469278493354e+17
19122.0	3.6338053523264845e+17
19123.0	3.6331399938047994e+17
19124.0	3.632473572726101e+17
19125.0	3.6318097835731616e+17
19126.0	3.631144627077119e+17
19127.0	3.6303850833619616e+17
19128.0	3.6298100687503354e+17
19129.0	3.6291468730914125e+17
19130.0	3.628486732283904e+17
19131.0	3.627822487349931e+17
19132.0	3.6271583283991885e+17
19133.0	3.6264850608182605e+17
19134.0	3.625828608202069e+17
19135.0	3.6251672063071565e+17
19136.0	3.624503784155818e+17
19137.0	3.623831677698047e+17
19138.0	3.6231761051866445e+17
19139.0	3.6225141237787296e+17
19140.0	3.6218512042448205e+17
19141.0	3.621188425220095e+17
19142.0	3.620524475984554e+17
19143.0	3.6198599017977165e+17
19144.0	3.6192007340687354e+17
19145.0	3.6185386212392954e+17
19146.0	3.617845850843818e+17
19147.0	3.6172093176763725e+17
19148.0	3.616552560274091e+17
19149.0	3.6158909437706234e+17
19150.0	3.6152289938199885e+17
19151.0	3.6145680672795296e+17
19152.0	3.6139065842947405e+17
19153.0	3.6132444302213114e+17
19154.0	3.612577960209066e+17
19155.0	3.6119237844008954e+17
19156.0	3.6112629333579085e+17
19157.0	3.6106023004187296e+17
19158.0	3.6099278500440736e+17
19159.0	3.609280520039082e+17
19160.0	3.608621070592682e+17
19161.0	3.6079614701513376e+17
19162.0	3.6072684662729376e+17
19163.0	3.606641742883499e+17
19164.0	3.6059821683070285e+17
19165.0	3.605321922641919e+17
19166.0	3.6046558636714656e+17
19167.0	3.6040010041917434e+17
19168.0	3.603342992692565e+17
19169.0	3.6026843059104416e+17
19170.0	3.602027164030293e+17
19171.0	3.6013663626199034e+17
19172.0	3.6007099673258656e+17
19173.0	3.600051475578879e+17
19174.0	3.599390133802325e+17
19175.0	3.598735138007722e+17
19176.0	3.5980771265085434e+17
19177.0	3.597411426850133e+17
19178.0	3.5967612118630394e+17
19179.0	3.5961006600137376e+17
19180.0	3.5954454412219725e+17
19181.0	3.5947811012171085e+17
19182.0	3.5941309065024845e+17
19183.0	3.593474604881237e+17
19184.0	3.592815965634559e+17
19185.0	3.5921605916535456e+17
19186.0	3.5915041523193165e+17
19187.0	3.590845014649514e+17
19188.0	3.5901910632366074e+17
19189.0	3.5895350419346765e+17
19190.0	3.5888788228014074e+17
19191.0	3.5882224317016736e+17
19192.0	3.5875669633488205e+17
19193.0	3.586910953231701e+17
19194.0	3.5862547103307085e+17
19195.0	3.5855999794763085e+17
19196.0	3.584944035769001e+17
19197.0	3.584288880590848e+17
19198.0	3.583634190980436e+17
19199.0	3.5827851443131725e+17
19200.0	3.5822070587719674e+17
19201.0	3.58166963491089e+17
19202.0	3.5810150823144096e+17
19203.0	3.580360604516352e+17
19204.0	3.579704723723605e+17
19205.0	3.5790520159218336e+17
19206.0	3.578397294854144e+17
19207.0	3.5777405919778125e+17
19208.0	3.577076190456491e+17
19209.0	3.5764363633623034e+17
19210.0	3.5757827705623885e+17
19211.0	3.575129251162795e+17
19212.0	3.5744759309926394e+17
19213.0	3.5738172064617805e+17
19214.0	3.5731629299903136e+17
19215.0	3.5725159872593914e+17
19216.0	3.5718634765899085e+17
19217.0	3.57121098060049e+17
19218.0	3.570515467829248e+17
19219.0	3.569898680046933e+17
19220.0	3.569253643627178e+17
19221.0	3.568586375998122e+17
19222.0	3.5679514758130336e+17
19223.0	3.567299200723627e+17
19224.0	3.5666456065256096e+17
19225.0	3.5659881032362656e+17
19226.0	3.5653439553099085e+17
19227.0	3.564692500206933e+17
19228.0	3.5640410346181965e+17
19229.0	3.5633896724889594e+17
19230.0	3.5627381621609805e+17
19231.0	3.5620873774475936e+17
19232.0	3.561435790224042e+17
19233.0	3.560781921299114e+17
19234.0	3.5601332784769696e+17
19235.0	3.559482882435754e+17
19236.0	3.5588333769850874e+17
19237.0	3.558182116218197e+17
19238.0	3.557527723005268e+17
19239.0	3.556882515318101e+17
19240.0	3.556228514272597e+17
19241.0	3.555580457953963e+17
19242.0	3.5549316291843405e+17
19243.0	3.55427473686528e+17
19244.0	3.5536328965051725e+17
19245.0	3.55298341552128e+17
19246.0	3.552333091482282e+17
19247.0	3.5516845038851405e+17
19248.0	3.5510352486946125e+17
19249.0	3.550385976726869e+17
19250.0	3.5497365908138656e+17
19251.0	3.549084293354837e+17
19252.0	3.548423303200768e+17
19253.0	3.5477895620416845e+17
19254.0	3.5471409345986554e+17
19255.0	3.546482725268138e+17
19256.0	3.5458437426271565e+17
19257.0	3.545195951248725e+17
19258.0	3.544547551696212e+17
19259.0	3.543895538750804e+17
19260.0	3.5432454076497914e+17
19261.0	3.54260305907985e+17
19262.0	3.5419535424443725e+17
19263.0	3.5413042956424525e+17
19264.0	3.540630130480468e+17
19265.0	3.5400000194914976e+17
19266.0	3.5393491131432954e+17
19267.0	3.5387162066507085e+17
19268.0	3.538068653648554e+17
19269.0	3.537421176842922e+17
19270.0	3.5367737356888736e+17
19271.0	3.536108089857365e+17
19272.0	3.5354773490237434e+17
19273.0	3.534713858468522e+17
19274.0	3.534119731811669e+17
19275.0	3.5335377455677434e+17
19276.0	3.5328896738699936e+17
19277.0	3.532243740568234e+17
19278.0	3.5315968502661114e+17
19279.0	3.5309498907579725e+17
19280.0	3.530298835511978e+17
19281.0	3.529656310082218e+17
19282.0	3.529009642777258e+17
19283.0	3.528360046450005e+17
19284.0	3.5277138111583565e+17
19285.0	3.527061047432533e+17
19286.0	3.5264214740937376e+17
19287.0	3.5257765676974074e+17
19288.0	3.525067752691029e+17
19289.0	3.52425777177122e+17
19290.0	3.5238370690990074e+17
19291.0	3.523177932827306e+17
19292.0	3.522544173492906e+17
19293.0	3.5218973230366714e+17
19294.0	3.5212512904697165e+17
19295.0	3.520604860142933e+17
19296.0	3.519958407446528e+17
19297.0	3.5193118666697376e+17
19298.0	3.5186645709182285e+17
19299.0	3.5180190367743994e+17
19300.0	3.5173721908619936e+17
19301.0	3.5167255567619405e+17
19302.0	3.516079036257621e+17
19303.0	3.5154282113488205e+17
19304.0	3.514783962759168e+17
19305.0	3.513738174922752e+17
19306.0	3.5120340050903034e+17
19307.0	3.5113844832119456e+17
19308.0	3.510739277272405e+17
19309.0	3.5100871213711354e+17
19310.0	3.5094367435052365e+17
19311.0	3.5087979873566714e+17
19312.0	3.508153301510826e+17
19313.0	3.507505382905172e+17
19314.0	3.506409049161726e+17
19315.0	3.505817136048811e+17
19316.0	3.505563718298282e+17
19317.0	3.504916350544554e+17
19318.0	3.50426790170897e+17
19319.0	3.5036209540846925e+17
19320.0	3.502972671273642e+17
19321.0	3.502324622295039e+17
19322.0	3.5016716586407245e+17
19323.0	3.501024275507882e+17
19324.0	3.5003786109911034e+17
19325.0	3.4997230475673594e+17
19326.0	3.4990801719132154e+17
19327.0	3.4984296647229434e+17
19328.0	3.4977804200181754e+17
19329.0	3.4971305639935994e+17
19330.0	3.4964778862510074e+17
19331.0	3.4958270606431565e+17
19332.0	3.49517827870993e+17
19333.0	3.494526871142399e+17
19334.0	3.493874813807274e+17
19335.0	3.4932223548675405e+17
19336.0	3.4925701433917434e+17
19337.0	3.4919169525459616e+17
19338.0	3.4912530116990285e+17
19339.0	3.490609948000255e+17
19340.0	3.48994642972945e+17
19341.0	3.4892995467673594e+17
19342.0	3.488625780413781e+17
19343.0	3.4879890529102496e+17
19344.0	3.4873322399334394e+17
19345.0	3.4865475625506125e+17
19346.0	3.485989602678101e+17
19347.0	3.485354879003306e+17
19348.0	3.4846992435773434e+17
19349.0	3.4840379070436685e+17
19350.0	3.4833767805747194e+17
19351.0	3.482714782739114e+17
19352.0	3.4820497789856416e+17
19353.0	3.4813901271640736e+17
19354.0	3.48072555647249e+17
19355.0	3.4800555663906125e+17
19356.0	3.4793931438817274e+17
19357.0	3.47872537678097e+17
19358.0	3.478055733078698e+17
19359.0	3.4773794651723085e+17
19360.0	3.47671235657728e+17
19361.0	3.4760391194050554e+17
19362.0	3.47536714436881e+17
19363.0	3.4746910368945485e+17
19364.0	3.474012915455317e+17
19365.0	3.4733341529866234e+17
19366.0	3.472653012347562e+17
19367.0	3.471970073400661e+17
19368.0	3.4712851463536634e+17
19369.0	3.4705952050162336e+17
19370.0	3.46989559021568e+17
19371.0	3.4692142024622074e+17
19372.0	3.4685229088112634e+17
19373.0	3.467826182138538e+17
19374.0	3.467126741401599e+17
19375.0	3.4664241612281165e+17
19376.0	3.465718895301973e+17
19377.0	3.4650099852247034e+17
19378.0	3.46429806154001e+17
19379.0	3.463582276299434e+17
19380.0	3.46286264488209e+17
19381.0	3.462138937649834e+17
19382.0	3.46140660727808e+17
19383.0	3.4606726502154234e+17
19384.0	3.4599404736348154e+17
19385.0	3.459197922792789e+17
19386.0	3.458450045184682e+17
19387.0	3.4576961382645754e+17
19388.0	3.456935992666794e+17
19389.0	3.455295593731414e+17
19390.0	3.453695855427584e+17
19391.0	3.4526234180321274e+17
19392.0	3.4521160117562016e+17
19393.0	3.4513135529710925e+17
19394.0	3.450500942572202e+17
19395.0	3.44967893553425e+17
19396.0	3.448846010722986e+17
19397.0	3.4480023023561376e+17
19398.0	3.4471443641139194e+17
19399.0	3.4462340809577805e+17
19400.0	3.4453899189070496e+17
19401.0	3.444493714631338e+17
19402.0	3.443578825779882e+17
19403.0	3.44218186424866e+17
19404.0	3.439711665957546e+17
19405.0	3.4387268720394234e+17
19406.0	3.4377210768916474e+17
19407.0	3.4366902686624416e+17
19408.0	3.435589642048853e+17
19409.0	3.4345467762442234e+17
19410.0	3.432194775187455e+17
19411.0	3.4299946781900794e+17
19412.0	3.428784643855701e+17
19413.0	3.4275337751756794e+17
19414.0	3.425119446411947e+17
19415.0	3.4223005836683936e+17
19416.0	3.4208567850434554e+17
19417.0	3.41759597932271e+17
19418.0	3.4148861377249274e+17
19419.0	3.411648080510974e+17
19420.0	3.4081832351825914e+17
19421.0	3.403403482191188e+17
19422.0	3.398830398985557e+17
19423.0	3.39366374102357e+17
19424.0	3.389699975195306e+17
19425.0	3.386885371417941e+17
19426.0	3.383863532322816e+17
19427.0	3.3806121959424e+17
19428.0	3.3771115532779514e+17
19429.0	3.3733263134556154e+17
19430.0	3.369226823095637e+17
19431.0	3.3647402086126925e+17
19432.0	3.3599821796693325e+17
19433.0	3.354769228475051e+17
19434.0	3.3491220067341645e+17
19435.0	3.3430234915143674e+17
19436.0	3.3359441229250554e+17
19437.0	3.3285872350658554e+17
19438.0	3.320595715457023e+17
19439.0	3.312066271466837e+17
19440.0	3.3024119291248634e+17
19441.0	3.290121819040426e+17
19442.0	3.271988397910697e+17
19443.0	3.235650175238156e+17
19444.0	3.193649063351636e+17
19445.0	3.1651786954287795e+17
19446.0	3.132762545105578e+17
19447.0	3.09635767249578e+17
19448.0	3.018551494093479e+17
19449.0	2.893832604265127e+17
19450.0	2.4939248008997507e+17
19451.0	2.3558937557073824e+17
19452.0	2.735784084548279e+17
19453.0	2.9582669636785594e+17
19454.0	3.067629793880746e+17
19455.0	3.111801753086633e+17
19456.0	3.144166440348332e+17
19457.0	3.173748829760169e+17
19458.0	3.20320565394364e+17
19459.0	3.248594343690248e+17
19460.0	3.2719876348968934e+17
19461.0	3.28501641399501e+17
19462.0	3.2948677184061446e+17
19463.0	3.3028547983441914e+17
19464.0	3.30970340856081e+17
19465.0	3.315701625738581e+17
19466.0	3.322053191357779e+17
19467.0	3.3272079172239354e+17
19468.0	3.331839590312618e+17
19469.0	3.3359942273815885e+17
19470.0	3.3397806646777165e+17
19471.0	3.343152078738773e+17
19472.0	3.3461645281853434e+17
19473.0	3.3488501494251514e+17
19474.0	3.3512434853478394e+17
19475.0	3.3533191338502816e+17
19476.0	3.3552471526386336e+17
19477.0	3.356914844609195e+17
19478.0	3.3585581330705043e+17
19479.0	3.361666712469504e+17
19480.0	3.366217960478036e+17
19481.0	3.3691834697209184e+17
19482.0	3.3713234651381754e+17
19483.0	3.374506294553257e+17
19484.0	3.3753653275088205e+17
19485.0	3.377545473949698e+17
19486.0	3.3787069015435936e+17
19487.0	3.378872393050794e+17
19488.0	3.380633340127916e+17
19489.0	3.381498705783466e+17
19490.0	3.381401201497428e+17
19491.0	3.38143194714385e+17
19492.0	3.3820368615505926e+17
19493.0	3.3834046240849914e+17
19494.0	3.38323286593809e+17
19495.0	3.3830337001117005e+17
19496.0	3.3827865371170125e+17
19497.0	3.382561361712469e+17
19498.0	3.382287668696405e+17
19499.0	3.3815205000861e+17
19500.0	3.383362057841322e+17
19501.0	3.3832655524986874e+17
19502.0	3.3829146643660794e+17
19503.0	3.3825501122396154e+17
19504.0	3.3821722631208954e+17
19505.0	3.38178163151121e+17
19506.0	3.3813792869580794e+17
19507.0	3.3809652371510605e+17
19508.0	3.3805428592039245e+17
19509.0	3.3801100839266976e+17
19510.0	3.379657136144383e+17
19511.0	3.378433877868543e+17
19512.0	3.378711351001087e+17
19513.0	3.378146700165119e+17
19514.0	3.3777384227689805e+17
19515.0	3.377314402052778e+17
19516.0	3.37685883387904e+17
19517.0	3.3763643310298445e+17
19518.0	3.3768002915314355e+17
19519.0	3.3769818486210554e+17
19520.0	3.3764718125165216e+17
19521.0	3.375959505545898e+17
19522.0	3.375441037142698e+17
19523.0	3.3749206638264314e+17
19524.0	3.374395686562474e+17
19525.0	3.3738661458957645e+17
19526.0	3.3733354378144416e+17
19527.0	3.372800323267242e+17
19528.0	3.372263152462506e+17
19529.0	3.3717227831514445e+17
19530.0	3.371179774225067e+17
19531.0	3.3706343315537914e+17
19532.0	3.370086566636202e+17
19533.0	3.369536563008853e+17
19534.0	3.368984519901184e+17
19535.0	3.3684304631780685e+17
19536.0	3.3678724232642554e+17
19537.0	3.3673167835409056e+17
19538.0	3.366756040398165e+17
19539.0	3.366161836845738e+17
19540.0	3.3656324457758714e+17
19541.0	3.3650699099176954e+17
19542.0	3.3645045418557434e+17
19543.0	3.36393791864832e+17
19544.0	3.3633700182753274e+17
19545.0	3.3627829523797325e+17
19546.0	3.362173890505386e+17
19547.0	3.3616593972538016e+17
19548.0	3.3610871487856634e+17
19549.0	3.3605090240976205e+17
19550.0	3.359939729468074e+17
19551.0	3.3593648417341434e+17
19552.0	3.358788925347156e+17
19553.0	3.3582113557053434e+17
19554.0	3.357632457517738e+17
19555.0	3.3570560675239245e+17
19556.0	3.356478050489684e+17
19557.0	3.3558983774044154e+17
19558.0	3.355318396037802e+17
19559.0	3.354737576858965e+17
19560.0	3.3541553452482554e+17
19561.0	3.353574095104682e+17
19562.0	3.3529927453463885e+17
19563.0	3.3524099873505274e+17
19564.0	3.3518268581587616e+17
19565.0	3.3512432315924474e+17
19566.0	3.3506580632698874e+17
19567.0	3.3500747446353914e+17
19568.0	3.3494900030832634e+17
19569.0	3.3489043104727034e+17
19570.0	3.348319360253952e+17
19571.0	3.347733524338005e+17
19572.0	3.3471458806770336e+17
19573.0	3.346560336265216e+17
19574.0	3.3459694343290874e+17
19575.0	3.3453874389975034e+17
19576.0	3.3448002720890874e+17
19577.0	3.3442100985637536e+17
19578.0	3.3436229029942605e+17
19579.0	3.3430360838635514e+17
19580.0	3.3424483944147616e+17
19581.0	3.3418600317801805e+17
19582.0	3.3412726747299834e+17
19583.0	3.3406841142640634e+17
19584.0	3.3400953786859514e+17
19585.0	3.3395006976819194e+17
19586.0	3.338910421396138e+17
19587.0	3.3383269744858445e+17
19588.0	3.3377135351562234e+17
19589.0	3.3371490283246925e+17
19590.0	3.336554370738858e+17
19591.0	3.335970752561152e+17
19592.0	3.335380956523178e+17
19593.0	3.3347903558778874e+17
19594.0	3.334188562732373e+17
19595.0	3.3336106156031994e+17
19596.0	3.3330022887806285e+17
19597.0	3.3324309326506656e+17
19598.0	3.3318176929000096e+17
19599.0	3.331251669128533e+17
19600.0	3.330661538594816e+17
19601.0	3.330067889389567e+17
19602.0	3.329479069575851e+17
19603.0	3.328865600886101e+17
19604.0	3.3282987882359456e+17
19605.0	3.32769481789713e+17
19606.0	3.327119965465258e+17
19607.0	3.326529879670783e+17
19608.0	3.325939335998122e+17
19609.0	3.3253468902085965e+17
19610.0	3.3247590130647034e+17
19611.0	3.324168280648363e+17
19612.0	3.323578464687446e+17
19613.0	3.3229880709611514e+17
19614.0	3.322395962114048e+17
19615.0	3.321807731949567e+17
19616.0	3.3212150610657274e+17
19617.0	3.3206267774238714e+17
19618.0	3.320008725757952e+17
19619.0	3.3194057987522554e+17
19620.0	3.3188205769523194e+17
19621.0	3.3182669760102394e+17
19622.0	3.317676964315136e+17
19623.0	3.3170870144860154e+17
19624.0	3.3164970898227194e+17
19625.0	3.3159071840337914e+17
19626.0	3.315317379956736e+17
19627.0	3.314727610482687e+17
19628.0	3.3141332104970234e+17
19629.0	3.3135437807615994e+17
19630.0	3.312957201055744e+17
19631.0	3.3121452149090976e+17
19632.0	3.3117794733479245e+17
19633.0	3.3111895598694394e+17
19634.0	3.3106006995107834e+17
19635.0	3.310009632598698e+17
19636.0	3.3094221654480205e+17
19637.0	3.308816295439018e+17
19638.0	3.308243337434452e+17
19639.0	3.3076544798719994e+17
19640.0	3.3070630103067296e+17
19641.0	3.306413458019669e+17
19642.0	3.3058881672314874e+17
19643.0	3.30529859698688e+17
19644.0	3.304707524831914e+17
19645.0	3.3041070794560845e+17
19646.0	3.3035336862924794e+17
19647.0	3.3029452642385914e+17
19648.0	3.3023569239736314e+17
19649.0	3.3017685235903136e+17
19650.0	3.3011804860142925e+17
19651.0	3.3005924096409594e+17
19652.0	3.3000044038717434e+17
19653.0	3.2994163739852794e+17
