# Flux units: erg / (cm m2 s)
# Wavelength units: Angstrom
wave	flux
19000.0	5.204125115482111e+17
19001.0	5.2030375359501645e+17
19002.0	5.2022058697796256e+17
19003.0	5.201224678768639e+17
19004.0	5.2002569123266554e+17
19005.0	5.199303976244564e+17
19006.0	5.1983544585202336e+17
19007.0	5.1972657213603834e+17
19008.0	5.1963507507199994e+17
19009.0	5.195332820402175e+17
19010.0	5.193872206462974e+17
19011.0	5.1934473052924576e+17
19012.0	5.1913163730670906e+17
19013.0	5.1916145272640845e+17
19014.0	5.190596225750357e+17
19015.0	5.189645238621524e+17
19016.0	5.18866015949073e+17
19017.0	5.1877741435289594e+17
19018.0	5.1867505082586445e+17
19019.0	5.1858446455493965e+17
19020.0	5.1848723052189005e+17
19021.0	5.1839342680036685e+17
19022.0	5.182968790253567e+17
19023.0	5.181962819294549e+17
19024.0	5.18100213633297e+17
19025.0	5.17999069040913e+17
19026.0	5.178985129792853e+17
19027.0	5.177167577087998e+17
19028.0	5.1772132292908365e+17
19029.0	5.176220235508394e+17
19030.0	5.175302164578303e+17
19031.0	5.174349525592746e+17
19032.0	5.1733759884875085e+17
19033.0	5.1723106548449274e+17
19034.0	5.171442902280874e+17
19035.0	5.170399386009598e+17
19036.0	5.0972017844114726e+17
19037.0	5.1685324495694496e+17
19038.0	5.167598770236074e+17
19039.0	5.1666692852066976e+17
19040.0	5.165717117381289e+17
19041.0	5.164745982214143e+17
19042.0	5.163161304257876e+17
19043.0	5.162849445871615e+17
19044.0	5.1618662269146445e+17
19045.0	5.160894215137962e+17
19046.0	5.159897599574016e+17
19047.0	5.158990781961557e+17
19048.0	5.157670932359849e+17
19049.0	5.155971703067987e+17
19050.0	5.1560555073590605e+17
19051.0	5.145185335203143e+17
19052.0	5.1523558900585805e+17
19053.0	5.153239359378773e+17
19054.0	5.15231771140642e+17
19055.0	5.1509037528077645e+17
19056.0	5.1503112248797856e+17
19057.0	5.149438932680702e+17
19058.0	5.147896023700819e+17
19059.0	5.147321471860735e+17
19060.0	5.146543699700393e+17
19061.0	5.145629374982825e+17
19062.0	5.144667073019903e+17
19063.0	5.143714478773588e+17
19064.0	5.1425926709247994e+17
19065.0	5.141598348247039e+17
19066.0	5.140585805512703e+17
19067.0	5.139880454302378e+17
19068.0	5.1389419102754125e+17
19069.0	5.1379893572730874e+17
19070.0	5.13699737641506e+17
19071.0	5.1360357553274874e+17
19072.0	5.1349088199420576e+17
19073.0	5.134167610228734e+17
19074.0	5.1332207761599136e+17
19075.0	5.1322672521762125e+17
19076.0	5.1312874739466234e+17
19077.0	5.130337854859946e+17
19078.0	5.1293496922166605e+17
19079.0	5.128449264626346e+17
19080.0	5.1274810899387725e+17
19081.0	5.12649465954304e+17
19082.0	5.1255404910346234e+17
19083.0	5.124528766888617e+17
19084.0	5.1234305205425485e+17
19085.0	5.122713760126292e+17
19086.0	5.1210180204953594e+17
19087.0	5.118586092432044e+17
19088.0	5.119454855124308e+17
19089.0	5.117776012247039e+17
19090.0	5.117934029154985e+17
19091.0	5.1169237925888e+17
19092.0	5.115195001842346e+17
19093.0	5.115125498729813e+17
19094.0	5.1141763018697376e+17
19095.0	5.1132258089697274e+17
19096.0	5.11225234596386e+17
19097.0	5.1113225687313043e+17
19098.0	5.1101411332587514e+17
19099.0	5.1091491209434445e+17
19100.0	5.1083557466712736e+17
19101.0	5.10748205846801e+17
19102.0	5.1064150505990816e+17
19103.0	5.105624755645099e+17
19104.0	5.104679524499455e+17
19105.0	5.103227736773973e+17
19106.0	5.10243413111603e+17
19107.0	5.101671388545023e+17
19108.0	5.1006918235258874e+17
19109.0	5.095104028431693e+17
19110.0	5.0988511909642234e+17
19111.0	5.0978685249563296e+17
19112.0	5.0969182201009485e+17
19113.0	5.09613637317427e+17
19114.0	5.0950986086918816e+17
19115.0	5.09401370792209e+17
19116.0	5.0932753824918176e+17
19117.0	5.0923212706065056e+17
19118.0	5.0910021522117965e+17
19119.0	5.079734426446492e+17
19120.0	5.088933679464446e+17
19121.0	5.088147420129961e+17
19122.0	5.0876213432593056e+17
19123.0	5.0866751082769056e+17
19124.0	5.085433332148906e+17
19125.0	5.084740901492051e+17
19126.0	5.0838253401538554e+17
19127.0	5.080528842304171e+17
19128.0	5.081077815181311e+17
19129.0	5.080908221994325e+17
19130.0	5.0800310182652576e+17
19131.0	5.0790791482354336e+17
19132.0	5.0781601049258656e+17
19133.0	5.0769886553920845e+17
19134.0	5.0758889389424634e+17
19135.0	5.07530501493009e+17
19136.0	5.0743881785234765e+17
19137.0	5.073230949078357e+17
19138.0	5.072455556486485e+17
19139.0	5.0715543767176525e+17
19140.0	5.0706132364165114e+17
19141.0	5.069669453703849e+17
19142.0	5.0686777112221005e+17
19143.0	5.067705462467241e+17
19144.0	5.0667914075832314e+17
19145.0	5.0658901928618656e+17
19146.0	5.064176534465195e+17
19147.0	5.0638694547892896e+17
19148.0	5.06285476946466e+17
19149.0	5.0618886290145274e+17
19150.0	5.06117236003089e+17
19151.0	5.0602317796693325e+17
19152.0	5.0592266112204794e+17
19153.0	5.0579824303581856e+17
19154.0	5.0571906506205856e+17
19155.0	5.0564516331301536e+17
19156.0	5.0555243920534176e+17
19157.0	5.0543867213469005e+17
19158.0	5.0501940643102675e+17
19159.0	5.052664958855849e+17
19160.0	5.0516819768770554e+17
19161.0	5.050742815588351e+17
19162.0	5.042438202720263e+17
19163.0	5.0487458277621754e+17
19164.0	5.0479876856436045e+17
19165.0	5.046495898938025e+17
19166.0	5.0457495952424934e+17
19167.0	5.044467901923328e+17
19168.0	5.044213175549951e+17
19169.0	5.043142256492543e+17
19170.0	5.0423525047009274e+17
19171.0	5.0409352745451514e+17
19172.0	5.040438218063872e+17
19173.0	5.039510452000085e+17
19174.0	5.0385261907585696e+17
19175.0	5.0376646688331085e+17
19176.0	5.0367245365630285e+17
19177.0	5.0355978647197005e+17
19178.0	5.034668149702656e+17
19179.0	5.033235226558464e+17
19180.0	5.0329153752268794e+17
19181.0	5.031849544559274e+17
19182.0	5.0310452392318285e+17
19183.0	5.0301523523010554e+17
19184.0	5.029197347728043e+17
19185.0	5.028268798028458e+17
19186.0	5.0273434045426336e+17
19187.0	5.026312757794131e+17
19188.0	5.025446796896938e+17
19189.0	5.024495307849727e+17
19190.0	5.023522528515413e+17
19191.0	5.022533672413866e+17
19192.0	5.021715495124991e+17
19193.0	5.020700370097493e+17
19194.0	5.0197373159560525e+17
19195.0	5.018892323083604e+17
19196.0	5.0179297205288954e+17
19197.0	5.016982764126207e+17
19198.0	5.015960631115775e+17
19199.0	4.973484595740661e+17
19200.0	4.985425211599546e+17
19201.0	5.01316479754786e+17
19202.0	5.0123167854755834e+17
19203.0	5.0112670371676154e+17
19204.0	5.010415325020159e+17
19205.0	5.0095254628816205e+17
19206.0	5.008586189045759e+17
19207.0	5.007521394371242e+17
19208.0	5.00642782257698e+17
19209.0	5.005786744881151e+17
19210.0	5.0048496856378016e+17
19211.0	5.0039298579933856e+17
19212.0	5.002989221707775e+17
19213.0	5.001581488854356e+17
19214.0	5.000453415414443e+17
19215.0	5.000013748196692e+17
19216.0	4.999248739303423e+17
19217.0	4.998303954152106e+17
19218.0	4.996287455122771e+17
19219.0	4.996264072577023e+17
19220.0	4.9954511696254285e+17
19221.0	4.9941484320849914e+17
19222.0	4.993622148295338e+17
19223.0	4.9926772191395834e+17
19224.0	4.9917121748008954e+17
19225.0	4.9906388104642554e+17
19226.0	4.9898711885195936e+17
19227.0	4.988934928291157e+17
19228.0	4.988027724103679e+17
19229.0	4.9870913925720723e+17
19230.0	4.986117741521577e+17
19231.0	4.98518375600401e+17
19232.0	4.9842660569688736e+17
19233.0	4.9832541307972256e+17
19234.0	4.9823829927307936e+17
19235.0	4.981437464488617e+17
19236.0	4.980541481462442e+17
19237.0	4.979585394059945e+17
19238.0	4.9784836755292154e+17
19239.0	4.977735410996566e+17
19240.0	4.976775384443562e+17
19241.0	4.975826769892694e+17
19242.0	4.9749065074387616e+17
19243.0	4.9737990469058554e+17
19244.0	4.9730563712832845e+17
19245.0	4.97211394822417e+17
19246.0	4.97116086534144e+17
19247.0	4.9702362631809696e+17
19248.0	4.9692967565612365e+17
19249.0	4.968327172587519e+17
19250.0	4.9673330246724256e+17
19251.0	4.9662615275001165e+17
19252.0	4.9652458061824e+17
19253.0	4.9645921966052685e+17
19254.0	4.9636792182592845e+17
19255.0	4.962539567142228e+17
19256.0	4.961741904194217e+17
19257.0	4.960872802462377e+17
19258.0	4.9599363171396256e+17
19259.0	4.958915632562175e+17
19260.0	4.956513890904744e+17
19261.0	4.9571023189005645e+17
19262.0	4.9561049924020896e+17
19263.0	4.9551505449724576e+17
19264.0	4.953565439896232e+17
19265.0	4.9530875213250554e+17
19266.0	4.952034909705558e+17
19267.0	4.9514830623320736e+17
19268.0	4.950531985025706e+17
19269.0	4.9495969649131514e+17
19270.0	4.9486578742285645e+17
19271.0	4.947258259450539e+17
19272.0	4.946731596775423e+17
19273.0	4.944827426100563e+17
19274.0	4.944087563457876e+17
19275.0	4.943948646012245e+17
19276.0	4.942980101526868e+17
19277.0	4.942043582649686e+17
19278.0	4.941090387219796e+17
19279.0	4.9400994136937805e+17
19280.0	4.939103766315007e+17
19281.0	4.9382574704121165e+17
19282.0	4.937329708542634e+17
19283.0	4.9357217570925216e+17
19284.0	4.935145591144447e+17
19285.0	4.934258526606676e+17
19286.0	4.9334942433279994e+17
19287.0	4.9325786246676474e+17
19288.0	4.910618890993639e+17
19289.0	4.884314203007587e+17
19290.0	4.929727870883157e+17
19291.0	4.9284835998433286e+17
19292.0	4.927839982496426e+17
19293.0	4.9268789073674234e+17
19294.0	4.925917951776083e+17
19295.0	4.924980782082729e+17
19296.0	4.92379263013137e+17
19297.0	4.9229499210574496e+17
19298.0	4.9220747180113914e+17
19299.0	4.92088753913856e+17
19300.0	4.920170162159615e+17
19301.0	4.9192269995048954e+17
19302.0	4.9182515966334285e+17
19303.0	4.91719689834769e+17
19304.0	4.916301646528511e+17
19305.0	4.915355751983787e+17
19306.0	4.9143708294403405e+17
19307.0	4.91332810379537e+17
19308.0	4.9123989298435405e+17
19309.0	4.909840277176319e+17
19310.0	4.9084244884630163e+17
19311.0	4.9093257227578016e+17
19312.0	4.9085737616452256e+17
19313.0	4.9075997855361696e+17
19314.0	4.797311228051556e+17
19315.0	4.803317340657073e+17
19316.0	4.9042169877845325e+17
19317.0	4.9036872646655994e+17
19318.0	4.9027060289153696e+17
19319.0	4.901744458159445e+17
19320.0	4.900644627065514e+17
19321.0	4.8995647566643194e+17
19322.0	4.898594807087103e+17
19323.0	4.897095506285909e+17
19324.0	4.896735904836266e+17
19325.0	4.894209600738645e+17
19326.0	4.894780117658282e+17
19327.0	4.8937587179519994e+17
19328.0	4.892356547444736e+17
19329.0	4.891788103909374e+17
19330.0	4.890725290344447e+17
19331.0	4.8897100520707405e+17
19332.0	4.888729957171198e+17
19333.0	4.887687255993002e+17
19334.0	4.886680420308308e+17
19335.0	4.884821378247338e+17
19336.0	4.8846062475018234e+17
19337.0	4.8836214011549005e+17
19338.0	4.882329228367189e+17
19339.0	4.8815348565497165e+17
19340.0	4.880278865226411e+17
19341.0	4.8790818898575354e+17
19342.0	4.877714554443092e+17
19343.0	4.8773516213179725e+17
19344.0	4.875984334837077e+17
19345.0	4.872430134056272e+17
19346.0	4.87293467107874e+17
19347.0	4.872591489630207e+17
19348.0	4.872013026601642e+17
19349.0	4.870862255685632e+17
19350.0	4.869625204441087e+17
19351.0	4.8686818131968e+17
19352.0	4.867094336241662e+17
19353.0	4.866516013722282e+17
19354.0	4.8654085776561485e+17
19355.0	4.864162600932693e+17
19356.0	4.8631438625122976e+17
19357.0	4.8620124860579834e+17
19358.0	4.860834941501439e+17
19359.0	4.859511340094804e+17
19360.0	4.858165311744682e+17
19361.0	4.8573111326474234e+17
19362.0	4.8561881028580685e+17
19363.0	4.854992943622826e+17
19364.0	4.8537863108689914e+17
19365.0	4.852573886480383e+17
19366.0	4.8513469602856954e+17
19367.0	4.850099885353642e+17
19368.0	4.8488597275279354e+17
19369.0	4.8474958733858125e+17
19370.0	4.846186218739028e+17
19371.0	4.8449620558916256e+17
19372.0	4.843718733463551e+17
19373.0	4.842360282983081e+17
19374.0	4.841050489924266e+17
19375.0	4.8396893250300576e+17
19376.0	4.838328148951039e+17
19377.0	4.8369216016875514e+17
19378.0	4.835513450102783e+17
19379.0	4.834084022910975e+17
19380.0	4.832629278900223e+17
19381.0	4.8311464183726086e+17
19382.0	4.829564980516181e+17
19383.0	4.8279818991916365e+17
19384.0	4.8265551060227405e+17
19385.0	4.82498551288081e+17
19386.0	4.8233812698944845e+17
19387.0	4.821732032512e+17
19388.0	4.8200679410018976e+17
19389.0	4.818362287434409e+17
19390.0	4.8166008517208736e+17
19391.0	4.750020225357051e+17
19392.0	4.811663037431798e+17
19393.0	4.811175550954153e+17
19394.0	4.8092417272490656e+17
19395.0	4.8070953271295994e+17
19396.0	4.805186486097236e+17
19397.0	4.8033036196904954e+17
19398.0	4.8008998787481594e+17
19399.0	4.797821574184959e+17
19400.0	4.796559173266089e+17
19401.0	4.7944875519945376e+17
19402.0	4.79218488119569e+17
19403.0	4.789800871657471e+17
19404.0	4.787388954618538e+17
19405.0	4.784867922761045e+17
19406.0	4.78231044170274e+17
19407.0	4.7795259684072096e+17
19408.0	4.775908648943617e+17
19409.0	4.7741354265367885e+17
19410.0	4.7712792075741856e+17
19411.0	4.768338020401151e+17
19412.0	4.765306366984192e+17
19413.0	4.762072961952426e+17
19414.0	4.758995532600661e+17
19415.0	4.7557607588276896e+17
19416.0	4.7519529634365434e+17
19417.0	4.748170478572883e+17
19418.0	4.7454840946688e+17
19419.0	4.741859886060885e+17
19420.0	4.738250407848617e+17
19421.0	4.7345451037709645e+17
19422.0	4.730706745884671e+17
19423.0	4.726876667554474e+17
19424.0	4.722935744255317e+17
19425.0	4.7189088076649805e+17
19426.0	4.714386918036821e+17
19427.0	4.7100000486468256e+17
19428.0	4.7057452564916896e+17
19429.0	4.7013956751633056e+17
19430.0	4.6954869626852736e+17
19431.0	4.6803175079936154e+17
19432.0	4.6870258176928416e+17
19433.0	4.680807276172629e+17
19434.0	4.6744140733480954e+17
19435.0	4.664869486504615e+17
19436.0	4.650389667665231e+17
19437.0	4.64029331314005e+17
19438.0	4.5042385324168896e+17
19439.0	4.5741859993026643e+17
19440.0	4.559725091181908e+17
19441.0	4.5404001032383123e+17
19442.0	4.518050880203435e+17
19443.0	4.4936621698580486e+17
19444.0	4.467463061591381e+17
19445.0	4.4326765010616275e+17
19446.0	4.349202126252705e+17
19447.0	4.263026575627601e+17
19448.0	4.184029208597851e+17
19449.0	4.0154713240370995e+17
19450.0	3.543421997984451e+17
19451.0	3.3268324141192474e+17
19452.0	3.8321076812731923e+17
19453.0	4.1234392681895277e+17
19454.0	4.2216526970879955e+17
19455.0	4.295432495344304e+17
19456.0	4.3938241528026406e+17
19457.0	4.443319908171774e+17
19458.0	4.1987677062433805e+17
19459.0	4.477288880013414e+17
19460.0	4.515435712785065e+17
19461.0	4.534719698610858e+17
19462.0	4.551719141419691e+17
19463.0	4.57573839090484e+17
19464.0	4.607929583228239e+17
19465.0	4.626064173869738e+17
19466.0	4.636188818975397e+17
19467.0	4.643999078591145e+17
19468.0	4.6495976691247763e+17
19469.0	4.653094210109438e+17
19470.0	4.6575987751649274e+17
19471.0	4.6606196009861114e+17
19472.0	4.663960849962324e+17
19473.0	4.6665338366634656e+17
19474.0	4.6688998764052474e+17
19475.0	4.670598640129364e+17
19476.0	4.674389854038698e+17
19477.0	4.6769961078620154e+17
19478.0	4.6792674653853e+17
19479.0	4.681124134868308e+17
19480.0	4.6834636756964685e+17
19481.0	4.6854425007882234e+17
19482.0	4.687412426964991e+17
19483.0	4.6893142355476474e+17
19484.0	4.691088807122261e+17
19485.0	4.69274626044723e+17
19486.0	4.694069756996266e+17
19487.0	4.6959646428801696e+17
19488.0	4.697434509453993e+17
19489.0	4.698637962226345e+17
19490.0	4.698164904853502e+17
19491.0	4.7012510094240416e+17
19492.0	4.702435947140436e+17
19493.0	4.7034923622946125e+17
19494.0	4.7044624593715194e+17
19495.0	4.70535283740945e+17
19496.0	4.705589306676563e+17
19497.0	4.706890974669482e+17
19498.0	4.6989008584048666e+17
19499.0	4.609577785316664e+17
19500.0	4.7087671329860256e+17
19501.0	4.709281458814976e+17
19502.0	4.709694964760576e+17
19503.0	4.71014087799603e+17
19504.0	4.7104705188331514e+17
19505.0	4.710749962939049e+17
19506.0	4.7109958246509216e+17
19507.0	4.711153717127849e+17
19508.0	4.7114502187690656e+17
19509.0	4.711539869919914e+17
19510.0	4.7112493137046176e+17
19511.0	4.519729363069547e+17
19512.0	4.694528011272175e+17
19513.0	4.682950857020713e+17
19514.0	4.689741260434061e+17
19515.0	4.710003725653335e+17
19516.0	4.711103688867838e+17
19517.0	4.710896855154687e+17
19518.0	4.710693750876842e+17
19519.0	4.7104008339674445e+17
19520.0	4.7099406761765536e+17
19521.0	4.7100067756113914e+17
19522.0	4.709615555401044e+17
19523.0	4.709270334122666e+17
19524.0	4.708789353010517e+17
19525.0	4.7086309998591994e+17
19526.0	4.708265523587755e+17
19527.0	4.7078490452787194e+17
19528.0	4.7073965546755405e+17
19529.0	4.706935135797247e+17
19530.0	4.7065375423419725e+17
19531.0	4.706065869089449e+17
19532.0	4.705579958271998e+17
19533.0	4.7050804082769914e+17
19534.0	4.704562587893759e+17
19535.0	4.7040202252397216e+17
19536.0	4.7034541843415034e+17
19537.0	4.70295241695778e+17
19538.0	4.701937240200534e+17
19539.0	4.701092659767979e+17
19540.0	4.701211758428159e+17
19541.0	4.700583737600681e+17
19542.0	4.700017298243583e+17
19543.0	4.6991280757364045e+17
19544.0	4.6988037455872e+17
19545.0	4.697538953215998e+17
19546.0	4.6963897474744314e+17
19547.0	4.696944409225898e+17
19548.0	4.6962936245125114e+17
19549.0	4.6955308581737805e+17
19550.0	4.6949877475355296e+17
19551.0	4.6943264826545485e+17
19552.0	4.6936544048578554e+17
19553.0	4.6929457995666765e+17
19554.0	4.6922439526973434e+17
19555.0	4.6915521469917856e+17
19556.0	4.6908879775552845e+17
19557.0	4.6902108358355616e+17
19558.0	4.6895118040432634e+17
19559.0	4.688808062746623e+17
19560.0	4.68795419402786e+17
19561.0	4.6873524134652576e+17
19562.0	4.6865442745439565e+17
19563.0	4.6859471028224e+17
19564.0	4.685221346323114e+17
19565.0	4.684491789085355e+17
19566.0	4.683719569484458e+17
19567.0	4.6830210459019936e+17
19568.0	4.682254283090602e+17
19569.0	4.681512347762687e+17
19570.0	4.680791293777236e+17
19571.0	4.680035613715115e+17
19572.0	4.679262548262911e+17
19573.0	4.6785167877297485e+17
19574.0	4.6777105956645536e+17
19575.0	4.677071088036523e+17
19576.0	4.676284333075113e+17
19577.0	4.675451526752938e+17
19578.0	4.67472488665361e+17
19579.0	4.6739808045410976e+17
19580.0	4.6732109582172166e+17
19581.0	4.672451592759978e+17
19582.0	4.6717010017867085e+17
19583.0	4.670925851765417e+17
19584.0	4.6701155849338874e+17
19585.0	4.669234520347989e+17
19586.0	4.668403519673686e+17
19587.0	4.667526511678804e+17
19588.0	4.666394418697558e+17
19589.0	4.666207362525866e+17
19590.0	4.665266932460202e+17
19591.0	4.6646477546236576e+17
19592.0	4.6638721600061446e+17
19593.0	4.663029859177813e+17
19594.0	4.6619564438104736e+17
19595.0	4.661445197998762e+17
19596.0	4.6590071658250246e+17
19597.0	4.659840080500053e+17
19598.0	4.6584520189323936e+17
19599.0	4.6583141843162445e+17
19600.0	4.6575273818193914e+17
19601.0	4.656642578710527e+17
19602.0	4.6558602690123085e+17
19603.0	4.6538658557897376e+17
19604.0	4.654180848020139e+17
19605.0	4.653151371482453e+17
19606.0	4.6527114064691194e+17
19607.0	4.651917745586174e+17
19608.0	4.651089501268651e+17
19609.0	4.650240430134612e+17
19610.0	4.649337243391317e+17
19611.0	4.6484616894218234e+17
19612.0	4.647887200496298e+17
19613.0	4.647066486352553e+17
19614.0	4.6462228692118176e+17
19615.0	4.6454393711274656e+17
19616.0	4.6438878994759674e+17
19617.0	4.64360453509393e+17
19618.0	4.642221686347092e+17
19619.0	4.6412180935584403e+17
19620.0	4.640388121886718e+17
19621.0	4.6402904694019405e+17
19622.0	4.639781978548906e+17
19623.0	4.63895131132177e+17
19624.0	4.638094507289258e+17
19625.0	4.637336910430207e+17
19626.0	4.6365182836517536e+17
19627.0	4.635695772947797e+17
19628.0	4.6337556221351264e+17
19629.0	4.6331691934242125e+17
19630.0	4.6303182893438304e+17
19631.0	4.5849491712682726e+17
19632.0	4.631567955656702e+17
19633.0	4.6306357771851085e+17
19634.0	4.629991697765717e+17
19635.0	4.6290727250602656e+17
19636.0	4.628008077885439e+17
19637.0	4.6268158232057165e+17
19638.0	4.6266642899927034e+17
19639.0	4.6258844919835296e+17
19640.0	4.624910185223509e+17
19641.0	4.622658905833474e+17
19642.0	4.6234162258684576e+17
19643.0	4.6225804674553165e+17
19644.0	4.6217338513872205e+17
19645.0	4.620622184666451e+17
19646.0	4.619802087784447e+17
19647.0	4.619337458166442e+17
19648.0	4.61853274808866e+17
19649.0	4.6177081430289056e+17
19650.0	4.616895657410559e+17
19651.0	4.616070223975764e+17
19652.0	4.615246495525546e+17
19653.0	4.6144076095597216e+17
19654.0	4.6136057970469536e+17
19655.0	4.612779803672575e+17
