# Flux units: erg / (cm m2 s)
# Wavelength units: Angstrom
wave	flux
19000.0	5.260172163984042e+17
19001.0	5.2591259458819405e+17
19002.0	5.2582163446497274e+17
19003.0	5.2572363546077856e+17
19004.0	5.2562575012222285e+17
19005.0	5.255275946704894e+17
19006.0	5.25430108000529e+17
19007.0	5.253308295238996e+17
19008.0	5.252301678357162e+17
19009.0	5.251354935164926e+17
19010.0	5.2500062427327123e+17
19011.0	5.2493927719458125e+17
19012.0	5.2483317353676794e+17
19013.0	5.2474548566971725e+17
19014.0	5.24644212871441e+17
19015.0	5.245475439509503e+17
19016.0	5.2444882191865165e+17
19017.0	5.243543157211135e+17
19018.0	5.2425620514843296e+17
19019.0	5.2415922633878176e+17
19020.0	5.2406035729612794e+17
19021.0	5.239641017242964e+17
19022.0	5.2386679345206605e+17
19023.0	5.237669349031935e+17
19024.0	5.2367007297481376e+17
19025.0	5.235742487172437e+17
19026.0	5.234747871592447e+17
19027.0	5.23374949372177e+17
19028.0	5.232817956978687e+17
19029.0	5.23183277089314e+17
19030.0	5.230876225612458e+17
19031.0	5.2299054511554554e+17
19032.0	5.2289283537851725e+17
19033.0	5.227893351951019e+17
19034.0	5.226972524664147e+17
19035.0	5.2259872246333434e+17
19036.0	5.2211216754059904e+17
19037.0	5.22405719188002e+17
19038.0	5.2230753982873594e+17
19039.0	5.222115618499242e+17
19040.0	5.221146349098325e+17
19041.0	5.2201683073105914e+17
19042.0	5.2191348755442336e+17
19043.0	5.218229355369812e+17
19044.0	5.217239869423615e+17
19045.0	5.2162740833921696e+17
19046.0	5.215258010451967e+17
19047.0	5.214331338402473e+17
19048.0	5.213198015092053e+17
19049.0	5.212338804927146e+17
19050.0	5.21138357735697e+17
19051.0	5.2098101366401683e+17
19052.0	5.209448361842004e+17
19053.0	5.2085035179704314e+17
19054.0	5.2075358298221216e+17
19055.0	5.206391841794731e+17
19056.0	5.2055765285164365e+17
19057.0	5.204622956298238e+17
19058.0	5.203644576169983e+17
19059.0	5.2026847257777485e+17
19060.0	5.2017023855274656e+17
19061.0	5.200751282356223e+17
19062.0	5.19977887281971e+17
19063.0	5.198812490498046e+17
19064.0	5.197753837682688e+17
19065.0	5.1967585398292474e+17
19066.0	5.1958672271605754e+17
19067.0	5.1949314947153914e+17
19068.0	5.193972254594389e+17
19069.0	5.19300573106449e+17
19070.0	5.192016921100287e+17
19071.0	5.1910650790324896e+17
19072.0	5.190102658930005e+17
19073.0	5.1891311078277126e+17
19074.0	5.188170706583551e+17
19075.0	5.1872042466672634e+17
19076.0	5.186221682720767e+17
19077.0	5.185263728852991e+17
19078.0	5.184274047172607e+17
19079.0	5.183338820840106e+17
19080.0	5.1823660869440845e+17
19081.0	5.181376827490303e+17
19082.0	5.1804073875210234e+17
19083.0	5.179416214765567e+17
19084.0	5.1783634171985914e+17
19085.0	5.1775397111179936e+17
19086.0	5.1763349762867194e+17
19087.0	5.175513573578068e+17
19088.0	5.1746088034850125e+17
19089.0	5.1735182683668474e+17
19090.0	5.172708552387242e+17
19091.0	5.171752392283476e+17
19092.0	5.170737682492073e+17
19093.0	5.1698391612129274e+17
19094.0	5.1688733199564794e+17
19095.0	5.1679117275299834e+17
19096.0	5.1669367405936634e+17
19097.0	5.165988045651967e+17
19098.0	5.165021818519551e+17
19099.0	5.164058428833792e+17
19100.0	5.163090014371839e+17
19101.0	5.1621386022202016e+17
19102.0	5.161098107245908e+17
19103.0	5.160213145452543e+17
19104.0	5.1592568902778874e+17
19105.0	5.1582905498992634e+17
19106.0	5.1573163570845e+17
19107.0	5.156360332596564e+17
19108.0	5.155412935791956e+17
19109.0	5.154163254799017e+17
19110.0	5.153493230114132e+17
19111.0	5.1525334419374086e+17
19112.0	5.1515737229666976e+17
19113.0	5.1506131637370874e+17
19114.0	5.149653158155605e+17
19115.0	5.148656604807167e+17
19116.0	5.147723426693119e+17
19117.0	5.146768090071039e+17
19118.0	5.1457542016641696e+17
19119.0	5.140802531491833e+17
19120.0	5.143863905047892e+17
19121.0	5.142926162832042e+17
19122.0	5.141988852629503e+17
19123.0	5.14103069254178e+17
19124.0	5.140055532939946e+17
19125.0	5.139114071075497e+17
19126.0	5.13815553839377e+17
19127.0	5.135953969195687e+17
19128.0	5.1361258888232954e+17
19129.0	5.1352299030009165e+17
19130.0	5.134324803654996e+17
19131.0	5.1333750300781216e+17
19132.0	5.132418409299966e+17
19133.0	5.1313423172676256e+17
19134.0	5.1304489871387296e+17
19135.0	5.1295506343307936e+17
19136.0	5.1285998799858336e+17
19137.0	5.127528687599615e+17
19138.0	5.1266763749676365e+17
19139.0	5.125735303872511e+17
19140.0	5.1247810857314976e+17
19141.0	5.123826859201876e+17
19142.0	5.1228552381945165e+17
19143.0	5.121871389392896e+17
19144.0	5.120943503092394e+17
19145.0	5.120008647955796e+17
19146.0	5.118641295065088e+17
19147.0	5.118036869294761e+17
19148.0	5.117147241338195e+17
19149.0	5.116192282203477e+17
19150.0	5.115240143738196e+17
19151.0	5.1142903463936e+17
19152.0	5.113335946499412e+17
19153.0	5.112371501247146e+17
19154.0	5.111348592290474e+17
19155.0	5.110486311895039e+17
19156.0	5.109532805387605e+17
19157.0	5.108579559626068e+17
19158.0	5.1074340385805645e+17
19159.0	5.106665214268756e+17
19160.0	5.1057185011357e+17
19161.0	5.1047671323252045e+17
19162.0	5.1033727590290765e+17
19163.0	5.1028751565892256e+17
19164.0	5.1019286028397216e+17
19165.0	5.100960354052778e+17
19166.0	5.099933417166164e+17
19167.0	5.099036705729194e+17
19168.0	5.098103728242687e+17
19169.0	5.097158236351145e+17
19170.0	5.096230433237674e+17
19171.0	5.0952504026507936e+17
19172.0	5.0943314411301536e+17
19173.0	5.0933836815182496e+17
19174.0	5.092392791878313e+17
19175.0	5.091486427949738e+17
19176.0	5.090536437667156e+17
19177.0	5.089487220637696e+17
19178.0	5.088639758718293e+17
19179.0	5.0876517463709005e+17
19180.0	5.086732457694547e+17
19181.0	5.085704681947136e+17
19182.0	5.0848439108020896e+17
19183.0	5.083906891404628e+17
19184.0	5.082939694688938e+17
19185.0	5.082003475005439e+17
19186.0	5.0810660599453e+17
19187.0	5.0800751577224525e+17
19188.0	5.079172514840575e+17
19189.0	5.078226020510377e+17
19190.0	5.077277875721558e+17
19191.0	5.07631280202274e+17
19192.0	5.0753928590349645e+17
19193.0	5.074440269682004e+17
19194.0	5.0734888302673914e+17
19195.0	5.0725563470097056e+17
19196.0	5.071598751754921e+17
19197.0	5.070660093782698e+17
19198.0	5.069720200587945e+17
19199.0	5.066083634162346e+17
19200.0	5.066191100619435e+17
19201.0	5.066888068115113e+17
19202.0	5.0659458393920845e+17
19203.0	5.064995419193343e+17
19204.0	5.064039298935466e+17
19205.0	5.063107607702187e+17
19206.0	5.0621582766243834e+17
19207.0	5.061168164328788e+17
19208.0	5.060107463994025e+17
19209.0	5.059331269591039e+17
19210.0	5.0583897483072845e+17
19211.0	5.0574566016505165e+17
19212.0	5.056511936036862e+17
19213.0	5.0554912193030816e+17
19214.0	5.054540683760981e+17
19215.0	5.0536784907468794e+17
19216.0	5.0527421214665376e+17
19217.0	5.05179893015074e+17
19218.0	5.0502875700264934e+17
19219.0	5.049819654171306e+17
19220.0	5.0489604174424736e+17
19221.0	5.0478028140052474e+17
19222.0	5.0470950622549325e+17
19223.0	5.0461355257364474e+17
19224.0	5.0451783065709216e+17
19225.0	5.044165059892564e+17
19226.0	5.043319774816938e+17
19227.0	5.0423807882909e+17
19228.0	5.0414579540295674e+17
19229.0	5.0405170346284365e+17
19230.0	5.0395655889223674e+17
19231.0	5.038623561525929e+17
19232.0	5.0376887581190816e+17
19233.0	5.0367066925957114e+17
19234.0	5.03579404070639e+17
19235.0	5.034850827720021e+17
19236.0	5.033934075898538e+17
19237.0	5.03298078749491e+17
19238.0	5.0319886304761165e+17
19239.0	5.031116352258047e+17
19240.0	5.030129808616106e+17
19241.0	5.029211091064149e+17
19242.0	5.028285335470079e+17
19243.0	5.027245188623017e+17
19244.0	5.0264180725732685e+17
19245.0	5.025475113342293e+17
19246.0	5.024527802520917e+17
19247.0	5.0235951654720845e+17
19248.0	5.022662174703615e+17
19249.0	5.0217204891429536e+17
19250.0	5.0207694460900685e+17
19251.0	5.019791506363732e+17
19252.0	5.018689148900693e+17
19253.0	5.0179480845899085e+17
19254.0	5.0170214251233274e+17
19255.0	5.0159498922994336e+17
19256.0	5.015139283632127e+17
19257.0	5.014209513390079e+17
19258.0	5.0132722248581114e+17
19259.0	5.0122819629656736e+17
19260.0	5.011315089910441e+17
19261.0	5.0104478777125536e+17
19262.0	5.0094774038473376e+17
19263.0	5.0085413910828365e+17
19264.0	5.007259954315262e+17
19265.0	5.006552129164628e+17
19266.0	5.0055912987033594e+17
19267.0	5.0048238927653536e+17
19268.0	5.0038799387852794e+17
19269.0	5.0029433416144205e+17
19270.0	5.00200637534481e+17
19271.0	5.0008243058333005e+17
19272.0	5.000104079523838e+17
19273.0	4.997793171810984e+17
19274.0	4.9974448034065056e+17
19275.0	4.9962436575013536e+17
19276.0	4.994593802857129e+17
19277.0	4.993658018682198e+17
19278.0	4.9927213599948794e+17
19279.0	4.991766279924393e+17
19280.0	4.9907813147388576e+17
19281.0	4.989898252266155e+17
19282.0	4.988969801132714e+17
19283.0	4.987988954753706e+17
19284.0	4.9870395502755834e+17
19285.0	4.986016372184404e+17
19286.0	4.985184499094868e+17
19287.0	4.9842669804148045e+17
19288.0	4.982520684041557e+17
19289.0	4.979557773169998e+17
19290.0	4.981443563705685e+17
19291.0	4.9803293447509325e+17
19292.0	4.9795600311036576e+17
19293.0	4.9786121519540896e+17
19294.0	4.977667705842345e+17
19295.0	4.9767323963228154e+17
19296.0	4.975783317602304e+17
19297.0	4.9748288533954554e+17
19298.0	4.973879804734121e+17
19299.0	4.972956191730346e+17
19300.0	4.97200993997073e+17
19301.0	4.97106217336832e+17
19302.0	4.9701177915692365e+17
19303.0	4.9691155933866656e+17
19304.0	4.9682015378036045e+17
19305.0	4.9672693614291616e+17
19306.0	4.9663272676229114e+17
19307.0	4.965348176560128e+17
19308.0	4.964419946326698e+17
19309.0	4.9633894400873805e+17
19310.0	4.962393764746581e+17
19311.0	4.961561275094357e+17
19312.0	4.9606309365241165e+17
19313.0	4.959682106665642e+17
19314.0	4.9541152215749824e+17
19315.0	4.953704539095051e+17
19316.0	4.956825931743232e+17
19317.0	4.9558705769458336e+17
19318.0	4.954914112755028e+17
19319.0	4.9539697288587936e+17
19320.0	4.953012042727423e+17
19321.0	4.952057269540181e+17
19322.0	4.951040965214208e+17
19323.0	4.950091756470272e+17
19324.0	4.949176345427966e+17
19325.0	4.948131057762303e+17
19326.0	4.9472571276875085e+17
19327.0	4.946282951649962e+17
19328.0	4.9453288055111674e+17
19329.0	4.944366044971008e+17
19330.0	4.9433693231513594e+17
19331.0	4.942400077518164e+17
19332.0	4.941461615979178e+17
19333.0	4.940480464814079e+17
19334.0	4.939515855284906e+17
19335.0	4.9385398484336634e+17
19336.0	4.9375661631296845e+17
19337.0	4.93658788995618e+17
19338.0	4.935468097470464e+17
19339.0	4.9346292877011616e+17
19340.0	4.933547402635946e+17
19341.0	4.9326538082658976e+17
19342.0	4.9314028319320736e+17
19343.0	4.930688617458346e+17
19344.0	4.929690747098451e+17
19345.0	4.927044926308346e+17
19346.0	4.9273521800478726e+17
19347.0	4.9266644358266874e+17
19348.0	4.9257127084031974e+17
19349.0	4.924686757178025e+17
19350.0	4.923684594647039e+17
19351.0	4.922664967034196e+17
19352.0	4.9216335163774285e+17
19353.0	4.920671335350271e+17
19354.0	4.9196534434802336e+17
19355.0	4.916690252289364e+17
19356.0	4.915506662342656e+17
19357.0	4.9144754892090016e+17
19358.0	4.913429194910378e+17
19359.0	4.9123185991352314e+17
19360.0	4.9113235585324365e+17
19361.0	4.910272428900351e+17
19362.0	4.9092509201421645e+17
19363.0	4.908190419036842e+17
19364.0	4.9071216229963085e+17
19365.0	4.9060509737724576e+17
19366.0	4.904977969446911e+17
19367.0	4.9038960361471994e+17
19368.0	4.902807962386432e+17
19369.0	4.901667889741823e+17
19370.0	4.900451531795114e+17
19371.0	4.899461056692223e+17
19372.0	4.8983814190749005e+17
19373.0	4.897239077311828e+17
19374.0	4.896116793409536e+17
19375.0	4.894041429420714e+17
19376.0	4.891328221544447e+17
19377.0	4.890148988081493e+17
19378.0	4.888969882544809e+17
19379.0	4.8877776047964154e+17
19380.0	4.886573513790804e+17
19381.0	4.885351336946345e+17
19382.0	4.884066844628309e+17
19383.0	4.8828056146193056e+17
19384.0	4.881616740548607e+17
19385.0	4.88018066678306e+17
19386.0	4.8761250348619085e+17
19387.0	4.8747988336858445e+17
19388.0	4.8734534309860685e+17
19389.0	4.872087454526121e+17
19390.0	4.8707004373401594e+17
19391.0	4.8657309861150656e+17
19392.0	4.865905084683601e+17
19393.0	4.8629941258594976e+17
19394.0	4.861474870657023e+17
19395.0	4.859926098040149e+17
19396.0	4.8582961614465715e+17
19397.0	4.8528776925020154e+17
19398.0	4.85117381382417e+17
19399.0	4.848597031277908e+17
19400.0	4.844812371667623e+17
19401.0	4.841076777025536e+17
19402.0	4.8391563429369165e+17
19403.0	4.8351113205077344e+17
19404.0	4.832643440967679e+17
19405.0	4.830487189826217e+17
19406.0	4.828276858727083e+17
19407.0	4.82599382286336e+17
19408.0	4.823080515229013e+17
19409.0	4.8211460574849696e+17
19410.0	4.81861306487057e+17
19411.0	4.815961872575146e+17
19412.0	4.8132003435205965e+17
19413.0	4.810331272511487e+17
19414.0	4.807311571462826e+17
19415.0	4.804201715247787e+17
19416.0	4.8008349621070496e+17
19417.0	4.7974890190056096e+17
19418.0	4.794034484674559e+17
19419.0	4.790302262951936e+17
19420.0	4.786401228881919e+17
19421.0	4.7823032862201165e+17
19422.0	4.777974744219647e+17
19423.0	4.7728600155859616e+17
19424.0	4.767883509541545e+17
19425.0	4.762902635129513e+17
19426.0	4.7576709497268896e+17
19427.0	4.7521741794181114e+17
19428.0	4.745277665705984e+17
19429.0	4.7390431704514554e+17
19430.0	4.731818483209558e+17
19431.0	4.7234296564067e+17
19432.0	4.714813391372286e+17
19433.0	4.7045910315663366e+17
19434.0	4.6915174293394797e+17
19435.0	4.67528261793656e+17
19436.0	4.65120482086093e+17
19437.0	4.6169316158777914e+17
19438.0	4.587910692427089e+17
19439.0	4.5741555598404275e+17
19440.0	4.5525253432715936e+17
19441.0	4.5289561481980576e+17
19442.0	4.502772416249857e+17
19443.0	4.474967136316074e+17
19444.0	4.4420648249152826e+17
19445.0	4.391670426632199e+17
19446.0	4.298914298942806e+17
19447.0	4.224571547495079e+17
19448.0	4.1329393961096646e+17
19449.0	3.942333684208977e+17
19450.0	3.4575911635735917e+17
19451.0	3.283710048381606e+17
19452.0	3.746876045830848e+17
19453.0	4.0531996260870906e+17
19454.0	4.180398628842149e+17
19455.0	4.2564740032320845e+17
19456.0	4.340655971106828e+17
19457.0	4.412332486688759e+17
19458.0	4.436779389506921e+17
19459.0	4.477045216815789e+17
19460.0	4.502203372929023e+17
19461.0	4.525276600642218e+17
19462.0	4.546164067489109e+17
19463.0	4.5650327389252256e+17
19464.0	4.582485116234411e+17
19465.0	4.612653813770923e+17
19466.0	4.6396862379677e+17
19467.0	4.6577154551098e+17
19468.0	4.6700118451159034e+17
19469.0	4.679420228927483e+17
19470.0	4.687651362482858e+17
19471.0	4.693833970701653e+17
19472.0	4.700282287379795e+17
19473.0	4.704697043298987e+17
19474.0	4.709686458712064e+17
19475.0	4.713416282690899e+17
19476.0	4.7175611631097165e+17
19477.0	4.720908446291283e+17
19478.0	4.724005950980096e+17
19479.0	4.72740188319471e+17
19480.0	4.730280559159978e+17
19481.0	4.732696033667753e+17
19482.0	4.734911433583274e+17
19483.0	4.7369582707124896e+17
19484.0	4.738767111148885e+17
19485.0	4.7403981941855565e+17
19486.0	4.7419565249221965e+17
19487.0	4.7433785589541536e+17
19488.0	4.7446552771297274e+17
19489.0	4.745785291134292e+17
19490.0	4.7457618428777786e+17
19491.0	4.747703159706964e+17
19492.0	4.7485392333919565e+17
19493.0	4.749252583839061e+17
19494.0	4.749872457231017e+17
19495.0	4.750407991558143e+17
19496.0	4.750584803142313e+17
19497.0	4.7512426503645856e+17
19498.0	4.7514952879745715e+17
19499.0	4.746733198944932e+17
19500.0	4.7543697193041914e+17
19501.0	4.754478537725268e+17
19502.0	4.7565234559604064e+17
19503.0	4.75870385021474e+17
19504.0	4.758621134345558e+17
19505.0	4.7585353790040736e+17
19506.0	4.761716097286146e+17
19507.0	4.7621568487314765e+17
19508.0	4.761917501472768e+17
19509.0	4.7616305034253645e+17
19510.0	4.761177853438634e+17
19511.0	4.7555257610622163e+17
19512.0	4.7631883811771686e+17
19513.0	4.7615524075820326e+17
19514.0	4.761921228810921e+17
19515.0	4.7621383686280544e+17
19516.0	4.762050230222847e+17
19517.0	4.7615146196991994e+17
19518.0	4.763075845204651e+17
19519.0	4.763303242192212e+17
19520.0	4.7627375060800845e+17
19521.0	4.7622018298456736e+17
19522.0	4.761604545576959e+17
19523.0	4.761046171866453e+17
19524.0	4.7604495328215046e+17
19525.0	4.759828564716202e+17
19526.0	4.759226589118464e+17
19527.0	4.7585920160890874e+17
19528.0	4.7579576318033914e+17
19529.0	4.757311758619987e+17
19530.0	4.757730676615849e+17
19531.0	4.75834124284723e+17
19532.0	4.7576649064338765e+17
19533.0	4.7569815934948685e+17
19534.0	4.7562904372073805e+17
19535.0	4.7555797445509114e+17
19536.0	4.754864202579966e+17
19537.0	4.7541824646021114e+17
19538.0	4.753447762351445e+17
19539.0	4.752302894918317e+17
19540.0	4.752006126239743e+17
19541.0	4.7512948638569805e+17
19542.0	4.750556529339051e+17
19543.0	4.749817085427711e+17
19544.0	4.749078595021482e+17
19545.0	4.748097922706088e+17
19546.0	4.74684718125329e+17
19547.0	4.7468300992512e+17
19548.0	4.7460736320580256e+17
19549.0	4.7452425209337165e+17
19550.0	4.7445468851295565e+17
19551.0	4.7437811694960634e+17
19552.0	4.74300988592401e+17
19553.0	4.74222427111424e+17
19554.0	4.741426915748523e+17
19555.0	4.7406725163472205e+17
19556.0	4.739901753567914e+17
19557.0	4.739115018878975e+17
19558.0	4.7383289322100045e+17
19559.0	4.7375386708104525e+17
19560.0	4.7367345612171936e+17
19561.0	4.7377025450639366e+17
19562.0	4.737083555971072e+17
19563.0	4.7362907933682336e+17
19564.0	4.735490900448596e+17
19565.0	4.7346868572651514e+17
19566.0	4.733863490923177e+17
19567.0	4.7330798278628685e+17
19568.0	4.73225681104623e+17
19569.0	4.731449808781311e+17
19570.0	4.7306564149357216e+17
19571.0	4.7298440250873165e+17
19572.0	4.729008409979562e+17
19573.0	4.7282109882040314e+17
19574.0	4.7273388637771085e+17
19575.0	4.726588584580436e+17
19576.0	4.72577113989666e+17
19577.0	4.7249230194715296e+17
19578.0	4.724106396172287e+17
19579.0	4.723298197132627e+17
19580.0	4.722481975787519e+17
19581.0	4.72166359437585e+17
19582.0	4.720855698724181e+17
19583.0	4.7200327755803296e+17
19584.0	4.719208880756051e+17
19585.0	4.7183060680048634e+17
19586.0	4.717463769972736e+17
19587.0	4.7167143002767354e+17
19588.0	4.715572872871934e+17
19589.0	4.7150652383559674e+17
19590.0	4.7141759123892896e+17
19591.0	4.713417817806164e+17
19592.0	4.712591997796351e+17
19593.0	4.71175062950161e+17
19594.0	4.710755231683923e+17
19595.0	4.710089808849578e+17
19596.0	4.7090215776419834e+17
19597.0	4.708430408668499e+17
19598.0	4.707316558812499e+17
19599.0	4.706772039587157e+17
19600.0	4.7059441867380045e+17
19601.0	4.7050658659259725e+17
19602.0	4.7042508203840845e+17
19603.0	4.7031124023924045e+17
19604.0	4.7025842269716474e+17
19605.0	4.701563185878357e+17
19606.0	4.700935847324329e+17
19607.0	4.700105468805119e+17
19608.0	4.69926023336209e+17
19609.0	4.6983957062178125e+17
19610.0	4.697599535742975e+17
19611.0	4.6967541842575354e+17
19612.0	4.695928185290751e+17
19613.0	4.6950831357951994e+17
19614.0	4.6942274998763514e+17
19615.0	4.6934178796666874e+17
19616.0	4.692548768847189e+17
19617.0	4.69173608190225e+17
19618.0	4.690533851070463e+17
19619.0	4.689532210730323e+17
19620.0	4.688751319405908e+17
19621.0	4.688387069269332e+17
19622.0	4.687554762768384e+17
19623.0	4.6867166485544954e+17
19624.0	4.6858718465228794e+17
19625.0	4.6850396127231994e+17
19626.0	4.684194330443775e+17
19627.0	4.6833627824127994e+17
19628.0	4.682456717677909e+17
19629.0	4.681620771220138e+17
19630.0	4.68082259656704e+17
19631.0	4.676967966179325e+17
19632.0	4.6791666119475194e+17
19633.0	4.678300425256959e+17
19634.0	4.677490341576704e+17
19635.0	4.676626644205568e+17
19636.0	4.675803136655359e+17
19637.0	4.674733308816043e+17
19638.0	4.67412630774306e+17
19639.0	4.6732899537387514e+17
19640.0	4.672416064907946e+17
19641.0	4.6708820324734317e+17
19642.0	4.670770947031039e+17
19643.0	4.669927143243775e+17
19644.0	4.669055900319744e+17
19645.0	4.668062024335359e+17
19646.0	4.667418218244777e+17
19647.0	4.666581354632534e+17
19648.0	4.665739321540607e+17
19649.0	4.6648979504496634e+17
19650.0	4.6640629547008e+17
19651.0	4.6632201764208634e+17
19652.0	4.6623807137382406e+17
19653.0	4.6615455502172154e+17
19654.0	4.660701993893887e+17
19655.0	4.659858984927232e+17
19656.0	4.6590245826723834e+17
