# Flux units: erg / (cm m2 s)
# Wavelength units: Angstrom
wave	flux
19000.0	8.403130081345533e+17
19001.0	8.401654885908479e+17
19002.0	8.400262314065917e+17
19003.0	8.398822971539455e+17
19004.0	8.397381379467945e+17
19005.0	8.395938575242578e+17
19006.0	8.39449192903475e+17
19007.0	8.393022511950506e+17
19008.0	8.391567152775165e+17
19009.0	8.390097939813718e+17
19010.0	8.388508276228095e+17
19011.0	8.387205132539219e+17
19012.0	8.385664910011049e+17
19013.0	8.384296022005076e+17
19014.0	8.382796558325076e+17
19015.0	8.381340778321238e+17
19016.0	8.379869395506515e+17
19017.0	8.378407951794175e+17
19018.0	8.376932465552041e+17
19019.0	8.375464129200127e+17
19020.0	8.373970920625492e+17
19021.0	8.37250228228369e+17
19022.0	8.371021813208404e+17
19023.0	8.369515708547071e+17
19024.0	8.37024498336836e+17
19025.0	8.369045594177535e+17
19026.0	8.367540785556136e+17
19027.0	8.365995023750483e+17
19028.0	8.364571282636797e+17
19029.0	8.363074754969597e+17
19030.0	8.361575496810492e+17
19031.0	8.360073894035453e+17
19032.0	8.358570122805247e+17
19033.0	8.357025117372416e+17
19034.0	8.355551636007594e+17
19035.0	8.353982387497641e+17
19036.0	8.347986688649896e+17
19037.0	8.35098963555123e+17
19038.0	8.349497310576639e+17
19039.0	8.347998228578303e+17
19040.0	8.346482943983616e+17
19041.0	8.344965100863489e+17
19042.0	8.343410427559935e+17
19043.0	8.341924301766655e+17
19044.0	8.340400249678505e+17
19045.0	8.338876000458067e+17
19046.0	8.3373304343866e+17
19047.0	8.335812048803155e+17
19048.0	8.334215946960893e+17
19049.0	8.332730720146772e+17
19050.0	8.331202753374889e+17
19051.0	8.328949725659135e+17
19052.0	8.327988139524096e+17
19053.0	8.326612469328553e+17
19054.0	8.325085003076947e+17
19055.0	8.323436629022036e+17
19056.0	8.321997118723412e+17
19057.0	8.320460464149843e+17
19058.0	8.318915812436649e+17
19059.0	8.317375556354045e+17
19060.0	8.315821899470164e+17
19061.0	8.314283123976873e+17
19062.0	8.312732594645673e+17
19063.0	8.311182686071464e+17
19064.0	8.309587555909631e+17
19065.0	8.307999796538024e+17
19066.0	8.306497303172436e+17
19067.0	8.304970954003796e+17
19068.0	8.303414875608403e+17
19069.0	8.301857610224979e+17
19070.0	8.300295164876115e+17
19071.0	8.29873875792691e+17
19072.0	8.297177519139498e+17
19073.0	8.295613147206996e+17
19074.0	8.294051484794879e+17
19075.0	8.292486575991466e+17
19076.0	8.292001039166118e+17
19077.0	8.290648912997033e+17
19078.0	8.289073557580458e+17
19079.0	8.287511551235411e+17
19080.0	8.285935960937811e+17
19081.0	8.284344738469202e+17
19082.0	8.282771854895786e+17
19083.0	8.281162429147816e+17
19084.0	8.279520782756521e+17
19085.0	8.27805079384883e+17
19086.0	8.27628686811682e+17
19087.0	8.274796062878377e+17
19088.0	8.273242965235027e+17
19089.0	8.271591729266688e+17
19090.0	8.27011856666897e+17
19091.0	8.268539771923114e+17
19092.0	8.266927263361704e+17
19093.0	8.265352218323625e+17
19094.0	8.263126147399676e+17
19095.0	8.26153666556723e+17
19096.0	8.259951801663485e+17
19097.0	8.258366384111615e+17
19098.0	8.256776042446847e+17
19099.0	8.255182995455999e+17
19100.0	8.253588711145471e+17
19101.0	8.251991766248105e+17
19102.0	8.250363166938454e+17
19103.0	8.248798677565437e+17
19104.0	8.247199320943273e+17
19105.0	8.245596709541203e+17
19106.0	8.243979397103616e+17
19107.0	8.242383597251242e+17
19108.0	8.24077382197794e+17
19109.0	8.238798718631935e+17
19110.0	8.237517230134612e+17
19111.0	8.235971269798569e+17
19112.0	8.234369999175679e+17
19113.0	8.232763371028479e+17
19114.0	8.231154226298879e+17
19115.0	8.229526291087361e+17
19116.0	8.22792108061491e+17
19117.0	8.22630722568192e+17
19118.0	8.224654676896424e+17
19119.0	8.222147287012691e+17
19120.0	8.221431385030655e+17
19121.0	8.219825868374015e+17
19122.0	8.21823989297971e+17
19123.0	8.216620384124927e+17
19124.0	8.214969023725565e+17
19125.0	8.21337432977135e+17
19126.0	8.211743480916649e+17
19127.0	8.209473929041234e+17
19128.0	8.208362794997074e+17
19129.0	8.206839667053908e+17
19130.0	8.205250224368297e+17
19131.0	8.203623971072681e+17
19132.0	8.201991531178664e+17
19133.0	8.200289957969917e+17
19134.0	8.198668701488467e+17
19135.0	8.197098250611369e+17
19136.0	8.195463433945085e+17
19137.0	8.193768132618922e+17
19138.0	8.192183477032276e+17
19139.0	8.19055301824785e+17
19140.0	8.188915020901033e+17
19141.0	8.187274486000296e+17
19142.0	8.183472273926824e+17
19143.0	8.181569237112148e+17
19144.0	8.179940767825917e+17
19145.0	8.178300674725203e+17
19146.0	8.176409082768042e+17
19147.0	8.174975311675391e+17
19148.0	8.173355973388969e+17
19149.0	8.171706549359956e+17
19150.0	8.170054491308028e+17
19151.0	8.168403848134655e+17
19152.0	8.166747755162281e+17
19153.0	8.165083638486355e+17
19154.0	8.163386850978472e+17
19155.0	8.161772512302419e+17
19156.0	8.160105962930175e+17
19157.0	8.158408234500093e+17
19158.0	8.156580054827007e+17
19159.0	8.155088858120192e+17
19160.0	8.153442381288787e+17
19161.0	8.151748465481042e+17
19162.0	8.149517116724564e+17
19163.0	8.148358033397076e+17
19164.0	8.146772529162922e+17
19165.0	8.145099464638461e+17
19166.0	8.143385623090518e+17
19167.0	8.141700955723094e+17
19168.0	8.140064589960531e+17
19169.0	8.138391430365181e+17
19170.0	8.136721855501654e+17
19171.0	8.135022379444905e+17
19172.0	8.133355874811903e+17
19173.0	8.131674684522496e+17
19174.0	8.129969171464191e+17
19175.0	8.128301443492521e+17
19176.0	8.126610620284928e+17
19177.0	8.124852289754451e+17
19178.0	8.123203410984957e+17
19179.0	8.121494743810047e+17
19180.0	8.119819861753856e+17
19181.0	8.116069884144298e+17
19182.0	8.113469969312426e+17
19183.0	8.111776279997097e+17
19184.0	8.110064311904937e+17
19185.0	8.108363769096873e+17
19186.0	8.106657354263212e+17
19187.0	8.104916849524735e+17
19188.0	8.103232772156073e+17
19189.0	8.101513101923667e+17
19190.0	8.099790298546172e+17
19191.0	8.098073479042387e+17
19192.0	8.096354440751785e+17
19193.0	8.094622447654227e+17
19194.0	8.092891868037117e+17
19195.0	8.091152329386666e+17
19196.0	8.089392571394728e+17
19197.0	8.087601560245587e+17
19198.0	8.085643217338365e+17
19199.0	8.080481961290408e+17
19200.0	8.079478833370451e+17
19201.0	8.080456025112573e+17
19202.0	8.078909382503081e+17
19203.0	8.077090677762728e+17
19204.0	8.073692343610026e+17
19205.0	8.071960920937811e+17
19206.0	8.070208933593085e+17
19207.0	8.068432183077545e+17
19208.0	8.066630961594365e+17
19209.0	8.064943089778688e+17
19210.0	8.063178965516288e+17
19211.0	8.060731257782271e+17
19212.0	8.058598926756521e+17
19213.0	8.056770514998612e+17
19214.0	8.054973701728937e+17
19215.0	8.053247432458237e+17
19216.0	8.05147843161839e+17
19217.0	8.049688706722473e+17
19218.0	8.047598557812051e+17
19219.0	8.046030633304061e+17
19220.0	8.044302612212392e+17
19221.0	8.042398817626794e+17
19222.0	8.040702456539817e+17
19223.0	8.038904695357439e+17
19224.0	8.037080293354153e+17
19225.0	8.035229433681234e+17
19226.0	8.033467452708182e+17
19227.0	8.03164014125602e+17
19228.0	8.02983034102306e+17
19229.0	8.028005045633021e+17
19230.0	8.026175305678845e+17
19231.0	8.02434473525248e+17
19232.0	8.022503042930003e+17
19233.0	8.020636818123434e+17
19234.0	8.018815493341183e+17
19235.0	8.016965922717693e+17
19236.0	8.015123549519872e+17
19237.0	8.013261484064765e+17
19238.0	8.011365351074473e+17
19239.0	8.009542453428224e+17
19240.0	8.007656452478291e+17
19241.0	8.005783495813804e+17
19242.0	8.003915376579924e+17
19243.0	8.001963929108479e+17
19244.0	8.000154622405289e+17
19245.0	7.998261431020202e+17
19246.0	7.9963563781434e+17
19247.0	7.993169439708502e+17
19248.0	7.991000885275306e+17
19249.0	7.989079299850237e+17
19250.0	7.987150807804585e+17
19251.0	7.985172565721085e+17
19252.0	7.983154096067922e+17
19253.0	7.981336476254208e+17
19254.0	7.979388536619008e+17
19255.0	7.977352277524476e+17
19256.0	7.975462338123094e+17
19257.0	7.973508327931903e+17
19258.0	7.971534675815081e+17
19259.0	7.969521755226111e+17
19260.0	7.967495303812438e+17
19261.0	7.965575840705194e+17
19262.0	7.963555185819647e+17
19263.0	7.961543590630739e+17
19264.0	7.959374918757033e+17
19265.0	7.957471616303103e+17
19266.0	7.955466541858815e+17
19267.0	7.953486356414463e+17
19268.0	7.949648364131671e+17
19269.0	7.947236629544957e+17
19270.0	7.945167678646952e+17
19271.0	7.942979345274195e+17
19272.0	7.940994607611901e+17
19273.0	7.938343227271849e+17
19274.0	7.936399797911548e+17
19275.0	7.934691243982847e+17
19276.0	7.932565264531455e+17
19277.0	7.930444396538538e+17
19278.0	7.928306257799849e+17
19279.0	7.926157616523944e+17
19280.0	7.923976312804691e+17
19281.0	7.921836619377322e+17
19282.0	7.916851870826496e+17
19283.0	7.914550882642602e+17
19284.0	7.912312335062356e+17
19285.0	7.910110248566783e+17
19286.0	7.907918069017257e+17
19287.0	7.905692711124991e+17
19288.0	7.902232793404755e+17
19289.0	7.898396601876475e+17
19290.0	7.898927747563519e+17
19291.0	7.896553171714047e+17
19292.0	7.893733799712084e+17
19293.0	7.888375839195135e+17
19294.0	7.886048951184041e+17
19295.0	7.88370920902929e+17
19296.0	7.881357994054995e+17
19297.0	7.878994997280765e+17
19298.0	7.876614472510118e+17
19299.0	7.874236697804797e+17
19300.0	7.871838790440276e+17
19301.0	7.869313331494912e+17
19302.0	7.862396543915346e+17
19303.0	7.859917367716518e+17
19304.0	7.857465894895615e+17
19305.0	7.854991231767892e+17
19306.0	7.852507102096042e+17
19307.0	7.84997687702323e+17
19308.0	7.847446008823807e+17
19309.0	7.843857823694843e+17
19310.0	7.836514864070653e+17
19311.0	7.833996318736383e+17
19312.0	7.831351428382716e+17
19313.0	7.828659068294483e+17
19314.0	7.823980589219839e+17
19315.0	7.820689778846383e+17
19316.0	7.813769469449556e+17
19317.0	7.81096149057536e+17
19318.0	7.808109660252841e+17
19319.0	7.805250032719191e+17
19320.0	7.802359317004288e+17
19321.0	7.79610432069086e+17
19322.0	7.792530424157523e+17
19323.0	7.789534485938175e+17
19324.0	7.786552351173289e+17
19325.0	7.783460187231572e+17
19326.0	7.780456720236543e+17
19327.0	7.777378774985385e+17
19328.0	7.774253515188906e+17
19329.0	7.771044956514982e+17
19330.0	7.76787232624913e+17
19331.0	7.764681329126057e+17
19332.0	7.761486074784426e+17
19333.0	7.758258398472873e+17
19334.0	7.755004723068927e+17
19335.0	7.751725790964393e+17
19336.0	7.748416689231187e+17
19337.0	7.745078986539007e+17
19338.0	7.741636370322772e+17
19339.0	7.738306253728425e+17
19340.0	7.734852149313535e+17
19341.0	7.731387749280425e+17
19342.0	7.727773604205908e+17
19343.0	7.724363967802025e+17
19344.0	7.72079831307605e+17
19345.0	7.716586269966333e+17
19346.0	7.713281496754854e+17
19347.0	7.709884736864253e+17
19348.0	7.706210372769106e+17
19349.0	7.7024650592256e+17
19350.0	7.698692506473811e+17
19351.0	7.694881735223977e+17
19352.0	7.691015462147412e+17
19353.0	7.687154490671103e+17
19354.0	7.683226578102953e+17
19355.0	7.679226945732607e+17
19356.0	7.675243789986474e+17
19357.0	7.671120364131667e+17
19358.0	7.666719074025472e+17
19359.0	7.662518925961897e+17
19360.0	7.658311458837846e+17
19361.0	7.65405804171537e+17
19362.0	7.649755299577855e+17
19363.0	7.645391605814612e+17
19364.0	7.640984598872063e+17
19365.0	7.636533172852054e+17
19366.0	7.632036846807722e+17
19367.0	7.62749450924851e+17
19368.0	7.622904127335084e+17
19369.0	7.618245021750611e+17
19370.0	7.613253611246931e+17
19371.0	7.608155143929855e+17
19372.0	7.603372583201449e+17
19373.0	7.598507575039315e+17
19374.0	7.593597978629459e+17
19375.0	7.588619323004242e+17
19376.0	7.583529693085696e+17
19377.0	7.578308355031036e+17
19378.0	7.573006637334525e+17
19379.0	7.566766694378154e+17
19380.0	7.561050966720511e+17
19381.0	7.555482836620627e+17
19382.0	7.549789010220372e+17
19383.0	7.544015218016255e+17
19384.0	7.538173578750633e+17
19385.0	7.530653566369792e+17
19386.0	7.524404558124372e+17
19387.0	7.518149858208424e+17
19388.0	7.511758348484607e+17
19389.0	7.504528601513981e+17
19390.0	7.496237032931325e+17
19391.0	7.486411459177125e+17
19392.0	7.482234519595688e+17
19393.0	7.473534153173676e+17
19394.0	7.464620939804672e+17
19395.0	7.456837536317437e+17
19396.0	7.447937625882619e+17
19397.0	7.437068141592575e+17
19398.0	7.428691976694441e+17
19399.0	7.418325400638803e+17
19400.0	7.406997594963968e+17
19401.0	7.398049276668586e+17
19402.0	7.384844981327187e+17
19403.0	7.374414977608362e+17
19404.0	7.361998462036645e+17
19405.0	7.349194308889257e+17
19406.0	7.335980622501204e+17
19407.0	7.321590099694932e+17
19408.0	7.307092328535383e+17
19409.0	7.291906533534378e+17
19410.0	7.278313735192577e+17
19411.0	7.264540799882578e+17
19412.0	7.252310276527444e+17
19413.0	7.239686985962836e+17
19414.0	7.226082651886931e+17
19415.0	7.212193647602348e+17
19416.0	7.197941423581866e+17
19417.0	7.183312697862824e+17
19418.0	7.16790712972083e+17
19419.0	7.151920113603923e+17
19420.0	7.136003633097385e+17
19421.0	7.119421207565654e+17
19422.0	7.100719748349952e+17
19423.0	7.082074346007208e+17
19424.0	7.061923760351914e+17
19425.0	7.040241333086889e+17
19426.0	7.018226425440936e+17
19427.0	6.993706376757249e+17
19428.0	6.969408194871295e+17
19429.0	6.943150199275516e+17
19430.0	6.915996341589334e+17
19431.0	6.886497854685183e+17
19432.0	6.855389302401704e+17
19433.0	6.822967014413654e+17
19434.0	6.78722765132049e+17
19435.0	6.751063726096381e+17
19436.0	6.712135460235946e+17
19437.0	6.669753036832767e+17
19438.0	6.623056857748818e+17
19439.0	6.577573621749079e+17
19440.0	6.5259437045405e+17
19441.0	6.470213546890578e+17
19442.0	6.409775641613654e+17
19443.0	6.344288959638185e+17
19444.0	6.27281140016742e+17
19445.0	6.194895333097473e+17
19446.0	6.109456904137386e+17
19447.0	6.015457449825617e+17
19448.0	5.911299523346436e+17
19449.0	5.794394911976105e+17
19450.0	5.6582725239657715e+17
19451.0	5.588828855904944e+17
19452.0	5.7291591766070605e+17
19453.0	5.85226862041498e+17
19454.0	5.960013794596175e+17
19455.0	6.05650284585506e+17
19456.0	6.1436458406598e+17
19457.0	6.222846737689254e+17
19458.0	6.293742200466092e+17
19459.0	6.360812342651565e+17
19460.0	6.421282477659474e+17
19461.0	6.476675967614975e+17
19462.0	6.527844430293676e+17
19463.0	6.574765038196052e+17
19464.0	6.61818088567603e+17
19465.0	6.658942078462634e+17
19466.0	6.697362526655826e+17
19467.0	6.731866161108308e+17
19468.0	6.76510170436949e+17
19469.0	6.796511966221651e+17
19470.0	6.825446072472914e+17
19471.0	6.853863746655572e+17
19472.0	6.878308255924221e+17
19473.0	6.903084387838634e+17
19474.0	6.925095070422358e+17
19475.0	6.94690045720439e+17
19476.0	6.967351113154559e+17
19477.0	6.986304824104276e+17
19478.0	7.00485047890739e+17
19479.0	7.021219975703209e+17
19480.0	7.037139222353236e+17
19481.0	7.052005710583123e+17
19482.0	7.065388986662911e+17
19483.0	7.07842630816017e+17
19484.0	7.091665453973501e+17
19485.0	7.103727497729364e+17
19486.0	7.115355514907306e+17
19487.0	7.126548740745897e+17
19488.0	7.137658109864617e+17
19489.0	7.147797680401066e+17
19490.0	7.157133334282237e+17
19491.0	7.166902343652694e+17
19492.0	7.179394190322345e+17
19493.0	7.189015985214807e+17
19494.0	7.203402313717075e+17
19495.0	7.212439189149014e+17
19496.0	7.225549855042217e+17
19497.0	7.233317949319855e+17
19498.0	7.244921407449769e+17
19499.0	7.247495650344956e+17
19500.0	7.262193263312893e+17
19501.0	7.269469562863616e+17
19502.0	7.276329595917651e+17
19503.0	7.285462680294739e+17
19504.0	7.291048448841046e+17
19505.0	7.297574384609962e+17
19506.0	7.305120375111679e+17
19507.0	7.310105982096726e+17
19508.0	7.315022001384105e+17
19509.0	7.322182655584938e+17
19510.0	7.326368260598441e+17
19511.0	7.326428391538684e+17
19512.0	7.334213237866492e+17
19513.0	7.338864096051197e+17
19514.0	7.342833802062505e+17
19515.0	7.347112429748224e+17
19516.0	7.350569468777812e+17
19517.0	7.354707974553599e+17
19518.0	7.35834813829393e+17
19519.0	7.361267242456404e+17
19520.0	7.364075077326163e+17
19521.0	7.366793495227049e+17
19522.0	7.369401061867519e+17
19523.0	7.372702968971261e+17
19524.0	7.375405887520768e+17
19525.0	7.377753854705663e+17
19526.0	7.380010616750079e+17
19527.0	7.38212343587362e+17
19528.0	7.384160237431464e+17
19529.0	7.386135544900264e+17
19530.0	7.388051795170644e+17
19531.0	7.389920024854527e+17
19532.0	7.392323537207296e+17
19533.0	7.394068615135232e+17
19534.0	7.395761775968255e+17
19535.0	7.397404630319103e+17
19536.0	7.398984564517548e+17
19537.0	7.40054467224098e+17
19538.0	7.402008654905343e+17
19539.0	7.40333605425425e+17
19540.0	7.404898179437908e+17
19541.0	7.406260822125224e+17
19542.0	7.40756493050402e+17
19543.0	7.408827573993471e+17
19544.0	7.410061781499903e+17
19545.0	7.411348463943679e+17
19546.0	7.412324398792701e+17
19547.0	7.413652525154303e+17
19548.0	7.414663095167657e+17
19549.0	7.415593478477139e+17
19550.0	7.4165581278522e+17
19551.0	7.417445676133034e+17
19552.0	7.418293303028394e+17
19553.0	7.419095859331071e+17
19554.0	7.419864606747304e+17
19555.0	7.42061252105557e+17
19556.0	7.42131298939699e+17
19557.0	7.421977183999315e+17
19558.0	7.422609048906408e+17
19559.0	7.423207163647315e+17
19560.0	7.42376198058803e+17
19561.0	7.42430645437508e+17
19562.0	7.42480835318033e+17
19563.0	7.425279012809386e+17
19564.0	7.425715199453866e+17
19565.0	7.42611258319394e+17
19566.0	7.426475562456403e+17
19567.0	7.42682209165858e+17
19568.0	7.427123122449066e+17
19569.0	7.427417638087338e+17
19570.0	7.427686400699049e+17
19571.0	7.42792844279808e+17
19572.0	7.428133800116223e+17
19573.0	7.428330299064319e+17
19574.0	7.428464669185364e+17
19575.0	7.428684331876352e+17
19576.0	7.428844087323305e+17
19577.0	7.428932090811731e+17
19578.0	7.428988311262547e+17
19579.0	7.429034977088851e+17
19580.0	7.429056372233556e+17
19581.0	7.432472983764992e+17
19582.0	7.432544805628585e+17
19583.0	7.43246500480068e+17
19584.0	7.432362623238143e+17
19585.0	7.432198585406804e+17
19586.0	7.436161716147538e+17
19587.0	7.437888313972054e+17
19588.0	7.437513171227987e+17
19589.0	7.437407595003901e+17
19590.0	7.437118786415274e+17
19591.0	7.436855160427859e+17
19592.0	7.439379142978221e+17
19593.0	7.441190713207466e+17
19594.0	7.440705780361897e+17
19595.0	7.440348660542121e+17
19596.0	7.439572746458451e+17
19597.0	7.439429295669247e+17
19598.0	7.438870603191638e+17
19599.0	7.43847031279889e+17
19600.0	7.440609660895233e+17
19601.0	7.441503239187114e+17
19602.0	7.440954340409343e+17
19603.0	7.440227116602708e+17
19604.0	7.439808241248936e+17
19605.0	7.439141204306602e+17
19606.0	7.438661858273961e+17
19607.0	7.438056632789674e+17
19608.0	7.437437064183805e+17
19609.0	7.438015237805395e+17
19610.0	7.439414296838143e+17
19611.0	7.438740788084733e+17
19612.0	7.438060648136701e+17
19613.0	7.437368301365929e+17
19614.0	7.436648038705833e+17
19615.0	7.435952002345641e+17
19616.0	7.435199173711187e+17
19617.0	7.43449782456593e+17
19618.0	7.433555743342591e+17
19619.0	7.432755156964692e+17
19620.0	7.432855435782822e+17
19621.0	7.433973877702655e+17
19622.0	7.433184347510099e+17
19623.0	7.432384286818303e+17
19624.0	7.43157550616849e+17
19625.0	7.430757728736595e+17
19626.0	7.429930688883369e+17
19627.0	7.429088591478783e+17
19628.0	7.428156088647679e+17
19629.0	7.427323968094207e+17
19630.0	7.425911183900671e+17
19631.0	7.42169603141359e+17
19632.0	7.424702426032809e+17
19633.0	7.423884651397119e+17
19634.0	7.423172781539325e+17
19635.0	7.423939840049152e+17
19636.0	7.423043097853952e+17
19637.0	7.421944009850879e+17
19638.0	7.421185737009833e+17
19639.0	7.420244286330196e+17
19640.0	7.419272246591488e+17
19641.0	7.418149576813225e+17
19642.0	7.417403429705044e+17
19643.0	7.416440410516138e+17
19644.0	7.415445653028861e+17
19645.0	7.414401834767699e+17
19646.0	7.413519491618131e+17
19647.0	7.412534810247168e+17
19648.0	7.411543673842345e+17
19649.0	7.410546081005568e+17
19650.0	7.409544728674303e+17
19651.0	7.408537273630719e+17
19652.0	7.407524482034345e+17
19653.0	7.406505851966802e+17
19654.0	7.405483455414271e+17
19655.0	7.404453613972136e+17
19656.0	7.403695503310845e+17
19657.0	7.403663955154262e+17
19658.0	7.402613755958611e+17
19659.0	7.401558325067775e+17
19660.0	7.400499660368553e+17
19661.0	7.399436184802644e+17
19662.0	7.398367999033344e+17
19663.0	7.397277315017385e+17
19664.0	7.396206985958739e+17
19665.0	7.395141051132585e+17
