# Flux units: erg / (cm m2 s)
# Wavelength units: Angstrom
wave	flux
19000.0	6.746160467279871e+17
19001.0	6.74482085761297e+17
19002.0	6.743665697357823e+17
19003.0	6.742418813965652e+17
19004.0	6.741207309527722e+17
19005.0	6.739954264702975e+17
19006.0	6.738712060056916e+17
19007.0	6.737450365878271e+17
19008.0	6.736163379347455e+17
19009.0	6.734858682367997e+17
19010.0	6.733321147689641e+17
19011.0	6.732425319153661e+17
19012.0	6.730991728416084e+17
19013.0	6.729957090088276e+17
19014.0	6.728658464363859e+17
19015.0	6.727426435798355e+17
19016.0	6.726174232630612e+17
19017.0	6.724966809250474e+17
19018.0	6.723702521593855e+17
19019.0	6.72246158991906e+17
19020.0	6.721199590255274e+17
19021.0	6.719968297091072e+17
19022.0	6.718714537836543e+17
19023.0	6.717432097931261e+17
19024.0	6.716201430417408e+17
19025.0	6.714954979737599e+17
19026.0	6.713677075972095e+17
19027.0	6.712314489208832e+17
19028.0	6.711215351573161e+17
19029.0	6.709959247702697e+17
19030.0	6.708731994352297e+17
19031.0	6.707481242413738e+17
19032.0	6.706225122465108e+17
19033.0	6.704887781916671e+17
19034.0	6.703685054758912e+17
19035.0	6.702212843569151e+17
19036.0	6.690485169029115e+17
19037.0	6.699794668628649e+17
19038.0	6.698683406658218e+17
19039.0	6.697479186328233e+17
19040.0	6.69623783592209e+17
19041.0	6.694984642199551e+17
19042.0	6.69360478888482e+17
19043.0	6.692498060257961e+17
19044.0	6.691238306643967e+17
19045.0	6.689992859800915e+17
19046.0	6.688708257731923e+17
19047.0	6.687472972988415e+17
19048.0	6.686066856340136e+17
19049.0	6.684821491985065e+17
19050.0	6.683678317652649e+17
19051.0	6.680852485024424e+17
19052.0	6.680795515890346e+17
19053.0	6.679994612842495e+17
19054.0	6.678763147711828e+17
19055.0	6.677268409614336e+17
19056.0	6.676240907894783e+17
19057.0	6.675019918737407e+17
19058.0	6.673712459109716e+17
19059.0	6.67250968441651e+17
19060.0	6.671269167278761e+17
19061.0	6.670039579099135e+17
19062.0	6.668788502801065e+17
19063.0	6.667541406897491e+17
19064.0	6.666197026908841e+17
19065.0	6.664886551576575e+17
19066.0	6.663728203650388e+17
19067.0	6.662552752750591e+17
19068.0	6.661312775279956e+17
19069.0	6.660067408128681e+17
19070.0	6.658800091485523e+17
19071.0	6.657569134564691e+17
19072.0	6.656307408229715e+17
19073.0	6.655080210803369e+17
19074.0	6.653838488502271e+17
19075.0	6.652592670463314e+17
19076.0	6.651331518048938e+17
19077.0	6.650086631145471e+17
19078.0	6.648827267601748e+17
19079.0	6.647610092464808e+17
19080.0	6.646352663893332e+17
19081.0	6.645077828960255e+17
19082.0	6.643842142262611e+17
19083.0	6.642527420896596e+17
19084.0	6.64116981277218e+17
19085.0	6.640132884354388e+17
19086.0	6.638472323749203e+17
19087.0	6.637384023496019e+17
19088.0	6.636188212046505e+17
19089.0	6.634829579113812e+17
19090.0	6.633818752548863e+17
19091.0	6.632595561381887e+17
19092.0	6.631251787470166e+17
19093.0	6.630143630682793e+17
19094.0	6.628908270441812e+17
19095.0	6.627667021398015e+17
19096.0	6.626412535130794e+17
19097.0	6.62517954187537e+17
19098.0	6.623916187451391e+17
19099.0	6.622669341807955e+17
19100.0	6.621430471633578e+17
19101.0	6.620200777897299e+17
19102.0	6.618879199543295e+17
19103.0	6.617724611810644e+17
19104.0	6.616485310322004e+17
19105.0	6.615183870219604e+17
19106.0	6.613958586793983e+17
19107.0	6.612719159476223e+17
19108.0	6.611456881590271e+17
19109.0	6.609598208628052e+17
19110.0	6.608897485832191e+17
19111.0	6.607765055908521e+17
19112.0	6.60653304062498e+17
19113.0	6.605314397481642e+17
19114.0	6.604060991946751e+17
19115.0	6.60277000544802e+17
19116.0	6.601569906021715e+17
19117.0	6.600324661204308e+17
19118.0	6.598973315874815e+17
19119.0	6.593645567628623e+17
19120.0	6.596505994177193e+17
19121.0	6.595316236506452e+17
19122.0	6.594153990673748e+17
19123.0	6.592916633245011e+17
19124.0	6.591610947807914e+17
19125.0	6.590428640619178e+17
19126.0	6.589153538648746e+17
19127.0	6.586482164760575e+17
19128.0	6.586591103418365e+17
19129.0	6.585398012674047e+17
19130.0	6.584230758842367e+17
19131.0	6.583006598092116e+17
19132.0	6.581766654175914e+17
19133.0	6.580466967991635e+17
19134.0	6.579250785506644e+17
19135.0	6.578051390723411e+17
19136.0	6.576816492554921e+17
19137.0	6.575452925023571e+17
19138.0	6.574327698817023e+17
19139.0	6.573107671553364e+17
19140.0	6.571873258526036e+17
19141.0	6.570636488299859e+17
19142.0	6.569375969225386e+17
19143.0	6.568118874800127e+17
19144.0	6.56688774521378e+17
19145.0	6.565688660109993e+17
19146.0	6.563888321527809e+17
19147.0	6.5631435634333e+17
19148.0	6.56195596722722e+17
19149.0	6.560711697585491e+17
19150.0	6.559501642978644e+17
19151.0	6.558269684318208e+17
19152.0	6.557019172154025e+17
19153.0	6.555735627748691e+17
19154.0	6.554452815249408e+17
19155.0	6.553313768112127e+17
19156.0	6.552069018222591e+17
19157.0	6.550749956450986e+17
19158.0	6.549193385923923e+17
19159.0	6.548305618141183e+17
19160.0	6.547101712383999e+17
19161.0	6.545835303108608e+17
19162.0	6.543610138853376e+17
19163.0	6.543231169505961e+17
19164.0	6.542177241574057e+17
19165.0	6.540893522406057e+17
19166.0	6.53960632406289e+17
19167.0	6.538393836759721e+17
19168.0	6.537241990703786e+17
19169.0	6.536011401483603e+17
19170.0	6.534791194563923e+17
19171.0	6.533515153069395e+17
19172.0	6.532312826467668e+17
19173.0	6.531094284686675e+17
19174.0	6.529820657014102e+17
19175.0	6.528633012573523e+17
19176.0	6.527400162623487e+17
19177.0	6.526021810170536e+17
19178.0	6.524885235575466e+17
19179.0	6.523621098913791e+17
19180.0	6.522443796927827e+17
19181.0	6.52112599973888e+17
19182.0	6.519980931678208e+17
19183.0	6.518764858245119e+17
19184.0	6.517526870272681e+17
19185.0	6.516287101119145e+17
19186.0	6.515061963795113e+17
19187.0	6.513763761695402e+17
19188.0	6.512591055268521e+17
19189.0	6.511356822596265e+17
19190.0	6.510113314919764e+17
19191.0	6.508847327171926e+17
19192.0	6.507648257447252e+17
19193.0	6.506399892766719e+17
19194.0	6.505139114344447e+17
19195.0	6.503904495796223e+17
19196.0	6.502611777748991e+17
19197.0	6.501279584310611e+17
19198.0	6.499607648053929e+17
19199.0	6.491850489025875e+17
19200.0	6.49194172772079e+17
19201.0	6.495976478299475e+17
19202.0	6.495131880390655e+17
19203.0	6.493976264354473e+17
19204.0	6.492787257464148e+17
19205.0	6.491582203166719e+17
19206.0	6.490362708579668e+17
19207.0	6.489036248754857e+17
19208.0	6.487734211663187e+17
19209.0	6.48667473326899e+17
19210.0	6.485447876979369e+17
19211.0	6.484222951467689e+17
19212.0	6.482984369302185e+17
19213.0	6.481626297707177e+17
19214.0	6.480366284745385e+17
19215.0	6.479248763475284e+17
19216.0	6.478046416601087e+17
19217.0	6.476795337506815e+17
19218.0	6.474918247355731e+17
19219.0	6.474173759793833e+17
19220.0	6.473081469359444e+17
19221.0	6.47163193467426e+17
19222.0	6.470613863847252e+17
19223.0	6.46938883138082e+17
19224.0	6.468127153280339e+17
19225.0	6.46682167616034e+17
19226.0	6.465680975768233e+17
19227.0	6.464352308341417e+17
19228.0	6.463070724074153e+17
19229.0	6.461832933933055e+17
19230.0	6.460593923948543e+17
19231.0	6.459346596659199e+17
19232.0	6.458114148663295e+17
19233.0	6.45681964524066e+17
19234.0	6.455628455914153e+17
19235.0	6.454379222313641e+17
19236.0	6.453168098159273e+17
19237.0	6.451916643674793e+17
19238.0	6.450600618579283e+17
19239.0	6.449452054566228e+17
19240.0	6.448206440650068e+17
19241.0	6.446950482881193e+17
19242.0	6.445717492421972e+17
19243.0	6.444339026722815e+17
19244.0	6.443251884796585e+17
19245.0	6.442004013645823e+17
19246.0	6.440754053731667e+17
19247.0	6.439523700091561e+17
19248.0	6.438282718085119e+17
19249.0	6.437032802211158e+17
19250.0	6.435766841027242e+17
19251.0	6.434451878488745e+17
19252.0	6.433028543523498e+17
19253.0	6.43203818656017e+17
19254.0	6.430813969186815e+17
19255.0	6.429385858307411e+17
19256.0	6.428300532514815e+17
19257.0	6.427073849589759e+17
19258.0	6.425824649543679e+17
19259.0	6.424502302932991e+17
19260.0	6.423099158648147e+17
19261.0	6.422060184808105e+17
19262.0	6.420766451040255e+17
19263.0	6.419494189312681e+17
19264.0	6.417859581662548e+17
19265.0	6.416887003654825e+17
19266.0	6.415545865863167e+17
19267.0	6.4144034248349e+17
19268.0	6.413149167157247e+17
19269.0	6.411891851132927e+17
19270.0	6.410618831634431e+17
19271.0	6.409096155977044e+17
19272.0	6.408079480455167e+17
19273.0	6.406453477419689e+17
19274.0	6.405132964418899e+17
19275.0	6.404332321417897e+17
19276.0	6.403054532296703e+17
19277.0	6.401795495908692e+17
19278.0	6.400533568946175e+17
19279.0	6.399247193385642e+17
19280.0	6.397936520222036e+17
19281.0	6.396716966215679e+17
19282.0	6.395455410449066e+17
19283.0	6.39411954909184e+17
19284.0	6.39284667359778e+17
19285.0	6.391508557802153e+17
19286.0	6.390313624360276e+17
19287.0	6.389036409858729e+17
19288.0	6.384512669843453e+17
19289.0	6.379266868510708e+17
19290.0	6.384976530505727e+17
19291.0	6.383511793565695e+17
19292.0	6.382477841705642e+17
19293.0	6.381192706260991e+17
19294.0	6.379901631681875e+17
19295.0	6.378624620604073e+17
19296.0	6.377301531601577e+17
19297.0	6.376019278342825e+17
19298.0	6.374720299597823e+17
19299.0	6.373418663761235e+17
19300.0	6.372144020368042e+17
19301.0	6.370842185302015e+17
19302.0	6.369528232891732e+17
19303.0	6.36792527196433e+17
19304.0	6.366617079032489e+17
19305.0	6.365312727384063e+17
19306.0	6.36400305316386e+17
19307.0	6.362642083304788e+17
19308.0	6.361304003859796e+17
19309.0	6.359681835816275e+17
19310.0	6.358250611365204e+17
19311.0	6.357192796012543e+17
19312.0	6.355930181184169e+17
19313.0	6.354520438560084e+17
19314.0	6.341352231010296e+17
19315.0	6.341044149594812e+17
19316.0	6.350302822618451e+17
19317.0	6.349053657524905e+17
19318.0	6.347714667216895e+17
19319.0	6.346383675446612e+17
19320.0	6.345015557095423e+17
19321.0	6.343637215128233e+17
19322.0	6.342209939614376e+17
19323.0	6.340835136241664e+17
19324.0	6.339511362868564e+17
19325.0	6.337998948575914e+17
19326.0	6.336761207368361e+17
19327.0	6.33539229978897e+17
19328.0	6.333970239193087e+17
19329.0	6.332623767644842e+17
19330.0	6.331192384509267e+17
19331.0	6.329768232353792e+17
19332.0	6.328399391883263e+17
19333.0	6.326968196792317e+17
19334.0	6.325499703154004e+17
19335.0	6.323826670785876e+17
19336.0	6.322478801835348e+17
19337.0	6.321031138508799e+17
19338.0	6.319392231697065e+17
19339.0	6.318120775275859e+17
19340.0	6.316560520751785e+17
19341.0	6.315100598872746e+17
19342.0	6.313376068840105e+17
19343.0	6.312192231429462e+17
19344.0	6.310643639866708e+17
19345.0	6.307542035944786e+17
19346.0	6.306834977652733e+17
19347.0	6.306039120352596e+17
19348.0	6.30453421805841e+17
19349.0	6.30271294570496e+17
19350.0	6.301146150862847e+17
19351.0	6.299581822271487e+17
19352.0	6.297924603128489e+17
19353.0	6.296445295176361e+17
19354.0	6.29484165337361e+17
19355.0	6.293133444775936e+17
19356.0	6.29158814224657e+17
19357.0	6.289805272241491e+17
19358.0	6.28773588373777e+17
19359.0	6.285936151931562e+17
19360.0	6.284216734755497e+17
19361.0	6.282560085338794e+17
19362.0	6.280873431968425e+17
19363.0	6.27913933263121e+17
19364.0	6.277267102280361e+17
19365.0	6.274935346779476e+17
19366.0	6.273144193023999e+17
19367.0	6.27133306179857e+17
19368.0	6.269500595546794e+17
19369.0	6.267595404257962e+17
19370.0	6.265380623701334e+17
19371.0	6.262882125742079e+17
19372.0	6.261000221928106e+17
19373.0	6.259024459377322e+17
19374.0	6.257048872987306e+17
19375.0	6.253937286621866e+17
19376.0	6.25183048143121e+17
19377.0	6.249744115782995e+17
19378.0	6.247356158705663e+17
19379.0	6.243889058239828e+17
19380.0	6.241533579056467e+17
19381.0	6.239317942162771e+17
19382.0	6.23531955130641e+17
19383.0	6.232947959005183e+17
19384.0	6.230630680843603e+17
19385.0	6.227311630221312e+17
19386.0	6.224918732952916e+17
19387.0	6.222475078314666e+17
19388.0	6.219981604432553e+17
19389.0	6.2168368690845e+17
19390.0	6.214079463030783e+17
19391.0	6.202306201299613e+17
19392.0	6.208331393094995e+17
19393.0	6.206014097457151e+17
19394.0	6.20321740755217e+17
19395.0	6.200049390321664e+17
19396.0	6.196265389217108e+17
19397.0	6.193245471462739e+17
19398.0	6.190076322469203e+17
19399.0	6.186315847914835e+17
19400.0	6.182186333328724e+17
19401.0	6.178477201948671e+17
19402.0	6.174939198171818e+17
19403.0	6.170712144347133e+17
19404.0	6.165166111937876e+17
19405.0	6.161157839301289e+17
19406.0	6.155779962131798e+17
19407.0	6.149432520562004e+17
19408.0	6.144345228268884e+17
19409.0	6.136894159060988e+17
19410.0	6.131738178748416e+17
19411.0	6.123150114815999e+17
19412.0	6.117109638277802e+17
19413.0	6.106926092561071e+17
19414.0	6.099360086141606e+17
19415.0	6.088375170411178e+17
19416.0	6.077305158544036e+17
19417.0	6.067614162528934e+17
19418.0	6.058149895908009e+17
19419.0	6.050595012782761e+17
19420.0	6.043670757943978e+17
19421.0	6.036405757848234e+17
19422.0	6.027547519920809e+17
19423.0	6.019765055957673e+17
19424.0	6.009631783168682e+17
19425.0	6.000462355147432e+17
19426.0	5.98836751123524e+17
19427.0	5.976358946253477e+17
19428.0	5.962796444068527e+17
19429.0	5.947025273825961e+17
19430.0	5.928526067444392e+17
19431.0	5.907835198111752e+17
19432.0	5.886894664930637e+17
19433.0	5.860691319717897e+17
19434.0	5.832730909955411e+17
19435.0	5.809704564075176e+17
19436.0	5.789495411955028e+17
19437.0	5.768025540132863e+17
19438.0	5.7315027998911136e+17
19439.0	5.7183475073024006e+17
19440.0	5.6908470001773203e+17
19441.0	5.6577077923894586e+17
19442.0	5.619074109975213e+17
19443.0	5.573943175238997e+17
19444.0	5.5211737040814035e+17
19445.0	5.457309107661484e+17
19446.0	5.3795767371257184e+17
19447.0	5.28343168031129e+17
19448.0	5.156735661987162e+17
19449.0	4.976113752560981e+17
19450.0	4.6665164121265485e+17
19451.0	4.46292210745346e+17
19452.0	4.846983495112018e+17
19453.0	5.075111902882482e+17
19454.0	5.221389866893306e+17
19455.0	5.3283562133476685e+17
19456.0	5.41209545006558e+17
19457.0	5.479747714110801e+17
19458.0	5.5110658117250106e+17
19459.0	5.581661762748421e+17
19460.0	5.6220220373947706e+17
19461.0	5.6552342547333094e+17
19462.0	5.683718946204331e+17
19463.0	5.7083820870642323e+17
19464.0	5.730475621832021e+17
19465.0	5.7511007517409274e+17
19466.0	5.769645152447145e+17
19467.0	5.788384607163727e+17
19468.0	5.812206893531136e+17
19469.0	5.836785153561943e+17
19470.0	5.858725878650191e+17
19471.0	5.877488137098579e+17
19472.0	5.893909276961452e+17
19473.0	5.908062787338241e+17
19474.0	5.91999100343637e+17
19475.0	5.931409829702312e+17
19476.0	5.940765287688876e+17
19477.0	5.949030226635434e+17
19478.0	5.956727061086205e+17
19479.0	5.963109168578557e+17
19480.0	5.969118261936127e+17
19481.0	5.974962405201236e+17
19482.0	5.979738220090708e+17
19483.0	5.984709808313684e+17
19484.0	5.990660036012712e+17
19485.0	5.997539460732244e+17
19486.0	6.007704197791745e+17
19487.0	6.014283888459781e+17
19488.0	6.022193750212607e+17
19489.0	6.028317543104511e+17
19490.0	6.032307640423763e+17
19491.0	6.039433293856772e+17
19492.0	6.043141736671913e+17
19493.0	6.047842186909011e+17
19494.0	6.051466726866943e+17
19495.0	6.054055517006508e+17
19496.0	6.058203281009321e+17
19497.0	6.060287097918803e+17
19498.0	6.060895029428225e+17
19499.0	6.050828908844364e+17
19500.0	6.06676168282385e+17
19501.0	6.068058432995327e+17
19502.0	6.070279298788009e+17
19503.0	6.071710089128618e+17
19504.0	6.072572167498409e+17
19505.0	6.073344366127786e+17
19506.0	6.074238105900372e+17
19507.0	6.075690724098047e+17
19508.0	6.076239212533076e+17
19509.0	6.076692768489472e+17
19510.0	6.076851280325289e+17
19511.0	6.056500081109659e+17
19512.0	6.075171572023291e+17
19513.0	6.07391320882107e+17
19514.0	6.075671175845201e+17
19515.0	6.07858748100881e+17
19516.0	6.079150137802751e+17
19517.0	6.07960947490816e+17
19518.0	6.080267660470953e+17
19519.0	6.080246177944916e+17
19520.0	6.081006420710742e+17
19521.0	6.081805711747754e+17
19522.0	6.081659061403647e+17
19523.0	6.082007420021417e+17
19524.0	6.083004581543935e+17
19525.0	6.082801836578131e+17
19526.0	6.08255692837137e+17
19527.0	6.082734196435624e+17
19528.0	6.083040317713066e+17
19529.0	6.082703430516735e+17
19530.0	6.082345087358292e+17
19531.0	6.08195143864593e+17
19532.0	6.082337333488297e+17
19533.0	6.081931616365225e+17
19534.0	6.081460786866857e+17
19535.0	6.08096065036834e+17
19536.0	6.080439485726719e+17
19537.0	6.07994123456785e+17
19538.0	6.079838318231551e+17
19539.0	6.079009127399423e+17
19540.0	6.078836714242047e+17
19541.0	6.078262571346601e+17
19542.0	6.077643119482195e+17
19543.0	6.076981126889471e+17
19544.0	6.076363050057727e+17
19545.0	6.075622407274495e+17
19546.0	6.074872069357568e+17
19547.0	6.074922099714729e+17
19548.0	6.07423475884578e+17
19549.0	6.073435300036607e+17
19550.0	6.072803960116563e+17
19551.0	6.072072242812243e+17
19552.0	6.071326095005012e+17
19553.0	6.070550354285908e+17
19554.0	6.069880478498815e+17
19555.0	6.069303628180137e+17
19556.0	6.068532829749247e+17
19557.0	6.067736549523455e+17
19558.0	6.066932600012799e+17
19559.0	6.066121033646079e+17
19560.0	6.065259851459242e+17
19561.0	6.064442493457747e+17
19562.0	6.063618117686612e+17
19563.0	6.062785895071744e+17
19564.0	6.061932841446057e+17
19565.0	6.061073558579882e+17
19566.0	6.060182215852031e+17
19567.0	6.05933459874338e+17
19568.0	6.058433391711571e+17
19569.0	6.057599018117802e+17
19570.0	6.056864619954176e+17
19571.0	6.055967387025407e+17
19572.0	6.055038549316948e+17
19573.0	6.054149217757866e+17
19574.0	6.053162843985236e+17
19575.0	6.05233625501969e+17
19576.0	6.051415650729983e+17
19577.0	6.050471452781225e+17
19578.0	6.049527154169171e+17
19579.0	6.048598548545536e+17
19580.0	6.047662433719636e+17
19581.0	6.046733271651668e+17
19582.0	6.0458013308573e+17
19583.0	6.044851940360192e+17
19584.0	6.043896840716287e+17
19585.0	6.042835245596672e+17
19586.0	6.04184267334178e+17
19587.0	6.040971855440553e+17
19588.0	6.039662854406144e+17
19589.0	6.039047499677695e+17
19590.0	6.038098320293887e+17
19591.0	6.037283255877631e+17
19592.0	6.03631163347217e+17
19593.0	6.035312610377727e+17
19594.0	6.034121534297427e+17
19595.0	6.033336686346239e+17
19596.0	6.032204794691583e+17
19597.0	6.031466395860991e+17
19598.0	6.030175275843581e+17
19599.0	6.029578826940415e+17
19600.0	6.028590105755647e+17
19601.0	6.02766421454575e+17
19602.0	6.026757180227583e+17
19603.0	6.025396651469481e+17
19604.0	6.02473641419298e+17
19605.0	6.023537745723391e+17
19606.0	6.022788375292586e+17
19607.0	6.021785804516009e+17
19608.0	6.020756139234644e+17
19609.0	6.019709658988543e+17
19610.0	6.018719083222356e+17
19611.0	6.017688595857407e+17
19612.0	6.016698279439018e+17
19613.0	6.01566534050338e+17
19614.0	6.014612895257939e+17
19615.0	6.013619415635284e+17
19616.0	6.01249619710225e+17
19617.0	6.011570534481919e+17
19618.0	6.010199889761619e+17
19619.0	6.009037567033341e+17
19620.0	6.008080461813075e+17
19621.0	6.007572367321769e+17
19622.0	6.006583423838889e+17
19623.0	6.005549178377556e+17
19624.0	6.004502471639039e+17
19625.0	6.003470605746176e+17
19626.0	6.002424847619412e+17
19627.0	6.001358757604009e+17
19628.0	6.000141446152191e+17
19629.0	5.998997623100756e+17
19630.0	5.996733979601576e+17
19631.0	5.989885506748415e+17
19632.0	5.995896832873812e+17
19633.0	5.995024943327912e+17
19634.0	5.994066553252521e+17
19635.0	5.99299683656226e+17
19636.0	5.991952822566912e+17
19637.0	5.99058053787375e+17
19638.0	5.989897146641066e+17
19639.0	5.988848364421119e+17
19640.0	5.987711843652948e+17
19641.0	5.985986938929153e+17
19642.0	5.985698807720618e+17
19643.0	5.984706408830292e+17
19644.0	5.983663331562835e+17
19645.0	5.982452060607828e+17
19646.0	5.981582354896212e+17
19647.0	5.980573282249385e+17
19648.0	5.979520576258047e+17
19649.0	5.978464007312724e+17
19650.0	5.977410841346047e+17
19651.0	5.976348879923882e+17
19652.0	5.975296656277503e+17
19653.0	5.974240406798333e+17
19654.0	5.973176469159936e+17
19655.0	5.972115928907776e+17
19656.0	5.971063124350292e+17
19657.0	5.970010365930153e+17
19658.0	5.968951547439786e+17
19659.0	5.967891168668329e+17
19660.0	5.966832851397289e+17
19661.0	5.9657726998173e+17
19662.0	5.96471079431919e+17
19663.0	5.963608430564692e+17
19664.0	5.962558641012736e+17
19665.0	5.961528632497492e+17
