# Flux units: erg / (cm m2 s)
# Wavelength units: Angstrom
wave	flux
19000.0	4.8683135470141434e+17
19001.0	4.867364609501866e+17
19002.0	4.866646668389034e+17
19003.0	4.865813239212714e+17
19004.0	4.864779512446975e+17
19005.0	4.863978807230464e+17
19006.0	4.8632010784112634e+17
19007.0	4.862384340467711e+17
19008.0	4.8615261634996896e+17
19009.0	4.8605295975683405e+17
19010.0	4.8598326098001914e+17
19011.0	4.858826121543679e+17
19012.0	4.85770159928115e+17
19013.0	4.85733718626577e+17
19014.0	4.8563052322925216e+17
19015.0	4.8554568860740275e+17
19016.0	4.8547580017814176e+17
19017.0	4.8539771600895994e+17
19018.0	4.8530617441539405e+17
19019.0	4.8522626383653536e+17
19020.0	4.8513856149913594e+17
19021.0	4.8505601752651085e+17
19022.0	4.8497548716933114e+17
19023.0	4.848693277272746e+17
19024.0	4.8478240168564045e+17
19025.0	4.847074482148693e+17
19026.0	4.8462262156219725e+17
19027.0	4.845480275432789e+17
19028.0	4.844454231932927e+17
19029.0	4.8435700300076365e+17
19030.0	4.842690089495209e+17
19031.0	4.841938194792446e+17
19032.0	4.841068910608383e+17
19033.0	4.83981799928627e+17
19034.0	4.838692023697408e+17
19035.0	4.836492452386132e+17
19036.0	4.83269365797137e+17
19037.0	4.8349799681884154e+17
19038.0	4.835352760724138e+17
19039.0	4.834912172856662e+17
19040.0	4.8341981799819936e+17
19041.0	4.833451597365247e+17
19042.0	4.82560510665249e+17
19043.0	4.831862411231232e+17
19044.0	4.8311101348468045e+17
19045.0	4.830146090150569e+17
19046.0	4.8292813882436275e+17
19047.0	4.828374908272638e+17
19048.0	4.82662108242466e+17
19049.0	4.811850071233858e+17
19050.0	4.8254637271504205e+17
19051.0	4.8252511430464864e+17
19052.0	4.823505220665343e+17
19053.0	4.8230932092900685e+17
19054.0	4.822373233240745e+17
19055.0	4.819403967998634e+17
19056.0	4.820331450247847e+17
19057.0	4.8201777814350496e+17
19058.0	4.811842743085727e+17
19059.0	4.815484991395155e+17
19060.0	4.8176929534115834e+17
19061.0	4.8167887362676045e+17
19062.0	4.815870740135936e+17
19063.0	4.81519769555217e+17
19064.0	4.814350271381504e+17
19065.0	4.8134061482311674e+17
19066.0	4.8099398621593626e+17
19067.0	4.811591845412863e+17
19068.0	4.8110386866203296e+17
19069.0	4.8101834855109965e+17
19070.0	4.80919051969058e+17
19071.0	4.8083831874737485e+17
19072.0	4.8048577092867366e+17
19073.0	4.8068876077192525e+17
19074.0	4.805838553568596e+17
19075.0	4.805141332317524e+17
19076.0	4.8043059122449056e+17
19077.0	4.803433469749929e+17
19078.0	4.8025858952833696e+17
19079.0	4.8017156205445114e+17
19080.0	4.800935278673919e+17
19081.0	4.800080099934207e+17
19082.0	4.799338024097109e+17
19083.0	4.798323232516778e+17
19084.0	4.797411769712639e+17
19085.0	4.796708040299861e+17
19086.0	4.7916780729576083e+17
19087.0	4.7890343206584224e+17
19088.0	4.7903584624312256e+17
19089.0	4.79332403179247e+17
19090.0	4.792555976436394e+17
19091.0	4.791278211781976e+17
19092.0	4.7850765187809446e+17
19093.0	4.790038913788587e+17
19094.0	4.789240535711743e+17
19095.0	4.788317057624746e+17
19096.0	4.7875890781443405e+17
19097.0	4.786741129685674e+17
19098.0	4.7829428595589075e+17
19099.0	4.781410652345688e+17
19100.0	4.7842284535807994e+17
19101.0	4.7833578782501536e+17
19102.0	4.7825666612483405e+17
19103.0	4.781655366216362e+17
19104.0	4.780946209374206e+17
19105.0	4.7734140502890016e+17
19106.0	4.779217683567958e+17
19107.0	4.776749141327869e+17
19108.0	4.774922384222892e+17
19109.0	4.776788697109846e+17
19110.0	4.7757938144925005e+17
19111.0	4.772981193921874e+17
19112.0	4.7718628750349606e+17
19113.0	4.773396736202068e+17
19114.0	4.77115744343381e+17
19115.0	4.771470217576447e+17
19116.0	4.770685301118293e+17
19117.0	4.769738469845674e+17
19118.0	4.7678223607835296e+17
19119.0	4.761978955715921e+17
19120.0	4.7666874506280954e+17
19121.0	4.7664125181951994e+17
19122.0	4.7658514042060794e+17
19123.0	4.765106944606208e+17
19124.0	4.764119481013589e+17
19125.0	4.763345626333183e+17
19126.0	4.7623659340868256e+17
19127.0	4.761742112456704e+17
19128.0	4.7606344121494176e+17
19129.0	4.7600105415857485e+17
19130.0	4.759310868763989e+17
19131.0	4.758508264226815e+17
19132.0	4.757629967182506e+17
19133.0	4.7568702221407565e+17
19134.0	4.7560494828311885e+17
19135.0	4.755274786493781e+17
19136.0	4.754376923720361e+17
19137.0	4.753497539652266e+17
19138.0	4.752757138041514e+17
19139.0	4.751975198141098e+17
19140.0	4.751172891399508e+17
19141.0	4.7503138189475834e+17
19142.0	4.749434565601962e+17
19143.0	4.7486221289171616e+17
19144.0	4.747714808687274e+17
19145.0	4.7469443402082976e+17
19146.0	4.7456040196068685e+17
19147.0	4.745337891717119e+17
19148.0	4.742114296463363e+17
19149.0	4.7407510490972154e+17
19150.0	4.742887084392447e+17
19151.0	4.7419874082815994e+17
19152.0	4.741211425690964e+17
19153.0	4.735241527405218e+17
19154.0	4.739163124050602e+17
19155.0	4.738730295645525e+17
19156.0	4.737859005186047e+17
19157.0	4.7354087298389376e+17
19158.0	4.7326629615807194e+17
19159.0	4.735236321574911e+17
19160.0	4.7344254836189856e+17
19161.0	4.733631812250281e+17
19162.0	4.7330270774995616e+17
19163.0	4.731968227551913e+17
19164.0	4.731163704819711e+17
19165.0	4.72481905176302e+17
19166.0	4.7294980726019405e+17
19167.0	4.7288365700437325e+17
19168.0	4.7279384353396045e+17
19169.0	4.727152199772842e+17
19170.0	4.726346264958294e+17
19171.0	4.725505760690176e+17
19172.0	4.724665479419221e+17
19173.0	4.723918005512874e+17
19174.0	4.723057660788734e+17
19175.0	4.72218688483055e+17
19176.0	4.721427998922068e+17
19177.0	4.7204488889849165e+17
19178.0	4.719728335519743e+17
19179.0	4.719011984747178e+17
19180.0	4.718106001102163e+17
19181.0	4.7172886326149114e+17
19182.0	4.7162980694316365e+17
19183.0	4.715595449412266e+17
19184.0	4.7148102456442874e+17
19185.0	4.7139116146141856e+17
19186.0	4.713110794753363e+17
19187.0	4.712237530174805e+17
19188.0	4.711463787342506e+17
19189.0	4.710597004361728e+17
19190.0	4.7097209932130976e+17
19191.0	4.70883889053696e+17
19192.0	4.707934100870485e+17
19193.0	4.706298910212096e+17
19194.0	4.70498011967215e+17
19195.0	4.705084836063914e+17
19196.0	4.704004884572842e+17
19197.0	4.702824247416148e+17
19198.0	4.7015417599754234e+17
19199.0	4.703709776838656e+17
19200.0	4.7016090247277203e+17
19201.0	4.6991923387651405e+17
19202.0	4.6988464142417914e+17
19203.0	4.6982529202257914e+17
19204.0	4.697793780252672e+17
19205.0	4.6970871162251936e+17
19206.0	4.696408972066815e+17
19207.0	4.6954103537227085e+17
19208.0	4.6949462246249805e+17
19209.0	4.6941786718863354e+17
19210.0	4.693346669472426e+17
19211.0	4.6926587288180045e+17
19212.0	4.6918587715857056e+17
19213.0	4.691023976464382e+17
19214.0	4.690298258412885e+17
19215.0	4.689484947914751e+17
19216.0	4.688669605276329e+17
19217.0	4.687875223672149e+17
19218.0	4.6870967126152525e+17
19219.0	4.6860216747513165e+17
19220.0	4.685429481668608e+17
19221.0	4.6846898818689696e+17
19222.0	4.683740686406997e+17
19223.0	4.683022629251755e+17
19224.0	4.6821702411223034e+17
19225.0	4.68152004780578e+17
19226.0	4.6807169707103565e+17
19227.0	4.679875462605481e+17
19228.0	4.67911142539264e+17
19229.0	4.678091482507946e+17
19230.0	4.677450808863402e+17
19231.0	4.676742493678249e+17
19232.0	4.6759238899684685e+17
19233.0	4.675024290054144e+17
19234.0	4.6742251521092256e+17
19235.0	4.673422664313514e+17
19236.0	4.672650589416106e+17
19237.0	4.6717370301590176e+17
19238.0	4.6709632355969696e+17
19239.0	4.6702242894097056e+17
19240.0	4.669355586136746e+17
19241.0	4.6686199268857165e+17
19242.0	4.667656584036351e+17
19243.0	4.6668906733677216e+17
19244.0	4.666156677158229e+17
19245.0	4.6654049879763616e+17
19246.0	4.6646213172264954e+17
19247.0	4.6638131818004486e+17
19248.0	4.6629615395580576e+17
19249.0	4.6619311989937485e+17
19250.0	4.660232409404757e+17
19251.0	4.6594415265491603e+17
19252.0	4.6595098594508794e+17
19253.0	4.6588967291016525e+17
19254.0	4.658133616732842e+17
19255.0	4.6571322825768954e+17
19256.0	4.656410112207529e+17
19257.0	4.6556464259181216e+17
19258.0	4.6547932919016096e+17
19259.0	4.653946879956308e+17
19260.0	4.653025386474155e+17
19261.0	4.6523539259392e+17
19262.0	4.651451390711124e+17
19263.0	4.650568175146325e+17
19264.0	4.649908276909396e+17
19265.0	4.6489936243370656e+17
19266.0	4.6482625935005e+17
19267.0	4.6475683131555834e+17
19268.0	4.646714553488725e+17
19269.0	4.6459561576147616e+17
19270.0	4.645133574209534e+17
19271.0	4.644306446275924e+17
19272.0	4.6435717391319034e+17
19273.0	4.642693070891691e+17
19274.0	4.641676891695784e+17
19275.0	4.6412125731553274e+17
19276.0	4.6403987453597005e+17
19277.0	4.639620873934164e+17
19278.0	4.6386555380913485e+17
19279.0	4.637949871609172e+17
19280.0	4.637204746513065e+17
19281.0	4.636333658778282e+17
19282.0	4.6355376448907936e+17
19283.0	4.6346779258170016e+17
19284.0	4.633821359461717e+17
19285.0	4.6329329541447674e+17
19286.0	4.63180357767441e+17
19287.0	4.630401955921919e+17
19288.0	4.627402593752404e+17
19289.0	4.6260573210760525e+17
19290.0	4.6279256772881043e+17
19291.0	4.6276116196884474e+17
19292.0	4.627283914522623e+17
19293.0	4.626588652710571e+17
19294.0	4.625840647525716e+17
19295.0	4.625045280959147e+17
19296.0	4.620985468715017e+17
19297.0	4.6229728341087584e+17
19298.0	4.622632795592019e+17
19299.0	4.618256881025027e+17
19300.0	4.621125074725546e+17
19301.0	4.6203104556045645e+17
19302.0	4.619503883255807e+17
19303.0	4.618590708476587e+17
19304.0	4.6178438881826125e+17
19305.0	4.6169774002012154e+17
19306.0	4.616193896524458e+17
19307.0	4.6152841652688205e+17
19308.0	4.6144444970653e+17
19309.0	4.613550403573077e+17
19310.0	4.612544596191915e+17
19311.0	4.6113265416492365e+17
19312.0	4.6096717992427514e+17
19313.0	4.6056149775373645e+17
19314.0	4.5595142952495866e+17
19315.0	4.560889554403338e+17
19316.0	4.59918231819606e+17
19317.0	4.605814213967871e+17
19318.0	4.605884775443113e+17
19319.0	4.605332180085419e+17
19320.0	4.603615630415185e+17
19321.0	4.6012038643712e+17
19322.0	4.603428602904574e+17
19323.0	4.602725775966208e+17
19324.0	4.6018918539591674e+17
19325.0	4.6013045793969485e+17
19326.0	4.600330274035028e+17
19327.0	4.599607452849493e+17
19328.0	4.592799667541341e+17
19329.0	4.598047036844714e+17
19330.0	4.597295028895744e+17
19331.0	4.5964683106058234e+17
19332.0	4.595656040295082e+17
19333.0	4.594932351587668e+17
19334.0	4.593845991899137e+17
19335.0	4.581097577556666e+17
19336.0	4.592391280743766e+17
19337.0	4.591697178656766e+17
19338.0	4.5907334806896634e+17
19339.0	4.5899989615902714e+17
19340.0	4.589088506118143e+17
19341.0	4.5838735489979846e+17
19342.0	4.586400545155759e+17
19343.0	4.5867479355883514e+17
19344.0	4.581354399683932e+17
19345.0	4.583323649878705e+17
19346.0	4.583902276485119e+17
19347.0	4.5778579544692045e+17
19348.0	4.5828621233466016e+17
19349.0	4.582094802692778e+17
19350.0	4.579143151430315e+17
19351.0	4.580514860804779e+17
19352.0	4.573731302495564e+17
19353.0	4.579021928355157e+17
19354.0	4.578291356095829e+17
19355.0	4.577413285543936e+17
19356.0	4.5766712446593696e+17
19357.0	4.5759173234087245e+17
19358.0	4.5751000891391994e+17
19359.0	4.573043693890213e+17
19360.0	4.568741127214419e+17
19361.0	4.5727375285725856e+17
19362.0	4.571934065601193e+17
19363.0	4.5711537090505376e+17
19364.0	4.570380916927145e+17
19365.0	4.5695489949040634e+17
19366.0	4.5686494837691725e+17
19367.0	4.5679424059037005e+17
19368.0	4.567194372756821e+17
19369.0	4.5664248249275725e+17
19370.0	4.565649884621481e+17
19371.0	4.564721298571264e+17
19372.0	4.5640097425872205e+17
19373.0	4.563130006197589e+17
19374.0	4.562327261151232e+17
19375.0	4.561639788161706e+17
19376.0	4.5608679055032314e+17
19377.0	4.560077813972991e+17
19378.0	4.5592882320506874e+17
19379.0	4.5584906690669216e+17
19380.0	4.5574935250206714e+17
19381.0	4.556746913043796e+17
19382.0	4.5559672129017165e+17
19383.0	4.5551833946521594e+17
19384.0	4.554232343210666e+17
19385.0	4.553614565572607e+17
19386.0	4.552758227107839e+17
19387.0	4.551859912048638e+17
19388.0	4.550958802883925e+17
19389.0	4.550001358624085e+17
19390.0	4.5482509728044365e+17
19391.0	4.544343678735699e+17
19392.0	4.545575308842325e+17
19393.0	4.5464647550457165e+17
19394.0	4.5461936876639565e+17
19395.0	4.543869206484313e+17
19396.0	4.5444769422595437e+17
19397.0	4.544057859986772e+17
19398.0	4.5417086093448544e+17
19399.0	4.540459642082645e+17
19400.0	4.5402732073669984e+17
19401.0	4.5408783231003296e+17
19402.0	4.540175430451198e+17
19403.0	4.539383889788928e+17
19404.0	4.53850045681937e+17
19405.0	4.537651171775829e+17
19406.0	4.5369044563394554e+17
19407.0	4.533925770690556e+17
19408.0	4.535327687442431e+17
19409.0	4.5343182687655245e+17
19410.0	4.5335812750267725e+17
19411.0	4.532772195882325e+17
19412.0	4.531928837390336e+17
19413.0	4.5289482167691955e+17
19414.0	4.530319293502804e+17
19415.0	4.529392396358997e+17
19416.0	4.5284103944492365e+17
19417.0	4.5277688316122445e+17
19418.0	4.526794738761728e+17
19419.0	4.525885528997887e+17
19420.0	4.524951059038207e+17
19421.0	4.524028454065493e+17
19422.0	4.522975526475092e+17
19423.0	4.52212632461858e+17
19424.0	4.521129056840362e+17
19425.0	4.520005614611114e+17
19426.0	4.519000166541993e+17
19427.0	4.5178525693160096e+17
19428.0	4.5164735709402445e+17
19429.0	4.515222914072574e+17
19430.0	4.513566790341972e+17
19431.0	4.5131345596252115e+17
19432.0	4.510895718443691e+17
19433.0	4.5094200567398406e+17
19434.0	4.5077159921145165e+17
19435.0	4.5055345716538016e+17
19436.0	4.503344927561046e+17
19437.0	4.498843128649045e+17
19438.0	4.490418432857427e+17
19439.0	4.491052567582036e+17
19440.0	4.491742521502379e+17
19441.0	4.488923740897279e+17
19442.0	4.4845313441136634e+17
19443.0	4.4791772696193696e+17
19444.0	4.4718650025137485e+17
19445.0	4.4627495349125126e+17
19446.0	4.450630000530772e+17
19447.0	4.4345261961161376e+17
19448.0	4.411220359293611e+17
19449.0	4.375546146324479e+17
19450.0	4.307547879462224e+17
19451.0	4.250229914206211e+17
19452.0	4.3474788831723526e+17
19453.0	4.392680618459137e+17
19454.0	4.4187291959514445e+17
19455.0	4.4354587101320525e+17
19456.0	4.445744680752468e+17
19457.0	4.444598327836673e+17
19458.0	4.3245637052225414e+17
19459.0	4.419682761878206e+17
19460.0	4.4656589096878054e+17
19461.0	4.473508801282047e+17
19462.0	4.477030668173312e+17
19463.0	4.479147456506538e+17
19464.0	4.480555725531817e+17
19465.0	4.4815486242433696e+17
19466.0	4.4822321923358714e+17
19467.0	4.4826094301347834e+17
19468.0	4.482825889775615e+17
19469.0	4.4786717707031814e+17
19470.0	4.482729273283925e+17
19471.0	4.4825521436317e+17
19472.0	4.482310667064661e+17
19473.0	4.4819569404368205e+17
19474.0	4.4770285409621254e+17
19475.0	4.4809085175289165e+17
19476.0	4.480522747117566e+17
19477.0	4.480037464746666e+17
19478.0	4.4795959254712294e+17
19479.0	4.474792933588984e+17
19480.0	4.478430798151679e+17
19481.0	4.477673497690111e+17
19482.0	4.477093433835519e+17
19483.0	4.476516918362111e+17
19484.0	4.475777756867242e+17
19485.0	4.475191567930708e+17
19486.0	4.469961959407629e+17
19487.0	4.473663221574314e+17
19488.0	4.4729328226795514e+17
19489.0	4.472068768093525e+17
19490.0	4.471569268430165e+17
19491.0	4.470630322449065e+17
19492.0	4.47004181476147e+17
19493.0	4.4692448347859616e+17
19494.0	4.468446333676202e+17
19495.0	4.467575409519274e+17
19496.0	4.4663830185246714e+17
19497.0	4.4648463450767354e+17
19498.0	4.461021865443327e+17
19499.0	4.45774946107392e+17
19500.0	4.4619091243171834e+17
19501.0	4.462493327949823e+17
19502.0	4.4621045446301005e+17
19503.0	4.461559724113919e+17
19504.0	4.460838038186666e+17
19505.0	4.459958404557481e+17
19506.0	4.4592857961813325e+17
19507.0	4.458336869154815e+17
19508.0	4.457073959327061e+17
19509.0	4.4550201009329485e+17
19510.0	4.447359324214611e+17
19511.0	4.394202503490209e+17
19512.0	4.441605697525076e+17
19513.0	4.44832131789619e+17
19514.0	4.44921277387025e+17
19515.0	4.451506484936702e+17
19516.0	4.450740509955412e+17
19517.0	4.450978066246314e+17
19518.0	4.449160370935122e+17
19519.0	4.4484841365831654e+17
19520.0	4.4447950281113536e+17
19521.0	4.448525807692459e+17
19522.0	4.4470670714033466e+17
19523.0	4.446031989877422e+17
19524.0	4.4429742576762963e+17
19525.0	4.445513442481493e+17
19526.0	4.4447776161573536e+17
19527.0	4.44409478975761e+17
19528.0	4.442965085432489e+17
19529.0	4.4420623090319366e+17
19530.0	4.441842670807723e+17
19531.0	4.441076107924821e+17
19532.0	4.4403065286382925e+17
19533.0	4.439494122711721e+17
19534.0	4.438839485530111e+17
19535.0	4.438082716347049e+17
19536.0	4.4372577310037325e+17
19537.0	4.436465387831295e+17
19538.0	4.4316361354117165e+17
19539.0	4.435111565765289e+17
19540.0	4.4342422151714125e+17
19541.0	4.432519474708479e+17
19542.0	4.432313660910249e+17
19543.0	4.4276324052063584e+17
19544.0	4.430839781785599e+17
19545.0	4.430254541460821e+17
19546.0	4.429746436483753e+17
19547.0	4.428942196168021e+17
19548.0	4.428246756098047e+17
19549.0	4.4273780304554656e+17
19550.0	4.4266591721881594e+17
19551.0	4.4260550784669e+17
19552.0	4.425224582507178e+17
19553.0	4.424543166092628e+17
19554.0	4.423708150770346e+17
19555.0	4.4224231935836166e+17
19556.0	4.4218507591679974e+17
19557.0	4.4214611621533e+17
19558.0	4.4207632418515616e+17
19559.0	4.419997181586089e+17
19560.0	4.4176723578716134e+17
19561.0	4.418474161296725e+17
19562.0	4.41628132394052e+17
19563.0	4.417023778663082e+17
19564.0	4.416082492959402e+17
19565.0	4.415431060226047e+17
19566.0	4.41461118144785e+17
19567.0	4.41399272153634e+17
19568.0	4.4132146145307296e+17
19569.0	4.412490783916031e+17
19570.0	4.41171469017634e+17
19571.0	4.410941037521579e+17
19572.0	4.410195038612138e+17
19573.0	4.408965300136617e+17
19574.0	4.4084519739501216e+17
19575.0	4.407988667635029e+17
19576.0	4.406979806101504e+17
19577.0	4.405733470765056e+17
19578.0	4.4057206410881696e+17
19579.0	4.4049766225892685e+17
19580.0	4.404145726772566e+17
19581.0	4.4033402547295565e+17
19582.0	4.4027010113426765e+17
19583.0	4.402002662522879e+17
19584.0	4.40115611635985e+17
19585.0	4.4003608686318925e+17
19586.0	4.3995903994538656e+17
19587.0	4.3989558494931616e+17
19588.0	4.39818677981457e+17
19589.0	4.3973939598895776e+17
19590.0	4.396619669700608e+17
19591.0	4.3959097977296205e+17
19592.0	4.395185640658261e+17
19593.0	4.3940351878103034e+17
19594.0	4.3931256599784096e+17
19595.0	4.392931544094036e+17
19596.0	4.392081438365012e+17
19597.0	4.3913774978389325e+17
19598.0	4.390339462124885e+17
19599.0	4.3898100004509005e+17
19600.0	4.389059339572565e+17
19601.0	4.3883537527821664e+17
19602.0	4.387578250439339e+17
19603.0	4.3868986718289914e+17
19604.0	4.3860935031739725e+17
19605.0	4.3852163546699104e+17
19606.0	4.384581246866772e+17
19607.0	4.383938753593344e+17
19608.0	4.3830141654138874e+17
19609.0	4.382408201732096e+17
19610.0	4.379670325755907e+17
19611.0	4.377843180677803e+17
19612.0	4.380188350960981e+17
19613.0	4.3793044076844365e+17
19614.0	4.378603687684778e+17
19615.0	4.3778901876408314e+17
19616.0	4.3751296736078554e+17
19617.0	4.3732134485032966e+17
19618.0	4.37520201556514e+17
19619.0	4.374211392263509e+17
19620.0	4.372931828951718e+17
19621.0	4.3686916805099494e+17
19622.0	4.3725611014116685e+17
19623.0	4.371644512468991e+17
19624.0	4.370466104584875e+17
19625.0	4.370298060494164e+17
19626.0	4.369386288010581e+17
19627.0	4.368614238278997e+17
19628.0	4.367697842973355e+17
19629.0	4.3562376860357914e+17
19630.0	4.365551220555775e+17
19631.0	4.3661627563704326e+17
19632.0	4.364334860511914e+17
19633.0	4.3638473572570445e+17
19634.0	4.3633656701037216e+17
19635.0	4.3622721108923706e+17
19636.0	4.357068842598394e+17
19637.0	4.356274103080272e+17
19638.0	4.360306841791144e+17
19639.0	4.3598249428254714e+17
19640.0	4.3587298638779725e+17
19641.0	4.358106964994729e+17
19642.0	4.3573574170050554e+17
19643.0	4.356708642761386e+17
19644.0	4.3562606393644365e+17
19645.0	4.355653382438912e+17
19646.0	4.349559041250636e+17
19647.0	4.353915247482196e+17
19648.0	4.3534230333248845e+17
19649.0	4.352637235363838e+17
19650.0	4.351915773831849e+17
19651.0	4.3511872700634464e+17
19652.0	4.350486252268202e+17
19653.0	4.3496760567398394e+17
19654.0	4.3490101746292045e+17
19655.0	4.3481889942186656e+17
19656.0	4.34754290782481e+17
