# Flux units: erg / (cm m2 s)
# Wavelength units: Angstrom
wave	flux
19000.0	8.259247710841513e+17
19001.0	8.257738487016106e+17
19002.0	8.25629420499763e+17
19003.0	8.254814237840723e+17
19004.0	8.253332847416659e+17
19005.0	8.251851441613481e+17
19006.0	8.250367447924736e+17
19007.0	8.248682177975638e+17
19008.0	8.24737520908151e+17
19009.0	8.245881602048e+17
19010.0	8.244276083993256e+17
19011.0	8.24290080526609e+17
19012.0	8.241069676997288e+17
19013.0	8.239940882137084e+17
19014.0	8.238427373131091e+17
19015.0	8.236949696064169e+17
19016.0	8.235433511092224e+17
19017.0	8.233936162739539e+17
19018.0	8.232431826676392e+17
19019.0	8.230950451631443e+17
19020.0	8.229435030022824e+17
19021.0	8.227942198935552e+17
19022.0	8.226442399711231e+17
19023.0	8.224937307275263e+17
19024.0	8.223424765755391e+17
19025.0	8.221877811369302e+17
19026.0	8.220362503006888e+17
19027.0	8.218533708169215e+17
19028.0	8.217391402057728e+17
19029.0	8.215880613756927e+17
19030.0	8.214367849938943e+17
19031.0	8.212853592948735e+17
19032.0	8.211337895914153e+17
19033.0	8.209790154397011e+17
19034.0	8.208297573569875e+17
19035.0	8.206714412553556e+17
19036.0	8.182127532528977e+17
19037.0	8.203705750213972e+17
19038.0	8.202222670883497e+17
19039.0	8.200706804678653e+17
19040.0	8.199186587582461e+17
19041.0	8.197664360016553e+17
19042.0	8.196114013836627e+17
19043.0	8.19461843128593e+17
19044.0	8.193090716172285e+17
19045.0	8.191552607573331e+17
19046.0	8.190023718054569e+17
19047.0	8.188507431021224e+17
19048.0	8.186919928900266e+17
19049.0	8.18543041131315e+17
19050.0	8.18390071508992e+17
19051.0	8.17869622974873e+17
19052.0	8.180182776370514e+17
19053.0	8.179275085643776e+17
19054.0	8.177797602912937e+17
19055.0	8.176180254124713e+17
19056.0	8.174732708937727e+17
19057.0	8.173194025719124e+17
19058.0	8.17161466614033e+17
19059.0	8.170126812293802e+17
19060.0	8.16858323292433e+17
19061.0	8.167053771582124e+17
19062.0	8.165514509549565e+17
19063.0	8.163976518391123e+17
19064.0	8.162400414990337e+17
19065.0	8.160836542180009e+17
19066.0	8.159336368264531e+17
19067.0	8.157816882375337e+17
19068.0	8.156275892289533e+17
19069.0	8.154734147229011e+17
19070.0	8.15318812817271e+17
19071.0	8.151635926712317e+17
19072.0	8.150100372444498e+17
19073.0	8.148558480583337e+17
19074.0	8.147015301070847e+17
19075.0	8.145469831468372e+17
19076.0	8.143916957521234e+17
19077.0	8.142373318033408e+17
19078.0	8.140820606266025e+17
19079.0	8.139281997146792e+17
19080.0	8.137731168621908e+17
19081.0	8.136170105995261e+17
19082.0	8.134619724862804e+17
19083.0	8.133046055556436e+17
19084.0	8.131443768513876e+17
19085.0	8.129972210936489e+17
19086.0	8.128236178724179e+17
19087.0	8.126225142775807e+17
19088.0	8.125166296323412e+17
19089.0	8.12334891278882e+17
19090.0	8.122166030980436e+17
19091.0	8.120631912562688e+17
19092.0	8.118930508524202e+17
19093.0	8.117544964937046e+17
19094.0	8.115985065530708e+17
19095.0	8.114428269909331e+17
19096.0	8.112884543739219e+17
19097.0	8.111334774975145e+17
19098.0	8.109780048543744e+17
19099.0	8.108222541288787e+17
19100.0	8.10662601302562e+17
19101.0	8.105091753399636e+17
19102.0	8.103519212361043e+17
19103.0	8.101987055479468e+17
19104.0	8.100425193138857e+17
19105.0	8.09885621306436e+17
19106.0	8.097180425038506e+17
19107.0	8.095720081631913e+17
19108.0	8.094145263086246e+17
19109.0	8.090282689385811e+17
19110.0	8.090880941140649e+17
19111.0	8.089471064997885e+17
19112.0	8.087924630705492e+17
19113.0	8.086364369190912e+17
19114.0	8.084800282471081e+17
19115.0	8.083176256350889e+17
19116.0	8.081668005604012e+17
19117.0	8.080084639066794e+17
19118.0	8.078395110501033e+17
19119.0	8.076210918304424e+17
19120.0	8.075192990083752e+17
19121.0	8.07368125387025e+17
19122.0	8.072264967432872e+17
19123.0	8.070695047834281e+17
19124.0	8.068982182161066e+17
19125.0	8.067537238840659e+17
19126.0	8.065977371590655e+17
19127.0	8.063874410479615e+17
19128.0	8.061626018867881e+17
19129.0	8.061239990506834e+17
19130.0	8.05969490817843e+17
19131.0	8.058084846294355e+17
19132.0	8.056548528663208e+17
19133.0	8.054730724300118e+17
19134.0	8.052852105325226e+17
19135.0	8.051818307256319e+17
19136.0	8.050248328937472e+17
19137.0	8.048616828567548e+17
19138.0	8.047052118294527e+17
19139.0	8.045512242495485e+17
19140.0	8.043939824489812e+17
19141.0	8.042362281044649e+17
19142.0	8.040782876726612e+17
19143.0	8.03918697481284e+17
19144.0	8.037619954876415e+17
19145.0	8.036032244438356e+17
19146.0	8.03422964163106e+17
19147.0	8.03284856218146e+17
19148.0	8.031278969738579e+17
19149.0	8.029698288954025e+17
19150.0	8.028121072664575e+17
19151.0	8.026538877736276e+17
19152.0	8.024925590432425e+17
19153.0	8.023358851514365e+17
19154.0	8.0217350616733e+17
19155.0	8.02018204651793e+17
19156.0	8.018574438301693e+17
19157.0	8.016852252884991e+17
19158.0	8.013968330544466e+17
19159.0	8.013732742081192e+17
19160.0	8.012175177504084e+17
19161.0	8.010471323992063e+17
19162.0	8.005434848488108e+17
19163.0	8.007207260695212e+17
19164.0	8.005839963728553e+17
19165.0	8.004205573483177e+17
19166.0	8.002563833419094e+17
19167.0	8.000726343789225e+17
19168.0	7.999435762040833e+17
19169.0	7.997821508648961e+17
19170.0	7.996268686431572e+17
19171.0	7.99451774207044e+17
19172.0	7.993044878666408e+17
19173.0	7.991470805308758e+17
19174.0	7.989867069833216e+17
19175.0	7.988281606143999e+17
19176.0	7.986675236645544e+17
19177.0	7.985011505845587e+17
19178.0	7.983351101128701e+17
19179.0	7.981617477844991e+17
19180.0	7.980163270705152e+17
19181.0	7.978595929205417e+17
19182.0	7.977018117324797e+17
19183.0	7.975409175319891e+17
19184.0	7.973774094412457e+17
19185.0	7.971798628958207e+17
19186.0	7.969856671798611e+17
19187.0	7.968217536397311e+17
19188.0	7.966610533558953e+17
19189.0	7.964947075388755e+17
19190.0	7.963307872878591e+17
19191.0	7.96165875503377e+17
19192.0	7.96001691430639e+17
19193.0	7.958329414385663e+17
19194.0	7.956729564233725e+17
19195.0	7.955113230467072e+17
19196.0	7.953449617107625e+17
19197.0	7.951714707570685e+17
19198.0	7.949632107009364e+17
19199.0	7.927381100593146e+17
19200.0	7.931245268129112e+17
19201.0	7.944814329506473e+17
19202.0	7.94358075953425e+17
19203.0	7.941997018305876e+17
19204.0	7.94043580887859e+17
19205.0	7.938835978300073e+17
19206.0	7.937204960275114e+17
19207.0	7.935554858166953e+17
19208.0	7.933879651751254e+17
19209.0	7.932299064639488e+17
19210.0	7.930655789460138e+17
19211.0	7.929008592606547e+17
19212.0	7.927354988254548e+17
19213.0	7.92550896181794e+17
19214.0	7.923749832971606e+17
19215.0	7.922309760636244e+17
19216.0	7.920748359669074e+17
19217.0	7.91909827294003e+17
19218.0	7.917177106945364e+17
19219.0	7.915723542932138e+17
19220.0	7.914101654508884e+17
19221.0	7.912344489994922e+17
19222.0	7.910787800629245e+17
19223.0	7.909121922345642e+17
19224.0	7.907439278030847e+17
19225.0	7.905733757982036e+17
19226.0	7.904105632628733e+17
19227.0	7.902429446144e+17
19228.0	7.900750554333183e+17
19229.0	7.89906883695957e+17
19230.0	7.897336354526548e+17
19231.0	7.895667499685203e+17
19232.0	7.894005173977085e+17
19233.0	7.892295609221119e+17
19234.0	7.890619326267391e+17
19235.0	7.888931297864361e+17
19236.0	7.887232463536125e+17
19237.0	7.885525941048659e+17
19238.0	7.88376451092753e+17
19239.0	7.882120768782333e+17
19240.0	7.880381622998355e+17
19241.0	7.8786896869021e+17
19242.0	7.876985717347668e+17
19243.0	7.875210058749267e+17
19244.0	7.873548313253204e+17
19245.0	7.871824448716799e+17
19246.0	7.87009250595089e+17
19247.0	7.868366825280851e+17
19248.0	7.866634261757952e+17
19249.0	7.864887957695145e+17
19250.0	7.863153455005697e+17
19251.0	7.861369462325245e+17
19252.0	7.859268317347839e+17
19253.0	7.856872182775807e+17
19254.0	7.855115377573885e+17
19255.0	7.853297281007615e+17
19256.0	7.85155300419174e+17
19257.0	7.849829464014845e+17
19258.0	7.848062764449791e+17
19259.0	7.84626335770214e+17
19260.0	7.844155081009833e+17
19261.0	7.842729280492883e+17
19262.0	7.840933842954922e+17
19263.0	7.839134922746538e+17
19264.0	7.837205043784361e+17
19265.0	7.835502789700264e+17
19266.0	7.833715592571561e+17
19267.0	7.831949299853994e+17
19268.0	7.830136826451284e+17
19269.0	7.828319420547071e+17
19270.0	7.826496012593833e+17
19271.0	7.824569819026772e+17
19272.0	7.822824214014633e+17
19273.0	7.820105211707391e+17
19274.0	7.818603123791187e+17
19275.0	7.817308368710314e+17
19276.0	7.815456584892415e+17
19277.0	7.813597862297599e+17
19278.0	7.81173300203793e+17
19279.0	7.809829000533331e+17
19280.0	7.807959934784851e+17
19281.0	7.805960735162364e+17
19282.0	7.802763151583912e+17
19283.0	7.800613927299753e+17
19284.0	7.798522360714579e+17
19285.0	7.797014473474045e+17
19286.0	7.795142835219114e+17
19287.0	7.793223081306796e+17
19288.0	7.785019928652452e+17
19289.0	7.774794928532114e+17
19290.0	7.787403053891584e+17
19291.0	7.785370558485846e+17
19292.0	7.78349735715362e+17
19293.0	7.781523261838675e+17
19294.0	7.779544745727318e+17
19295.0	7.777555553714173e+17
19296.0	7.775557985675945e+17
19297.0	7.773540138177875e+17
19298.0	7.771534591175338e+17
19299.0	7.768653135085567e+17
19300.0	7.765589604259156e+17
19301.0	7.763538891593044e+17
19302.0	7.761476193004202e+17
19303.0	7.759385375801343e+17
19304.0	7.757315407085565e+17
19305.0	7.755235904716799e+17
19306.0	7.753123988766719e+17
19307.0	7.750972461809663e+17
19308.0	7.748840141968726e+17
19309.0	7.746049995877033e+17
19310.0	7.743589496913916e+17
19311.0	7.741720378037591e+17
19312.0	7.73784834478353e+17
19313.0	7.73564215206434e+17
19314.0	7.723661714085207e+17
19315.0	7.72195002281712e+17
19316.0	7.728885234576041e+17
19317.0	7.726721341412692e+17
19318.0	7.724460480135164e+17
19319.0	7.722177615538857e+17
19320.0	7.719321926456663e+17
19321.0	7.714565018091517e+17
19322.0	7.712122512692566e+17
19323.0	7.709551036639913e+17
19324.0	7.707420923002879e+17
19325.0	7.704557225596246e+17
19326.0	7.70262435050291e+17
19327.0	7.700233734236841e+17
19328.0	7.694550488667475e+17
19329.0	7.691488014805672e+17
19330.0	7.688896322207743e+17
19331.0	7.686368627698345e+17
19332.0	7.683833493891754e+17
19333.0	7.681252826720938e+17
19334.0	7.674537375520084e+17
19335.0	7.671709451332266e+17
19336.0	7.669037848854527e+17
19337.0	7.666359788546728e+17
19338.0	7.663495116663466e+17
19339.0	7.658371627526825e+17
19340.0	7.655580142054057e+17
19341.0	7.652779403946664e+17
19342.0	7.649814777604778e+17
19343.0	7.647080912082258e+17
19344.0	7.644182938823338e+17
19345.0	7.640713894297595e+17
19346.0	7.638052546893139e+17
19347.0	7.635275075988136e+17
19348.0	7.632266335354879e+17
19349.0	7.629182608954708e+17
19350.0	7.626058358587391e+17
19351.0	7.622908715903657e+17
19352.0	7.619702961821012e+17
19353.0	7.616539275209386e+17
19354.0	7.612774343507968e+17
19355.0	7.609436038234111e+17
19356.0	7.606122349330433e+17
19357.0	7.602745016057855e+17
19358.0	7.599312787734527e+17
19359.0	7.595832484298752e+17
19360.0	7.592361643212799e+17
19361.0	7.588814513329492e+17
19362.0	7.58523610092885e+17
19363.0	7.58159893471778e+17
19364.0	7.577913831806291e+17
19365.0	7.574178892174675e+17
19366.0	7.569724621018451e+17
19367.0	7.565600195521194e+17
19368.0	7.561700200240468e+17
19369.0	7.557716662812671e+17
19370.0	7.553595282380118e+17
19371.0	7.549546856273236e+17
19372.0	7.545366896792918e+17
19373.0	7.541103300094633e+17
19374.0	7.535367125204992e+17
19375.0	7.530945738790227e+17
19376.0	7.526457070146902e+17
19377.0	7.521886667101526e+17
19378.0	7.517243329303891e+17
19379.0	7.511694906840403e+17
19380.0	7.505703946158079e+17
19381.0	7.500766452034217e+17
19382.0	7.495706080182271e+17
19383.0	7.490077191394644e+17
19384.0	7.482723193760425e+17
19385.0	7.477328096875862e+17
19386.0	7.471816097748308e+17
19387.0	7.463326851618131e+17
19388.0	7.456967907868671e+17
19389.0	7.450493834668716e+17
19390.0	7.440763396117842e+17
19391.0	7.418073307589265e+17
19392.0	7.423230600019972e+17
19393.0	7.416364731290963e+17
19394.0	7.404007377775274e+17
19395.0	7.39558316013432e+17
19396.0	7.382637214345896e+17
19397.0	7.371306661401933e+17
19398.0	7.359740777245353e+17
19399.0	7.347424125255676e+17
19400.0	7.339245071674025e+17
19401.0	7.330878602608637e+17
19402.0	7.322132695831891e+17
19403.0	7.31300084458018e+17
19404.0	7.303485846454271e+17
19405.0	7.294011667294888e+17
19406.0	7.284304742012246e+17
19407.0	7.274338263411369e+17
19408.0	7.263941692489727e+17
19409.0	7.253567295455232e+17
19410.0	7.242257694457855e+17
19411.0	7.23097182483251e+17
19412.0	7.219464382709757e+17
19413.0	7.207576891905363e+17
19414.0	7.194298494397097e+17
19415.0	7.181542259774804e+17
19416.0	7.167631730322092e+17
19417.0	7.15303890924339e+17
19418.0	7.138462285168641e+17
19419.0	7.122477733904383e+17
19420.0	7.105728795901953e+17
19421.0	7.088710094247254e+17
19422.0	7.068905337345366e+17
19423.0	7.048381676737876e+17
19424.0	7.025863613393581e+17
19425.0	7.001302992508246e+17
19426.0	6.97442764010291e+17
19427.0	6.94401815176806e+17
19428.0	6.913926022649175e+17
19429.0	6.887478372510376e+17
19430.0	6.86162475675375e+17
19431.0	6.833040004568407e+17
19432.0	6.806773033162067e+17
19433.0	6.7762504859648e+17
19434.0	6.743287089419604e+17
19435.0	6.706878216841894e+17
19436.0	6.667008217885353e+17
19437.0	6.625684501823488e+17
19438.0	6.568867332969815e+17
19439.0	6.528377012529834e+17
19440.0	6.472850131124223e+17
19441.0	6.413472079631697e+17
19442.0	6.350682742674775e+17
19443.0	6.283106134086998e+17
19444.0	6.208056888481105e+17
19445.0	6.12477444082893e+17
19446.0	6.032254604847786e+17
19447.0	5.929841609495887e+17
19448.0	5.816456385484122e+17
19449.0	5.6893129257997645e+17
19450.0	5.524716021699902e+17
19451.0	5.4345360585960256e+17
19452.0	5.613025962054997e+17
19453.0	5.753030785892355e+17
19454.0	5.870083795233445e+17
19455.0	5.975499209703423e+17
19456.0	6.070426030921047e+17
19457.0	6.155803492177233e+17
19458.0	6.226983167983624e+17
19459.0	6.300746971261614e+17
19460.0	6.36339975566131e+17
19461.0	6.421939421009234e+17
19462.0	6.477113857845932e+17
19463.0	6.528250359928147e+17
19464.0	6.574004041154557e+17
19465.0	6.615174818212524e+17
19466.0	6.6529037151546e+17
19467.0	6.688171848892413e+17
19468.0	6.719921643148628e+17
19469.0	6.749230755130024e+17
19470.0	6.775779186005331e+17
19471.0	6.800761310674943e+17
19472.0	6.824122792629587e+17
19473.0	6.846673921070422e+17
19474.0	6.87323672932079e+17
19475.0	6.900846011525798e+17
19476.0	6.926275793562284e+17
19477.0	6.949270629034669e+17
19478.0	6.97032054896503e+17
19479.0	6.989144584617983e+17
19480.0	7.006082624214358e+17
19481.0	7.020976054555987e+17
19482.0	7.036253101533865e+17
19483.0	7.048874233430017e+17
19484.0	7.062121545553236e+17
19485.0	7.073331431167318e+17
19486.0	7.085242709267798e+17
19487.0	7.095400077634217e+17
19488.0	7.105689537216511e+17
19489.0	7.115365214934356e+17
19490.0	7.1240016475805e+17
19491.0	7.132785600888832e+17
19492.0	7.141411336661676e+17
19493.0	7.149428506886143e+17
19494.0	7.156985848572585e+17
19495.0	7.1642539636381e+17
19496.0	7.1711778172218e+17
19497.0	7.177989319382356e+17
19498.0	7.182823349813249e+17
19499.0	7.167274098797215e+17
19500.0	7.197227346122068e+17
19501.0	7.202923628986368e+17
19502.0	7.208358949246292e+17
19503.0	7.216135620875602e+17
19504.0	7.223147662497108e+17
19505.0	7.234962951154345e+17
19506.0	7.242080820658177e+17
19507.0	7.250289364391254e+17
19508.0	7.257711856407899e+17
19509.0	7.26384710114782e+17
19510.0	7.270407916748797e+17
19511.0	7.254275403022326e+17
19512.0	7.276558536409082e+17
19513.0	7.278967048372212e+17
19514.0	7.283790600033613e+17
19515.0	7.293985244577791e+17
19516.0	7.298045430114986e+17
19517.0	7.300610765706578e+17
19518.0	7.303834902025558e+17
19519.0	7.3078631577245e+17
19520.0	7.310071524491263e+17
19521.0	7.312178749811369e+17
19522.0	7.314266589058387e+17
19523.0	7.317950056191316e+17
19524.0	7.319748215832575e+17
19525.0	7.321461226908329e+17
19526.0	7.32310646362385e+17
19527.0	7.324667635302399e+17
19528.0	7.326651253085523e+17
19529.0	7.328888426332157e+17
19530.0	7.330226163242323e+17
19531.0	7.331495180675753e+17
19532.0	7.332694232924157e+17
19533.0	7.333802035292841e+17
19534.0	7.334838056342868e+17
19535.0	7.335817949216768e+17
19536.0	7.337158563419476e+17
19537.0	7.338491309107881e+17
19538.0	7.33927818989841e+17
19539.0	7.33992533884928e+17
19540.0	7.340778923054419e+17
19541.0	7.341459222386004e+17
19542.0	7.342084502235817e+17
19543.0	7.342665683173375e+17
19544.0	7.34320176136192e+17
19545.0	7.343571027886079e+17
19546.0	7.343914587521023e+17
19547.0	7.344575124690259e+17
19548.0	7.344954158350335e+17
19549.0	7.345661719259816e+17
19550.0	7.346122657890301e+17
19551.0	7.346395568668671e+17
19552.0	7.346632215494655e+17
19553.0	7.346823583410858e+17
19554.0	7.346968928627369e+17
19555.0	7.347092245359274e+17
19556.0	7.347171345738408e+17
19557.0	7.347216055620947e+17
19558.0	7.347230461657087e+17
19559.0	7.347211708923901e+17
19560.0	7.347156785911123e+17
19561.0	7.347088998967978e+17
19562.0	7.346983133336916e+17
19563.0	7.347418899152893e+17
19564.0	7.349008140511914e+17
19565.0	7.348808767067475e+17
19566.0	7.348577828689236e+17
19567.0	7.348332667426131e+17
19568.0	7.348857469927424e+17
19569.0	7.351693083672573e+17
19570.0	7.351356243312637e+17
19571.0	7.350993131230548e+17
19572.0	7.350601005749587e+17
19573.0	7.350199501804884e+17
19574.0	7.350029766710609e+17
19575.0	7.352627981451263e+17
19576.0	7.352393002560168e+17
19577.0	7.351894557065215e+17
19578.0	7.351373249817257e+17
19579.0	7.350845655307604e+17
19580.0	7.350299756855293e+17
19581.0	7.349740194758655e+17
19582.0	7.350574227914748e+17
19583.0	7.351245481530708e+17
19584.0	7.350613364965375e+17
19585.0	7.349949413632681e+17
19586.0	7.349269098921983e+17
19587.0	7.348557737973075e+17
19588.0	7.347843994659497e+17
19589.0	7.347277664354303e+17
19590.0	7.346558281099944e+17
19591.0	7.345868698375508e+17
19592.0	7.347239835926528e+17
19593.0	7.346521513831081e+17
19594.0	7.345659536823636e+17
19595.0	7.344974569231699e+17
19596.0	7.341434621394944e+17
19597.0	7.343329182919338e+17
19598.0	7.342513137734995e+17
19599.0	7.341769392564906e+17
19600.0	7.340939672551423e+17
19601.0	7.340077252345855e+17
19602.0	7.339230776087892e+17
19603.0	7.337941213555369e+17
19604.0	7.33745265123874e+17
19605.0	7.337986096802474e+17
19606.0	7.337396861403135e+17
19607.0	7.336498640016722e+17
19608.0	7.335589752515241e+17
19609.0	7.334667216748543e+17
19610.0	7.333750950068224e+17
19611.0	7.332817678281385e+17
19612.0	7.331879578850644e+17
19613.0	7.33093180875298e+17
19614.0	7.329960982566227e+17
19615.0	7.329005868242259e+17
19616.0	7.327871195764054e+17
19617.0	7.32706272129843e+17
19618.0	7.32591426913348e+17
19619.0	7.324884059990698e+17
19620.0	7.323895293367636e+17
19621.0	7.323088421126143e+17
19622.0	7.322079916108458e+17
19623.0	7.321064796673364e+17
19624.0	7.320465097883647e+17
19625.0	7.320235466730153e+17
19626.0	7.319198346772479e+17
19627.0	7.318142918677844e+17
19628.0	7.31658893463825e+17
19629.0	7.3159611018554e+17
19630.0	7.31310592168209e+17
19631.0	7.291453650763777e+17
19632.0	7.3127348418205e+17
19633.0	7.311776599943849e+17
19634.0	7.31073944363554e+17
19635.0	7.309656580598441e+17
19636.0	7.308593778917375e+17
19637.0	7.30737169994001e+17
19638.0	7.306418941416787e+17
19639.0	7.305315875815424e+17
19640.0	7.304206350985898e+17
19641.0	7.302959230615552e+17
19642.0	7.302022052533587e+17
19643.0	7.300910195671037e+17
19644.0	7.299777782524585e+17
19645.0	7.298599181702483e+17
19646.0	7.297560279165608e+17
19647.0	7.296436072873983e+17
19648.0	7.295308167206228e+17
19649.0	7.294176025291433e+17
19650.0	7.293042418166442e+17
19651.0	7.291904612543145e+17
19652.0	7.290763676570964e+17
19653.0	7.289609897639935e+17
19654.0	7.288472174504617e+17
19655.0	7.287319560191999e+17
19656.0	7.286164897660927e+17
19657.0	7.285010134466557e+17
19658.0	7.283850405216255e+17
19659.0	7.283000300885331e+17
19660.0	7.282379390102186e+17
19661.0	7.281210220871679e+17
19662.0	7.280038118424575e+17
19663.0	7.278835942817791e+17
19664.0	7.277603006185471e+17
19665.0	7.276507302985727e+17
19666.0	7.275321921372157e+17
