# Flux units: erg / (cm m2 s)
# Wavelength units: Angstrom
wave	flux
19000.0	4.5293591620922016e+17
19001.0	4.528351235189419e+17
19002.0	4.5277123434250234e+17
19003.0	4.526881442714964e+17
19004.0	4.5260160753117856e+17
19005.0	4.52519514865664e+17
19006.0	4.52417527357986e+17
19007.0	4.523591577458004e+17
19008.0	4.5226449118603936e+17
19009.0	4.521761089519614e+17
19010.0	4.520109994759506e+17
19011.0	4.5202208732829005e+17
19012.0	4.519026855597397e+17
19013.0	4.5186402798796794e+17
19014.0	4.5177376880285e+17
19015.0	4.5168855368772256e+17
19016.0	4.516029961775785e+17
19017.0	4.5153525089785165e+17
19018.0	4.5144988660531194e+17
19019.0	4.513658460351147e+17
19020.0	4.5128640647659514e+17
19021.0	4.5120637992523085e+17
19022.0	4.511237698224127e+17
19023.0	4.5103484016175776e+17
19024.0	4.5094822177232205e+17
19025.0	4.5087614887963296e+17
19026.0	4.5078870176563194e+17
19027.0	4.5069039119455565e+17
19028.0	4.50632261706274e+17
19029.0	4.50546846732561e+17
19030.0	4.504692568621055e+17
19031.0	4.503877909654185e+17
19032.0	4.503040519656789e+17
19033.0	4.502078151983102e+17
19034.0	4.501399705135787e+17
19035.0	4.5005547821684045e+17
19036.0	4.4802761639853997e+17
19037.0	4.4989518317267616e+17
19038.0	4.498108693435734e+17
19039.0	4.4973069424394234e+17
19040.0	4.4965080205011616e+17
19041.0	4.4956753092498765e+17
19042.0	4.492804363386877e+17
19043.0	4.494067942206121e+17
19044.0	4.493229036666879e+17
19045.0	4.4924145986000205e+17
19046.0	4.4914895364642125e+17
19047.0	4.4907755128313165e+17
19048.0	4.489227269395795e+17
19049.0	4.485155151762768e+17
19050.0	4.488209656446974e+17
19051.0	4.4847635897166445e+17
19052.0	4.4863631406749005e+17
19053.0	4.4859073232895994e+17
19054.0	4.4850865637075616e+17
19055.0	4.4832777624180064e+17
19056.0	4.48319917793826e+17
19057.0	4.4826359772829e+17
19058.0	4.479778548962641e+17
19059.0	4.4802093501207885e+17
19060.0	4.480158951363925e+17
19061.0	4.479387922945365e+17
19062.0	4.4785687131586554e+17
19063.0	4.477759802485418e+17
19064.0	4.476718402939562e+17
19065.0	4.475854142832638e+17
19066.0	4.474474908177749e+17
19067.0	4.4744894036923725e+17
19068.0	4.4737002754539514e+17
19069.0	4.472888806255274e+17
19070.0	4.472023804455594e+17
19071.0	4.471246362946218e+17
19072.0	4.4696608321481376e+17
19073.0	4.4696308100191565e+17
19074.0	4.468830308925438e+17
19075.0	4.4680191060650656e+17
19076.0	4.4669832388061856e+17
19077.0	4.466359814935892e+17
19078.0	4.4654912780369914e+17
19079.0	4.464769233496746e+17
19080.0	4.463937735098366e+17
19081.0	4.4630656631002445e+17
19082.0	4.4622560575706445e+17
19083.0	4.4613897653234336e+17
19084.0	4.4603849708666874e+17
19085.0	4.459871039302313e+17
19086.0	4.4575470663325005e+17
19087.0	4.456192501874686e+17
19088.0	4.456397527143764e+17
19089.0	4.456167250766507e+17
19090.0	4.4558226439536634e+17
19091.0	4.454822249321813e+17
19092.0	4.452604935405569e+17
19093.0	4.453439367719593e+17
19094.0	4.452627495168681e+17
19095.0	4.451823377885866e+17
19096.0	4.4509827303123616e+17
19097.0	4.4502041067083085e+17
19098.0	4.4485633432180045e+17
19099.0	4.447613087995221e+17
19100.0	4.4477039918448634e+17
19101.0	4.446956139752106e+17
19102.0	4.4458948829730125e+17
19103.0	4.445356275619158e+17
19104.0	4.4445626266200736e+17
19105.0	4.441978037075971e+17
19106.0	4.4428514596399776e+17
19107.0	4.441666478582442e+17
19108.0	4.440694995987113e+17
19109.0	4.4394967280735546e+17
19110.0	4.439720023031808e+17
19111.0	4.438422811486889e+17
19112.0	4.437419356411219e+17
19113.0	4.4372980662271994e+17
19114.0	4.436183562758825e+17
19115.0	4.4354177891041274e+17
19116.0	4.4348132403008845e+17
19117.0	4.4340648960764576e+17
19118.0	4.433073126331732e+17
19119.0	4.406125894041559e+17
19120.0	4.4315120182667936e+17
19121.0	4.430777167118334e+17
19122.0	4.430083452305407e+17
19123.0	4.4292815810723834e+17
19124.0	4.4284105450673485e+17
19125.0	4.42767136330001e+17
19126.0	4.426875914944511e+17
19127.0	4.4224886345127226e+17
19128.0	4.425226603462655e+17
19129.0	4.424341863967402e+17
19130.0	4.4236403861968205e+17
19131.0	4.4228581505979725e+17
19132.0	4.4220543311107405e+17
19133.0	4.421164461981695e+17
19134.0	4.420446447468542e+17
19135.0	4.419647870861311e+17
19136.0	4.418859139683668e+17
19137.0	4.4177421979265696e+17
19138.0	4.4172378091028474e+17
19139.0	4.416463448309759e+17
19140.0	4.415665152720895e+17
19141.0	4.414863812067327e+17
19142.0	4.414017387539114e+17
19143.0	4.413146782848341e+17
19144.0	4.412405192851455e+17
19145.0	4.4116632568244896e+17
19146.0	4.4097820919070726e+17
19147.0	4.409718604125525e+17
19148.0	4.408570796485291e+17
19149.0	4.407683413879466e+17
19150.0	4.40766390407441e+17
19151.0	4.4068716273117856e+17
19152.0	4.406061415705259e+17
19153.0	4.4039063655328403e+17
19154.0	4.4040727004446714e+17
19155.0	4.4036871159807994e+17
19156.0	4.402891039178751e+17
19157.0	4.4016025301155834e+17
19158.0	4.399685219385343e+17
19159.0	4.4003991842979834e+17
19160.0	4.399679356447402e+17
19161.0	4.398911420628991e+17
19162.0	4.396540975469909e+17
19163.0	4.3973103918776314e+17
19164.0	4.396508591947776e+17
19165.0	4.3941748539391974e+17
19166.0	4.394615689270612e+17
19167.0	4.3938882256895994e+17
19168.0	4.39334254743825e+17
19169.0	4.392505530034859e+17
19170.0	4.3917566042002765e+17
19171.0	4.390841070125055e+17
19172.0	4.390162168894804e+17
19173.0	4.389365763538943e+17
19174.0	4.388457684839083e+17
19175.0	4.387777716158463e+17
19176.0	4.386988609590612e+17
19177.0	4.385926600633002e+17
19178.0	4.3852597887849805e+17
19179.0	4.384309860018859e+17
19180.0	4.3838086357975034e+17
19181.0	4.3826678389364045e+17
19182.0	4.3821631977553914e+17
19183.0	4.3814446785276576e+17
19184.0	4.380601191410346e+17
19185.0	4.379840785066666e+17
19186.0	4.379066906618538e+17
19187.0	4.3781771738043725e+17
19188.0	4.377452630857045e+17
19189.0	4.37669714862626e+17
19190.0	4.375905050121555e+17
19191.0	4.375019820591785e+17
19192.0	4.3743234458910714e+17
19193.0	4.373352804952746e+17
19194.0	4.3724513644380166e+17
19195.0	4.3719500164846925e+17
19196.0	4.371130736792917e+17
19197.0	4.370361027482965e+17
19198.0	4.3695900493960525e+17
19199.0	4.358692736598014e+17
19200.0	4.361386208176815e+17
19201.0	4.3671988997543245e+17
19202.0	4.366432975104682e+17
19203.0	4.365612079207765e+17
19204.0	4.364799320260607e+17
19205.0	4.364050050493098e+17
19206.0	4.3632483659066016e+17
19207.0	4.362291972319914e+17
19208.0	4.3611712584854163e+17
19209.0	4.3608920324833274e+17
19210.0	4.360103116756308e+17
19211.0	4.3593305196680525e+17
19212.0	4.35854858396194e+17
19213.0	4.3575530113815885e+17
19214.0	4.3566768765009914e+17
19215.0	4.356159208510804e+17
19216.0	4.355409708755626e+17
19217.0	4.3546146504703994e+17
19218.0	4.352289872893266e+17
19219.0	4.3528282320841376e+17
19220.0	4.352218197131264e+17
19221.0	4.350860010891946e+17
19222.0	4.35068895109666e+17
19223.0	4.349874067035477e+17
19224.0	4.349045745822378e+17
19225.0	4.3480323907911674e+17
19226.0	4.347507227579734e+17
19227.0	4.346729737835861e+17
19228.0	4.3459798948468045e+17
19229.0	4.3451950790519456e+17
19230.0	4.344395895668734e+17
19231.0	4.3436071749768525e+17
19232.0	4.342831583854592e+17
19233.0	4.341943170149034e+17
19234.0	4.3412297763607885e+17
19235.0	4.340442745973418e+17
19236.0	4.339713165666986e+17
19237.0	4.338892684307114e+17
19238.0	4.3379555852178765e+17
19239.0	4.3373657248672416e+17
19240.0	4.3365731328327674e+17
19241.0	4.335765425924778e+17
19242.0	4.3349925478181536e+17
19243.0	4.3339856506170016e+17
19244.0	4.333453180928e+17
19245.0	4.3326493796160845e+17
19246.0	4.3318633852218016e+17
19247.0	4.33109861470481e+17
19248.0	4.330330095878143e+17
19249.0	4.329512560317781e+17
19250.0	4.3284755235471366e+17
19251.0	4.327531209555967e+17
19252.0	4.3267762117672954e+17
19253.0	4.326375658531497e+17
19254.0	4.325650248761343e+17
19255.0	4.3245657918887245e+17
19256.0	4.324009982995115e+17
19257.0	4.323310920444586e+17
19258.0	4.322534741420714e+17
19259.0	4.321639058986325e+17
19260.0	4.320461121563305e+17
19261.0	4.320177481056255e+17
19262.0	4.319311561403049e+17
19263.0	4.3185110659017376e+17
19264.0	4.316729132624552e+17
19265.0	4.3166516449553056e+17
19266.0	4.315489507475456e+17
19267.0	4.315531032483157e+17
19268.0	4.314743490390698e+17
19269.0	4.313972006191102e+17
19270.0	4.3132008680215885e+17
19271.0	4.3117126842231475e+17
19272.0	4.3115806048911354e+17
19273.0	4.310175065658707e+17
19274.0	4.309334268488361e+17
19275.0	4.309319548578473e+17
19276.0	4.30850742227217e+17
19277.0	4.30774388068625e+17
19278.0	4.3069466581401594e+17
19279.0	4.3061678066455885e+17
19280.0	4.305258904464042e+17
19281.0	4.304633246427819e+17
19282.0	4.3038921821170336e+17
19283.0	4.302976496347817e+17
19284.0	4.3022894476820474e+17
19285.0	4.3012516943844685e+17
19286.0	4.3007297349222394e+17
19287.0	4.3000189520882336e+17
19288.0	4.294080401331536e+17
19289.0	4.285325111197672e+17
19290.0	4.297699149654698e+17
19291.0	4.2965090585367904e+17
19292.0	4.2961525678626125e+17
19293.0	4.2953652333882016e+17
19294.0	4.294580023328768e+17
19295.0	4.2938332813284685e+17
19296.0	4.2922515037334195e+17
19297.0	4.292070271352832e+17
19298.0	4.291463285658965e+17
19299.0	4.28981229715456e+17
19300.0	4.2899101761317536e+17
19301.0	4.2891856499616416e+17
19302.0	4.2884022119956474e+17
19303.0	4.287513574593876e+17
19304.0	4.286824182011221e+17
19305.0	4.2860777909343565e+17
19306.0	4.285325255202133e+17
19307.0	4.2844604120869536e+17
19308.0	4.283743399313408e+17
19309.0	4.282624884692308e+17
19310.0	4.281763871675732e+17
19311.0	4.2813952510743885e+17
19312.0	4.2806901151716685e+17
19313.0	4.279924817570474e+17
19314.0	4.221398802584931e+17
19315.0	4.223337916006472e+17
19316.0	4.276508263361196e+17
19317.0	4.2768361831355725e+17
19318.0	4.276076475842559e+17
19319.0	4.275332223161685e+17
19320.0	4.2742042510841165e+17
19321.0	4.273081150690644e+17
19322.0	4.272900703343958e+17
19323.0	4.2720981512355834e+17
19324.0	4.271481958345386e+17
19325.0	4.2703533277620896e+17
19326.0	4.2699652330072736e+17
19327.0	4.269143038274218e+17
19328.0	4.2668398522750304e+17
19329.0	4.2676643070388896e+17
19330.0	4.266820580147199e+17
19331.0	4.266049441278634e+17
19332.0	4.265359104977578e+17
19333.0	4.264569846016681e+17
19334.0	4.26375693537553e+17
19335.0	4.2598677753801414e+17
19336.0	4.262235051043497e+17
19337.0	4.261525999058943e+17
19338.0	4.260389898420222e+17
19339.0	4.2599903637012474e+17
19340.0	4.25859221762867e+17
19341.0	4.257191769582251e+17
19342.0	4.2565769964639565e+17
19343.0	4.256936512629418e+17
19344.0	4.255024898463063e+17
19345.0	4.2505605092474797e+17
19346.0	4.252917854197075e+17
19347.0	4.252294388383743e+17
19348.0	4.2531185928874656e+17
19349.0	4.252296591092393e+17
19350.0	4.251015317902676e+17
19351.0	4.2507378171576314e+17
19352.0	4.24835072550502e+17
19353.0	4.249286977344853e+17
19354.0	4.248535919405738e+17
19355.0	4.247602432311296e+17
19356.0	4.247007321391104e+17
19357.0	4.246247814725632e+17
19358.0	4.245477077811199e+17
19359.0	4.244242157972137e+17
19360.0	4.242696438109523e+17
19361.0	4.243124119404543e+17
19362.0	4.242440603041791e+17
19363.0	4.241677222936575e+17
19364.0	4.2409135464338765e+17
19365.0	4.2401474428272634e+17
19366.0	4.2393958850669216e+17
19367.0	4.238634110681087e+17
19368.0	4.237875649795412e+17
19369.0	4.237025442704042e+17
19370.0	4.236278911817044e+17
19371.0	4.2355039288688634e+17
19372.0	4.2348319810955936e+17
19373.0	4.2340431646337696e+17
19374.0	4.2333076270175565e+17
19375.0	4.2325501972316166e+17
19376.0	4.2317995272656205e+17
19377.0	4.231021371326463e+17
19378.0	4.230269752748714e+17
19379.0	4.22951705833199e+17
19380.0	4.228756164050944e+17
19381.0	4.227990079318697e+17
19382.0	4.2271283721448096e+17
19383.0	4.226283789615102e+17
19384.0	4.225690424923476e+17
19385.0	4.2249662426862925e+17
19386.0	4.224217290287786e+17
19387.0	4.223461264195583e+17
19388.0	4.222676962902015e+17
19389.0	4.2218370402440525e+17
19390.0	4.221078468209321e+17
19391.0	4.2021488926828954e+17
19392.0	4.2194045592316563e+17
19393.0	4.218794627738281e+17
19394.0	4.218014026519893e+17
19395.0	4.21678710521856e+17
19396.0	4.2163557196540576e+17
19397.0	4.215757424558079e+17
19398.0	4.214533978936661e+17
19399.0	4.212067079465641e+17
19400.0	4.2130313233913165e+17
19401.0	4.212696701818197e+17
19402.0	4.211949620778325e+17
19403.0	4.2111550714019846e+17
19404.0	4.210424474675882e+17
19405.0	4.2096346858345805e+17
19406.0	4.208887703360853e+17
19407.0	4.2075699467168416e+17
19408.0	4.205659281162244e+17
19409.0	4.206592436207615e+17
19410.0	4.205850532336981e+17
19411.0	4.205085201181355e+17
19412.0	4.2042986859943245e+17
19413.0	4.2029614922465274e+17
19414.0	4.202701288811178e+17
19415.0	4.201981924431189e+17
19416.0	4.200899845029887e+17
19417.0	4.200256915548842e+17
19418.0	4.1996917184047776e+17
19419.0	4.198911797362687e+17
19420.0	4.1981456168605005e+17
19421.0	4.197363873393321e+17
19422.0	4.1965024409463456e+17
19423.0	4.1957778770274976e+17
19424.0	4.194998360735743e+17
19425.0	4.194205711379114e+17
19426.0	4.19340814000674e+17
19427.0	4.192584673700523e+17
19428.0	4.1917885339839136e+17
19429.0	4.19096430711057e+17
19430.0	4.1898854181765126e+17
19431.0	4.185882372341766e+17
19432.0	4.188437703819264e+17
19433.0	4.187546788910421e+17
19434.0	4.186639061133994e+17
19435.0	4.1852943078522874e+17
19436.0	4.182982390011218e+17
19437.0	4.1836959571640314e+17
19438.0	4.141851303652022e+17
19439.0	4.180366580165292e+17
19440.0	4.1800508539316896e+17
19441.0	4.1786889948801696e+17
19442.0	4.176983169346219e+17
19443.0	4.1748779964388685e+17
19444.0	4.172164152426495e+17
19445.0	4.168375264957781e+17
19446.0	4.162548378457427e+17
19447.0	4.152355626243411e+17
19448.0	4.1308585921085446e+17
19449.0	4.0502018465682694e+17
19450.0	3.510941462997662e+17
19451.0	3.1380320938885094e+17
19452.0	3.6971795140225805e+17
19453.0	4.085945218717022e+17
19454.0	4.133738908046675e+17
19455.0	4.149504790669994e+17
19456.0	4.156635698167808e+17
19457.0	4.1602937974510925e+17
19458.0	3.95778289967682e+17
19459.0	4.15685990608629e+17
19460.0	4.163842830849364e+17
19461.0	4.164032711185748e+17
19462.0	4.163914954003796e+17
19463.0	4.1636933248832845e+17
19464.0	4.163315818648917e+17
19465.0	4.162918949410134e+17
19466.0	4.162315899371519e+17
19467.0	4.1618876700207776e+17
19468.0	4.1613178241897805e+17
19469.0	4.158963023085565e+17
19470.0	4.160091382437204e+17
19471.0	4.15947717415185e+17
19472.0	4.1587240358379526e+17
19473.0	4.158018864283647e+17
19474.0	4.156303561719806e+17
19475.0	4.154780658171901e+17
19476.0	4.1559438134695245e+17
19477.0	4.155342821436073e+17
19478.0	4.154706091835392e+17
19479.0	4.152864111504039e+17
19480.0	4.1532417107121485e+17
19481.0	4.15239620333841e+17
19482.0	4.151824916763989e+17
19483.0	4.15115914720051e+17
19484.0	4.150414528916138e+17
19485.0	4.1495877896546976e+17
19486.0	4.1477031210953414e+17
19487.0	4.148243234903381e+17
19488.0	4.147551450169344e+17
19489.0	4.146657005054634e+17
19490.0	4.142856684612261e+17
19491.0	4.145305780660906e+17
19492.0	4.144643963529897e+17
19493.0	4.1439152136956576e+17
19494.0	4.143173643272192e+17
19495.0	4.142433268225364e+17
19496.0	4.1406925013428883e+17
19497.0	4.1409099662185805e+17
19498.0	4.13858731445453e+17
19499.0	4.110164974108655e+17
19500.0	4.138744692430165e+17
19501.0	4.138137291500202e+17
19502.0	4.1374445504648525e+17
19503.0	4.1367235090623136e+17
19504.0	4.135988334952447e+17
19505.0	4.1352290960233805e+17
19506.0	4.1345229758573216e+17
19507.0	4.133723909914623e+17
19508.0	4.1330450876770976e+17
19509.0	4.132303603935914e+17
19510.0	4.1309938800831136e+17
19511.0	4.037755738084626e+17
19512.0	4.1258244066945594e+17
19513.0	4.120638004396017e+17
19514.0	4.122654927749112e+17
19515.0	4.126788635241133e+17
19516.0	4.1269867014608205e+17
19517.0	4.1262347102890656e+17
19518.0	4.1253697315580576e+17
19519.0	4.12460322459921e+17
19520.0	4.1230906453306016e+17
19521.0	4.1234770330036896e+17
19522.0	4.122548875471529e+17
19523.0	4.121710016768682e+17
19524.0	4.1204784691500384e+17
19525.0	4.1205057118535674e+17
19526.0	4.1198141277470714e+17
19527.0	4.119046409333418e+17
19528.0	4.118253170677076e+17
19529.0	4.117468017939796e+17
19530.0	4.1168793075275085e+17
19531.0	4.116145688106325e+17
19532.0	4.1154120854623565e+17
19533.0	4.114678329726293e+17
19534.0	4.1139402538571085e+17
19535.0	4.11318247035153e+17
19536.0	4.1124067345257805e+17
19537.0	4.1117346022031354e+17
19538.0	4.109785813920428e+17
19539.0	4.109076640301058e+17
19540.0	4.1094970724406605e+17
19541.0	4.1085977822057805e+17
19542.0	4.1079756382972576e+17
19543.0	4.106257193500672e+17
19544.0	4.106542051054932e+17
19545.0	4.104952655904764e+17
19546.0	4.103227472259755e+17
19547.0	4.1044289746807456e+17
19548.0	4.103693971838293e+17
19549.0	4.1028045535969274e+17
19550.0	4.1022304722179405e+17
19551.0	4.1015064458690554e+17
19552.0	4.100770981653162e+17
19553.0	4.099998554434218e+17
19554.0	4.0992172262031354e+17
19555.0	4.098442554332501e+17
19556.0	4.0977739640995846e+17
19557.0	4.0971073256161274e+17
19558.0	4.0963861905407974e+17
19559.0	4.095664733203114e+17
19560.0	4.094516973797374e+17
19561.0	4.094161057043796e+17
19562.0	4.093089504646485e+17
19563.0	4.092752939712512e+17
19564.0	4.092025247541929e+17
19565.0	4.0912921251457696e+17
19566.0	4.090510350221311e+17
19567.0	4.0898402738066765e+17
19568.0	4.0890795885417805e+17
19569.0	4.088343370050218e+17
19570.0	4.0876496167895034e+17
19571.0	4.0869133920064845e+17
19572.0	4.086148602615125e+17
19573.0	4.08531844080162e+17
19574.0	4.084559622701055e+17
19575.0	4.0840181583271245e+17
19576.0	4.083228655397546e+17
19577.0	4.0823581052327245e+17
19578.0	4.081751550853119e+17
19579.0	4.081057815767723e+17
19580.0	4.0803479389033805e+17
19581.0	4.079630461960191e+17
19582.0	4.0789407680866976e+17
19583.0	4.078216169215317e+17
19584.0	4.077477027992917e+17
19585.0	4.076570504680788e+17
19586.0	4.0757994175419725e+17
19587.0	4.075249222025215e+17
19588.0	4.0736213567187635e+17
19589.0	4.073830544834559e+17
19590.0	4.072833830704468e+17
19591.0	4.0724009841240736e+17
19592.0	4.071679758172158e+17
19593.0	4.0708408770996896e+17
19594.0	4.0697256857654605e+17
19595.0	4.069457414586368e+17
19596.0	4.0686550099776845e+17
19597.0	4.0680516565510816e+17
19598.0	4.065998632124415e+17
19599.0	4.0666162594665805e+17
19600.0	4.0659054794287763e+17
19601.0	4.065060492148736e+17
19602.0	4.0643823689618765e+17
19603.0	4.0627445869226643e+17
19604.0	4.0629418988666886e+17
19605.0	4.061756645878442e+17
19606.0	4.0615594450834765e+17
19607.0	4.0608501617131514e+17
19608.0	4.0601008150500685e+17
19609.0	4.059309273688746e+17
19610.0	4.058137445269504e+17
19611.0	4.05717918941184e+17
19612.0	4.057248322027519e+17
19613.0	4.0565105257786016e+17
19614.0	4.0557433169728845e+17
19615.0	4.055081007710206e+17
19616.0	4.053661137939115e+17
19617.0	4.052821891263147e+17
19618.0	4.051712487369385e+17
19619.0	4.050529546141693e+17
19620.0	4.049732878641833e+17
19621.0	4.049692171523412e+17
19622.0	4.0500497450270714e+17
19623.0	4.0492811360228685e+17
19624.0	4.0484579192777376e+17
19625.0	4.047890716557311e+17
19626.0	4.047162218381312e+17
19627.0	4.046455218110463e+17
19628.0	4.045464687782571e+17
19629.0	4.042163998425087e+17
19630.0	4.0439794833380685e+17
19631.0	4.0329215999999974e+17
19632.0	4.042855426643284e+17
19633.0	4.0420309537041056e+17
19634.0	4.0414253500334074e+17
19635.0	4.0404808459004576e+17
19636.0	4.038744346023252e+17
19637.0	4.037576464444073e+17
19638.0	4.038399063927466e+17
19639.0	4.0378222905043635e+17
19640.0	4.036898291624619e+17
19641.0	4.032869675215539e+17
19642.0	4.035602478181033e+17
19643.0	4.0348778422599674e+17
19644.0	4.0341478844661754e+17
19645.0	4.032961796112382e+17
19646.0	4.0314837828020883e+17
19647.0	4.032073657832788e+17
19648.0	4.0313972221542394e+17
19649.0	4.0306726086027936e+17
19650.0	4.0299709392923296e+17
19651.0	4.029250500471466e+17
19652.0	4.02853229302033e+17
19653.0	4.0278188803577165e+17
19654.0	4.027104098254847e+17
19655.0	4.0263755043089056e+17
