# Flux units: erg / (cm m2 s)
# Wavelength units: Angstrom
wave	flux
19000.0	7.25887526965521e+17
19001.0	7.257493316392275e+17
19002.0	7.256239109046271e+17
19003.0	7.254961157745322e+17
19004.0	7.253724703490047e+17
19005.0	7.252410623852543e+17
19006.0	7.251087660679165e+17
19007.0	7.249743331721216e+17
19008.0	7.248414095267155e+17
19009.0	7.247015573105322e+17
19010.0	7.245622544083625e+17
19011.0	7.244396821654185e+17
19012.0	7.242935953959594e+17
19013.0	7.241835857925459e+17
19014.0	7.240484286802602e+17
19015.0	7.239174646136832e+17
19016.0	7.237865329830568e+17
19017.0	7.236553127843155e+17
19018.0	7.235220260519935e+17
19019.0	7.23389935115742e+17
19020.0	7.23256556528162e+17
19021.0	7.231252461518847e+17
19022.0	7.229926537166847e+17
19023.0	7.22856911778611e+17
19024.0	7.227255247863807e+17
19025.0	7.225896493296297e+17
19026.0	7.22452842877201e+17
19027.0	7.223112012311208e+17
19028.0	7.22191482233378e+17
19029.0	7.220607292801023e+17
19030.0	7.219287545260713e+17
19031.0	7.217946296319999e+17
19032.0	7.216589914330454e+17
19033.0	7.215138703321769e+17
19034.0	7.213661175851689e+17
19035.0	7.210956393633108e+17
19036.0	7.198803450920957e+17
19037.0	7.208646232506368e+17
19038.0	7.208372477274794e+17
19039.0	7.207235664303444e+17
19040.0	7.205967010376361e+17
19041.0	7.204659577312595e+17
19042.0	7.20321004122931e+17
19043.0	7.202028867900756e+17
19044.0	7.200694627642026e+17
19045.0	7.199357120020479e+17
19046.0	7.198018895172947e+17
19047.0	7.196666840307028e+17
19048.0	7.195271672190291e+17
19049.0	7.193759288655871e+17
19050.0	7.192430600257535e+17
19051.0	7.189659708817407e+17
19052.0	7.189006801087144e+17
19053.0	7.188548749535914e+17
19054.0	7.187352752138922e+17
19055.0	7.185876287225855e+17
19056.0	7.184722790711296e+17
19057.0	7.183422954930175e+17
19058.0	7.182010709005651e+17
19059.0	7.180743749577386e+17
19060.0	7.179442883395583e+17
19061.0	7.178118812925951e+17
19062.0	7.176787737968639e+17
19063.0	7.175454020599807e+17
19064.0	7.174081477956948e+17
19065.0	7.172694013378557e+17
19066.0	7.171397812660905e+17
19067.0	7.170141935981908e+17
19068.0	7.168813056043689e+17
19069.0	7.167483047837693e+17
19070.0	7.1661416101533e+17
19071.0	7.164811473321983e+17
19072.0	7.163460524354217e+17
19073.0	7.162161587552255e+17
19074.0	7.160831940056404e+17
19075.0	7.159500501592745e+17
19076.0	7.1581642536605e+17
19077.0	7.156828221035862e+17
19078.0	7.15549246104098e+17
19079.0	7.154174312928595e+17
19080.0	7.152833746261331e+17
19081.0	7.151479661352275e+17
19082.0	7.150163402074794e+17
19083.0	7.148764549961044e+17
19084.0	7.147341207306239e+17
19085.0	7.146147757249876e+17
19086.0	7.144468954917545e+17
19087.0	7.143298368012287e+17
19088.0	7.141976052159828e+17
19089.0	7.140623854687572e+17
19090.0	7.139437030233428e+17
19091.0	7.138133098015402e+17
19092.0	7.136725495185407e+17
19093.0	7.135519822927187e+17
19094.0	7.134204403908607e+17
19095.0	7.132881725947904e+17
19096.0	7.131552102219775e+17
19097.0	7.130226711942483e+17
19098.0	7.128864283164671e+17
19099.0	7.127528203004585e+17
19100.0	7.126204716941311e+17
19101.0	7.124886774349824e+17
19102.0	7.123538355945471e+17
19103.0	7.122242026602493e+17
19104.0	7.120906556014591e+17
19105.0	7.119482375897087e+17
19106.0	7.118203329882794e+17
19107.0	7.116822950881961e+17
19108.0	7.115384694680233e+17
19109.0	7.113752753908393e+17
19110.0	7.112640739060393e+17
19111.0	7.111475565603497e+17
19112.0	7.110207823238484e+17
19113.0	7.10892913234193e+17
19114.0	7.107584410517501e+17
19115.0	7.106230890441385e+17
19116.0	7.1049296230045e+17
19117.0	7.103591923843071e+17
19118.0	7.102125679050751e+17
19119.0	7.098937732584786e+17
19120.0	7.099455160101545e+17
19121.0	7.098197812619945e+17
19122.0	7.096969342921385e+17
19123.0	7.095653916912297e+17
19124.0	7.09420029977122e+17
19125.0	7.092973657391101e+17
19126.0	7.091555440175785e+17
19127.0	7.089711617146879e+17
19128.0	7.088786815057919e+17
19129.0	7.087607334830079e+17
19130.0	7.086345326078633e+17
19131.0	7.085032314590548e+17
19132.0	7.083704312659968e+17
19133.0	7.082338211069951e+17
19134.0	7.080995056517119e+17
19135.0	7.079717295357952e+17
19136.0	7.078384222513833e+17
19137.0	7.077015194697727e+17
19138.0	7.075718229218644e+17
19139.0	7.074405767184383e+17
19140.0	7.073080540484947e+17
19141.0	7.071752138697385e+17
19142.0	7.070405906923519e+17
19143.0	7.069075782675114e+17
19144.0	7.067734312834387e+17
19145.0	7.066431013956266e+17
19146.0	7.06471244263151e+17
19147.0	7.063743745753087e+17
19148.0	7.062410196156415e+17
19149.0	7.061077523169279e+17
19150.0	7.059779314778111e+17
19151.0	7.058446246128297e+17
19152.0	7.057065272934399e+17
19153.0	7.055675126797652e+17
19154.0	7.054367755250345e+17
19155.0	7.053044513854803e+17
19156.0	7.051692893798399e+17
19157.0	7.05026660114978e+17
19158.0	7.048807648854016e+17
19159.0	7.047601864747689e+17
19160.0	7.046268847827625e+17
19161.0	7.044795801272319e+17
19162.0	7.04294600974882e+17
19163.0	7.041977784030547e+17
19164.0	7.040948693368832e+17
19165.0	7.039634499087017e+17
19166.0	7.038342214451199e+17
19167.0	7.037022594138111e+17
19168.0	7.035742981193727e+17
19169.0	7.034442391835988e+17
19170.0	7.033123570537812e+17
19171.0	7.031787412084052e+17
19172.0	7.030458119705939e+17
19173.0	7.029145373158058e+17
19174.0	7.027807993462783e+17
19175.0	7.026493067274921e+17
19176.0	7.025163200976212e+17
19177.0	7.023728414162941e+17
19178.0	7.022470183780351e+17
19179.0	7.021129589850111e+17
19180.0	7.019814482608128e+17
19181.0	7.018455351252308e+17
19182.0	7.017148924122452e+17
19183.0	7.015840271914323e+17
19184.0	7.014505869475839e+17
19185.0	7.013168958144511e+17
19186.0	7.011830467657728e+17
19187.0	7.010436564822697e+17
19188.0	7.00914045428258e+17
19189.0	7.007787955519487e+17
19190.0	7.006425851800234e+17
19191.0	7.005044557742079e+17
19192.0	7.003692399416659e+17
19193.0	7.002284697321471e+17
19194.0	7.000835947670185e+17
19195.0	6.999357267465555e+17
19196.0	6.997715671405907e+17
19197.0	6.995784270610431e+17
19198.0	6.993033502042794e+17
19199.0	6.987795476949673e+17
19200.0	6.98691117715729e+17
19201.0	6.989193742559914e+17
19202.0	6.989180691283967e+17
19203.0	6.988373436661759e+17
19204.0	6.987351366565887e+17
19205.0	6.98618070765841e+17
19206.0	6.984947817862484e+17
19207.0	6.983590120259583e+17
19208.0	6.982309474817364e+17
19209.0	6.981067951046655e+17
19210.0	6.979758001400489e+17
19211.0	6.978438189547519e+17
19212.0	6.977099284523689e+17
19213.0	6.975675587450195e+17
19214.0	6.974349742789971e+17
19215.0	6.973076889665535e+17
19216.0	6.971761871202985e+17
19217.0	6.970392651147946e+17
19218.0	6.968856804676948e+17
19219.0	6.967605139079167e+17
19220.0	6.966396560168276e+17
19221.0	6.965014323789823e+17
19222.0	6.963728503974569e+17
19223.0	6.962409573624489e+17
19224.0	6.961048854724607e+17
19225.0	6.959711282091348e+17
19226.0	6.958387807911936e+17
19227.0	6.957049402010281e+17
19228.0	6.955726659736916e+17
19229.0	6.954355355112788e+17
19230.0	6.952991730958336e+17
19231.0	6.951639821494954e+17
19232.0	6.95029578404113e+17
19233.0	6.948908999639039e+17
19234.0	6.947598524306772e+17
19235.0	6.946233456612691e+17
19236.0	6.944902424297471e+17
19237.0	6.943544527465129e+17
19238.0	6.94214319022626e+17
19239.0	6.940844957368319e+17
19240.0	6.939493630913194e+17
19241.0	6.938126247264255e+17
19242.0	6.93677469012241e+17
19243.0	6.93531949802018e+17
19244.0	6.934073567434068e+17
19245.0	6.932710496228692e+17
19246.0	6.931351013250388e+17
19247.0	6.929994537588052e+17
19248.0	6.928619174974804e+17
19249.0	6.927248010859859e+17
19250.0	6.925867232701097e+17
19251.0	6.924459419456851e+17
19252.0	6.922961866981375e+17
19253.0	6.921787563223721e+17
19254.0	6.920433951571967e+17
19255.0	6.918933428131155e+17
19256.0	6.917685812832937e+17
19257.0	6.916325821644799e+17
19258.0	6.914950435263827e+17
19259.0	6.913500369300138e+17
19260.0	6.91192592474658e+17
19261.0	6.910796300812287e+17
19262.0	6.90940150948386e+17
19263.0	6.907991999643647e+17
19264.0	6.906430934919849e+17
19265.0	6.905138962759679e+17
19266.0	6.903774959719763e+17
19267.0	6.902484153576106e+17
19268.0	6.901102774932819e+17
19269.0	6.899712667243862e+17
19270.0	6.898294684210516e+17
19271.0	6.896817135069865e+17
19272.0	6.895509861389652e+17
19273.0	6.893970655281151e+17
19274.0	6.892470249280851e+17
19275.0	6.891355148823209e+17
19276.0	6.889950802870271e+17
19277.0	6.88855278821922e+17
19278.0	6.887149095179604e+17
19279.0	6.885715236705619e+17
19280.0	6.884302153318397e+17
19281.0	6.882895715106815e+17
19282.0	6.881480298987519e+17
19283.0	6.880033093539156e+17
19284.0	6.878560776093695e+17
19285.0	6.877129887885993e+17
19286.0	6.875624462002857e+17
19287.0	6.873818551287807e+17
19288.0	6.867424055219538e+17
19289.0	6.863350273845925e+17
19290.0	6.869431556767743e+17
19291.0	6.868249209034068e+17
19292.0	6.867077932864854e+17
19293.0	6.865673533784063e+17
19294.0	6.864239143332522e+17
19295.0	6.86280767840802e+17
19296.0	6.861320369121961e+17
19297.0	6.859883471175679e+17
19298.0	6.858432209136297e+17
19299.0	6.856941460520959e+17
19300.0	6.855519049700691e+17
19301.0	6.854047480239444e+17
19302.0	6.852561525713578e+17
19303.0	6.8510506549248e+17
19304.0	6.849508330351273e+17
19305.0	6.847975898043732e+17
19306.0	6.846452967931903e+17
19307.0	6.844901255107924e+17
19308.0	6.843359249301503e+17
19309.0	6.841694075660969e+17
19310.0	6.84009713705506e+17
19311.0	6.838740106346495e+17
19312.0	6.837275227499178e+17
19313.0	6.835556386340863e+17
19314.0	6.820200958306985e+17
19315.0	6.81963826376432e+17
19316.0	6.830915279213908e+17
19317.0	6.829654277095423e+17
19318.0	6.828041010064042e+17
19319.0	6.826532959944703e+17
19320.0	6.824971477188607e+17
19321.0	6.823385363382272e+17
19322.0	6.821814639875412e+17
19323.0	6.820229889916927e+17
19324.0	6.818652538710697e+17
19325.0	6.817036043463338e+17
19326.0	6.815489919549439e+17
19327.0	6.813910910195027e+17
19328.0	6.812246631339348e+17
19329.0	6.810655108978004e+17
19330.0	6.808969493697876e+17
19331.0	6.807313453154303e+17
19332.0	6.805679013975382e+17
19333.0	6.803937068493481e+17
19334.0	6.802284066723155e+17
19335.0	6.800470709021353e+17
19336.0	6.798911203180543e+17
19337.0	6.797219872462164e+17
19338.0	6.795377072843433e+17
19339.0	6.793769842114559e+17
19340.0	6.791983512507731e+17
19341.0	6.790174312060243e+17
19342.0	6.788357966615891e+17
19343.0	6.786701085813417e+17
19344.0	6.784814879342591e+17
19345.0	6.78239937896994e+17
19346.0	6.780766471411028e+17
19347.0	6.779370693722111e+17
19348.0	6.777671529441962e+17
19349.0	6.775812828517716e+17
19350.0	6.77388077900322e+17
19351.0	6.771958407845203e+17
19352.0	6.769975575795027e+17
19353.0	6.768182414366036e+17
19354.0	6.766266401772884e+17
19355.0	6.764271745979731e+17
19356.0	6.762382767773011e+17
19357.0	6.760417595839828e+17
19358.0	6.758426831661737e+17
19359.0	6.756403948901716e+17
19360.0	6.754339613835261e+17
19361.0	6.752339053161129e+17
19362.0	6.750257260003327e+17
19363.0	6.74814222279202e+17
19364.0	6.745857666493098e+17
19365.0	6.743662736878249e+17
19366.0	6.741469623397033e+17
19367.0	6.739212798438057e+17
19368.0	6.73693775901491e+17
19369.0	6.734634080884052e+17
19370.0	6.732323601689257e+17
19371.0	6.729975235346431e+17
19372.0	6.727629681284435e+17
19373.0	6.725190388023295e+17
19374.0	6.722727078177449e+17
19375.0	6.720146984228179e+17
19376.0	6.717453708383572e+17
19377.0	6.714869501919231e+17
19378.0	6.712258128947881e+17
19379.0	6.709601298109779e+17
19380.0	6.706896335536127e+17
19381.0	6.704143601937065e+17
19382.0	6.701303605144233e+17
19383.0	6.698483369814697e+17
19384.0	6.695641175206569e+17
19385.0	6.692678515993257e+17
19386.0	6.689636060845395e+17
19387.0	6.686357571239933e+17
19388.0	6.683234004544169e+17
19389.0	6.679966560638292e+17
19390.0	6.676144407445503e+17
19391.0	6.663564987902628e+17
19392.0	6.667810747624105e+17
19393.0	6.666427659102889e+17
19394.0	6.663112053402282e+17
19395.0	6.659520802936148e+17
19396.0	6.655834320797695e+17
19397.0	6.65204012683537e+17
19398.0	6.648078036981076e+17
19399.0	6.643728502489087e+17
19400.0	6.63969535762978e+17
19401.0	6.635367822961321e+17
19402.0	6.631018209476607e+17
19403.0	6.626487608279039e+17
19404.0	6.621845485431466e+17
19405.0	6.617052050969939e+17
19406.0	6.612121812991999e+17
19407.0	6.606975962622634e+17
19408.0	6.601484879091028e+17
19409.0	6.596227395223552e+17
19410.0	6.590800255254527e+17
19411.0	6.585173135065087e+17
19412.0	6.579429866209279e+17
19413.0	6.573200955670527e+17
19414.0	6.566647796072447e+17
19415.0	6.559987690810026e+17
19416.0	6.55296318930944e+17
19417.0	6.545850104108371e+17
19418.0	6.538463555878911e+17
19419.0	6.530735740900692e+17
19420.0	6.522626533665449e+17
19421.0	6.514021061274282e+17
19422.0	6.505025506727252e+17
19423.0	6.495702125379583e+17
19424.0	6.485789961617408e+17
19425.0	6.475679796647252e+17
19426.0	6.465167785896617e+17
19427.0	6.453980033624746e+17
19428.0	6.441840763644585e+17
19429.0	6.429082557000361e+17
19430.0	6.415056716343978e+17
19431.0	6.400260261107028e+17
19432.0	6.386411018125311e+17
19433.0	6.370519349024084e+17
19434.0	6.35350814958114e+17
19435.0	6.334878135440723e+17
19436.0	6.314925694298793e+17
19437.0	6.293357826058922e+17
19438.0	6.256461930474156e+17
19439.0	6.2428668245661e+17
19440.0	6.219201230405631e+17
19441.0	6.189916334238376e+17
19442.0	6.156814517971626e+17
19443.0	6.119861492471124e+17
19444.0	6.078030382366717e+17
19445.0	6.030027172872193e+17
19446.0	5.974057780510719e+17
19447.0	5.907280264429563e+17
19448.0	5.825381868590424e+17
19449.0	5.7199981001441274e+17
19450.0	5.568153464253088e+17
19451.0	5.4667140332694195e+17
19452.0	5.652942124919466e+17
19453.0	5.773808416500398e+17
19454.0	5.863478527000572e+17
19455.0	5.934659224819027e+17
19456.0	5.993163886602924e+17
19457.0	6.04212411183923e+17
19458.0	6.055595604617933e+17
19459.0	6.118521720624476e+17
19460.0	6.154367967865512e+17
19461.0	6.183569273651199e+17
19462.0	6.209575790662998e+17
19463.0	6.233375412409682e+17
19464.0	6.254710656860159e+17
19465.0	6.274382169811625e+17
19466.0	6.292462061835603e+17
19467.0	6.308810630452564e+17
19468.0	6.323944276972884e+17
19469.0	6.337909852471295e+17
19470.0	6.351172210262015e+17
19471.0	6.363317243215873e+17
19472.0	6.374604862565033e+17
19473.0	6.385127110213631e+17
19474.0	6.39496684184098e+17
19475.0	6.403997889986559e+17
19476.0	6.412535196549119e+17
19477.0	6.420444565471231e+17
19478.0	6.428000436355071e+17
19479.0	6.43514023158306e+17
19480.0	6.441856249014954e+17
19481.0	6.448200106551977e+17
19482.0	6.454116470838612e+17
19483.0	6.459565187006463e+17
19484.0	6.464688123194025e+17
19485.0	6.469507344236543e+17
19486.0	6.474029388354902e+17
19487.0	6.478384490086399e+17
19488.0	6.482448397369343e+17
19489.0	6.486249925771263e+17
19490.0	6.489466845790207e+17
19491.0	6.493040218734591e+17
19492.0	6.496181626601471e+17
19493.0	6.499122291583657e+17
19494.0	6.502039758569471e+17
19495.0	6.504663634761044e+17
19496.0	6.506942698618877e+17
19497.0	6.508997776157354e+17
19498.0	6.506510093210962e+17
19499.0	6.498447858685267e+17
19500.0	6.51481743237666e+17
19501.0	6.517535171499348e+17
19502.0	6.519544131267241e+17
19503.0	6.521304959505748e+17
19504.0	6.522888496611327e+17
19505.0	6.524285180269907e+17
19506.0	6.525569525787305e+17
19507.0	6.526737930256381e+17
19508.0	6.527769545889107e+17
19509.0	6.528611746753194e+17
19510.0	6.528705067220991e+17
19511.0	6.50666068550177e+17
19512.0	6.526067563036672e+17
19513.0	6.526554075736744e+17
19514.0	6.528138297212924e+17
19515.0	6.53281270571554e+17
19516.0	6.533914720643754e+17
19517.0	6.534579793952767e+17
19518.0	6.535058001231872e+17
19519.0	6.535436149194751e+17
19520.0	6.535736058707967e+17
19521.0	6.536093442768895e+17
19522.0	6.536310904848383e+17
19523.0	6.536521483375955e+17
19524.0	6.53664948794163e+17
19525.0	6.536802375215785e+17
19526.0	6.536879967043583e+17
19527.0	6.537112815228244e+17
19528.0	6.537122696309417e+17
19529.0	6.53709272940544e+17
19530.0	6.537021930252969e+17
19531.0	6.536895764190548e+17
19532.0	6.536735931148969e+17
19533.0	6.536546134698665e+17
19534.0	6.536324381846185e+17
19535.0	6.536080679501823e+17
19536.0	6.535826273293651e+17
19537.0	6.535533617130154e+17
19538.0	6.53509816029457e+17
19539.0	6.534837139668992e+17
19540.0	6.534604663379284e+17
19541.0	6.534217114583039e+17
19542.0	6.533785048143188e+17
19543.0	6.53325725929745e+17
19544.0	6.532791998436694e+17
19545.0	6.532050761460393e+17
19546.0	6.531466072686591e+17
19547.0	6.531226897394345e+17
19548.0	6.530705451035305e+17
19549.0	6.530081615424169e+17
19550.0	6.52957048775202e+17
19551.0	6.528979864737108e+17
19552.0	6.52841212584482e+17
19553.0	6.527847145406464e+17
19554.0	6.52720889537058e+17
19555.0	6.526555459857066e+17
19556.0	6.525906168315904e+17
19557.0	6.525234963633492e+17
19558.0	6.524547554257576e+17
19559.0	6.523848934905172e+17
19560.0	6.523097238732797e+17
19561.0	6.522393974188714e+17
19562.0	6.521656697334441e+17
19563.0	6.520931850999126e+17
19564.0	6.520175234908159e+17
19565.0	6.519404127496874e+17
19566.0	6.518606152772265e+17
19567.0	6.517821318802089e+17
19568.0	6.516998967481684e+17
19569.0	6.516191285040468e+17
19570.0	6.515384435168595e+17
19571.0	6.514610937703082e+17
19572.0	6.513750002281129e+17
19573.0	6.512958195280553e+17
19574.0	6.512101182930943e+17
19575.0	6.511304204353535e+17
19576.0	6.510427777269759e+17
19577.0	6.509530965868543e+17
19578.0	6.508653748158463e+17
19579.0	6.507748231479295e+17
19580.0	6.506842626020691e+17
19581.0	6.505942345930067e+17
19582.0	6.505027534673236e+17
19583.0	6.504101983901012e+17
19584.0	6.503161357402111e+17
19585.0	6.502225304791721e+17
19586.0	6.501330513646932e+17
19587.0	6.500439908417536e+17
19588.0	6.499369342380714e+17
19589.0	6.498536286497449e+17
19590.0	6.497567185567743e+17
19591.0	6.496657828304212e+17
19592.0	6.495699671012691e+17
19593.0	6.494709097343657e+17
19594.0	6.493592956698623e+17
19595.0	6.492759847687507e+17
19596.0	6.491548997561002e+17
19597.0	6.490788607295487e+17
19598.0	6.489640722060627e+17
19599.0	6.488871050499412e+17
19600.0	6.487953739437396e+17
19601.0	6.48691203510545e+17
19602.0	6.485865575830868e+17
19603.0	6.484724967014397e+17
19604.0	6.483823174877183e+17
19605.0	6.482748194335402e+17
19606.0	6.481904523367764e+17
19607.0	6.481076792153428e+17
19608.0	6.480046339041961e+17
19609.0	6.479006144659456e+17
19610.0	6.477973845355177e+17
19611.0	6.476929627237033e+17
19612.0	6.475931718429353e+17
19613.0	6.474882722299903e+17
19614.0	6.473815627748691e+17
19615.0	6.472771480234665e+17
19616.0	6.47165954368034e+17
19617.0	6.470685448732672e+17
19618.0	6.469407149304489e+17
19619.0	6.468263029156521e+17
19620.0	6.467310592196607e+17
19621.0	6.466432123884884e+17
19622.0	6.465447108367699e+17
19623.0	6.464378626200916e+17
19624.0	6.463289252205907e+17
19625.0	6.462195615399936e+17
19626.0	6.461064859003561e+17
19627.0	6.459855344063828e+17
19628.0	6.45849110614289e+17
19629.0	6.456736830805331e+17
19630.0	6.453297403658237e+17
19631.0	6.44953117032448e+17
19632.0	6.453086978222761e+17
19633.0	6.453025410733395e+17
19634.0	6.452296110047231e+17
19635.0	6.451309716701183e+17
19636.0	6.450259911770111e+17
19637.0	6.448967755759615e+17
19638.0	6.448197053098665e+17
19639.0	6.447118406735188e+17
19640.0	6.445966300632404e+17
19641.0	6.444663279976447e+17
19642.0	6.443902626867881e+17
19643.0	6.442815700249257e+17
19644.0	6.441682571973972e+17
19645.0	6.440553365372928e+17
19646.0	6.439478829427369e+17
19647.0	6.43845364785698e+17
19648.0	6.437358608056319e+17
19649.0	6.436259001357652e+17
19650.0	6.435158649470975e+17
19651.0	6.434051943213737e+17
19652.0	6.432951685698899e+17
19653.0	6.431841913405437e+17
19654.0	6.430737545472682e+17
19655.0	6.429630820341076e+17
19656.0	6.428528404856832e+17
19657.0	6.427422667483818e+17
19658.0	6.426313920697684e+17
19659.0	6.425203786995028e+17
19660.0	6.424093265319252e+17
19661.0	6.422980553517738e+17
19662.0	6.421863428609364e+17
19663.0	6.420730658947072e+17
19664.0	6.419617025097727e+17
19665.0	6.418522998920532e+17
