# Flux units: erg / (cm m2 s)
# Wavelength units: Angstrom
wave	flux
19000.0	7.385023012754772e+17
19001.0	7.383477915047254e+17
19002.0	7.382229560153428e+17
19003.0	7.380821511329108e+17
19004.0	7.379420378912083e+17
19005.0	7.378017387020287e+17
19006.0	7.376619025640106e+17
19007.0	7.375036723058004e+17
19008.0	7.37369330426402e+17
19009.0	7.372379262375251e+17
19010.0	7.370297634892457e+17
19011.0	7.369584983496019e+17
19012.0	7.367948503089151e+17
19013.0	7.366815140631892e+17
19014.0	7.36531928265523e+17
19015.0	7.363964818860714e+17
19016.0	7.362556619041449e+17
19017.0	7.360471538248361e+17
19018.0	7.359795621964458e+17
19019.0	7.358409868662099e+17
19020.0	7.356891055259647e+17
19021.0	7.355550566886057e+17
19022.0	7.354232655052799e+17
19023.0	7.352769651059369e+17
19024.0	7.351408774174036e+17
19025.0	7.350013283095891e+17
19026.0	7.348595569197053e+17
19027.0	7.34716201341201e+17
19028.0	7.345852046988627e+17
19029.0	7.344429115375615e+17
19030.0	7.343077793114794e+17
19031.0	7.341691645547859e+17
19032.0	7.340292417344851e+17
19033.0	7.338754244433236e+17
19034.0	7.337467064265386e+17
19035.0	7.336049115485522e+17
19036.0	7.324006453608438e+17
19037.0	7.333297853388118e+17
19038.0	7.331886952437076e+17
19039.0	7.330522440488276e+17
19040.0	7.329136579532116e+17
19041.0	7.327733187783338e+17
19042.0	7.326210803630079e+17
19043.0	7.324947090593108e+17
19044.0	7.323533176733693e+17
19045.0	7.322155451329194e+17
19046.0	7.320663990381225e+17
19047.0	7.319372641075197e+17
19048.0	7.317660179453267e+17
19049.0	7.316475245232127e+17
19050.0	7.31512169439778e+17
19051.0	7.312487287007909e+17
19052.0	7.312323730123433e+17
19053.0	7.310969517987156e+17
19054.0	7.309620750057472e+17
19055.0	7.307849730359297e+17
19056.0	7.306810966234454e+17
19057.0	7.305446489238185e+17
19058.0	7.303968240347817e+17
19059.0	7.302650638893055e+17
19060.0	7.301231342343506e+17
19061.0	7.299880453494099e+17
19062.0	7.298483150476628e+17
19063.0	7.297099986457939e+17
19064.0	7.295511835617962e+17
19065.0	7.294034562602323e+17
19066.0	7.292834788933632e+17
19067.0	7.291528485535743e+17
19068.0	7.29015877824239e+17
19069.0	7.28877598052625e+17
19070.0	7.28734045901073e+17
19071.0	7.285989409379668e+17
19072.0	7.284615303659519e+17
19073.0	7.283216416593236e+17
19074.0	7.281847194441044e+17
19075.0	7.28046143414818e+17
19076.0	7.279040258550442e+17
19077.0	7.277678390411264e+17
19078.0	7.276124582532436e+17
19079.0	7.274912869078356e+17
19080.0	7.273511533936639e+17
19081.0	7.272069014923944e+17
19082.0	7.270630319718399e+17
19083.0	7.269192186549586e+17
19084.0	7.267602173438633e+17
19085.0	7.266592173850623e+17
19086.0	7.26459850371891e+17
19087.0	7.263585646411775e+17
19088.0	7.26234612891648e+17
19089.0	7.260651076452352e+17
19090.0	7.259640987385855e+17
19091.0	7.258250866414931e+17
19092.0	7.256762823824723e+17
19093.0	7.25553485324834e+17
19094.0	7.254134484194644e+17
19095.0	7.252752904224768e+17
19096.0	7.251333550353066e+17
19097.0	7.250012466227881e+17
19098.0	7.248630466827604e+17
19099.0	7.247231174311935e+17
19100.0	7.24585547895057e+17
19101.0	7.244494822965247e+17
19102.0	7.242991413843284e+17
19103.0	7.241730938809e+17
19104.0	7.240364431769599e+17
19105.0	7.238977729156436e+17
19106.0	7.23755115548945e+17
19107.0	7.236198951026687e+17
19108.0	7.234850659849556e+17
19109.0	7.232259725022547e+17
19110.0	7.232089721492819e+17
19111.0	7.230715403261268e+17
19112.0	7.22934286061841e+17
19113.0	7.227963984576511e+17
19114.0	7.226582352876884e+17
19115.0	7.225125404060332e+17
19116.0	7.223800834468521e+17
19117.0	7.2224310586682e+17
19118.0	7.220896908094121e+17
19119.0	7.216530671184549e+17
19120.0	7.218243180341929e+17
19121.0	7.216919009209002e+17
19122.0	7.215585763000319e+17
19123.0	7.214146845496659e+17
19124.0	7.212780797034493e+17
19125.0	7.211436722530986e+17
19126.0	7.210014487172435e+17
19127.0	7.206250345398267e+17
19128.0	7.206183839115942e+17
19129.0	7.205824054515028e+17
19130.0	7.204578498620074e+17
19131.0	7.203185034788863e+17
19132.0	7.201844935087444e+17
19133.0	7.199177958927021e+17
19134.0	7.198538500931584e+17
19135.0	7.197732193523027e+17
19136.0	7.196372653222569e+17
19137.0	7.19475991257634e+17
19138.0	7.193369218383872e+17
19139.0	7.19225632133393e+17
19140.0	7.190889029959679e+17
19141.0	7.1895221286557e+17
19142.0	7.188107350769663e+17
19143.0	7.186686751189674e+17
19144.0	7.185334543930708e+17
19145.0	7.184032680902655e+17
19146.0	7.181756035061076e+17
19147.0	7.181175435733674e+17
19148.0	7.179927565981012e+17
19149.0	7.17855609987618e+17
19150.0	7.177169706243411e+17
19151.0	7.175827175243775e+17
19152.0	7.174380716381523e+17
19153.0	7.173066738805417e+17
19154.0	7.171543124322985e+17
19155.0	7.170366163473748e+17
19156.0	7.168996780539904e+17
19157.0	7.167615197773823e+17
19158.0	7.165412382867453e+17
19159.0	7.164872764686335e+17
19160.0	7.16341885813828e+17
19161.0	7.16204337389022e+17
19162.0	7.158926368484013e+17
19163.0	7.159429814987434e+17
19164.0	7.158080887674195e+17
19165.0	7.156681096036351e+17
19166.0	7.155177252104872e+17
19167.0	7.153809763598335e+17
19168.0	7.152294048388436e+17
19169.0	7.151077539446781e+17
19170.0	7.149896054341632e+17
19171.0	7.148450101592063e+17
19172.0	7.147156772574548e+17
19173.0	7.145806370264403e+17
19174.0	7.144360245548372e+17
19175.0	7.143082470408191e+17
19176.0	7.141713108445866e+17
19177.0	7.140133540549972e+17
19178.0	7.13898063962658e+17
19179.0	7.137519917334528e+17
19180.0	7.135824599231145e+17
19181.0	7.134761256484863e+17
19182.0	7.133186340072106e+17
19183.0	7.132143282378067e+17
19184.0	7.130520075545257e+17
19185.0	7.129436830826496e+17
19186.0	7.128109666358611e+17
19187.0	7.126607852470271e+17
19188.0	7.125368706869929e+17
19189.0	7.123975122802003e+17
19190.0	7.122608652113236e+17
19191.0	7.121235676058964e+17
19192.0	7.119903414113619e+17
19193.0	7.118077029602646e+17
19194.0	7.116986074355028e+17
19195.0	7.115819944596819e+17
19196.0	7.114483422636714e+17
19197.0	7.113136440082432e+17
19198.0	7.111777667339604e+17
19199.0	7.099171436407462e+17
19200.0	7.10187893373884e+17
19201.0	7.107708964569087e+17
19202.0	7.106366005750441e+17
19203.0	7.104990102071977e+17
19204.0	7.1036102012218e+17
19205.0	7.102275474423808e+17
19206.0	7.100911955126953e+17
19207.0	7.099451161531731e+17
19208.0	7.097894828681897e+17
19209.0	7.096834749104127e+17
19210.0	7.09548522480162e+17
19211.0	7.094126222770175e+17
19212.0	7.092800200551081e+17
19213.0	7.091221832226131e+17
19214.0	7.089806370668544e+17
19215.0	7.088697347757395e+17
19216.0	7.087229745408681e+17
19217.0	7.086006136908457e+17
19218.0	7.083455013016914e+17
19219.0	7.083055135064063e+17
19220.0	7.081912122911402e+17
19221.0	7.080094294780586e+17
19222.0	7.079245594143402e+17
19223.0	7.077852000288765e+17
19224.0	7.076227842747049e+17
19225.0	7.074893511611731e+17
19226.0	7.073781372332714e+17
19227.0	7.072423961340585e+17
19228.0	7.071115112000169e+17
19229.0	7.069760576902483e+17
19230.0	7.068331267151187e+17
19231.0	7.066967233353042e+17
19232.0	7.065484095302313e+17
19233.0	7.064227189620735e+17
19234.0	7.062946288325972e+17
19235.0	7.061573193433088e+17
19236.0	7.060280111879508e+17
19237.0	7.058897234471594e+17
19238.0	7.057422427706708e+17
19239.0	7.056218087839059e+17
19240.0	7.054224178632019e+17
19241.0	7.053296904699904e+17
19242.0	7.052074458021887e+17
19243.0	7.050498356019199e+17
19244.0	7.0494322715962e+17
19245.0	7.048076578870611e+17
19246.0	7.046707380486143e+17
19247.0	7.045332047233023e+17
19248.0	7.044025314618025e+17
19249.0	7.042668330046803e+17
19250.0	7.041285565885097e+17
19251.0	7.039819755902291e+17
19252.0	7.038012869312511e+17
19253.0	7.037216639418368e+17
19254.0	7.0357971121821e+17
19255.0	7.034209233971881e+17
19256.0	7.033125165072383e+17
19257.0	7.031820088508415e+17
19258.0	7.03045740737331e+17
19259.0	7.028984790035113e+17
19260.0	7.0276290721437e+17
19261.0	7.026380556468223e+17
19262.0	7.024945441101139e+17
19263.0	7.023611383294634e+17
19264.0	7.021546740645887e+17
19265.0	7.020693127080617e+17
19266.0	7.01942843117841e+17
19267.0	7.018256739773097e+17
19268.0	7.01688198533393e+17
19269.0	7.015526815498237e+17
19270.0	7.014166008517972e+17
19271.0	7.012329767392599e+17
19272.0	7.011399588205908e+17
19273.0	6.9942373476816e+17
19274.0	7.001145179723082e+17
19275.0	7.007374820070739e+17
19276.0	7.005983584114004e+17
19277.0	7.004617983044266e+17
19278.0	7.003265980607146e+17
19279.0	7.001750693915305e+17
19280.0	7.000406348879187e+17
19281.0	6.999168365800105e+17
19282.0	6.997826162655232e+17
19283.0	6.996278456090623e+17
19284.0	6.994639940048212e+17
19285.0	6.993361429506729e+17
19286.0	6.992309772790442e+17
19287.0	6.990998408964778e+17
19288.0	6.987214387587753e+17
19289.0	6.980821819501211e+17
19290.0	6.986891349983231e+17
19291.0	6.985103694976342e+17
19292.0	6.984144278694569e+17
19293.0	6.982762340810751e+17
19294.0	6.981382504273236e+17
19295.0	6.980027373584383e+17
19296.0	6.97863896179234e+17
19297.0	6.977223624665769e+17
19298.0	6.975847187611647e+17
19299.0	6.974513959578281e+17
19300.0	6.973137211446612e+17
19301.0	6.971737275105279e+17
19302.0	6.970339071710547e+17
19303.0	6.968804521978538e+17
19304.0	6.967466850779135e+17
19305.0	6.966172915684691e+17
19306.0	6.964789499308713e+17
19307.0	6.96332066173747e+17
19308.0	6.96197090255394e+17
19309.0	6.960280538622633e+17
19310.0	6.958666919269716e+17
19311.0	6.957754277866153e+17
19312.0	6.956366346321919e+17
19313.0	6.954548773344599e+17
19314.0	6.950735507182927e+17
19315.0	6.949528422143322e+17
19316.0	6.950822394986495e+17
19317.0	6.949411429722793e+17
19318.0	6.947995510986068e+17
19319.0	6.946610921603071e+17
19320.0	6.945080494172841e+17
19321.0	6.943782552819028e+17
19322.0	6.942100631322623e+17
19323.0	6.940745262956543e+17
19324.0	6.939510608756735e+17
19325.0	6.937871165074089e+17
19326.0	6.936659835398825e+17
19327.0	6.935205993163433e+17
19328.0	6.933802130953555e+17
19329.0	6.932362206816937e+17
19330.0	6.930856144797695e+17
19331.0	6.929409408412329e+17
19332.0	6.928019132252159e+17
19333.0	6.92654100849186e+17
19334.0	6.924959205031935e+17
19335.0	6.923648443088896e+17
19336.0	6.922178450685951e+17
19337.0	6.920694275244032e+17
19338.0	6.918922621506899e+17
19339.0	6.917752917502633e+17
19340.0	6.916199641601363e+17
19341.0	6.914777506207059e+17
19342.0	6.912616718226772e+17
19343.0	6.911785463797076e+17
19344.0	6.910255966803284e+17
19345.0	6.905695946757452e+17
19346.0	6.906465045097132e+17
19347.0	6.905612213070505e+17
19348.0	6.904183131908777e+17
19349.0	6.902582275822932e+17
19350.0	6.901045938618367e+17
19351.0	6.899470292396713e+17
19352.0	6.897859085467645e+17
19353.0	6.896406430220287e+17
19354.0	6.894810411565055e+17
19355.0	6.893076719774378e+17
19356.0	6.891625454938794e+17
19357.0	6.889996378876585e+17
19358.0	6.888240938920617e+17
19359.0	6.885873406006612e+17
19360.0	6.885040040443903e+17
19361.0	6.88331982704913e+17
19362.0	6.881759991256404e+17
19363.0	6.880079959293951e+17
19364.0	6.878365718588073e+17
19365.0	6.876650924234068e+17
19366.0	6.874933621686271e+17
19367.0	6.873180527045289e+17
19368.0	6.871387657120425e+17
19369.0	6.869286742829738e+17
19370.0	6.865802766581757e+17
19371.0	6.865889591470761e+17
19372.0	6.864130828227923e+17
19373.0	6.862215760751274e+17
19374.0	6.860356288774143e+17
19375.0	6.858441514898771e+17
19376.0	6.856488930770943e+17
19377.0	6.854502895670612e+17
19378.0	6.852489482250921e+17
19379.0	6.850437693745834e+17
19380.0	6.848385456450217e+17
19381.0	6.846272976366249e+17
19382.0	6.844007959931562e+17
19383.0	6.841806133482836e+17
19384.0	6.839757002768383e+17
19385.0	6.83749000871936e+17
19386.0	6.835185991548927e+17
19387.0	6.832811988221951e+17
19388.0	6.83037313536273e+17
19389.0	6.827901271233876e+17
19390.0	6.825316395778047e+17
19391.0	6.813374576153925e+17
19392.0	6.82006571716881e+17
19393.0	6.817349053186047e+17
19394.0	6.81450684879121e+17
19395.0	6.811616759425706e+17
19396.0	6.808629911661225e+17
19397.0	6.805592184892073e+17
19398.0	6.802355251052543e+17
19399.0	6.798048121673042e+17
19400.0	6.795584832099667e+17
19401.0	6.792120736153597e+17
19402.0	6.788469639260841e+17
19403.0	6.784678192567636e+17
19404.0	6.780717708432723e+17
19405.0	6.776473827759442e+17
19406.0	6.772184584989353e+17
19407.0	6.767727100996265e+17
19408.0	6.762012946901676e+17
19409.0	6.757886640958121e+17
19410.0	6.753017592982185e+17
19411.0	6.747587489737385e+17
19412.0	6.741929500868607e+17
19413.0	6.736007668607658e+17
19414.0	6.729537263326548e+17
19415.0	6.722861099472214e+17
19416.0	6.715602307645437e+17
19417.0	6.708085446585001e+17
19418.0	6.70023663292689e+17
19419.0	6.6915157423773e+17
19420.0	6.682456216305661e+17
19421.0	6.672569321127936e+17
19422.0	6.662173842123433e+17
19423.0	6.651655098815828e+17
19424.0	6.640277311717376e+17
19425.0	6.627993525594793e+17
19426.0	6.614626071827796e+17
19427.0	6.600037094828714e+17
19428.0	6.584847348094291e+17
19429.0	6.567648225656828e+17
19430.0	6.548522282603863e+17
19431.0	6.525923860589229e+17
19432.0	6.505728030277628e+17
19433.0	6.483953930207232e+17
19434.0	6.46019483172864e+17
19435.0	6.43401609589555e+17
19436.0	6.404532386922495e+17
19437.0	6.37308433928465e+17
19438.0	6.326809422812499e+17
19439.0	6.29449399660271e+17
19440.0	6.252318591462057e+17
19441.0	6.20785212535603e+17
19442.0	6.157725220208641e+17
19443.0	6.099542858530815e+17
19444.0	6.032315943747579e+17
19445.0	5.962393868479148e+17
19446.0	5.881931413585919e+17
19447.0	5.78787829385352e+17
19448.0	5.679517482527407e+17
19449.0	5.529839331879594e+17
19450.0	5.175715402787465e+17
19451.0	5.034597225420115e+17
19452.0	5.382092449906694e+17
19453.0	5.6134372988463846e+17
19454.0	5.732145816054437e+17
19455.0	5.82917641487428e+17
19456.0	5.914659050400429e+17
19457.0	5.98627749025109e+17
19458.0	6.049532840946355e+17
19459.0	6.113258350051328e+17
19460.0	6.164580042539005e+17
19461.0	6.209193644130303e+17
19462.0	6.24919594192077e+17
19463.0	6.289848206535336e+17
19464.0	6.326473566016852e+17
19465.0	6.358114855026688e+17
19466.0	6.385536511333714e+17
19467.0	6.410813019521023e+17
19468.0	6.433046042159786e+17
19469.0	6.451100609675263e+17
19470.0	6.472299713309354e+17
19471.0	6.491601248802134e+17
19472.0	6.508879391227901e+17
19473.0	6.524124482502653e+17
19474.0	6.537892409114624e+17
19475.0	6.549250905210877e+17
19476.0	6.561417267598675e+17
19477.0	6.571559551150761e+17
19478.0	6.580682270703615e+17
19479.0	6.589139530372436e+17
19480.0	6.596760053656234e+17
19481.0	6.604437543976957e+17
19482.0	6.611268811096063e+17
19483.0	6.617558119612415e+17
19484.0	6.623340408777385e+17
19485.0	6.628392188597588e+17
19486.0	6.633063488421887e+17
19487.0	6.637422707561812e+17
19488.0	6.641298380073641e+17
19489.0	6.644930501935103e+17
19490.0	6.646191807441574e+17
19491.0	6.650970122136234e+17
19492.0	6.653669133691561e+17
19493.0	6.656003774174548e+17
19494.0	6.658286363344895e+17
19495.0	6.660039482452649e+17
19496.0	6.661450965712895e+17
19497.0	6.663589182046208e+17
19498.0	6.664774393790464e+17
19499.0	6.651003813582148e+17
19500.0	6.667573043134463e+17
19501.0	6.668563123972777e+17
19502.0	6.669436538847231e+17
19503.0	6.670182892175359e+17
19504.0	6.670806159458301e+17
19505.0	6.671445453875881e+17
19506.0	6.671895508287487e+17
19507.0	6.672220450805076e+17
19508.0	6.672512915428691e+17
19509.0	6.672706441314303e+17
19510.0	6.672575164492457e+17
19511.0	6.662963753997646e+17
19512.0	6.671022173803852e+17
19513.0	6.668164976170316e+17
19514.0	6.66983976035942e+17
19515.0	6.671673336703661e+17
19516.0	6.672278705493332e+17
19517.0	6.671913373925375e+17
19518.0	6.671674539769855e+17
19519.0	6.671293311090687e+17
19520.0	6.670836468198058e+17
19521.0	6.670431563371859e+17
19522.0	6.669868707348479e+17
19523.0	6.669430074725716e+17
19524.0	6.668875596125523e+17
19525.0	6.668176195933524e+17
19526.0	6.667664530691412e+17
19527.0	6.66704405471778e+17
19528.0	6.666398742173012e+17
19529.0	6.665705739692713e+17
19530.0	6.665016142987263e+17
19531.0	6.66431067922978e+17
19532.0	6.663555555611988e+17
19533.0	6.662794557871444e+17
19534.0	6.662006578173267e+17
19535.0	6.661164022890495e+17
19536.0	6.660321836007423e+17
19537.0	6.659539852066815e+17
19538.0	6.658640647815168e+17
19539.0	6.656996978371246e+17
19540.0	6.656911637566804e+17
19541.0	6.656080805363711e+17
19542.0	6.655164698066943e+17
19543.0	6.654243784097791e+17
19544.0	6.653321873282388e+17
19545.0	6.65189813286775e+17
19546.0	6.650065621876735e+17
19547.0	6.650420730527743e+17
19548.0	6.649512528794966e+17
19549.0	6.648366788946601e+17
19550.0	6.64756484641041e+17
19551.0	6.646577086420308e+17
19552.0	6.645571039264767e+17
19553.0	6.644535137053353e+17
19554.0	6.643482136062634e+17
19555.0	6.642497433021097e+17
19556.0	6.64148595913523e+17
19557.0	6.640443680882687e+17
19558.0	6.639400867856383e+17
19559.0	6.638285679318356e+17
19560.0	6.637256764118355e+17
19561.0	6.636193619203412e+17
19562.0	6.635159349974355e+17
19563.0	6.634076052826793e+17
19564.0	6.633024387022847e+17
19565.0	6.631935286356649e+17
19566.0	6.630819026873002e+17
19567.0	6.629757538708138e+17
19568.0	6.628631542846804e+17
19569.0	6.627550285529087e+17
19570.0	6.626488462518953e+17
19571.0	6.625381814282922e+17
19572.0	6.624217383217834e+17
19573.0	6.623147963624105e+17
19574.0	6.621885162848255e+17
19575.0	6.620920848318463e+17
19576.0	6.619816316108797e+17
19577.0	6.618482954556756e+17
19578.0	6.617512136758611e+17
19579.0	6.616403972281684e+17
19580.0	6.615282067264851e+17
19581.0	6.614165085661865e+17
19582.0	6.613056010321919e+17
19583.0	6.611918587778388e+17
19584.0	6.610773783958868e+17
19585.0	6.609456678131027e+17
19586.0	6.608193528528896e+17
19587.0	6.607153458577407e+17
19588.0	6.605440989265919e+17
19589.0	6.604842876622164e+17
19590.0	6.603769348008617e+17
19591.0	6.602734226636799e+17
19592.0	6.601588727960916e+17
19593.0	6.600394861270355e+17
19594.0	6.598874753226067e+17
19595.0	6.59808151736593e+17
19596.0	6.594165333469868e+17
19597.0	6.59576455237905e+17
19598.0	6.594266899240276e+17
19599.0	6.593461076972884e+17
19600.0	6.592306125034836e+17
19601.0	6.591042384035839e+17
19602.0	6.589915835225428e+17
19603.0	6.588075006929576e+17
19604.0	6.587552125419519e+17
19605.0	6.585997975005866e+17
19606.0	6.58524588876322e+17
19607.0	6.584111607054335e+17
19608.0	6.582924688228351e+17
19609.0	6.581681504911359e+17
19610.0	6.580599196920489e+17
19611.0	6.579409401501012e+17
19612.0	6.578251946262527e+17
19613.0	6.577047283433471e+17
19614.0	6.575830014623743e+17
19615.0	6.574714849853439e+17
19616.0	6.573458464964608e+17
19617.0	6.57235141197824e+17
19618.0	6.57046664065843e+17
19619.0	6.569014340528808e+17
19620.0	6.567891709897384e+17
19621.0	6.567618033658537e+17
19622.0	6.566447128685225e+17
19623.0	6.565268192318804e+17
19624.0	6.564068477370365e+17
19625.0	6.562896589531817e+17
19626.0	6.56169581482257e+17
19627.0	6.560530534410921e+17
19628.0	6.55907619864576e+17
19629.0	6.558023454905684e+17
19630.0	6.556813691103914e+17
19631.0	6.544180076959054e+17
19632.0	6.554582324871165e+17
19633.0	6.553332947266217e+17
19634.0	6.552219976815958e+17
19635.0	6.550969974958761e+17
19636.0	6.549829687705597e+17
19637.0	6.548010729908906e+17
19638.0	6.547450589697364e+17
19639.0	6.546252195954687e+17
19640.0	6.544992398999551e+17
19641.0	6.543130844550487e+17
19642.0	6.542692696369834e+17
19643.0	6.541461283667965e+17
19644.0	6.540242123926185e+17
19645.0	6.538768101496148e+17
19646.0	6.537956056978772e+17
19647.0	6.536767772906836e+17
19648.0	6.535569858712916e+17
19649.0	6.534374738624512e+17
19650.0	6.533194924250452e+17
19651.0	6.531993846852265e+17
19652.0	6.530798829524308e+17
19653.0	6.529616483188735e+17
19654.0	6.528412972395177e+17
19655.0	6.527213706936319e+17
19656.0	6.526032743322964e+17
19657.0	6.524841130371753e+17
19658.0	6.523657853599741e+17
19659.0	6.522466823656788e+17
19660.0	6.521284886964906e+17
19661.0	6.520085849396564e+17
19662.0	6.518901956760916e+17
19663.0	6.517640958137684e+17
19664.0	6.516454349690196e+17
19665.0	6.515327420596223e+17
