# Flux units: erg / (cm m2 s)
# Wavelength units: Angstrom
wave	flux
19000.0	8.311497194558804e+17
19001.0	8.310014066294783e+17
19002.0	8.308605026216617e+17
19003.0	8.307154542220628e+17
19004.0	8.305702358133417e+17
19005.0	8.304249385517053e+17
19006.0	8.302793191675219e+17
19007.0	8.301289384094377e+17
19008.0	8.299852193245864e+17
19009.0	8.2983811837242e+17
19010.0	8.296787746663081e+17
19011.0	8.295466025003688e+17
19012.0	8.29389100093713e+17
19013.0	8.29254383523157e+17
19014.0	8.291041924874239e+17
19015.0	8.289588345481897e+17
19016.0	8.288102172153174e+17
19017.0	8.286632952201216e+17
19018.0	8.285160750099113e+17
19019.0	8.283684348100608e+17
19020.0	8.282187465315668e+17
19021.0	8.280714951436969e+17
19022.0	8.279232741725523e+17
19023.0	8.277735432519679e+17
19024.0	8.276245358488234e+17
19025.0	8.274755913602387e+17
19026.0	8.273249883040425e+17
19027.0	8.271672171823103e+17
19028.0	8.270282540187647e+17
19029.0	8.268786293538816e+17
19030.0	8.267288046206973e+17
19031.0	8.265787965964288e+17
19032.0	8.264286107336703e+17
19033.0	8.262747745681404e+17
19034.0	8.261274399932416e+17
19035.0	8.259723185531561e+17
19036.0	8.251608250275155e+17
19037.0	8.256731675099136e+17
19038.0	8.255234665086975e+17
19039.0	8.253737051095036e+17
19040.0	8.252226128576511e+17
19041.0	8.250713107507882e+17
19042.0	8.249167563806034e+17
19043.0	8.247683458269184e+17
19044.0	8.246165550836394e+17
19045.0	8.244647823758676e+17
19046.0	8.243110266011647e+17
19047.0	8.241600692660905e+17
19048.0	8.240013424022868e+17
19049.0	8.238535010156543e+17
19050.0	8.23701569203951e+17
19051.0	8.234435869321896e+17
19052.0	8.23377375789056e+17
19053.0	8.232442930397183e+17
19054.0	8.230928430137343e+17
19055.0	8.229300685067603e+17
19056.0	8.227860222661972e+17
19057.0	8.226336910169428e+17
19058.0	8.224795862761471e+17
19059.0	8.223268688713043e+17
19060.0	8.221725794413226e+17
19061.0	8.220198056929962e+17
19062.0	8.218659063332863e+17
19063.0	8.217121076368723e+17
19064.0	8.215540141129727e+17
19065.0	8.21397059342609e+17
19066.0	8.212475414926675e+17
19067.0	8.21095818137873e+17
19068.0	8.209415152861183e+17
19069.0	8.207871105127761e+17
19070.0	8.206322418494122e+17
19071.0	8.204779757677225e+17
19072.0	8.203232571206313e+17
19073.0	8.2016825535802e+17
19074.0	8.200135372701696e+17
19075.0	8.198585335502166e+17
19076.0	8.197026929268051e+17
19077.0	8.195477983985663e+17
19078.0	8.193920117418666e+17
19079.0	8.192376528262483e+17
19080.0	8.190819274063871e+17
19081.0	8.189249348872873e+17
19082.0	8.187693369742676e+17
19083.0	8.186108416360445e+17
19084.0	8.184492722924202e+17
19085.0	8.183030115991548e+17
19086.0	8.181303781010089e+17
19087.0	8.179745759253843e+17
19088.0	8.178275940914514e+17
19089.0	8.176623188006228e+17
19090.0	8.175197640545619e+17
19091.0	8.173641110563497e+17
19092.0	8.172035269547348e+17
19093.0	8.170525343875072e+17
19094.0	8.168948608532479e+17
19095.0	8.167379466278228e+17
19096.0	8.165822311344812e+17
19097.0	8.164259097040212e+17
19098.0	8.162690610495485e+17
19099.0	8.161119657700012e+17
19100.0	8.159536805664084e+17
19101.0	8.157974543466493e+17
19102.0	8.156371034483369e+17
19103.0	8.154827294332243e+17
19104.0	8.153251386665641e+17
19105.0	8.151672073224191e+17
19106.0	8.150066516022611e+17
19107.0	8.148508153129641e+17
19108.0	8.146925207420925e+17
19109.0	8.144736380518399e+17
19110.0	8.143712808162642e+17
19111.0	8.142195893381802e+17
19112.0	8.14061891616768e+17
19113.0	8.139037635597651e+17
19114.0	8.137504027486888e+17
19115.0	8.136319948903764e+17
19116.0	8.134744860524543e+17
19117.0	8.133154848811689e+17
19118.0	8.131519535819434e+17
19119.0	8.129127423584937e+17
19120.0	8.12833753547844e+17
19121.0	8.126762508615679e+17
19122.0	8.12521554444288e+17
19123.0	8.123622388400125e+17
19124.0	8.121987079602175e+17
19125.0	8.120430639098537e+17
19126.0	8.118834541450578e+17
19127.0	8.116636348667219e+17
19128.0	8.11538429719347e+17
19129.0	8.114015602125484e+17
19130.0	8.112449488158719e+17
19131.0	8.110852402053117e+17
19132.0	8.109249943044096e+17
19133.0	8.107550487958868e+17
19134.0	8.105926995913386e+17
19135.0	8.104444939993088e+17
19136.0	8.102842202761896e+17
19137.0	8.101180218190505e+17
19138.0	8.099621304445609e+17
19139.0	8.098024353955837e+17
19140.0	8.096418522726397e+17
19141.0	8.09481043915571e+17
19142.0	8.093191394470569e+17
19143.0	8.091572078553769e+17
19144.0	8.08997507633425e+17
19145.0	8.088364210541908e+17
19146.0	8.086524469968896e+17
19147.0	8.085106571520681e+17
19148.0	8.083518202576893e+17
19149.0	8.081902332979881e+17
19150.0	8.080284781466964e+17
19151.0	8.078668512012969e+17
19152.0	8.077046455817555e+17
19153.0	8.07541880861491e+17
19154.0	8.073757938330281e+17
19155.0	8.072177488232447e+17
19156.0	8.070545322366292e+17
19157.0	8.068873682507092e+17
19158.0	8.066936709578748e+17
19159.0	8.065634292902569e+17
19160.0	8.064025388646399e+17
19161.0	8.062363517321215e+17
19162.0	8.059813619564544e+17
19163.0	8.059053116751871e+17
19164.0	8.057510264395092e+17
19165.0	8.055868795562664e+17
19166.0	8.054194983053994e+17
19167.0	8.052519014673064e+17
19168.0	8.050952094001834e+17
19169.0	8.049315194164566e+17
19170.0	8.047690517927251e+17
19171.0	8.046013417084244e+17
19172.0	8.044402867262803e+17
19173.0	8.042763912216575e+17
19174.0	8.041101792029352e+17
19175.0	8.039474203546964e+17
19176.0	8.037824624328701e+17
19177.0	8.036114231896745e+17
19178.0	8.034490714685441e+17
19179.0	8.032810557592915e+17
19180.0	8.031197349980841e+17
19181.0	8.029521524206249e+17
19182.0	8.027891716937044e+17
19183.0	8.02624110592e+17
19184.0	8.024570039282345e+17
19185.0	8.022916791446185e+17
19186.0	8.021254953675434e+17
19187.0	8.019562328315219e+17
19188.0	8.017920733653672e+17
19189.0	8.016241935515647e+17
19190.0	8.014562601904808e+17
19191.0	8.012894018295124e+17
19192.0	8.011223681466365e+17
19193.0	8.009532434634068e+17
19194.0	8.007854285215059e+17
19195.0	8.006168191784275e+17
19196.0	8.004460912923987e+17
19197.0	8.00272582443008e+17
19198.0	8.00083175084305e+17
19199.0	7.99356702896947e+17
19200.0	7.99324276453103e+17
19201.0	7.995797214505642e+17
19202.0	7.994289180464467e+17
19203.0	7.992628610771624e+17
19204.0	7.990957727285245e+17
19205.0	7.989277789694633e+17
19206.0	7.987578886859433e+17
19207.0	7.985860082051753e+17
19208.0	7.983670282070697e+17
19209.0	7.981855957581821e+17
19210.0	7.9801482229405e+17
19211.0	7.978437425059156e+17
19212.0	7.976722783797247e+17
19213.0	7.974941604096681e+17
19214.0	7.973197784459948e+17
19215.0	7.971547646001151e+17
19216.0	7.969850988516692e+17
19217.0	7.968128839450621e+17
19218.0	7.966116183102803e+17
19219.0	7.964610148346538e+17
19220.0	7.962938460951892e+17
19221.0	7.961104207926612e+17
19222.0	7.95947600847394e+17
19223.0	7.957743260401664e+17
19224.0	7.955990350310058e+17
19225.0	7.954210995131731e+17
19226.0	7.95251731001071e+17
19227.0	7.950760776040448e+17
19228.0	7.949020625021612e+17
19229.0	7.947267624053417e+17
19230.0	7.945500142949718e+17
19231.0	7.943747341910016e+17
19232.0	7.941987919462399e+17
19233.0	7.940201317924861e+17
19234.0	7.938454641967103e+17
19235.0	7.936684557598719e+17
19236.0	7.934920981392042e+17
19237.0	7.933139893966163e+17
19238.0	7.93132555829248e+17
19239.0	7.929586124499626e+17
19240.0	7.927778042533204e+17
19241.0	7.925996601387689e+17
19242.0	7.924216741494783e+17
19243.0	7.9223566907037e+17
19244.0	7.920623333059244e+17
19245.0	7.918814807894698e+17
19246.0	7.916997101398698e+17
19247.0	7.915185848538455e+17
19248.0	7.913366708988585e+17
19249.0	7.911542313975807e+17
19250.0	7.909712567031126e+17
19251.0	7.907836893855743e+17
19252.0	7.905933123037864e+17
19253.0	7.904205478035455e+17
19254.0	7.902361628442621e+17
19255.0	7.900442621116412e+17
19256.0	7.898643724675753e+17
19257.0	7.896806943883264e+17
19258.0	7.894945538331987e+17
19259.0	7.893049609464489e+17
19260.0	7.890634555785215e+17
19261.0	7.88836628177442e+17
19262.0	7.886472690532351e+17
19263.0	7.88457414581726e+17
19264.0	7.882531266712914e+17
19265.0	7.880741754328403e+17
19266.0	7.878856801954473e+17
19267.0	7.876995723558912e+17
19268.0	7.875081715843071e+17
19269.0	7.873161613803519e+17
19270.0	7.871233571946496e+17
19271.0	7.869191088504832e+17
19272.0	7.867349242391209e+17
19273.0	7.864699439109458e+17
19274.0	7.863001000443901e+17
19275.0	7.861512130177706e+17
19276.0	7.859551618815318e+17
19277.0	7.857582112068947e+17
19278.0	7.855605272281088e+17
19279.0	7.853612527692457e+17
19280.0	7.851603026859348e+17
19281.0	7.849627994816511e+17
19282.0	7.847616522660522e+17
19283.0	7.8455438835712e+17
19284.0	7.843473136112979e+17
19285.0	7.841187946474153e+17
19286.0	7.838108640870397e+17
19287.0	7.836068799840256e+17
19288.0	7.83222439306854e+17
19289.0	7.827771950628856e+17
19290.0	7.829867504599039e+17
19291.0	7.827689272508416e+17
19292.0	7.825699087843327e+17
19293.0	7.823596877512703e+17
19294.0	7.82148952077107e+17
19295.0	7.819369739102888e+17
19296.0	7.817239919067135e+17
19297.0	7.815098925405526e+17
19298.0	7.812948572853587e+17
19299.0	7.810786687363753e+17
19300.0	7.808612864884735e+17
19301.0	7.806035086191273e+17
19302.0	7.802314819633152e+17
19303.0	7.800081828107604e+17
19304.0	7.797872902100308e+17
19305.0	7.795651354034177e+17
19306.0	7.793402350054057e+17
19307.0	7.791115643475284e+17
19308.0	7.788843474354173e+17
19309.0	7.7863910927674e+17
19310.0	7.783995457317544e+17
19311.0	7.781913593555624e+17
19312.0	7.779629564340906e+17
19313.0	7.775010469620394e+17
19314.0	7.769409229684736e+17
19315.0	7.76719845538748e+17
19316.0	7.767473467512147e+17
19317.0	7.765079716702888e+17
19318.0	7.762644723302399e+17
19319.0	7.760189949564244e+17
19320.0	7.757714029543424e+17
19321.0	7.754120054876837e+17
19322.0	7.749459839199914e+17
19323.0	7.746880648424106e+17
19324.0	7.744371699657386e+17
19325.0	7.741662848963922e+17
19326.0	7.739153715647828e+17
19327.0	7.736522335147347e+17
19328.0	7.730691947801258e+17
19329.0	7.727217734494889e+17
19330.0	7.724474152168105e+17
19331.0	7.721717080959658e+17
19332.0	7.718956211109887e+17
19333.0	7.714091717449047e+17
19334.0	7.708560732105386e+17
19335.0	7.705691045232637e+17
19336.0	7.702793889862995e+17
19337.0	7.69987123032883e+17
19338.0	7.692926579987796e+17
19339.0	7.688272770411178e+17
19340.0	7.685223676379135e+17
19341.0	7.682168675368956e+17
19342.0	7.677532367224832e+17
19343.0	7.6726655792797e+17
19344.0	7.669500922385748e+17
19345.0	7.665715583997267e+17
19346.0	7.662822238453757e+17
19347.0	7.659817543925757e+17
19348.0	7.656561681891327e+17
19349.0	7.653242741719039e+17
19350.0	7.649881156659884e+17
19351.0	7.646441372996947e+17
19352.0	7.642624788441768e+17
19353.0	7.639116307671721e+17
19354.0	7.635546023832234e+17
19355.0	7.631905106515286e+17
19356.0	7.628275979386879e+17
19357.0	7.624585774803625e+17
19358.0	7.620849786596008e+17
19359.0	7.617046518956032e+17
19360.0	7.613243628803412e+17
19361.0	7.609377122243926e+17
19362.0	7.605475316421972e+17
19363.0	7.60150940905199e+17
19364.0	7.597490506650964e+17
19365.0	7.593416914720083e+17
19366.0	7.58928771470677e+17
19367.0	7.58448649491797e+17
19368.0	7.580205947639123e+17
19369.0	7.575870673081684e+17
19370.0	7.571448354133331e+17
19371.0	7.567054334154067e+17
19372.0	7.562553392977236e+17
19373.0	7.557964083407528e+17
19374.0	7.553303210622973e+17
19375.0	7.548259980891476e+17
19376.0	7.542661112135679e+17
19377.0	7.537721997612372e+17
19378.0	7.532710237743785e+17
19379.0	7.527620051380905e+17
19380.0	7.522465282523135e+17
19381.0	7.516187564266835e+17
19382.0	7.510247136559101e+17
19383.0	7.504804628660221e+17
19384.0	7.499308580470783e+17
19385.0	7.493354435990867e+17
19386.0	7.485694556154538e+17
19387.0	7.479817012248573e+17
19388.0	7.473813850335916e+17
19389.0	7.466792198165842e+17
19390.0	7.458478352236543e+17
19391.0	7.447479628857336e+17
19392.0	7.444812984046932e+17
19393.0	7.434809754954409e+17
19394.0	7.427740949020671e+17
19395.0	7.417874269689174e+17
19396.0	7.408704000010921e+17
19397.0	7.399062922504874e+17
19398.0	7.387931703858518e+17
19399.0	7.376967720501249e+17
19400.0	7.365245349658624e+17
19401.0	7.352126404209321e+17
19402.0	7.34044840770492e+17
19403.0	7.323366685234516e+17
19404.0	7.311343609359017e+17
19405.0	7.299430034178045e+17
19406.0	7.289172610689706e+17
19407.0	7.278397185064957e+17
19408.0	7.267464951190867e+17
19409.0	7.256616196549289e+17
19410.0	7.245352511995901e+17
19411.0	7.233821478311251e+17
19412.0	7.221785969120598e+17
19413.0	7.209258695961258e+17
19414.0	7.196773479088127e+17
19415.0	7.183901853570387e+17
19416.0	7.17000471093794e+17
19417.0	7.155384436741459e+17
19418.0	7.140916800258045e+17
19419.0	7.124922992164863e+17
19420.0	7.108580738072573e+17
19421.0	7.091252201783293e+17
19422.0	7.072576678745428e+17
19423.0	7.052736527510184e+17
19424.0	7.032324684950185e+17
19425.0	7.00938073617203e+17
19426.0	6.986514700784978e+17
19427.0	6.962148464219475e+17
19428.0	6.935856109584387e+17
19429.0	6.907238275525285e+17
19430.0	6.876575864367788e+17
19431.0	6.84347984532821e+17
19432.0	6.809960482603003e+17
19433.0	6.776586278447785e+17
19434.0	6.744340130256211e+17
19435.0	6.709403688370173e+17
19436.0	6.671195549554006e+17
19437.0	6.629649691268436e+17
19438.0	6.581957969663314e+17
19439.0	6.537208720086359e+17
19440.0	6.484247332257792e+17
19441.0	6.426915251071653e+17
19442.0	6.364619268423683e+17
19443.0	6.296374661698902e+17
19444.0	6.221940654779046e+17
19445.0	6.140457455889069e+17
19446.0	6.050680159950163e+17
19447.0	5.951649191297018e+17
19448.0	5.841912767097518e+17
19449.0	5.719056905317035e+17
19450.0	5.573823313914526e+17
19451.0	5.4997819840266285e+17
19452.0	5.6496913463814803e+17
19453.0	5.78017744685193e+17
19454.0	5.893641733494095e+17
19455.0	5.995481242359124e+17
19456.0	6.087292216497496e+17
19457.0	6.170384520970236e+17
19458.0	6.24429889207228e+17
19459.0	6.314416723897005e+17
19460.0	6.377364888660646e+17
19461.0	6.434264363040765e+17
19462.0	6.487067243926871e+17
19463.0	6.534895276217683e+17
19464.0	6.578367759384576e+17
19465.0	6.61877547929873e+17
19466.0	6.656073681338365e+17
19467.0	6.69005277822976e+17
19468.0	6.720576336953345e+17
19469.0	6.750872990121981e+17
19470.0	6.782045523716777e+17
19471.0	6.812657511650643e+17
19472.0	6.84153601261568e+17
19473.0	6.868241996928343e+17
19474.0	6.892880239700652e+17
19475.0	6.915153408819197e+17
19476.0	6.936930270139732e+17
19477.0	6.956614217804456e+17
19478.0	6.974811722306899e+17
19479.0	6.993290395473235e+17
19480.0	7.008833993266515e+17
19481.0	7.024744543027197e+17
19482.0	7.038131531066025e+17
19483.0	7.052091291161943e+17
19484.0	7.064260815355901e+17
19485.0	7.075903747478867e+17
19486.0	7.087644734040745e+17
19487.0	7.098056461778941e+17
19488.0	7.107913206202368e+17
19489.0	7.117519072526335e+17
19490.0	7.126900224819197e+17
19491.0	7.136052927354198e+17
19492.0	7.14465443123473e+17
19493.0	7.152978009347412e+17
19494.0	7.161043428048896e+17
19495.0	7.168964394920617e+17
19496.0	7.176611494712659e+17
19497.0	7.184040053090984e+17
19498.0	7.194619955642369e+17
19499.0	7.199421628415999e+17
19500.0	7.215694673696084e+17
19501.0	7.227916570766e+17
19502.0	7.235047634152108e+17
19503.0	7.245528689541119e+17
19504.0	7.251676152288595e+17
19505.0	7.260654517179732e+17
19506.0	7.265313880014847e+17
19507.0	7.273902697523884e+17
19508.0	7.27824876122931e+17
19509.0	7.283978177697108e+17
19510.0	7.289742822124202e+17
19511.0	7.287364974717606e+17
19512.0	7.296494956707834e+17
19513.0	7.30098049779848e+17
19514.0	7.304745184832168e+17
19515.0	7.309144124730026e+17
19516.0	7.313073550043817e+17
19517.0	7.317202906644479e+17
19518.0	7.319916583583743e+17
19519.0	7.322513554014207e+17
19520.0	7.325010841217705e+17
19521.0	7.328759950606333e+17
19522.0	7.331254833075539e+17
19523.0	7.333488046899199e+17
19524.0	7.33564701315345e+17
19525.0	7.337722735056211e+17
19526.0	7.339867932808532e+17
19527.0	7.342618137941331e+17
19528.0	7.344419713144147e+17
19529.0	7.346146779332607e+17
19530.0	7.347802199818237e+17
19531.0	7.349383494369279e+17
19532.0	7.350891947840851e+17
19533.0	7.352335231614973e+17
19534.0	7.353715072346794e+17
19535.0	7.355245034209279e+17
19536.0	7.356871574115668e+17
19537.0	7.358080445229736e+17
19538.0	7.359188555180716e+17
19539.0	7.360146127366825e+17
19540.0	7.361327591500458e+17
19541.0	7.362320759346514e+17
19542.0	7.363258127570259e+17
19543.0	7.3641470473885e+17
19544.0	7.364987557948074e+17
19545.0	7.365640083996671e+17
19546.0	7.3662785926813e+17
19547.0	7.367266031108093e+17
19548.0	7.367943900539562e+17
19549.0	7.368545018402132e+17
19550.0	7.369174429641385e+17
19551.0	7.369971394936832e+17
19552.0	7.370504622396755e+17
19553.0	7.370914657555795e+17
19554.0	7.371293762519039e+17
19555.0	7.371657088510633e+17
19556.0	7.371978525988178e+17
19557.0	7.372269177274365e+17
19558.0	7.372532624304809e+17
19559.0	7.37302562419507e+17
19560.0	7.37599764509491e+17
19561.0	7.376166608437247e+17
19562.0	7.376297522451795e+17
19563.0	7.376401190267561e+17
19564.0	7.380447189270522e+17
19565.0	7.381685296081577e+17
19566.0	7.381668908935849e+17
19567.0	7.381639452338857e+17
19568.0	7.381568607748093e+17
19569.0	7.385689500243284e+17
19570.0	7.385709667855017e+17
19571.0	7.385553485955072e+17
19572.0	7.385365509832703e+17
19573.0	7.385169669390336e+17
19574.0	7.386620255447721e+17
19575.0	7.388273415203496e+17
19576.0	7.387985425902249e+17
19577.0	7.387673046723241e+17
19578.0	7.387326109275476e+17
19579.0	7.386969705283581e+17
19580.0	7.386590761101993e+17
19581.0	7.388362412741975e+17
19582.0	7.388638656593919e+17
19583.0	7.388185313847977e+17
19584.0	7.387712435432105e+17
19585.0	7.387184800377514e+17
19586.0	7.386663332347901e+17
19587.0	7.386168661726548e+17
19588.0	7.385506307025577e+17
19589.0	7.38509767975458e+17
19590.0	7.38667397189905e+17
19591.0	7.386184481243135e+17
19592.0	7.385576333727059e+17
19593.0	7.384952844845055e+17
19594.0	7.384327695018664e+17
19595.0	7.383757933772797e+17
19596.0	7.382476332029267e+17
19597.0	7.382408876436138e+17
19598.0	7.381654335127551e+17
19599.0	7.381040504329555e+17
19600.0	7.380329491507881e+17
19601.0	7.379727374002857e+17
19602.0	7.38053951988258e+17
19603.0	7.379593073786876e+17
19604.0	7.379016561109674e+17
19605.0	7.378174185482922e+17
19606.0	7.377502903904936e+17
19607.0	7.376714981528916e+17
19608.0	7.375913943564288e+17
19609.0	7.375090369604266e+17
19610.0	7.374288517944662e+17
19611.0	7.373462010768042e+17
19612.0	7.372630185213951e+17
19613.0	7.371787763449855e+17
19614.0	7.370920430316202e+17
19615.0	7.370075410879827e+17
19616.0	7.369160764598953e+17
19617.0	7.368330778946217e+17
19618.0	7.36734970188049e+17
19619.0	7.367525253076308e+17
19620.0	7.366634266864297e+17
19621.0	7.365943957127168e+17
19622.0	7.365027157770237e+17
19623.0	7.364102141771775e+17
19624.0	7.36316995351347e+17
19625.0	7.36223038607633e+17
19626.0	7.361283334602752e+17
19627.0	7.360323612136787e+17
19628.0	7.359224503162195e+17
19629.0	7.358337249880745e+17
19630.0	7.356743369621503e+17
19631.0	7.350210156735145e+17
19632.0	7.355402110894079e+17
19633.0	7.354477108876628e+17
19634.0	7.353497281713491e+17
19635.0	7.352486931202047e+17
19636.0	7.351502186916521e+17
19637.0	7.350335812490582e+17
19638.0	7.34947823390993e+17
19639.0	7.348456641265661e+17
19640.0	7.347412024688637e+17
19641.0	7.346217263213225e+17
19642.0	7.3453768029853e+17
19643.0	7.344337371966122e+17
19644.0	7.343272145977344e+17
19645.0	7.342157154571604e+17
19646.0	7.3411977033373e+17
19647.0	7.340823913955327e+17
19648.0	7.339887618075305e+17
19649.0	7.3388207912605e+17
19650.0	7.337751896653823e+17
19651.0	7.336678132460202e+17
19652.0	7.335601100903764e+17
19653.0	7.334519768787625e+17
19654.0	7.333435974615037e+17
19655.0	7.332346121071274e+17
19656.0	7.331253386040662e+17
19657.0	7.330160420323328e+17
19658.0	7.329061108624041e+17
19659.0	7.327956191936511e+17
19660.0	7.326846732817747e+17
19661.0	7.325732165036714e+17
19662.0	7.32461424181248e+17
19663.0	7.323474424321364e+17
19664.0	7.322348136256851e+17
19665.0	7.321244111557972e+17
19666.0	7.320110386992467e+17
