# Flux units: erg / (cm m2 s)
# Wavelength units: Angstrom
wave	flux
19000.0	5.6511322072459936e+17
19001.0	5.64999511675153e+17
19002.0	5.649037048239443e+17
19003.0	5.647970913484799e+17
19004.0	5.6469124410245114e+17
19005.0	5.6458849162362874e+17
19006.0	5.644844663832575e+17
19007.0	5.643516307483307e+17
19008.0	5.642694063117652e+17
19009.0	5.6416131287613434e+17
19010.0	5.640274153133396e+17
19011.0	5.639513433615017e+17
19012.0	5.6373330638274534e+17
19013.0	5.6375352369698125e+17
19014.0	5.636445934977023e+17
19015.0	5.635412425616043e+17
19016.0	5.6343493548004685e+17
19017.0	5.633348468735999e+17
19018.0	5.632230895037098e+17
19019.0	5.631251720787284e+17
19020.0	5.63019054719522e+17
19021.0	5.629161330005332e+17
19022.0	5.628118547737257e+17
19023.0	5.6270371575999136e+17
19024.0	5.625996968110762e+17
19025.0	5.6248617860246176e+17
19026.0	5.6237871298423456e+17
19027.0	5.621766947515049e+17
19028.0	5.621837347509588e+17
19029.0	5.6207771532875085e+17
19030.0	5.619749903226196e+17
19031.0	5.618710423972522e+17
19032.0	5.6176595425034234e+17
19033.0	5.6165356612703565e+17
19034.0	5.6155572874335565e+17
19035.0	5.614390369146196e+17
19036.0	5.5362870117225875e+17
19037.0	5.6123890597888e+17
19038.0	5.611367458056874e+17
19039.0	5.610346942649685e+17
19040.0	5.6093032774806176e+17
19041.0	5.6082487113154554e+17
19042.0	5.6070056531285325e+17
19043.0	5.606173539565568e+17
19044.0	5.6051047414278816e+17
19045.0	5.604047001572692e+17
19046.0	5.6029930799322445e+17
19047.0	5.601972642119679e+17
19048.0	5.6007325318294176e+17
19049.0	5.599607354556415e+17
19050.0	5.5988173867581434e+17
19051.0	5.587240755396596e+17
19052.0	5.594247585595388e+17
19053.0	5.595667853126313e+17
19054.0	5.594691621180756e+17
19055.0	5.593392276133205e+17
19056.0	5.5925698395286176e+17
19057.0	5.591553303117823e+17
19058.0	5.590322296564394e+17
19059.0	5.5894319150312083e+17
19060.0	5.588411197598377e+17
19061.0	5.5874005842438816e+17
19062.0	5.5863542193411405e+17
19063.0	5.585314368192512e+17
19064.0	5.5841556413808634e+17
19065.0	5.5830812955770874e+17
19066.0	5.5820987484078074e+17
19067.0	5.581143727057577e+17
19068.0	5.580110485433002e+17
19069.0	5.5790710823758496e+17
19070.0	5.578009369815722e+17
19071.0	5.5769495188275194e+17
19072.0	5.5758892211459405e+17
19073.0	5.57490672570641e+17
19074.0	5.573871860187135e+17
19075.0	5.5728322697844045e+17
19076.0	5.5717747333529594e+17
19077.0	5.570737412767743e+17
19078.0	5.569682841010175e+17
19079.0	5.568672693922474e+17
19080.0	5.5676203514374816e+17
19081.0	5.5665622312987296e+17
19082.0	5.565520105439232e+17
19083.0	5.564430658742953e+17
19084.0	5.563285895468372e+17
19085.0	5.562438227329024e+17
19086.0	5.5609619238966605e+17
19087.0	5.5581258627590835e+17
19088.0	5.5586150423374496e+17
19089.0	5.556714677294421e+17
19090.0	5.5567109681315834e+17
19091.0	5.5556668178213536e+17
19092.0	5.554045103461715e+17
19093.0	5.5536416561561594e+17
19094.0	5.5526048766361594e+17
19095.0	5.551568068455081e+17
19096.0	5.5505129437484365e+17
19097.0	5.5494953419844256e+17
19098.0	5.548408406278143e+17
19099.0	5.5473634849150285e+17
19100.0	5.546273511134549e+17
19101.0	5.5453118795612154e+17
19102.0	5.544220555913898e+17
19103.0	5.5432893533170336e+17
19104.0	5.5422544954873165e+17
19105.0	5.5411005424926714e+17
19106.0	5.539785665238356e+17
19107.0	5.539101385512276e+17
19108.0	5.538066258548052e+17
19109.0	5.5313656258232237e+17
19110.0	5.53580873593651e+17
19111.0	5.5349545659269114e+17
19112.0	5.53393684812049e+17
19113.0	5.532946313598292e+17
19114.0	5.531891186794494e+17
19115.0	5.5306688498674336e+17
19116.0	5.529832018411519e+17
19117.0	5.528795483559253e+17
19118.0	5.527347299439956e+17
19119.0	5.5211478825478765e+17
19120.0	5.525099916558335e+17
19121.0	5.524217548941993e+17
19122.0	5.523659928808106e+17
19123.0	5.522628006292138e+17
19124.0	5.521266289147902e+17
19125.0	5.520498585414315e+17
19126.0	5.5195153343010125e+17
19127.0	5.516855533196628e+17
19128.0	5.515745191875923e+17
19129.0	5.51637571740194e+17
19130.0	5.5153912380566176e+17
19131.0	5.514325494071296e+17
19132.0	5.513347861927252e+17
19133.0	5.5119240362284365e+17
19134.0	5.510537461541547e+17
19135.0	5.51023341155123e+17
19136.0	5.509233602024789e+17
19137.0	5.5080558435587405e+17
19138.0	5.507097124230485e+17
19139.0	5.506143775708501e+17
19140.0	5.505117848950101e+17
19141.0	5.504088797435221e+17
19142.0	5.5030192701876896e+17
19143.0	5.501981144995157e+17
19144.0	5.500969546678271e+17
19145.0	5.4999610339710285e+17
19146.0	5.498385928814592e+17
19147.0	5.4978115929811616e+17
19148.0	5.496813506614613e+17
19149.0	5.495783776321535e+17
19150.0	5.494829373631145e+17
19151.0	5.493805627211775e+17
19152.0	5.492706886636884e+17
19153.0	5.4916613298367136e+17
19154.0	5.490596274416297e+17
19155.0	5.4896794939337376e+17
19156.0	5.488670654769834e+17
19157.0	5.487536675050837e+17
19158.0	5.4826598871859155e+17
19159.0	5.485564724423338e+17
19160.0	5.484478000529407e+17
19161.0	5.483400045527039e+17
19162.0	5.473707904466951e+17
19163.0	5.4811401391527245e+17
19164.0	5.480460427722751e+17
19165.0	5.479162404580009e+17
19166.0	5.478066964922367e+17
19167.0	5.476546207460009e+17
19168.0	5.476320745444692e+17
19169.0	5.475157422374911e+17
19170.0	5.474311016721066e+17
19171.0	5.4727252056036685e+17
19172.0	5.4722167021677216e+17
19173.0	5.4712074980993683e+17
19174.0	5.470172666833577e+17
19175.0	5.469200100709717e+17
19176.0	5.468179257447763e+17
19177.0	5.467017506542933e+17
19178.0	5.465888997594452e+17
19179.0	5.464336904486912e+17
19180.0	5.4639615967668896e+17
19181.0	5.462946815672319e+17
19182.0	5.46199140634897e+17
19183.0	5.460998453810517e+17
19184.0	5.459954735513599e+17
19185.0	5.4589650908829e+17
19186.0	5.4579462245362336e+17
19187.0	5.4568467045198496e+17
19188.0	5.455870689279999e+17
19189.0	5.4548010383005e+17
19190.0	5.453740206544213e+17
19191.0	5.452707154362367e+17
19192.0	5.4518060969274016e+17
19193.0	5.4507339566284794e+17
19194.0	5.449711326593024e+17
19195.0	5.448731132428287e+17
19196.0	5.4476971050707616e+17
19197.0	5.446664720482303e+17
19198.0	5.445567357736277e+17
19199.0	5.3956745842305555e+17
19200.0	5.4087075191849165e+17
19201.0	5.4425203028350285e+17
19202.0	5.4415702041995936e+17
19203.0	5.440417483631273e+17
19204.0	5.4395050631277216e+17
19205.0	5.438523403752789e+17
19206.0	5.437499957925205e+17
19207.0	5.4363848036406605e+17
19208.0	5.4352800407442765e+17
19209.0	5.4344379356501325e+17
19210.0	5.4334292411897165e+17
19211.0	5.432416597792083e+17
19212.0	5.431395357469353e+17
19213.0	5.429854837145598e+17
19214.0	5.428597774177622e+17
19215.0	5.4281193201336314e+17
19216.0	5.4273110113430176e+17
19217.0	5.4262901387209376e+17
19218.0	5.424489762390015e+17
19219.0	5.424118005847379e+17
19220.0	5.4231800581106336e+17
19221.0	5.42190545666048e+17
19222.0	5.4211759847069005e+17
19223.0	5.4201558817396045e+17
19224.0	5.419111816014505e+17
19225.0	5.417996214337535e+17
19226.0	5.417096024424447e+17
19227.0	5.416074439469738e+17
19228.0	5.415075325498709e+17
19229.0	5.4140550281953274e+17
19230.0	5.4129742406396576e+17
19231.0	5.4119598887621965e+17
19232.0	5.4109750983393274e+17
19233.0	5.4099011272267085e+17
19234.0	5.4089327540087443e+17
19235.0	5.4079087678149965e+17
19236.0	5.406913254653951e+17
19237.0	5.405878262606505e+17
19238.0	5.404706859909119e+17
19239.0	5.4038515840013645e+17
19240.0	5.4027973303118496e+17
19241.0	5.401776213022037e+17
19242.0	5.400772534250153e+17
19243.0	5.399632353951742e+17
19244.0	5.3987498884683085e+17
19245.0	5.3977248033669114e+17
19246.0	5.3966917218249376e+17
19247.0	5.395686152820052e+17
19248.0	5.3946504582266874e+17
19249.0	5.393610340739753e+17
19250.0	5.392584174906027e+17
19251.0	5.391459814823253e+17
19252.0	5.390352550723583e+17
19253.0	5.3895344090862925e+17
19254.0	5.388523762876415e+17
19255.0	5.3873635813403296e+17
19256.0	5.3864059755997856e+17
19257.0	5.3854603173341856e+17
19258.0	5.384443550935721e+17
19259.0	5.3833622789379405e+17
19260.0	5.380871448166397e+17
19261.0	5.381360653609642e+17
19262.0	5.380296549597183e+17
19263.0	5.379257065450154e+17
19264.0	5.3777978635933e+17
19265.0	5.377085294684841e+17
19266.0	5.3760328864890874e+17
19267.0	5.37522646164002e+17
19268.0	5.3742008620373325e+17
19269.0	5.3731749485608954e+17
19270.0	5.372145203587753e+17
19271.0	5.37080850616593e+17
19272.0	5.3700625568890874e+17
19273.0	5.36783708365346e+17
19274.0	5.3671754307993574e+17
19275.0	5.3670111804566176e+17
19276.0	5.365964796679508e+17
19277.0	5.3649373348058445e+17
19278.0	5.363905324209492e+17
19279.0	5.362809476306262e+17
19280.0	5.361784589735253e+17
19281.0	5.360814737326079e+17
19282.0	5.3597959310977696e+17
19283.0	5.357939638403071e+17
19284.0	5.357171638271999e+17
19285.0	5.356523106598911e+17
19286.0	5.355634223830357e+17
19287.0	5.354626319996245e+17
19288.0	5.329586289464631e+17
19289.0	5.304785833383196e+17
19290.0	5.351519192875007e+17
19291.0	5.350266214460074e+17
19292.0	5.3494527347916794e+17
19293.0	5.348409163295402e+17
19294.0	5.34736799932962e+17
19295.0	5.346337939783679e+17
19296.0	5.3452423281595725e+17
19297.0	5.344189481659049e+17
19298.0	5.343189064657579e+17
19299.0	5.342105784986283e+17
19300.0	5.3411137293298336e+17
19301.0	5.340073337815039e+17
19302.0	5.3390134756420256e+17
19303.0	5.3378977054938445e+17
19304.0	5.3368992619124045e+17
19305.0	5.335863259736745e+17
19306.0	5.3347844798545914e+17
19307.0	5.333668506981717e+17
19308.0	5.3326436155173536e+17
19309.0	5.329694461263871e+17
19310.0	5.32815532156518e+17
19311.0	5.329256682181972e+17
19312.0	5.328485688715945e+17
19313.0	5.327426604586324e+17
19314.0	5.238024808606466e+17
19315.0	5.2414713996247546e+17
19316.0	5.3239977666587296e+17
19317.0	5.32317383758097e+17
19318.0	5.3221056343354016e+17
19319.0	5.321051490396842e+17
19320.0	5.3199514439953056e+17
19321.0	5.318859461143211e+17
19322.0	5.3176220708590925e+17
19323.0	5.315944184283136e+17
19324.0	5.3156223895906976e+17
19325.0	5.3127272740509024e+17
19326.0	5.3134913853631136e+17
19327.0	5.312401301831679e+17
19328.0	5.311235637641216e+17
19329.0	5.3102491499233274e+17
19330.0	5.309122155118591e+17
19331.0	5.308020345711275e+17
19332.0	5.3069376071051936e+17
19333.0	5.305820225645226e+17
19334.0	5.304745538704724e+17
19335.0	5.3034506885529594e+17
19336.0	5.302499622431402e+17
19337.0	5.301422230863872e+17
19338.0	5.300121367478271e+17
19339.0	5.299172750131199e+17
19340.0	5.297953073091926e+17
19341.0	5.296821924528126e+17
19342.0	5.295341883271849e+17
19343.0	5.294670457689428e+17
19344.0	5.293463231441578e+17
19345.0	5.2906097681367014e+17
19346.0	5.290333978667689e+17
19347.0	5.289937080068778e+17
19348.0	5.288944472861353e+17
19349.0	5.287731898875903e+17
19350.0	5.286535578517504e+17
19351.0	5.285413119852543e+17
19352.0	5.284100399868585e+17
19353.0	5.2830898200685216e+17
19354.0	5.281909022829226e+17
19355.0	5.280629462313642e+17
19356.0	5.279510931614378e+17
19357.0	5.278314208602795e+17
19358.0	5.2770671050096634e+17
19359.0	5.2757811328013645e+17
19360.0	5.274545211222699e+17
19361.0	5.2733858937132365e+17
19362.0	5.272193129425578e+17
19363.0	5.270945048559614e+17
19364.0	5.2696886713603405e+17
19365.0	5.268428192830804e+17
19366.0	5.267156700058964e+17
19367.0	5.265865943547903e+17
19368.0	5.264588227127977e+17
19369.0	5.26319424250402e+17
19370.0	5.2618209057396045e+17
19371.0	5.260618607099903e+17
19372.0	5.2593361364363936e+17
19373.0	5.257966877933567e+17
19374.0	5.2566497147835725e+17
19375.0	5.255277377661609e+17
19376.0	5.2539167028019194e+17
19377.0	5.2525216710000634e+17
19378.0	5.2511267650273274e+17
19379.0	5.2497214466949114e+17
19380.0	5.2482950442953376e+17
19381.0	5.246611344414035e+17
19382.0	5.244578864387413e+17
19383.0	5.243066084491262e+17
19384.0	5.2416707157469856e+17
19385.0	5.240173240866132e+17
19386.0	5.238654946858324e+17
19387.0	5.237105789064532e+17
19388.0	5.2355593156253005e+17
19389.0	5.233983080103935e+17
19390.0	5.232370335263402e+17
19391.0	5.1626807118178144e+17
19392.0	5.226515674781e+17
19393.0	5.2274761060843514e+17
19394.0	5.225750842747562e+17
19395.0	5.223915753657685e+17
19396.0	5.222192094642175e+17
19397.0	5.220600166831445e+17
19398.0	5.218728153186303e+17
19399.0	5.21539883700497e+17
19400.0	5.213897639679317e+17
19401.0	5.2121216909748896e+17
19402.0	5.210211732160511e+17
19403.0	5.2082560743069e+17
19404.0	5.206285210703188e+17
19405.0	5.2042451683464525e+17
19406.0	5.201768203244886e+17
19407.0	5.1984563088042656e+17
19408.0	5.1955811273932794e+17
19409.0	5.1940400380422816e+17
19410.0	5.1917665183552845e+17
19411.0	5.187767078223871e+17
19412.0	5.1848803827493536e+17
19413.0	5.182317265245524e+17
19414.0	5.177863630225407e+17
19415.0	5.1743769060092576e+17
19416.0	5.169684123658924e+17
19417.0	5.164366660545193e+17
19418.0	5.1599433104971046e+17
19419.0	5.1544157106558285e+17
19420.0	5.1469323446080845e+17
19421.0	5.13828957087334e+17
19422.0	5.1279514657532595e+17
19423.0	5.1154346524890426e+17
19424.0	5.1065388489768954e+17
19425.0	5.100751635699028e+17
19426.0	5.0945962799704736e+17
19427.0	5.087989683541334e+17
19428.0	5.0810835655720954e+17
19429.0	5.0736129215474336e+17
19430.0	5.063499661879983e+17
19431.0	5.044661138401975e+17
19432.0	5.0479787930200723e+17
19433.0	5.0378707405810355e+17
19434.0	5.02749677695795e+17
19435.0	5.0134101119030566e+17
19436.0	4.995677462811984e+17
19437.0	4.9842555495382976e+17
19438.0	4.852164177079008e+17
19439.0	4.9117292896365216e+17
19440.0	4.873411617270444e+17
19441.0	4.845272335821481e+17
19442.0	4.813965024559104e+17
19443.0	4.77936095330304e+17
19444.0	4.7419173655019475e+17
19445.0	4.701030962954239e+17
19446.0	4.637679878668287e+17
19447.0	4.520638408556532e+17
19448.0	4.41906558542371e+17
19449.0	4.2292859997170336e+17
19450.0	3.722950460047348e+17
19451.0	3.535853519022738e+17
19452.0	4.01814167451514e+17
19453.0	4.348295586163384e+17
19454.0	4.4683701672127104e+17
19455.0	4.5755662175218304e+17
19456.0	4.667916669332136e+17
19457.0	4.712945971888123e+17
19458.0	4.555471777519107e+17
19459.0	4.766371802688245e+17
19460.0	4.8150761320393363e+17
19461.0	4.843085421521577e+17
19462.0	4.875347104017064e+17
19463.0	4.921842687016962e+17
19464.0	4.950274982543359e+17
19465.0	4.9689431774330874e+17
19466.0	4.9812688422830086e+17
19467.0	4.9928514554210976e+17
19468.0	5.002144586749269e+17
19469.0	5.010484043797844e+17
19470.0	5.018156654045866e+17
19471.0	5.024837433032703e+17
19472.0	5.031745346863103e+17
19473.0	5.037439036249428e+17
19474.0	5.0426871101958816e+17
19475.0	5.046824372360532e+17
19476.0	5.051945999925247e+17
19477.0	5.056055678249642e+17
19478.0	5.061074599193255e+17
19479.0	5.070162458487466e+17
19480.0	5.0796677726644934e+17
19481.0	5.087218557255685e+17
19482.0	5.092781774427476e+17
19483.0	5.0971704795245216e+17
19484.0	5.1017208442825376e+17
19485.0	5.1033675259357875e+17
19486.0	5.1073962954369715e+17
19487.0	5.1083813053617485e+17
19488.0	5.1109275372967226e+17
19489.0	5.1121980024640845e+17
19490.0	5.1116627267857056e+17
19491.0	5.1145128926685856e+17
19492.0	5.1158750264470176e+17
19493.0	5.116225624124074e+17
19494.0	5.116515093315582e+17
19495.0	5.1167469013128525e+17
19496.0	5.117943169941501e+17
19497.0	5.118555174819156e+17
19498.0	5.105685554178723e+17
19499.0	5.0155897462893184e+17
19500.0	5.1187164744690336e+17
19501.0	5.118693766507179e+17
19502.0	5.118599096871593e+17
19503.0	5.118578310600021e+17
19504.0	5.1195092349747194e+17
19505.0	5.119412858257407e+17
19506.0	5.1192344870911994e+17
19507.0	5.1190205566156794e+17
19508.0	5.1188154118089376e+17
19509.0	5.118562406498303e+17
19510.0	5.118067368875347e+17
19511.0	4.9560838775766746e+17
19512.0	5.097890092067494e+17
19513.0	5.087511205729582e+17
19514.0	5.093412480308534e+17
19515.0	5.115342309993132e+17
19516.0	5.116179213451262e+17
19517.0	5.115743802053972e+17
19518.0	5.11535485026304e+17
19519.0	5.1148583019915936e+17
19520.0	5.1143732181510803e+17
19521.0	5.11400160071953e+17
19522.0	5.113475393825449e+17
19523.0	5.1130439614245536e+17
19524.0	5.1131427820229965e+17
19525.0	5.112657902305279e+17
19526.0	5.1121255248909645e+17
19527.0	5.11156435427874e+17
19528.0	5.1109851355764045e+17
19529.0	5.1104044936069114e+17
19530.0	5.1098294223721805e+17
19531.0	5.109227627129513e+17
19532.0	5.1086168882326176e+17
19533.0	5.1079965639529805e+17
19534.0	5.107363205873662e+17
19535.0	5.106718178541567e+17
19536.0	5.106042601996287e+17
19537.0	5.105422629339136e+17
19538.0	5.1045522728113485e+17
19539.0	5.1036016114401274e+17
19540.0	5.1033783870859936e+17
19541.0	5.1026936529769805e+17
19542.0	5.102004644173141e+17
19543.0	5.10123572339234e+17
19544.0	5.10059611160576e+17
19545.0	5.0994103629905914e+17
19546.0	5.098369003290623e+17
19547.0	5.098444914600619e+17
19548.0	5.0977067156985165e+17
19549.0	5.096892430024702e+17
19550.0	5.096227966287872e+17
19551.0	5.095480725864446e+17
19552.0	5.094724916477951e+17
19553.0	5.0939414701233485e+17
19554.0	5.093168173285375e+17
19555.0	5.092410586213034e+17
19556.0	5.0916513822365005e+17
19557.0	5.090881527524009e+17
19558.0	5.0901021580328954e+17
19559.0	5.089316148958549e+17
19560.0	5.088478227682644e+17
19561.0	5.087713201313109e+17
19562.0	5.086914318521683e+17
19563.0	5.086144132459178e+17
19564.0	5.0853420088688634e+17
19565.0	5.084536466920788e+17
19566.0	5.0837004107120634e+17
19567.0	5.08291425833233e+17
19568.0	5.0820807809215136e+17
19569.0	5.081268639935146e+17
19570.0	5.08046404030737e+17
19571.0	5.0796356932293965e+17
19572.0	5.078791736350037e+17
19573.0	5.0779547776669005e+17
19574.0	5.077079710236672e+17
19575.0	5.076324867637247e+17
19576.0	5.0754857258188794e+17
19577.0	5.074609365144917e+17
19578.0	5.073775058660009e+17
19579.0	5.072950828990464e+17
19580.0	5.072106956696234e+17
19581.0	5.071274129402538e+17
19582.0	5.0704427722123936e+17
19583.0	5.0695947405666976e+17
19584.0	5.068708194025471e+17
19585.0	5.0677983250568525e+17
19586.0	5.066891129257983e+17
19587.0	5.065857175300777e+17
19588.0	5.064888254027093e+17
19589.0	5.064437987104083e+17
19590.0	5.063488792341162e+17
19591.0	5.0627373233602554e+17
19592.0	5.061889968395605e+17
19593.0	5.061003293229055e+17
19594.0	5.0599288621410976e+17
19595.0	5.0592477742803616e+17
19596.0	5.055001201562967e+17
19597.0	5.057356922617855e+17
19598.0	5.056304371815764e+17
19599.0	5.0558256842888525e+17
19600.0	5.054963635279188e+17
19601.0	5.054030873799338e+17
19602.0	5.0531629338897056e+17
19603.0	5.0511497266899603e+17
19604.0	5.05129122922496e+17
19605.0	5.0503363378981536e+17
19606.0	5.0497152754210125e+17
19607.0	5.048846837787307e+17
19608.0	5.0479518760741536e+17
19609.0	5.047037767363241e+17
19610.0	5.0461722063230285e+17
19611.0	5.0452750992233805e+17
19612.0	5.044454246667604e+17
19613.0	5.043606370910206e+17
19614.0	5.042699484790783e+17
19615.0	5.041815235330047e+17
19616.0	5.040313379498666e+17
19617.0	5.0400267477538125e+17
19618.0	5.038649425002494e+17
19619.0	5.037653039426217e+17
19620.0	5.036782928964265e+17
19621.0	5.0364746560088736e+17
19622.0	5.0356644451013965e+17
19623.0	5.034773854552062e+17
19624.0	5.033870353935019e+17
19625.0	5.033000023971157e+17
19626.0	5.0321155661933216e+17
19627.0	5.031208972976128e+17
19628.0	5.029027240738818e+17
19629.0	5.0291689900386976e+17
19630.0	5.0236637339538746e+17
19631.0	4.9731129398613466e+17
19632.0	5.0267383111789216e+17
19633.0	5.0257594668810234e+17
19634.0	5.025001463174485e+17
19635.0	5.024063354656083e+17
19636.0	5.023132860896598e+17
19637.0	5.021955195404287e+17
19638.0	5.0214198421312845e+17
19639.0	5.020520492477097e+17
19640.0	5.019512926983509e+17
19641.0	5.0178757670993926e+17
19642.0	5.01786294161681e+17
19643.0	5.0169524455997434e+17
19644.0	5.0160333722309965e+17
19645.0	5.01494501675281e+17
19646.0	5.014221244858368e+17
19647.0	5.0134091514074445e+17
19648.0	5.012523311606442e+17
19649.0	5.011627629172054e+17
19650.0	5.010736738729982e+17
19651.0	5.0098381978774176e+17
19652.0	5.00894690058786e+17
19653.0	5.008025706998442e+17
19654.0	5.007154402557951e+17
19655.0	5.0062570612763296e+17
19656.0	5.005367468272298e+17
