# Flux units: erg / (cm m2 s)
# Wavelength units: Angstrom
wave	flux
19000.0	6.44913751532066e+17
19001.0	6.447879764486825e+17
19002.0	6.446736492986368e+17
19003.0	6.445532383106388e+17
19004.0	6.444332230552233e+17
19005.0	6.443133216751615e+17
19006.0	6.441931975775572e+17
19007.0	6.440660782197417e+17
19008.0	6.43949366747682e+17
19009.0	6.438281401073663e+17
19010.0	6.436855335616511e+17
19011.0	6.435899479599785e+17
19012.0	6.434509404067155e+17
19013.0	6.433514985619455e+17
19014.0	6.43228123669026e+17
19015.0	6.431091781708457e+17
19016.0	6.42988225278771e+17
19017.0	6.428704423018495e+17
19018.0	6.427494148210687e+17
19019.0	6.426303610399401e+17
19020.0	6.425087813790378e+17
19021.0	6.423899213048489e+17
19022.0	6.422708447346687e+17
19023.0	6.42148305277201e+17
19024.0	6.420288150787412e+17
19025.0	6.419084867185321e+17
19026.0	6.417865290110292e+17
19027.0	6.416528511598591e+17
19028.0	6.415493343390377e+17
19029.0	6.414289727040169e+17
19030.0	6.413097886198442e+17
19031.0	6.411896698350249e+17
19032.0	6.410693559451647e+17
19033.0	6.409442121045332e+17
19034.0	6.408284790237865e+17
19035.0	6.407066274321748e+17
19036.0	6.394017791082492e+17
19037.0	6.404680687725225e+17
19038.0	6.403474992398335e+17
19039.0	6.40228877541922e+17
19040.0	6.40108823908625e+17
19041.0	6.399887291012436e+17
19042.0	6.398629961007104e+17
19043.0	6.397487252941481e+17
19044.0	6.396278834113194e+17
19045.0	6.395080089447081e+17
19046.0	6.393856731206996e+17
19047.0	6.392678286273194e+17
19048.0	6.391363918626815e+17
19049.0	6.390238279980371e+17
19050.0	6.389061193302015e+17
19051.0	6.386113042885286e+17
19052.0	6.386404265994922e+17
19053.0	6.385469364720979e+17
19054.0	6.384287242780671e+17
19055.0	6.382941155710292e+17
19056.0	6.381876454708563e+17
19057.0	6.380683158443348e+17
19058.0	6.379463156345514e+17
19059.0	6.378291314644308e+17
19060.0	6.377079159390208e+17
19061.0	6.375894395038376e+17
19062.0	6.374692871645866e+17
19063.0	6.373495567723178e+17
19064.0	6.372231510054228e+17
19065.0	6.3709989844637e+17
19066.0	6.36986763387426e+17
19067.0	6.368702870760106e+17
19068.0	6.367505608780457e+17
19069.0	6.366308281789097e+17
19070.0	6.365096436214442e+17
19071.0	6.363907690769066e+17
19072.0	6.36271384085572e+17
19073.0	6.361515302409556e+17
19074.0	6.360321259558227e+17
19075.0	6.359124519769427e+17
19076.0	6.357915386511359e+17
19077.0	6.356723109462015e+17
19078.0	6.355517702143999e+17
19079.0	6.354336416268287e+17
19080.0	6.353131309542058e+17
19081.0	6.351920456619348e+17
19082.0	6.350722014642176e+17
19083.0	6.349490083244714e+17
19084.0	6.348222766601556e+17
19085.0	6.347160180228095e+17
19086.0	6.345741030479188e+17
19087.0	6.344420457360042e+17
19088.0	6.343523350959444e+17
19089.0	6.342094628410708e+17
19090.0	6.341164084319572e+17
19091.0	6.339971164143616e+17
19092.0	6.338682310448468e+17
19093.0	6.337598635813546e+17
19094.0	6.336399385733801e+17
19095.0	6.335203702210559e+17
19096.0	6.334003778245972e+17
19097.0	6.332819963204948e+17
19098.0	6.33162614055458e+17
19099.0	6.330431716021587e+17
19100.0	6.329219149026644e+17
19101.0	6.32803927663138e+17
19102.0	6.326795397059924e+17
19103.0	6.325660294665556e+17
19104.0	6.324467066208255e+17
19105.0	6.323269458897577e+17
19106.0	6.322018149815636e+17
19107.0	6.320879008306516e+17
19108.0	6.319694155175252e+17
19109.0	6.317507342936745e+17
19110.0	6.317289018927785e+17
19111.0	6.316118374001321e+17
19112.0	6.314926798099796e+17
19113.0	6.313735060018516e+17
19114.0	6.312542166406483e+17
19115.0	6.31130201137698e+17
19116.0	6.310147149616468e+17
19117.0	6.308956214744403e+17
19118.0	6.307675477726548e+17
19119.0	6.304162371338236e+17
19120.0	6.305291440925353e+17
19121.0	6.304133762689706e+17
19122.0	6.303014268698623e+17
19123.0	6.301822888531284e+17
19124.0	6.300575082392233e+17
19125.0	6.299434467983359e+17
19126.0	6.2982457931421e+17
19127.0	6.29605618819618e+17
19128.0	6.29544362128179e+17
19129.0	6.294636138769065e+17
19130.0	6.293482110276948e+17
19131.0	6.292288783253501e+17
19132.0	6.291112399121065e+17
19133.0	6.289758816829439e+17
19134.0	6.288541204785833e+17
19135.0	6.287540847203668e+17
19136.0	6.286359304776362e+17
19137.0	6.285076555191636e+17
19138.0	6.283954787188735e+17
19139.0	6.282792580502868e+17
19140.0	6.281605574295551e+17
19141.0	6.28041737900305e+17
19142.0	6.279215083858602e+17
19143.0	6.278010219003903e+17
19144.0	6.276832306746708e+17
19145.0	6.27566272647441e+17
19146.0	6.274131603488768e+17
19147.0	6.27323302978082e+17
19148.0	6.272095921810089e+17
19149.0	6.27091020255505e+17
19150.0	6.269723436821162e+17
19151.0	6.26854192025873e+17
19152.0	6.267340014485504e+17
19153.0	6.266154095301971e+17
19154.0	6.264907452383231e+17
19155.0	6.263795019502931e+17
19156.0	6.262606153820841e+17
19157.0	6.261406209583786e+17
19158.0	6.259554760611155e+17
19159.0	6.259034755694591e+17
19160.0	6.257847002202111e+17
19161.0	6.256637054550015e+17
19162.0	6.253951861129217e+17
19163.0	6.254273850856788e+17
19164.0	6.253119269415594e+17
19165.0	6.251900613689341e+17
19166.0	6.250645654863871e+17
19167.0	6.249417139727018e+17
19168.0	6.248353081152852e+17
19169.0	6.247150416909652e+17
19170.0	6.246005934653439e+17
19171.0	6.244727331138218e+17
19172.0	6.243629292410196e+17
19173.0	6.242447224995839e+17
19174.0	6.241235260582569e+17
19175.0	6.240083870307668e+17
19176.0	6.238899005292543e+17
19177.0	6.237627230104233e+17
19178.0	6.23649435558434e+17
19179.0	6.235212463734784e+17
19180.0	6.234122719242921e+17
19181.0	6.23290878071057e+17
19182.0	6.231775032377344e+17
19183.0	6.23060145283618e+17
19184.0	6.229395819724799e+17
19185.0	6.228233900348756e+17
19186.0	6.227052592802474e+17
19187.0	6.225827616260096e+17
19188.0	6.224678789403988e+17
19189.0	6.223481658845865e+17
19190.0	6.222291365702313e+17
19191.0	6.22109750600226e+17
19192.0	6.219946115727359e+17
19193.0	6.218746551773865e+17
19194.0	6.217564490650964e+17
19195.0	6.216391088668672e+17
19196.0	6.215201822430548e+17
19197.0	6.214013867611476e+17
19198.0	6.21281433231906e+17
19199.0	6.202634764899666e+17
19200.0	6.204363011784707e+17
19201.0	6.209265688292009e+17
19202.0	6.20809970253824e+17
19203.0	6.206897050877951e+17
19204.0	6.205722144538623e+17
19205.0	6.204546495807487e+17
19206.0	6.203361205769556e+17
19207.0	6.202127901436585e+17
19208.0	6.200879522075988e+17
19209.0	6.19980943069457e+17
19210.0	6.198632464252927e+17
19211.0	6.197447402804564e+17
19212.0	6.196262823002111e+17
19213.0	6.194959674419882e+17
19214.0	6.193729491348138e+17
19215.0	6.192672197487274e+17
19216.0	6.191519749548714e+17
19217.0	6.190337536731818e+17
19218.0	6.188676274279763e+17
19219.0	6.187877968904191e+17
19220.0	6.186762091801258e+17
19221.0	6.18540528898321e+17
19222.0	6.18440624771345e+17
19223.0	6.18321013707025e+17
19224.0	6.182006376016553e+17
19225.0	6.180765927385769e+17
19226.0	6.179650237628415e+17
19227.0	6.178461830523561e+17
19228.0	6.177290691368276e+17
19229.0	6.176103129415679e+17
19230.0	6.174898091895466e+17
19231.0	6.173709001119059e+17
19232.0	6.172531999724884e+17
19233.0	6.171311448173225e+17
19234.0	6.170149801426944e+17
19235.0	6.168962357613907e+17
19236.0	6.1677860566685e+17
19237.0	6.16658761818658e+17
19238.0	6.165342265016319e+17
19239.0	6.164218609576618e+17
19240.0	6.16298517242402e+17
19241.0	6.161811903960404e+17
19242.0	6.160637269551786e+17
19243.0	6.159360289931263e+17
19244.0	6.158265039017302e+17
19245.0	6.157073867866112e+17
19246.0	6.155872567470761e+17
19247.0	6.154688564385108e+17
19248.0	6.153496367726591e+17
19249.0	6.152296954768042e+17
19250.0	6.151097229333844e+17
19251.0	6.149843885315412e+17
19252.0	6.148559589430612e+17
19253.0	6.147510746393258e+17
19254.0	6.146322359560873e+17
19255.0	6.145028072843945e+17
19256.0	6.143902794907647e+17
19257.0	6.142737634732714e+17
19258.0	6.141540436366676e+17
19259.0	6.140301538230272e+17
19260.0	6.138929516380159e+17
19261.0	6.137935466332159e+17
19262.0	6.136709142719146e+17
19263.0	6.135507708805119e+17
19264.0	6.134031715751251e+17
19265.0	6.133025702849193e+17
19266.0	6.131823606235135e+17
19267.0	6.130731024995667e+17
19268.0	6.129526339796991e+17
19269.0	6.128320796863146e+17
19270.0	6.127113546847572e+17
19271.0	6.125715024685738e+17
19272.0	6.124678408044544e+17
19273.0	6.122191799539026e+17
19274.0	6.121498395104596e+17
19275.0	6.121068956396202e+17
19276.0	6.119845917622271e+17
19277.0	6.118635649804969e+17
19278.0	6.117424908031316e+17
19279.0	6.116224436011007e+17
19280.0	6.114978272641024e+17
19281.0	6.113800744162644e+17
19282.0	6.112591829707433e+17
19283.0	6.11123107865122e+17
19284.0	6.10999587569664e+17
19285.0	6.108814326278826e+17
19286.0	6.107685023208788e+17
19287.0	6.106479882928127e+17
19288.0	6.101961957616294e+17
19289.0	6.096325424010569e+17
19290.0	6.102796551411028e+17
19291.0	6.101418070332756e+17
19292.0	6.100334272664916e+17
19293.0	6.099094736295252e+17
19294.0	6.097856378525011e+17
19295.0	6.096625375466838e+17
19296.0	6.095385704180394e+17
19297.0	6.094131994558463e+17
19298.0	6.092885489352701e+17
19299.0	6.091656426859178e+17
19300.0	6.090406613046612e+17
19301.0	6.089155497601706e+17
19302.0	6.087898491955881e+17
19303.0	6.086608485526186e+17
19304.0	6.08537311060514e+17
19305.0	6.084127075860479e+17
19306.0	6.08286790455569e+17
19307.0	6.081574463690067e+17
19308.0	6.080321902608381e+17
19309.0	6.078746432547497e+17
19310.0	6.077373585118548e+17
19311.0	6.076478369650006e+17
19312.0	6.075247960085844e+17
19313.0	6.073968092687018e+17
19314.0	6.06297246050987e+17
19315.0	6.062296777009846e+17
19316.0	6.070091335947603e+17
19317.0	6.068821193741652e+17
19318.0	6.067520288413012e+17
19319.0	6.066230734968148e+17
19320.0	6.06492476641553e+17
19321.0	6.063619166961663e+17
19322.0	6.062239356289023e+17
19323.0	6.060846776756905e+17
19324.0	6.059662542984532e+17
19325.0	6.058043923322196e+17
19326.0	6.057013116491092e+17
19327.0	6.05567381021218e+17
19328.0	6.054340980637695e+17
19329.0	6.053001512179028e+17
19330.0	6.051629921643178e+17
19331.0	6.050272760212138e+17
19332.0	6.04893633122577e+17
19333.0	6.047567851465386e+17
19334.0	6.046198507678377e+17
19335.0	6.04481726255377e+17
19336.0	6.043433706367657e+17
19337.0	6.042045912536406e+17
19338.0	6.04053122982434e+17
19339.0	6.039245489001812e+17
19340.0	6.037788721938431e+17
19341.0	6.036400383546708e+17
19342.0	6.03475668963601e+17
19343.0	6.03355283071522e+17
19344.0	6.032108041185962e+17
19345.0	6.029544037285885e+17
19346.0	6.028715885243049e+17
19347.0	6.027688837906432e+17
19348.0	6.026255079396692e+17
19349.0	6.024751087965524e+17
19350.0	6.023248838568618e+17
19351.0	6.021742139015167e+17
19352.0	6.0201912252061e+17
19353.0	6.018706907157844e+17
19354.0	6.017164885972308e+17
19355.0	6.015554302596436e+17
19356.0	6.01404049859106e+17
19357.0	6.012460070163795e+17
19358.0	6.010854257109674e+17
19359.0	6.009184685042346e+17
19360.0	6.007606878055082e+17
19361.0	6.005973477665449e+17
19362.0	6.004342951772159e+17
19363.0	6.002671845987668e+17
19364.0	6.000983330346323e+17
19365.0	5.999279803290964e+17
19366.0	5.997556648990035e+17
19367.0	5.99581526135057e+17
19368.0	5.994054607175679e+17
19369.0	5.992065201952083e+17
19370.0	5.989751113558698e+17
19371.0	5.988043904603476e+17
19372.0	5.986224986652671e+17
19373.0	5.984341216373418e+17
19374.0	5.982461255221247e+17
19375.0	5.980541097956692e+17
19376.0	5.978597667897343e+17
19377.0	5.976623273388714e+17
19378.0	5.974624384144724e+17
19379.0	5.972594511577087e+17
19380.0	5.970533921325055e+17
19381.0	5.968441678757887e+17
19382.0	5.966272107205972e+17
19383.0	5.964090821662035e+17
19384.0	5.961960064898387e+17
19385.0	5.959729087337812e+17
19386.0	5.957462151309993e+17
19387.0	5.955152903143423e+17
19388.0	5.952801395965951e+17
19389.0	5.950412244910079e+17
19390.0	5.947979330486271e+17
19391.0	5.935078706249713e+17
19392.0	5.942063530333522e+17
19393.0	5.939467595197098e+17
19394.0	5.936830222434303e+17
19395.0	5.934129886877012e+17
19396.0	5.93138328604945e+17
19397.0	5.928607539003391e+17
19398.0	5.925730332442623e+17
19399.0	5.922416146513919e+17
19400.0	5.919792483532799e+17
19401.0	5.915484770445996e+17
19402.0	5.912258411844948e+17
19403.0	5.909035571565908e+17
19404.0	5.905752738059604e+17
19405.0	5.902365204239699e+17
19406.0	5.897452114673664e+17
19407.0	5.893442852181332e+17
19408.0	5.889323831044778e+17
19409.0	5.885366897388201e+17
19410.0	5.879585572913151e+17
19411.0	5.87548623774242e+17
19412.0	5.869256529586862e+17
19413.0	5.863753095228074e+17
19414.0	5.85674105570372e+17
19415.0	5.850566261473281e+17
19416.0	5.841009262985217e+17
19417.0	5.83225049297715e+17
19418.0	5.822034172269906e+17
19419.0	5.809686989941418e+17
19420.0	5.795117034110973e+17
19421.0	5.781168581858648e+17
19422.0	5.771955651215359e+17
19423.0	5.7633919359167136e+17
19424.0	5.7540059419989325e+17
19425.0	5.744488358084607e+17
19426.0	5.7344808773659296e+17
19427.0	5.723923545762474e+17
19428.0	5.712959659573247e+17
19429.0	5.7010851480425786e+17
19430.0	5.6880177226274144e+17
19431.0	5.673609265676289e+17
19432.0	5.660847106599592e+17
19433.0	5.645754655135059e+17
19434.0	5.628629511132503e+17
19435.0	5.608873313785173e+17
19436.0	5.584910093910012e+17
19437.0	5.5554979949882e+17
19438.0	5.4974844379682074e+17
19439.0	5.4626722656201376e+17
19440.0	5.429977327599616e+17
19441.0	5.3940045095458106e+17
19442.0	5.354165846933505e+17
19443.0	5.310581467425452e+17
19444.0	5.25815695470319e+17
19445.0	5.1815729105032704e+17
19446.0	5.0761890085382906e+17
19447.0	4.981026877079545e+17
19448.0	4.842927998806707e+17
19449.0	4.629570538613417e+17
19450.0	4.2097554810907174e+17
19451.0	4.083297586686611e+17
19452.0	4.4413580063976205e+17
19453.0	4.748124736891576e+17
19454.0	4.917873635317075e+17
19455.0	5.025534424995156e+17
19456.0	5.120266136278357e+17
19457.0	5.214893231833085e+17
19458.0	5.254967535337501e+17
19459.0	5.317944808570885e+17
19460.0	5.3580139593727974e+17
19461.0	5.3940432684100256e+17
19462.0	5.426029075453271e+17
19463.0	5.461895416905726e+17
19464.0	5.510813090228899e+17
19465.0	5.544389631104343e+17
19466.0	5.5681865412334854e+17
19467.0	5.587593393602558e+17
19468.0	5.603374448421547e+17
19469.0	5.617210431810217e+17
19470.0	5.6300882236538854e+17
19471.0	5.641475506656596e+17
19472.0	5.6520195961432723e+17
19473.0	5.662390827177301e+17
19474.0	5.6715413165178874e+17
19475.0	5.6797045107370643e+17
19476.0	5.688168200972969e+17
19477.0	5.6957429818763936e+17
19478.0	5.703008236426579e+17
19479.0	5.709782116379305e+17
19480.0	5.715920336977919e+17
19481.0	5.7247487904535866e+17
19482.0	5.738116442051929e+17
19483.0	5.749033693173075e+17
19484.0	5.75829303309107e+17
19485.0	5.765866822740655e+17
19486.0	5.771822158402897e+17
19487.0	5.776766575924564e+17
19488.0	5.782338232036014e+17
19489.0	5.785178381221887e+17
19490.0	5.788975322453331e+17
19491.0	5.792257821114367e+17
19492.0	5.79449050226142e+17
19493.0	5.798107570066772e+17
19494.0	5.799636577725097e+17
19495.0	5.801064561377277e+17
19496.0	5.803191573326506e+17
19497.0	5.80538460152354e+17
19498.0	5.80533124857856e+17
19499.0	5.790839180274339e+17
19500.0	5.808508450635776e+17
19501.0	5.809733534831958e+17
19502.0	5.81151180787985e+17
19503.0	5.812257117525331e+17
19504.0	5.812920105566207e+17
19505.0	5.813535803528531e+17
19506.0	5.814084345790463e+17
19507.0	5.814562222418601e+17
19508.0	5.815009425402538e+17
19509.0	5.815390442269353e+17
19510.0	5.815605243062954e+17
19511.0	5.797532542872225e+17
19512.0	5.814515075645435e+17
19513.0	5.812611255194957e+17
19514.0	5.814029660454908e+17
19515.0	5.817140740707668e+17
19516.0	5.817587800386218e+17
19517.0	5.817584758117716e+17
19518.0	5.817605474484223e+17
19519.0	5.817545786043049e+17
19520.0	5.817450807427072e+17
19521.0	5.817348611112957e+17
19522.0	5.81717860548608e+17
19523.0	5.817014763388928e+17
19524.0	5.816802332377087e+17
19525.0	5.816549214519295e+17
19526.0	5.816290409185279e+17
19527.0	5.815993730684244e+17
19528.0	5.815669497703082e+17
19529.0	5.815327146027689e+17
19530.0	5.814963470510761e+17
19531.0	5.814574148922025e+17
19532.0	5.81416269259298e+17
19533.0	5.813729978133161e+17
19534.0	5.813274838827005e+17
19535.0	5.812796917459625e+17
19536.0	5.812401617589588e+17
19537.0	5.812327347650559e+17
19538.0	5.811740406535508e+17
19539.0	5.81094059470575e+17
19540.0	5.810672016643412e+17
19541.0	5.810107928892756e+17
19542.0	5.809512153874431e+17
19543.0	5.808905073109673e+17
19544.0	5.80828315988787e+17
19545.0	5.807383082521939e+17
19546.0	5.806494470285993e+17
19547.0	5.806339519414271e+17
19548.0	5.805665259181396e+17
19549.0	5.804925632817833e+17
19550.0	5.804283765194751e+17
19551.0	5.803578287456255e+17
19552.0	5.802860365217791e+17
19553.0	5.802119636451327e+17
19554.0	5.801374521141929e+17
19555.0	5.800641332335956e+17
19556.0	5.799894354755583e+17
19557.0	5.799127437453993e+17
19558.0	5.79835559813666e+17
19559.0	5.797572137101993e+17
19560.0	5.796770876839252e+17
19561.0	5.795973764743167e+17
19562.0	5.795186879059284e+17
19563.0	5.794375630061568e+17
19564.0	5.793558190271146e+17
19565.0	5.792733853646847e+17
19566.0	5.791885187962196e+17
19567.0	5.791065188248234e+17
19568.0	5.790208075934378e+17
19569.0	5.789369145928361e+17
19570.0	5.788519832922793e+17
19571.0	5.787657411319124e+17
19572.0	5.786777907014313e+17
19573.0	5.785912015323135e+17
19574.0	5.784997394907135e+17
19575.0	5.784169787424767e+17
19576.0	5.783285978365951e+17
19577.0	5.782384194617343e+17
19578.0	5.781479346230612e+17
19579.0	5.780590146792105e+17
19580.0	5.779689511583744e+17
19581.0	5.778791195126441e+17
19582.0	5.777892077557076e+17
19583.0	5.776979673131689e+17
19584.0	5.776060253732863e+17
19585.0	5.77508146815522e+17
19586.0	5.774137407919444e+17
19587.0	5.773236786692095e+17
19588.0	5.77209702093073e+17
19589.0	5.771419160586922e+17
19590.0	5.770445417960788e+17
19591.0	5.769560846237695e+17
19592.0	5.768620325295444e+17
19593.0	5.767666306383872e+17
19594.0	5.766590868662953e+17
19595.0	5.765760950119082e+17
19596.0	5.7638872007311366e+17
19597.0	5.7638485306463565e+17
19598.0	5.762724097163263e+17
19599.0	5.761964815592106e+17
19600.0	5.761010207380821e+17
19601.0	5.7600093660555936e+17
19602.0	5.759056861986814e+17
19603.0	5.7577469969257805e+17
19604.0	5.757108888797183e+17
19605.0	5.7560126878733645e+17
19606.0	5.755209563941545e+17
19607.0	5.7542396059757216e+17
19608.0	5.753259392237566e+17
19609.0	5.752258171327828e+17
19610.0	5.751310362782377e+17
19611.0	5.7503271319415456e+17
19612.0	5.74935219114257e+17
19613.0	5.748363662895785e+17
19614.0	5.747363494756351e+17
19615.0	5.746399854810452e+17
19616.0	5.74532409692433e+17
19617.0	5.7444243383255034e+17
19618.0	5.743118063588694e+17
19619.0	5.7420526677306016e+17
19620.0	5.741078596550655e+17
19621.0	5.740465950643541e+17
19622.0	5.739475657293824e+17
19623.0	5.738481731676842e+17
19624.0	5.73748102177314e+17
19625.0	5.736489579883177e+17
19626.0	5.7354931565581645e+17
19627.0	5.73449417470771e+17
19628.0	5.733277535742634e+17
19629.0	5.732436608548863e+17
19630.0	5.731010619987285e+17
19631.0	5.7205960037717325e+17
19632.0	5.7294833956072096e+17
19633.0	5.7284582692618234e+17
19634.0	5.727485348020222e+17
19635.0	5.72645895639313e+17
19636.0	5.7254742372734285e+17
19637.0	5.7242569915323725e+17
19638.0	5.723459500550826e+17
19639.0	5.722448683073534e+17
19640.0	5.721393372419413e+17
19641.0	5.7199831481494195e+17
19642.0	5.719427188260862e+17
19643.0	5.718414428820821e+17
19644.0	5.717377368282452e+17
19645.0	5.716245120111956e+17
19646.0	5.7153891025114445e+17
19647.0	5.714380585609898e+17
19648.0	5.713368738430975e+17
19649.0	5.7123546997282125e+17
19650.0	5.711343378934442e+17
19651.0	5.7103299735715834e+17
19652.0	5.709316264820735e+17
19653.0	5.708296625324032e+17
19654.0	5.707287542890496e+17
19655.0	5.706269946019839e+17
19656.0	5.7052532865761274e+17
19657.0	5.70424166658867e+17
19658.0	5.703225715283285e+17
19659.0	5.702208446966442e+17
19660.0	5.701192780873728e+17
19661.0	5.700175869072724e+17
19662.0	5.6991585818815136e+17
19663.0	5.698112911835135e+17
19664.0	5.6970865083241805e+17
