# Flux units: erg / (cm m2 s)
# Wavelength units: Angstrom
wave	flux
19000.0	5.350045758346581e+17
19001.0	5.3489695006392314e+17
19002.0	5.3481394080317434e+17
19003.0	5.347177276637183e+17
19004.0	5.346224692177578e+17
19005.0	5.3452401604034554e+17
19006.0	5.344293087958357e+17
19007.0	5.343348195153237e+17
19008.0	5.3423545072134816e+17
19009.0	5.3412355668705274e+17
19010.0	5.3402262327787514e+17
19011.0	5.3394565584213325e+17
19012.0	5.338358786730665e+17
19013.0	5.3376355482118816e+17
19014.0	5.336642151776255e+17
19015.0	5.3356886683374925e+17
19016.0	5.3347682940354554e+17
19017.0	5.333840842544468e+17
19018.0	5.332879821941419e+17
19019.0	5.331936676762965e+17
19020.0	5.3309783908461216e+17
19021.0	5.330041625903103e+17
19022.0	5.3290865094819834e+17
19023.0	5.3280757003933e+17
19024.0	5.3270951175563936e+17
19025.0	5.326199560951124e+17
19026.0	5.3252169564596896e+17
19027.0	5.3242331230371834e+17
19028.0	5.3233470840067405e+17
19029.0	5.322392727453694e+17
19030.0	5.321463247317673e+17
19031.0	5.3205128564790605e+17
19032.0	5.319533823437481e+17
19033.0	5.318433275117568e+17
19034.0	5.317397236591274e+17
19035.0	5.315338226892799e+17
19036.0	5.308040932054356e+17
19037.0	5.3137084496827725e+17
19038.0	5.313616633572009e+17
19039.0	5.312843186438142e+17
19040.0	5.3119419940864e+17
19041.0	5.311014874644479e+17
19042.0	5.30803770943078e+17
19043.0	5.3091617815046816e+17
19044.0	5.308206026151252e+17
19045.0	5.3072423834091514e+17
19046.0	5.3062727791629645e+17
19047.0	5.3052985660757325e+17
19048.0	5.304010581300564e+17
19049.0	5.299229387216207e+17
19050.0	5.30224683033122e+17
19051.0	5.300488286590292e+17
19052.0	5.299923810167466e+17
19053.0	5.299552080887807e+17
19054.0	5.298712827221332e+17
19055.0	5.296970095307435e+17
19056.0	5.2966712057091405e+17
19057.0	5.295937559724032e+17
19058.0	5.292901244338171e+17
19059.0	5.2932584130914976e+17
19060.0	5.2931149182621005e+17
19061.0	5.2921667853571405e+17
19062.0	5.2912263091541325e+17
19063.0	5.2902820224259405e+17
19064.0	5.289280069610154e+17
19065.0	5.2882574255936845e+17
19066.0	5.286650710065152e+17
19067.0	5.2865024351272954e+17
19068.0	5.2855894393050445e+17
19069.0	5.2846483416459936e+17
19070.0	5.2836767569892685e+17
19071.0	5.282749407559679e+17
19072.0	5.281042502691496e+17
19073.0	5.2808819139761485e+17
19074.0	5.2799373623077536e+17
19075.0	5.279003560640511e+17
19076.0	5.278052358903125e+17
19077.0	5.2771017856122874e+17
19078.0	5.276140888042153e+17
19079.0	5.2752315985865376e+17
19080.0	5.274288045162496e+17
19081.0	5.2733004955866445e+17
19082.0	5.2724036667091616e+17
19083.0	5.2713842159561376e+17
19084.0	5.2703186593163936e+17
19085.0	5.2695611791988045e+17
19086.0	5.267180503433215e+17
19087.0	5.2658871737166464e+17
19088.0	5.265586570745171e+17
19089.0	5.265612029471403e+17
19090.0	5.264840855650304e+17
19091.0	5.2638008465162234e+17
19092.0	5.2613307593741696e+17
19093.0	5.262085504805545e+17
19094.0	5.261162026718549e+17
19095.0	5.2602236015301965e+17
19096.0	5.2592875691922765e+17
19097.0	5.2583560107786234e+17
19098.0	5.2565649912408723e+17
19099.0	5.255447620965718e+17
19100.0	5.255511858129578e+17
19101.0	5.2545750687197856e+17
19102.0	5.2535991695223443e+17
19103.0	5.2527242426013e+17
19104.0	5.2518055851677005e+17
19105.0	5.248985802823002e+17
19106.0	5.24989498462481e+17
19107.0	5.248496208008532e+17
19108.0	5.2472596712652794e+17
19109.0	5.2469339318299296e+17
19110.0	5.246071053047124e+17
19111.0	5.244675894018047e+17
19112.0	5.243657665904639e+17
19113.0	5.2433820302267725e+17
19114.0	5.242064204376745e+17
19115.0	5.241393882595326e+17
19116.0	5.2405304096194554e+17
19117.0	5.2395477575925754e+17
19118.0	5.2380520079687686e+17
19119.0	5.2297574390606426e+17
19120.0	5.236445039383892e+17
19121.0	5.2357894528914746e+17
19122.0	5.2349658929124685e+17
19123.0	5.234055210947924e+17
19124.0	5.23304354062882e+17
19125.0	5.2321499336758605e+17
19126.0	5.231039198090581e+17
19127.0	5.229380510242132e+17
19128.0	5.2291363982540794e+17
19129.0	5.228355927059113e+17
19130.0	5.227538808132947e+17
19131.0	5.226636023343785e+17
19132.0	5.225712172662783e+17
19133.0	5.2247511527587834e+17
19134.0	5.2238546524351136e+17
19135.0	5.222924943709525e+17
19136.0	5.221989397211819e+17
19137.0	5.220999180058623e+17
19138.0	5.220117610059092e+17
19139.0	5.219219918553087e+17
19140.0	5.218296826342058e+17
19141.0	5.217368107472212e+17
19142.0	5.216415305607849e+17
19143.0	5.215485712924671e+17
19144.0	5.2145414296917325e+17
19145.0	5.2136539520150176e+17
19146.0	5.212083596907862e+17
19147.0	5.211762406195198e+17
19148.0	5.210204140470273e+17
19149.0	5.2091528213954554e+17
19150.0	5.2090290516787194e+17
19151.0	5.208096320957098e+17
19152.0	5.207154835324926e+17
19153.0	5.2047796589909306e+17
19154.0	5.2051414869169485e+17
19155.0	5.204354309029887e+17
19156.0	5.203430386346666e+17
19157.0	5.2020294196046515e+17
19158.0	5.200500655915009e+17
19159.0	5.2006022978819405e+17
19160.0	5.199675906151764e+17
19161.0	5.1986924488185165e+17
19162.0	5.1975910413653325e+17
19163.0	5.1967872743069e+17
19164.0	5.1959803629185696e+17
19165.0	5.193546529243134e+17
19166.0	5.194102398255104e+17
19167.0	5.19324441981747e+17
19168.0	5.1923515741306874e+17
19169.0	5.1914413451509754e+17
19170.0	5.190527772611924e+17
19171.0	5.189595176807081e+17
19172.0	5.1886812351692794e+17
19173.0	5.1877676877960525e+17
19174.0	5.1868241700235936e+17
19175.0	5.1859221388110483e+17
19176.0	5.1850055170129914e+17
19177.0	5.1839277458609485e+17
19178.0	5.1831422128401043e+17
19179.0	5.182226845138943e+17
19180.0	5.181300542887253e+17
19181.0	5.1803094910675616e+17
19182.0	5.1794250207068154e+17
19183.0	5.17856053830178e+17
19184.0	5.177646800087721e+17
19185.0	5.1767136170803194e+17
19186.0	5.17580008858146e+17
19187.0	5.1748178664707405e+17
19188.0	5.173949766478506e+17
19189.0	5.1730170448445434e+17
19190.0	5.1720900267649683e+17
19191.0	5.1711235717420365e+17
19192.0	5.170202241138687e+17
19193.0	5.169054037136725e+17
19194.0	5.1679488722862074e+17
19195.0	5.16724340363537e+17
19196.0	5.166132217162409e+17
19197.0	5.164868214019413e+17
19198.0	5.163182389723134e+17
19199.0	5.160625086922751e+17
19200.0	5.15989078872337e+17
19201.0	5.1605064398493005e+17
19202.0	5.160329723336021e+17
19203.0	5.15972377223714e+17
19204.0	5.158997247481174e+17
19205.0	5.15817580073233e+17
19206.0	5.157318418584917e+17
19207.0	5.1562893006602234e+17
19208.0	5.155432509909674e+17
19209.0	5.1546514431235405e+17
19210.0	5.153755660025856e+17
19211.0	5.1528721529569274e+17
19212.0	5.151953805901823e+17
19213.0	5.150934323691519e+17
19214.0	5.1500582824837126e+17
19215.0	5.1492012107147936e+17
19216.0	5.148290804176213e+17
19217.0	5.147300991074303e+17
19218.0	5.146135291232255e+17
19219.0	5.145311343280127e+17
19220.0	5.14459380551953e+17
19221.0	5.143630635335679e+17
19222.0	5.142790463116628e+17
19223.0	5.141914268117674e+17
19224.0	5.1409770774527994e+17
19225.0	5.1400790951417165e+17
19226.0	5.1391981738612045e+17
19227.0	5.1383020845793274e+17
19228.0	5.1374217176459936e+17
19229.0	5.136501857845248e+17
19230.0	5.1355952240831136e+17
19231.0	5.13468010734114e+17
19232.0	5.1337768604794874e+17
19233.0	5.1328137518120954e+17
19234.0	5.131954565414911e+17
19235.0	5.131016935746217e+17
19236.0	5.1301447099569485e+17
19237.0	5.129219065511935e+17
19238.0	5.1282476150729376e+17
19239.0	5.1274204745564154e+17
19240.0	5.126505278821715e+17
19241.0	5.12558881640721e+17
19242.0	5.1246783798094496e+17
19243.0	5.1236350403979936e+17
19244.0	5.1228833099721363e+17
19245.0	5.121971464787283e+17
19246.0	5.1210644032061434e+17
19247.0	5.1201511515313485e+17
19248.0	5.119249879487828e+17
19249.0	5.1182915586184525e+17
19250.0	5.117117974882987e+17
19251.0	5.116154500612094e+17
19252.0	5.1153242605049165e+17
19253.0	5.1146948562561696e+17
19254.0	5.113815679107071e+17
19255.0	5.112710368154964e+17
19256.0	5.1119888276302496e+17
19257.0	5.1110917764546554e+17
19258.0	5.110179927774547e+17
19259.0	5.10917113614609e+17
19260.0	5.1080742438611616e+17
19261.0	5.107420173609641e+17
19262.0	5.106450454719145e+17
19263.0	5.1054741242074445e+17
19264.0	5.104386166489087e+17
19265.0	5.1036142894230176e+17
19266.0	5.10266556022784e+17
19267.0	5.1020190914532685e+17
19268.0	5.101119280425641e+17
19269.0	5.100216500529834e+17
19270.0	5.0992604299045536e+17
19271.0	5.09823221305617e+17
19272.0	5.0974687434724685e+17
19273.0	5.0964249916211194e+17
19274.0	5.095307074688339e+17
19275.0	5.094813510664191e+17
19276.0	5.0938903408585376e+17
19277.0	5.092996090079913e+17
19278.0	5.0920516991931725e+17
19279.0	5.091155383418879e+17
19280.0	5.0902434718242125e+17
19281.0	5.089354233238868e+17
19282.0	5.088467683202388e+17
19283.0	5.0875452047578445e+17
19284.0	5.086591595489962e+17
19285.0	5.085650837569535e+17
19286.0	5.084676372824064e+17
19287.0	5.08352912232721e+17
19288.0	5.079333546054995e+17
19289.0	5.07699509085252e+17
19290.0	5.0807507825022285e+17
19291.0	5.0799680275087366e+17
19292.0	5.0794079061715616e+17
19293.0	5.078546589766996e+17
19294.0	5.0776401971773434e+17
19295.0	5.076778172634453e+17
19296.0	5.074947251284653e+17
19297.0	5.0748131335208954e+17
19298.0	5.0740563042194765e+17
19299.0	5.072143492579328e+17
19300.0	5.0722689994369696e+17
19301.0	5.0713858866326176e+17
19302.0	5.070469059313662e+17
19303.0	5.069513904444757e+17
19304.0	5.068667797984596e+17
19305.0	5.0677560814250656e+17
19306.0	5.066853195972607e+17
19307.0	5.065892446601216e+17
19308.0	5.064979104049835e+17
19309.0	5.0639958361593165e+17
19310.0	5.0630375516405754e+17
19311.0	5.0621303334720845e+17
19312.0	5.061132639972009e+17
19313.0	5.0596047584843085e+17
19314.0	5.029520829229739e+17
19315.0	5.030579479248918e+17
19316.0	5.055742992187394e+17
19317.0	5.056661068709887e+17
19318.0	5.055944329265151e+17
19319.0	5.0551296367438496e+17
19320.0	5.053901303360168e+17
19321.0	5.05253856350481e+17
19322.0	5.0524593645595296e+17
19323.0	5.0515662084942496e+17
19324.0	5.0506721632365216e+17
19325.0	5.0497787198614176e+17
19326.0	5.048909300061525e+17
19327.0	5.048020208975871e+17
19328.0	5.045455313786199e+17
19329.0	5.0462501385885e+17
19330.0	5.0453463478654285e+17
19331.0	5.044416750288896e+17
19332.0	5.0435727801275725e+17
19333.0	5.0426600779066016e+17
19334.0	5.041741803552768e+17
19335.0	5.037461424046083e+17
19336.0	5.039960176459775e+17
19337.0	5.039085290782719e+17
19338.0	5.0379809228499616e+17
19339.0	5.0372655912932685e+17
19340.0	5.036185322433194e+17
19341.0	5.034079079978327e+17
19342.0	5.034028056969217e+17
19343.0	5.0335887085185696e+17
19344.0	5.0313180884937395e+17
19345.0	5.0301050412509875e+17
19346.0	5.029959015159125e+17
19347.0	5.028316001424724e+17
19348.0	5.0291455760356685e+17
19349.0	5.028253297978025e+17
19350.0	5.026761407113898e+17
19351.0	5.0264579827739296e+17
19352.0	5.023859160558248e+17
19353.0	5.024726534236841e+17
19354.0	5.023836224006826e+17
19355.0	5.022835725915477e+17
19356.0	5.0220318882529274e+17
19357.0	5.021134905584298e+17
19358.0	5.020224752102058e+17
19359.0	5.018940182888446e+17
19360.0	5.017058221053267e+17
19361.0	5.0175092555339085e+17
19362.0	5.0166223538749434e+17
19363.0	5.0157253984692883e+17
19364.0	5.014822224308906e+17
19365.0	5.013911580093098e+17
19366.0	5.013005243427497e+17
19367.0	5.01210256908834e+17
19368.0	5.0111971125275296e+17
19369.0	5.010257868750846e+17
19370.0	5.0093496949800954e+17
19371.0	5.008408250591914e+17
19372.0	5.007544006563156e+17
19373.0	5.006620835359402e+17
19374.0	5.0057206146880845e+17
19375.0	5.0048166149488634e+17
19376.0	5.003903242338303e+17
19377.0	5.0029777670635514e+17
19378.0	5.0020600617369594e+17
19379.0	5.0011427171205114e+17
19380.0	5.000208019270313e+17
19381.0	4.999280365753683e+17
19382.0	4.9982795621771936e+17
19383.0	4.997377346415274e+17
19384.0	4.996469988436649e+17
19385.0	4.9955508388713805e+17
19386.0	4.9946066255435085e+17
19387.0	4.9936489317225805e+17
19388.0	4.99266506194944e+17
19389.0	4.9916062951888205e+17
19390.0	4.990109078956714e+17
19391.0	4.9831278500904915e+17
19392.0	4.9868637369357645e+17
19393.0	4.987650864491178e+17
19394.0	4.9868812090081274e+17
19395.0	4.98547824787456e+17
19396.0	4.9849144977653766e+17
19397.0	4.9840479580542285e+17
19398.0	4.982559475062101e+17
19399.0	4.9811192118859085e+17
19400.0	4.9804848884176205e+17
19401.0	4.9800333401347405e+17
19402.0	4.9790582126892365e+17
19403.0	4.978025844877994e+17
19404.0	4.9770029170469536e+17
19405.0	4.9759277743254176e+17
19406.0	4.974865520001024e+17
19407.0	4.9731512778970445e+17
19408.0	4.972279973456555e+17
19409.0	4.9714389952320845e+17
19410.0	4.9704620747216205e+17
19411.0	4.9693318209426765e+17
19412.0	4.968162563631787e+17
19413.0	4.966376876452522e+17
19414.0	4.965742580247209e+17
19415.0	4.964478674971306e+17
19416.0	4.963044330657108e+17
19417.0	4.961833561620478e+17
19418.0	4.9604824197147296e+17
19419.0	4.959073723569492e+17
19420.0	4.957614112767998e+17
19421.0	4.956082027888639e+17
19422.0	4.95442374758673e+17
19423.0	4.952803603993941e+17
19424.0	4.951067992610132e+17
19425.0	4.949166950187007e+17
19426.0	4.947154775485098e+17
19427.0	4.9450142026519885e+17
19428.0	4.942659790219945e+17
19429.0	4.940079915073535e+17
19430.0	4.936967394077353e+17
19431.0	4.933700531082581e+17
19432.0	4.931349127364608e+17
19433.0	4.928075993186303e+17
19434.0	4.9241531081905485e+17
19435.0	4.919483580459689e+17
19436.0	4.91431952191761e+17
19437.0	4.9083230604055885e+17
19438.0	4.890115929276416e+17
19439.0	4.892147735418196e+17
19440.0	4.8881234419384314e+17
19441.0	4.879158656805546e+17
19442.0	4.8682669986283514e+17
19443.0	4.8550511326003194e+17
19444.0	4.83878258291507e+17
19445.0	4.8191198738077005e+17
19446.0	4.794024056236713e+17
19447.0	4.7618338020392934e+17
19448.0	4.7172075014935904e+17
19449.0	4.6498752628435616e+17
19450.0	4.514727229128689e+17
19451.0	4.39523970593588e+17
19452.0	4.597124336801109e+17
19453.0	4.685222061451948e+17
19454.0	4.736947299811324e+17
19455.0	4.77229506310963e+17
19456.0	4.7985583099740154e+17
19457.0	4.8169116783083514e+17
19458.0	4.742588238135389e+17
19459.0	4.8338521324257466e+17
19460.0	4.85739701941043e+17
19461.0	4.866743136681983e+17
19462.0	4.874039164141568e+17
19463.0	4.8798993666976416e+17
19464.0	4.884659743752192e+17
19465.0	4.8885963490153805e+17
19466.0	4.891839707130538e+17
19467.0	4.8946569994567674e+17
19468.0	4.896920077423957e+17
19469.0	4.8975257957389626e+17
19470.0	4.900264962162687e+17
19471.0	4.901565291473578e+17
19472.0	4.9024946143231994e+17
19473.0	4.903238786613247e+17
19474.0	4.902619902377982e+17
19475.0	4.903766344772265e+17
19476.0	4.9045064884333216e+17
19477.0	4.9048526212737696e+17
19478.0	4.904961445287251e+17
19479.0	4.9037376627234106e+17
19480.0	4.904763486721364e+17
19481.0	4.904578154408617e+17
19482.0	4.904373632456021e+17
19483.0	4.904084605763583e+17
19484.0	4.9037208897017165e+17
19485.0	4.903306733638998e+17
19486.0	4.901644040230231e+17
19487.0	4.902407848853504e+17
19488.0	4.9018603929163085e+17
19489.0	4.900949406165674e+17
19490.0	4.8999951565673805e+17
19491.0	4.900058091399849e+17
19492.0	4.899593101770751e+17
19493.0	4.8989740497633274e+17
19494.0	4.898302682901162e+17
19495.0	4.8975496256771405e+17
19496.0	4.896475521045844e+17
19497.0	4.8956018272501754e+17
19498.0	4.8911637153491603e+17
19499.0	4.884289142740308e+17
19500.0	4.8930702215522976e+17
19501.0	4.8931681138114554e+17
19502.0	4.892624758505471e+17
19503.0	4.8919610707148794e+17
19504.0	4.891230378917887e+17
19505.0	4.890450075495081e+17
19506.0	4.889711614448981e+17
19507.0	4.8888816211066874e+17
19508.0	4.8880214092021754e+17
19509.0	4.886962139824127e+17
19510.0	4.88434603078451e+17
19511.0	4.842598835421165e+17
19512.0	4.8793318759683405e+17
19513.0	4.879774057671336e+17
19514.0	4.879818679473492e+17
19515.0	4.8820153804827296e+17
19516.0	4.8815250929090554e+17
19517.0	4.8809927280776525e+17
19518.0	4.879948454035454e+17
19519.0	4.8791593740315296e+17
19520.0	4.8775046686747283e+17
19521.0	4.8779623385442976e+17
19522.0	4.8769361915849376e+17
19523.0	4.8760339275885235e+17
19524.0	4.874591026195117e+17
19525.0	4.874685981043371e+17
19526.0	4.8739042746258765e+17
19527.0	4.8730712320245754e+17
19528.0	4.872159986625193e+17
19529.0	4.871282102020779e+17
19530.0	4.8706183023820794e+17
19531.0	4.8697922272187725e+17
19532.0	4.868964449867094e+17
19533.0	4.868130759944874e+17
19534.0	4.8673082163855354e+17
19535.0	4.8664552424516256e+17
19536.0	4.865603015103829e+17
19537.0	4.8647667764428794e+17
19538.0	4.8626355673934515e+17
19539.0	4.862848189246122e+17
19540.0	4.86224281276689e+17
19541.0	4.861191929200639e+17
19542.0	4.8605123925333325e+17
19543.0	4.858549231069866e+17
19544.0	4.8588110926533965e+17
19545.0	4.857634894468436e+17
19546.0	4.856748923245908e+17
19547.0	4.856384252979883e+17
19548.0	4.855620259108181e+17
19549.0	4.854698527948798e+17
19550.0	4.853969734074366e+17
19551.0	4.853141988179966e+17
19552.0	4.8523007219466234e+17
19553.0	4.851451513798655e+17
19554.0	4.8505987502789965e+17
19555.0	4.849635869502122e+17
19556.0	4.8488514990025376e+17
19557.0	4.848103175050581e+17
19558.0	4.847278789492736e+17
19559.0	4.846448212443136e+17
19560.0	4.845144977178622e+17
19561.0	4.844745471819776e+17
19562.0	4.8434904395939834e+17
19563.0	4.843097789825023e+17
19564.0	4.842246260129791e+17
19565.0	4.841413227315198e+17
19566.0	4.840555694871893e+17
19567.0	4.8397372281760416e+17
19568.0	4.838879037227007e+17
19569.0	4.838045136890538e+17
19570.0	4.8372100202059085e+17
19571.0	4.8363744575269536e+17
19572.0	4.8355099122073594e+17
19573.0	4.8345472201741645e+17
19574.0	4.833717682612906e+17
19575.0	4.83302700028177e+17
19576.0	4.8321057276996256e+17
19577.0	4.83109993639663e+17
19578.0	4.8304870458217805e+17
19579.0	4.829639121130836e+17
19580.0	4.8288020876492794e+17
19581.0	4.827979588130132e+17
19582.0	4.827155335391914e+17
19583.0	4.8263174903125325e+17
19584.0	4.8254652923248634e+17
19585.0	4.8245125254130336e+17
19586.0	4.823641078366207e+17
19587.0	4.8228866216427514e+17
19588.0	4.8218562468249594e+17
19589.0	4.8211858803042976e+17
19590.0	4.820310399735124e+17
19591.0	4.8195846642073594e+17
19592.0	4.8187636019363834e+17
19593.0	4.8177952531851936e+17
19594.0	4.8167246913426765e+17
19595.0	4.816231877399892e+17
19596.0	4.8153723841194656e+17
19597.0	4.814538111188991e+17
19598.0	4.813276786109098e+17
19599.0	4.812848475668479e+17
19600.0	4.812042778531157e+17
19601.0	4.8111521767970106e+17
19602.0	4.810252009952596e+17
19603.0	4.809301066863957e+17
19604.0	4.8085910627723936e+17
19605.0	4.807621027910998e+17
19606.0	4.807012772741119e+17
19607.0	4.806203128064682e+17
19608.0	4.8053475480698874e+17
19609.0	4.804495057179989e+17
19610.0	4.80311730171631e+17
19611.0	4.801992071315456e+17
19612.0	4.802027394345642e+17
19613.0	4.801170731521366e+17
19614.0	4.800307999539198e+17
19615.0	4.7994864136792736e+17
19616.0	4.798020815508822e+17
19617.0	4.7968632281497606e+17
19618.0	4.796410736847529e+17
19619.0	4.795350223858345e+17
19620.0	4.794571776415059e+17
19621.0	4.793143838900221e+17
19622.0	4.7936217735495674e+17
19623.0	4.792733822615551e+17
19624.0	4.791765372502015e+17
19625.0	4.791110021589675e+17
19626.0	4.7902305361592314e+17
19627.0	4.7893344853251405e+17
19628.0	4.7883351203949216e+17
19629.0	4.7841973255536614e+17
19630.0	4.78529638769186e+17
19631.0	4.783513646312106e+17
19632.0	4.784433443897343e+17
19633.0	4.7840809580844365e+17
19634.0	4.7834934479421446e+17
19635.0	4.782578851992916e+17
19636.0	4.7805508906298e+17
19637.0	4.779464328915625e+17
19638.0	4.780214864663893e+17
19639.0	4.7794611531284474e+17
19640.0	4.7783238249567565e+17
19641.0	4.776812626313216e+17
19642.0	4.7768588524366496e+17
19643.0	4.776052020740096e+17
19644.0	4.7752487877563725e+17
19645.0	4.7743793770441376e+17
19646.0	4.7721960146206694e+17
19647.0	4.7728378997200205e+17
19648.0	4.7720415412005536e+17
19649.0	4.7712095324951885e+17
19650.0	4.770387228011177e+17
19651.0	4.7695537289297914e+17
19652.0	4.768724322790058e+17
19653.0	4.767894094566741e+17
19654.0	4.767066970128383e+17
19655.0	4.766231385778857e+17
