# Flux units: erg / (cm m2 s)
# Wavelength units: Angstrom
wave	flux
19000.0	4.4685102262080845e+17
19001.0	4.4675531866985805e+17
19002.0	4.466968836964351e+17
19003.0	4.466198618745514e+17
19004.0	4.4652405341552634e+17
19005.0	4.4644850875760634e+17
19006.0	4.463595771396096e+17
19007.0	4.463075962213717e+17
19008.0	4.46220430475264e+17
19009.0	4.461382563703466e+17
19010.0	4.4598629834424294e+17
19011.0	4.459855467249664e+17
19012.0	4.458413706706942e+17
19013.0	4.458449730884949e+17
19014.0	4.4574854596962976e+17
19015.0	4.4566616054169594e+17
19016.0	4.4559350065616205e+17
19017.0	4.455317723152383e+17
19018.0	4.45448507691281e+17
19019.0	4.453729543651327e+17
19020.0	4.452951333186218e+17
19021.0	4.452195813905749e+17
19022.0	4.4514552004826445e+17
19023.0	4.4504407787001165e+17
19024.0	4.449566796895572e+17
19025.0	4.449049453963946e+17
19026.0	4.4482398659106125e+17
19027.0	4.447210362109951e+17
19028.0	4.446697465140565e+17
19029.0	4.4458636403015674e+17
19030.0	4.44507926630673e+17
19031.0	4.444395026426538e+17
19032.0	4.443653920871764e+17
19033.0	4.4426241276641274e+17
19034.0	4.4419193790354765e+17
19035.0	4.4404261921314125e+17
19036.0	4.4229207925282086e+17
19037.0	4.4390549888696314e+17
19038.0	4.4388059276028576e+17
19039.0	4.438131366778196e+17
19040.0	4.437346978103296e+17
19041.0	4.4366114432832845e+17
19042.0	4.423590968208024e+17
19043.0	4.4351469111650976e+17
19044.0	4.4344210113604256e+17
19045.0	4.433554520582826e+17
19046.0	4.432725763861162e+17
19047.0	4.4320273968660474e+17
19048.0	4.4293728777884986e+17
19049.0	4.405018403449481e+17
19050.0	4.429633155323219e+17
19051.0	4.424950007988215e+17
19052.0	4.428015907198294e+17
19053.0	4.427450908584618e+17
19054.0	4.426611745095679e+17
19055.0	4.4217959291289606e+17
19056.0	4.4240104685131046e+17
19057.0	4.424391918791339e+17
19058.0	4.410611583330966e+17
19059.0	4.4175761545188646e+17
19060.0	4.4220389177425914e+17
19061.0	4.421240734001834e+17
19062.0	4.42041628692753e+17
19063.0	4.4197748436282016e+17
19064.0	4.4188253916146336e+17
19065.0	4.4180067697295354e+17
19066.0	4.412539265176923e+17
19067.0	4.416485585846272e+17
19068.0	4.41594283242291e+17
19069.0	4.4151655398113274e+17
19070.0	4.4142417038103885e+17
19071.0	4.4135348195819514e+17
19072.0	4.40779459439274e+17
19073.0	4.412117576144213e+17
19074.0	4.4112051528444576e+17
19075.0	4.4105596990914554e+17
19076.0	4.409544725757951e+17
19077.0	4.408975729273514e+17
19078.0	4.408129868879189e+17
19079.0	4.407417665574229e+17
19080.0	4.4066917091464525e+17
19081.0	4.40586755777058e+17
19082.0	4.4051522150290765e+17
19083.0	4.4042984113220256e+17
19084.0	4.403399432863743e+17
19085.0	4.4028322448233805e+17
19086.0	4.395287767766354e+17
19087.0	4.390217948943688e+17
19088.0	4.394230317318134e+17
19089.0	4.399307660722175e+17
19090.0	4.3990356810792954e+17
19091.0	4.397524009178459e+17
19092.0	4.387439809047239e+17
19093.0	4.396733668786175e+17
19094.0	4.3959978200924154e+17
19095.0	4.395164358759764e+17
19096.0	4.3944421576321696e+17
19097.0	4.393686629264042e+17
19098.0	4.387809693532155e+17
19099.0	4.3859031824356755e+17
19100.0	4.3913515483791354e+17
19101.0	4.39058719309824e+17
19102.0	4.3896455823359994e+17
19103.0	4.3890466525020154e+17
19104.0	4.3883945640591354e+17
19105.0	4.37628831373725e+17
19106.0	4.386653497982975e+17
19107.0	4.3833575971225536e+17
19108.0	4.381010951143426e+17
19109.0	4.383499890982909e+17
19110.0	4.3837490571072845e+17
19111.0	4.3797759851670125e+17
19112.0	4.378302459761999e+17
19113.0	4.381486143417002e+17
19114.0	4.3785607016611795e+17
19115.0	4.379410410329428e+17
19116.0	4.3790485474508794e+17
19117.0	4.378335300463275e+17
19118.0	4.3770029763024205e+17
19119.0	4.354694551961569e+17
19120.0	4.3756801277733536e+17
19121.0	4.3751644842338976e+17
19122.0	4.374667980701695e+17
19123.0	4.373947803325781e+17
19124.0	4.373067876095317e+17
19125.0	4.3723939828640416e+17
19126.0	4.371627043192832e+17
19127.0	4.367983628866896e+17
19128.0	4.370049566157482e+17
19129.0	4.369272562253823e+17
19130.0	4.3686216314388474e+17
19131.0	4.3678488721708365e+17
19132.0	4.367032345340586e+17
19133.0	4.3662774880610976e+17
19134.0	4.3655579041791994e+17
19135.0	4.3648261211641165e+17
19136.0	4.36403117822225e+17
19137.0	4.3629549771380045e+17
19138.0	4.362529503444991e+17
19139.0	4.3618244863808845e+17
19140.0	4.361076358862164e+17
19141.0	4.360292378432853e+17
19142.0	4.3594702941498016e+17
19143.0	4.358640037265408e+17
19144.0	4.357913992058196e+17
19145.0	4.3572234467409914e+17
19146.0	4.355648050779477e+17
19147.0	4.3554534427634323e+17
19148.0	4.350760980578311e+17
19149.0	4.349154360819712e+17
19150.0	4.3534881149419514e+17
19151.0	4.3526953509410125e+17
19152.0	4.3519748443122336e+17
19153.0	4.3421738331012966e+17
19154.0	4.3495822867824646e+17
19155.0	4.3497286155632634e+17
19156.0	4.348944626745343e+17
19157.0	4.345379541046622e+17
19158.0	4.340406928015369e+17
19159.0	4.3464974062496416e+17
19160.0	4.345860408213502e+17
19161.0	4.3451615295133005e+17
19162.0	4.342855368354475e+17
19163.0	4.3436619609757005e+17
19164.0	4.3428793171312634e+17
19165.0	4.332377959213723e+17
19166.0	4.341046858569044e+17
19167.0	4.34045837255202e+17
19168.0	4.3398783003088205e+17
19169.0	4.339080185075028e+17
19170.0	4.3384017955498656e+17
19171.0	4.3374521918423034e+17
19172.0	4.336862831312895e+17
19173.0	4.3361616953780896e+17
19174.0	4.335289756898645e+17
19175.0	4.3346035652689914e+17
19176.0	4.3338982154567674e+17
19177.0	4.332913279631359e+17
19178.0	4.332231899567445e+17
19179.0	4.3312743840044384e+17
19180.0	4.3308773448963405e+17
19181.0	4.3298356636330656e+17
19182.0	4.3292322011545594e+17
19183.0	4.328604390741333e+17
19184.0	4.327859170574336e+17
19185.0	4.3270686694004045e+17
19186.0	4.3263691888175776e+17
19187.0	4.32556210196753e+17
19188.0	4.3248808519270394e+17
19189.0	4.3241472066409805e+17
19190.0	4.323397930582015e+17
19191.0	4.3225671032722765e+17
19192.0	4.321895313484459e+17
19193.0	4.3200581265435315e+17
19194.0	4.318663663069868e+17
19195.0	4.3196559682874016e+17
19196.0	4.3188719382254925e+17
19197.0	4.3180887707921056e+17
19198.0	4.3173264511467514e+17
19199.0	4.303605825099089e+17
19200.0	4.307811933268657e+17
19201.0	4.315089521868799e+17
19202.0	4.3144446007924045e+17
19203.0	4.313626292082006e+17
19204.0	4.3129366079952205e+17
19205.0	4.312191270387712e+17
19206.0	4.3114346445100365e+17
19207.0	4.310443613661866e+17
19208.0	4.309479088717822e+17
19209.0	4.309184536029866e+17
19210.0	4.308356767765845e+17
19211.0	4.3077000606952096e+17
19212.0	4.3069542421408416e+17
19213.0	4.3059963931306656e+17
19214.0	4.305175068715691e+17
19215.0	4.3046853921122976e+17
19216.0	4.3039917569911456e+17
19217.0	4.303279721458347e+17
19218.0	4.3012411198450323e+17
19219.0	4.3015323429546656e+17
19220.0	4.3009846255725216e+17
19221.0	4.2997704353819296e+17
19222.0	4.2994386449640096e+17
19223.0	4.298729935514282e+17
19224.0	4.297932475990015e+17
19225.0	4.297068855514452e+17
19226.0	4.296554991058944e+17
19227.0	4.295791506795178e+17
19228.0	4.2950783646651725e+17
19229.0	4.2941700734539085e+17
19230.0	4.2935469837298336e+17
19231.0	4.292880222912512e+17
19232.0	4.292134786039808e+17
19233.0	4.291265438941183e+17
19234.0	4.290543481782272e+17
19235.0	4.2898295420354554e+17
19236.0	4.2891417894256634e+17
19237.0	4.2882933215723514e+17
19238.0	4.2874651108092576e+17
19239.0	4.2869111900514976e+17
19240.0	4.2861187140594336e+17
19241.0	4.285422730827093e+17
19242.0	4.2845541366060365e+17
19243.0	4.2837659304154445e+17
19244.0	4.28317419171567e+17
19245.0	4.2824533376587085e+17
19246.0	4.2817240362734925e+17
19247.0	4.281012409685333e+17
19248.0	4.28024613900561e+17
19249.0	4.279252952285182e+17
19250.0	4.27700330238225e+17
19251.0	4.276225760209575e+17
19252.0	4.276945192397482e+17
19253.0	4.2764929828126714e+17
19254.0	4.275818273090219e+17
19255.0	4.274802199450963e+17
19256.0	4.2742246409939616e+17
19257.0	4.273575872342698e+17
19258.0	4.2728161203104416e+17
19259.0	4.2720615790018554e+17
19260.0	4.2705584844526925e+17
19261.0	4.2706413548120736e+17
19262.0	4.269743745094997e+17
19263.0	4.268955886332587e+17
19264.0	4.267520471072767e+17
19265.0	4.267284381390164e+17
19266.0	4.266239346081793e+17
19267.0	4.2662255747836576e+17
19268.0	4.2654057610171725e+17
19269.0	4.264716817225044e+17
19270.0	4.263995732481364e+17
19271.0	4.262637891573079e+17
19272.0	4.2624824702402554e+17
19273.0	4.261545033509547e+17
19274.0	4.260543415539028e+17
19275.0	4.260347231163733e+17
19276.0	4.259588473181523e+17
19277.0	4.258876028005034e+17
19278.0	4.257970356835668e+17
19279.0	4.2573609272606714e+17
19280.0	4.256548396903081e+17
19281.0	4.2559018470386336e+17
19282.0	4.2552006160329376e+17
19283.0	4.254293687271423e+17
19284.0	4.253659767854421e+17
19285.0	4.252684123810473e+17
19286.0	4.2520863753721165e+17
19287.0	4.2512006453220685e+17
19288.0	4.244742713202001e+17
19289.0	4.238409434398705e+17
19290.0	4.2490251821711354e+17
19291.0	4.248144590143488e+17
19292.0	4.247806216765438e+17
19293.0	4.24705703018496e+17
19294.0	4.24633087033344e+17
19295.0	4.245605306772138e+17
19296.0	4.239448650110309e+17
19297.0	4.2433164303401e+17
19298.0	4.2433724795234976e+17
19299.0	4.236640656556038e+17
19300.0	4.241929333462358e+17
19301.0	4.2412334669714765e+17
19302.0	4.2405220438070605e+17
19303.0	4.2396125299561805e+17
19304.0	4.238982142143146e+17
19305.0	4.238252106055679e+17
19306.0	4.2375652041905485e+17
19307.0	4.2366981031417165e+17
19308.0	4.236052464839337e+17
19309.0	4.234843122565119e+17
19310.0	4.234054955521364e+17
19311.0	4.2336931499649696e+17
19312.0	4.2328679891599354e+17
19313.0	4.2316103928162976e+17
19314.0	4.1509815240184576e+17
19315.0	4.154293892415604e+17
19316.0	4.2225135325457197e+17
19317.0	4.2292799892794016e+17
19318.0	4.2286877808175776e+17
19319.0	4.2279494337167354e+17
19320.0	4.225284815454202e+17
19321.0	4.221773153304576e+17
19322.0	4.225812913280341e+17
19323.0	4.225055209466539e+17
19324.0	4.2244534498754554e+17
19325.0	4.223270953243989e+17
19326.0	4.223002091367081e+17
19327.0	4.222273856733183e+17
19328.0	4.2112961824686195e+17
19329.0	4.220862156068181e+17
19330.0	4.220091716250281e+17
19331.0	4.219369992574293e+17
19332.0	4.2186749572546554e+17
19333.0	4.217973164911274e+17
19334.0	4.216939552090797e+17
19335.0	4.195575436847813e+17
19336.0	4.2156210852113075e+17
19337.0	4.215044372605611e+17
19338.0	4.214020431850153e+17
19339.0	4.2135242163268256e+17
19340.0	4.212152974617257e+17
19341.0	4.20454020170822e+17
19342.0	4.208791074286257e+17
19343.0	4.2107036636282874e+17
19344.0	4.2023222076156704e+17
19345.0	4.202142241215828e+17
19346.0	4.207528669872131e+17
19347.0	4.1982645806039034e+17
19348.0	4.2070953038970874e+17
19349.0	4.206309831693653e+17
19350.0	4.202121580773376e+17
19351.0	4.204773941881514e+17
19352.0	4.1939139003678554e+17
19353.0	4.203435626157396e+17
19354.0	4.202756890602154e+17
19355.0	4.20190346997487e+17
19356.0	4.201272503347881e+17
19357.0	4.200582489309183e+17
19358.0	4.199845970225834e+17
19359.0	4.196959600508919e+17
19360.0	4.1903146583545146e+17
19361.0	4.1976079727984634e+17
19362.0	4.1969554271764474e+17
19363.0	4.1962334553374714e+17
19364.0	4.195536575922176e+17
19365.0	4.194775060884138e+17
19366.0	4.1939512960832845e+17
19367.0	4.1933162022611616e+17
19368.0	4.1926357575270394e+17
19369.0	4.191864023766355e+17
19370.0	4.191203169927168e+17
19371.0	4.1903649802158074e+17
19372.0	4.1897306903019514e+17
19373.0	4.1889362262097914e+17
19374.0	4.1882364820848634e+17
19375.0	4.1875818414079994e+17
19376.0	4.1868848676208634e+17
19377.0	4.1861613690552314e+17
19378.0	4.185458399510527e+17
19379.0	4.1847311924811085e+17
19380.0	4.1838585046193485e+17
19381.0	4.183170064143701e+17
19382.0	4.1824395645856416e+17
19383.0	4.181645893216938e+17
19384.0	4.1809234453244576e+17
19385.0	4.180380014521002e+17
19386.0	4.179643863837354e+17
19387.0	4.178892164868778e+17
19388.0	4.1780865928615245e+17
19389.0	4.177213001127253e+17
19390.0	4.1761425518318925e+17
19391.0	4.159960915116014e+17
19392.0	4.1734015476039654e+17
19393.0	4.174212157669374e+17
19394.0	4.173621838741504e+17
19395.0	4.169842769439411e+17
19396.0	4.171536050509144e+17
19397.0	4.171482369709397e+17
19398.0	4.168268035478871e+17
19399.0	4.165136014464337e+17
19400.0	4.167170370742956e+17
19401.0	4.1685903831203834e+17
19402.0	4.167920493352275e+17
19403.0	4.1671708803508896e+17
19404.0	4.166384189003093e+17
19405.0	4.165617324130304e+17
19406.0	4.164974519779327e+17
19407.0	4.1605471117421165e+17
19408.0	4.1621762660980096e+17
19409.0	4.162749626755755e+17
19410.0	4.1620564446194336e+17
19411.0	4.1613066939050656e+17
19412.0	4.1605354396931405e+17
19413.0	4.156002166024875e+17
19414.0	4.1590653263544314e+17
19415.0	4.158331597881344e+17
19416.0	4.1572698517667834e+17
19417.0	4.1566031461744634e+17
19418.0	4.156118271350101e+17
19419.0	4.155348641731925e+17
19420.0	4.1545954412025165e+17
19421.0	4.153832117720406e+17
19422.0	4.1529639030838605e+17
19423.0	4.152301320492372e+17
19424.0	4.151529586731691e+17
19425.0	4.15067417940241e+17
19426.0	4.149944083196586e+17
19427.0	4.149140876776789e+17
19428.0	4.148237144773972e+17
19429.0	4.147504391476565e+17
19430.0	4.146466131367254e+17
19431.0	4.1411066643961286e+17
19432.0	4.144799201711444e+17
19433.0	4.1438190529850016e+17
19434.0	4.1428741692675405e+17
19435.0	4.1414047060459514e+17
19436.0	4.138081053573115e+17
19437.0	4.1387441010333e+17
19438.0	4.10243578060255e+17
19439.0	4.132365692917076e+17
19440.0	4.134851680665599e+17
19441.0	4.1333473250290336e+17
19442.0	4.131196690759679e+17
19443.0	4.128313521296725e+17
19444.0	4.1244768523168416e+17
19445.0	4.1191330783341235e+17
19446.0	4.1109531152875514e+17
19447.0	4.0974360786589e+17
19448.0	4.07238649629901e+17
19449.0	4.019829242243755e+17
19450.0	3.916920293512529e+17
19451.0	3.854368567372459e+17
19452.0	3.945660943084202e+17
19453.0	4.034616525236908e+17
19454.0	4.0761130081757843e+17
19455.0	4.09563783443251e+17
19456.0	4.105511554602325e+17
19457.0	4.1094624952975354e+17
19458.0	3.861035218545727e+17
19459.0	4.099308715857287e+17
19460.0	4.1175308381279565e+17
19461.0	4.1192224736324256e+17
19462.0	4.1198263268802554e+17
19463.0	4.120083520203434e+17
19464.0	4.120026188262057e+17
19465.0	4.1198947471633056e+17
19466.0	4.119625814682283e+17
19467.0	4.1193226252233376e+17
19468.0	4.1189461570792083e+17
19469.0	4.1106876445054163e+17
19470.0	4.117994881242453e+17
19471.0	4.117470106703188e+17
19472.0	4.116861466356395e+17
19473.0	4.116254904287231e+17
19474.0	4.108090900567369e+17
19475.0	4.1134645792385683e+17
19476.0	4.114469016480425e+17
19477.0	4.1138385161202336e+17
19478.0	4.113301176145236e+17
19479.0	4.105358430349983e+17
19480.0	4.111981478936575e+17
19481.0	4.111123421506218e+17
19482.0	4.110580340927146e+17
19483.0	4.1100328479402656e+17
19484.0	4.1092882925704525e+17
19485.0	4.108607370384725e+17
19486.0	4.100229545940333e+17
19487.0	4.10728429396514e+17
19488.0	4.1066838101415245e+17
19489.0	4.1059977709049165e+17
19490.0	4.1025841100663424e+17
19491.0	4.1045382383970976e+17
19492.0	4.103927325436585e+17
19493.0	4.103193513077418e+17
19494.0	4.1024874047952205e+17
19495.0	4.101809754865663e+17
19496.0	4.1001549027082214e+17
19497.0	4.10013282668817e+17
19498.0	4.095250265363795e+17
19499.0	4.07384542272989e+17
19500.0	4.097758773029546e+17
19501.0	4.0977611721714336e+17
19502.0	4.097199118658219e+17
19503.0	4.0965550147720525e+17
19504.0	4.095842078162942e+17
19505.0	4.0949899948195834e+17
19506.0	4.094459398586367e+17
19507.0	4.0936910985625594e+17
19508.0	4.0929312982958074e+17
19509.0	4.09202391585041e+17
19510.0	4.088883618075988e+17
19511.0	3.96696249469053e+17
19512.0	4.082983952711674e+17
19513.0	4.0806501189331514e+17
19514.0	4.0821409975719194e+17
19515.0	4.0869775837320576e+17
19516.0	4.0864547637384506e+17
19517.0	4.086487406608383e+17
19518.0	4.084004664552103e+17
19519.0	4.083250158196049e+17
19520.0	4.0776692564404806e+17
19521.0	4.0840590716654925e+17
19522.0	4.082314256580606e+17
19523.0	4.08104045414537e+17
19524.0	4.0765090783996736e+17
19525.0	4.0811441694965766e+17
19526.0	4.0805158914184525e+17
19527.0	4.0798456668050765e+17
19528.0	4.078637166187859e+17
19529.0	4.077689152820566e+17
19530.0	4.077770760694442e+17
19531.0	4.077059712221183e+17
19532.0	4.076352143622144e+17
19533.0	4.0755935743836154e+17
19534.0	4.0749968025190394e+17
19535.0	4.0742957364893e+17
19536.0	4.073531154016938e+17
19537.0	4.0728553670574074e+17
19538.0	4.0655456228256525e+17
19539.0	4.070493644652549e+17
19540.0	4.070801730262357e+17
19541.0	4.0686951627489274e+17
19542.0	4.0688204095597216e+17
19543.0	4.061684005426521e+17
19544.0	4.067618575788714e+17
19545.0	4.066735303600806e+17
19546.0	4.064926537263787e+17
19547.0	4.0659980910591994e+17
19548.0	4.065286816792576e+17
19549.0	4.0644239436021754e+17
19550.0	4.063777657978879e+17
19551.0	4.0632088698115405e+17
19552.0	4.062437165410986e+17
19553.0	4.061779393686187e+17
19554.0	4.0609531626345805e+17
19555.0	4.059591329447937e+17
19556.0	4.0591174402047974e+17
19557.0	4.0589419826817696e+17
19558.0	4.0583047616484685e+17
19559.0	4.057620568604672e+17
19560.0	4.0544430946167424e+17
19561.0	4.056201322386774e+17
19562.0	4.053150958878716e+17
19563.0	4.054877628006399e+17
19564.0	4.0540203458232314e+17
19565.0	4.0534278584401914e+17
19566.0	4.052639040580266e+17
19567.0	4.052105962018132e+17
19568.0	4.051386104108372e+17
19569.0	4.050694399066111e+17
19570.0	4.0499867955145376e+17
19571.0	4.049283259039744e+17
19572.0	4.048594282392234e+17
19573.0	4.047159004845395e+17
19574.0	4.04685955670562e+17
19575.0	4.046583108031829e+17
19576.0	4.0455208711837e+17
19577.0	4.04411363954961e+17
19578.0	4.0444343164600314e+17
19579.0	4.0437974840989e+17
19580.0	4.0430599157405e+17
19581.0	4.0422987865784314e+17
19582.0	4.041745143343786e+17
19583.0	4.0410925306129056e+17
19584.0	4.0403238635874976e+17
19585.0	4.0395457950296736e+17
19586.0	4.038835160394411e+17
19587.0	4.0382456565596154e+17
19588.0	4.036836099183958e+17
19589.0	4.0369332560418144e+17
19590.0	4.035990236692479e+17
19591.0	4.035538491976362e+17
19592.0	4.0348365703086074e+17
19593.0	4.033564386874708e+17
19594.0	4.032591917918889e+17
19595.0	4.032776611998378e+17
19596.0	4.0319975871392416e+17
19597.0	4.031415772162729e+17
19598.0	4.0294726664628883e+17
19599.0	4.030030773835093e+17
19600.0	4.029305602441215e+17
19601.0	4.028562206097408e+17
19602.0	4.0279128236796576e+17
19603.0	4.026432425907539e+17
19604.0	4.0265785918095354e+17
19605.0	4.025454751820459e+17
19606.0	4.025170749904213e+17
19607.0	4.02455673176064e+17
19608.0	4.023716732906153e+17
19609.0	4.023086677841236e+17
19610.0	4.0191210696649446e+17
19611.0	4.016691577094147e+17
19612.0	4.021136148223316e+17
19613.0	4.020328980982442e+17
19614.0	4.0196889287939405e+17
19615.0	4.019085130072063e+17
19616.0	4.014923613645489e+17
19617.0	4.01259624119228e+17
19618.0	4.015857709613055e+17
19619.0	4.0142951754847546e+17
19620.0	4.0127669975995635e+17
19621.0	4.007518778250577e+17
19622.0	4.014277077062996e+17
19623.0	4.013305494503423e+17
19624.0	4.0120351369898656e+17
19625.0	4.0122351955039565e+17
19626.0	4.011483767067988e+17
19627.0	4.010871457404244e+17
19628.0	4.009900051005441e+17
19629.0	3.991953774127776e+17
19630.0	4.00876972732143e+17
19631.0	3.997430175498231e+17
19632.0	4.0074429368456525e+17
19633.0	4.006655296187049e+17
19634.0	4.006073437869397e+17
19635.0	4.004632228877648e+17
19636.0	3.9962817072551155e+17
19637.0	3.9955403961794477e+17
19638.0	4.0027912705583744e+17
19639.0	4.002607598490965e+17
19640.0	4.0018944479723526e+17
19641.0	3.9981758605339437e+17
19642.0	4.0001479810307405e+17
19643.0	3.9994588526892365e+17
19644.0	3.9991835700319565e+17
19645.0	3.998154591917396e+17
19646.0	3.989028833591281e+17
19647.0	3.9970005019088186e+17
19648.0	3.996563081439914e+17
19649.0	3.995828419734187e+17
19650.0	3.995173848962389e+17
19651.0	3.9945001353871354e+17
19652.0	3.993841721933823e+17
19653.0	3.9931044303994874e+17
19654.0	3.992493955743743e+17
19655.0	3.9917305672499194e+17
