# Flux units: erg / (cm m2 s)
# Wavelength units: Angstrom
wave	flux
19000.0	5.368540791395668e+17
19001.0	5.367480850229931e+17
19002.0	5.366542912279892e+17
19003.0	5.365540948279294e+17
19004.0	5.364540078992042e+17
19005.0	5.363540405780479e+17
19006.0	5.362544111080788e+17
19007.0	5.3615023934668794e+17
19008.0	5.3605075248305485e+17
19009.0	5.359522598791849e+17
19010.0	5.358224261775359e+17
19011.0	5.357533632572073e+17
19012.0	5.3563808560797e+17
19013.0	5.355551912012458e+17
19014.0	5.354521695879166e+17
19015.0	5.3535341106517325e+17
19016.0	5.3525268142926496e+17
19017.0	5.3515568052961274e+17
19018.0	5.3505539548992845e+17
19019.0	5.349564015968256e+17
19020.0	5.3485543603131725e+17
19021.0	5.347570312981162e+17
19022.0	5.3465767382876154e+17
19023.0	5.3455595384777376e+17
19024.0	5.344572711720276e+17
19025.0	5.3435817605638816e+17
19026.0	5.342567278662996e+17
19027.0	5.3414875312947194e+17
19028.0	5.340603358030505e+17
19029.0	5.33959510397201e+17
19030.0	5.3386170719709856e+17
19031.0	5.337625192475305e+17
19032.0	5.336627501072383e+17
19033.0	5.3355800820012365e+17
19034.0	5.3346300448822605e+17
19035.0	5.333624376612181e+17
19036.0	5.3240734158247194e+17
19037.0	5.3316511572077235e+17
19038.0	5.3306498006821536e+17
19039.0	5.32966804623633e+17
19040.0	5.3286775047236256e+17
19041.0	5.327679121959593e+17
19042.0	5.326629461732011e+17
19043.0	5.325698435295913e+17
19044.0	5.324697857512788e+17
19045.0	5.3237079898849274e+17
19046.0	5.3226808425840634e+17
19047.0	5.3217241959410336e+17
19048.0	5.3205922609452365e+17
19049.0	5.3196934565505696e+17
19050.0	5.318721379762174e+17
19051.0	5.3164452162655546e+17
19052.0	5.316661945739947e+17
19053.0	5.315766366765055e+17
19054.0	5.3147868975158605e+17
19055.0	5.31363830763793e+17
19056.0	5.312786093572096e+17
19057.0	5.311808987813204e+17
19058.0	5.310801306277204e+17
19059.0	5.309829451087871e+17
19060.0	5.308828296587947e+17
19061.0	5.307854581224789e+17
19062.0	5.306861799953749e+17
19063.0	5.305874066527572e+17
19064.0	5.3048050915300685e+17
19065.0	5.303790629901653e+17
19066.0	5.302870101808468e+17
19067.0	5.301910991011839e+17
19068.0	5.3009300929030816e+17
19069.0	5.2999427376633165e+17
19070.0	5.298935506315945e+17
19071.0	5.297958834667519e+17
19072.0	5.2969761043469645e+17
19073.0	5.2959879382084256e+17
19074.0	5.2950039398099616e+17
19075.0	5.294016730671785e+17
19076.0	5.293015602036736e+17
19077.0	5.2920353519479456e+17
19078.0	5.291027977295188e+17
19079.0	5.290068010860543e+17
19080.0	5.289074877267966e+17
19081.0	5.28806956970803e+17
19082.0	5.2870806751586976e+17
19083.0	5.286066454003711e+17
19084.0	5.2850040151299405e+17
19085.0	5.284145877308757e+17
19086.0	5.282939015266304e+17
19087.0	5.281948736596651e+17
19088.0	5.281153582541481e+17
19089.0	5.2799862413284685e+17
19090.0	5.2792127788154874e+17
19091.0	5.278232193881428e+17
19092.0	5.277175801795925e+17
19093.0	5.2762787366393165e+17
19094.0	5.2752936707904845e+17
19095.0	5.2743098177945594e+17
19096.0	5.2733148666702483e+17
19097.0	5.2723444410395296e+17
19098.0	5.2713602140514976e+17
19099.0	5.270373701167786e+17
19100.0	5.269379653915988e+17
19101.0	5.2684103593492474e+17
19102.0	5.2673622265473696e+17
19103.0	5.266448831567189e+17
19104.0	5.265469340647423e+17
19105.0	5.264480953608873e+17
19106.0	5.263464666759168e+17
19107.0	5.262511857205247e+17
19108.0	5.261542098468862e+17
19109.0	5.258852349334866e+17
19110.0	5.257714622005246e+17
19111.0	5.2567341873670816e+17
19112.0	5.255757009605972e+17
19113.0	5.254777631932414e+17
19114.0	5.253799600630442e+17
19115.0	5.2527769118747296e+17
19116.0	5.251829183720106e+17
19117.0	5.250851462097578e+17
19118.0	5.249801848706388e+17
19119.0	5.245758649401339e+17
19120.0	5.2478524886002336e+17
19121.0	5.2469051889636685e+17
19122.0	5.245973427126272e+17
19123.0	5.2449951965948576e+17
19124.0	5.243978529461588e+17
19125.0	5.2430384985538534e+17
19126.0	5.2420581331217056e+17
19127.0	5.239986599231486e+17
19128.0	5.239817443650217e+17
19129.0	5.239083080439124e+17
19130.0	5.2381494108924576e+17
19131.0	5.2371717416987296e+17
19132.0	5.2362039668681363e+17
19133.0	5.23508521107456e+17
19134.0	5.2341124233516365e+17
19135.0	5.233274734160553e+17
19136.0	5.2323054899254605e+17
19137.0	5.2312278131452576e+17
19138.0	5.230334455054336e+17
19139.0	5.2293809464497485e+17
19140.0	5.2284071499967136e+17
19141.0	5.227432992833535e+17
19142.0	5.226443553723733e+17
19143.0	5.2254466312765434e+17
19144.0	5.224490615876266e+17
19145.0	5.223536916430847e+17
19146.0	5.222189256496468e+17
19147.0	5.2215321929099936e+17
19148.0	5.2206132810219514e+17
19149.0	5.219637673328639e+17
19150.0	5.218667979603968e+17
19151.0	5.2176981712349856e+17
19152.0	5.216718455919956e+17
19153.0	5.215740617555966e+17
19154.0	5.214706249760766e+17
19155.0	5.2138118584729594e+17
19156.0	5.212841095200768e+17
19157.0	5.2118645626634234e+17
19158.0	5.210456919987539e+17
19159.0	5.209916065884841e+17
19160.0	5.208942553246377e+17
19161.0	5.2079625576120314e+17
19162.0	5.206002988569941e+17
19163.0	5.2060426548019194e+17
19164.0	5.2050779005692576e+17
19165.0	5.204078742558036e+17
19166.0	5.2030393898325325e+17
19167.0	5.202073251479551e+17
19168.0	5.201175117474474e+17
19169.0	5.2001974342997325e+17
19170.0	5.199260855304191e+17
19171.0	5.198228463725226e+17
19172.0	5.1973197370053965e+17
19173.0	5.1963526703131296e+17
19174.0	5.1953493879029766e+17
19175.0	5.194418466324479e+17
19176.0	5.193448783085567e+17
19177.0	5.192391812186111e+17
19178.0	5.1915030174979405e+17
19179.0	5.190452737911466e+17
19180.0	5.189550720679934e+17
19181.0	5.188532305220947e+17
19182.0	5.18763308978449e+17
19183.0	5.186678016704511e+17
19184.0	5.1856884077253965e+17
19185.0	5.1847399637428896e+17
19186.0	5.183780463575039e+17
19187.0	5.1827721969336314e+17
19188.0	5.181844104413183e+17
19189.0	5.1808721541529594e+17
19190.0	5.179902832323241e+17
19191.0	5.178923107221503e+17
19192.0	5.177987315357013e+17
19193.0	5.1770100194563405e+17
19194.0	5.1760445591825056e+17
19195.0	5.175090031362047e+17
19196.0	5.1741162796482554e+17
19197.0	5.1731564698009594e+17
19198.0	5.1721936211804154e+17
19199.0	5.1652707630448614e+17
19200.0	5.1665122700383584e+17
19201.0	5.169302584601258e+17
19202.0	5.168342792929278e+17
19203.0	5.1673645218529274e+17
19204.0	5.1663970028748794e+17
19205.0	5.1654468671897594e+17
19206.0	5.164480578540883e+17
19207.0	5.1634694653651616e+17
19208.0	5.162415616425982e+17
19209.0	5.161594496133802e+17
19210.0	5.160630872266068e+17
19211.0	5.1596767694684154e+17
19212.0	5.158712681431039e+17
19213.0	5.157653957312511e+17
19214.0	5.1566612326645754e+17
19215.0	5.15580765405184e+17
19216.0	5.154863459598335e+17
19217.0	5.153901271580671e+17
19218.0	5.152433184090793e+17
19219.0	5.151892058756436e+17
19220.0	5.1510022301723296e+17
19221.0	5.149850011522388e+17
19222.0	5.1490981328977914e+17
19223.0	5.148123741552639e+17
19224.0	5.147145506127871e+17
19225.0	5.146121525526527e+17
19226.0	5.145241007598249e+17
19227.0	5.144279551486634e+17
19228.0	5.1433352815356576e+17
19229.0	5.1423745195813536e+17
19230.0	5.141398708464297e+17
19231.0	5.1404383407745696e+17
19232.0	5.1394854200715936e+17
19233.0	5.13848984609314e+17
19234.0	5.137557912289279e+17
19235.0	5.1365973719340365e+17
19236.0	5.13566253916706e+17
19237.0	5.134693074031957e+17
19238.0	5.133679156264959e+17
19239.0	5.132785243127807e+17
19240.0	5.1317778509987834e+17
19241.0	5.130840612798464e+17
19242.0	5.1298968489601696e+17
19243.0	5.1288458703230285e+17
19244.0	5.127988149136041e+17
19245.0	5.127026169435477e+17
19246.0	5.126059555028991e+17
19247.0	5.1251065133902496e+17
19248.0	5.1241531949274445e+17
19249.0	5.123189843689471e+17
19250.0	5.1222217878405114e+17
19251.0	5.121214573969406e+17
19252.0	5.1201368517509114e+17
19253.0	5.119343385903103e+17
19254.0	5.118393359968938e+17
19255.0	5.11732310221346e+17
19256.0	5.1164624352269645e+17
19257.0	5.11552430154274e+17
19258.0	5.114565552854356e+17
19259.0	5.113562074710015e+17
19260.0	5.112486445449215e+17
19261.0	5.11168173257523e+17
19262.0	5.110695657297237e+17
19263.0	5.1097389805950285e+17
19264.0	5.1084745908770125e+17
19265.0	5.1077285821808634e+17
19266.0	5.1067518063738874e+17
19267.0	5.105938155438079e+17
19268.0	5.1049748601241594e+17
19269.0	5.104018151964671e+17
19270.0	5.1030609908203514e+17
19271.0	5.101887669927936e+17
19272.0	5.101121613856766e+17
19273.0	5.0987574084239334e+17
19274.0	5.098416170336253e+17
19275.0	5.098265647251456e+17
19276.0	5.0972939067064314e+17
19277.0	5.0963374313308154e+17
19278.0	5.0953800821418656e+17
19279.0	5.0943997607499085e+17
19280.0	5.0934067355101856e+17
19281.0	5.0924966526320634e+17
19282.0	5.0915470279529805e+17
19283.0	5.090494312174932e+17
19284.0	5.089523446841343e+17
19285.0	5.0885461893884576e+17
19286.0	5.087683158911658e+17
19287.0	5.086743084662783e+17
19288.0	5.083771713181012e+17
19289.0	5.0788712533633574e+17
19290.0	5.083858855439017e+17
19291.0	5.082742151359146e+17
19292.0	5.081934946369534e+17
19293.0	5.0809673483987616e+17
19294.0	5.0800027933955405e+17
19295.0	5.079046388624042e+17
19296.0	5.0780766976955725e+17
19297.0	5.077103535980543e+17
19298.0	5.0761352892907514e+17
19299.0	5.075187872912724e+17
19300.0	5.0742225531480723e+17
19301.0	5.073255153707689e+17
19302.0	5.072287587893247e+17
19303.0	5.071274377565525e+17
19304.0	5.070334594121727e+17
19305.0	5.069381191772841e+17
19306.0	5.068416494163285e+17
19307.0	5.0674183211144525e+17
19308.0	5.066466843951103e+17
19309.0	5.0652999158770336e+17
19310.0	5.0642456286330874e+17
19311.0	5.063541634979156e+17
19312.0	5.0625985932602016e+17
19313.0	5.0616270910914554e+17
19314.0	5.051442584180043e+17
19315.0	5.051339967736507e+17
19316.0	5.058699537503573e+17
19317.0	5.057735726989311e+17
19318.0	5.056758339513002e+17
19319.0	5.055794048750934e+17
19320.0	5.054813507158015e+17
19321.0	5.053837061302953e+17
19322.0	5.052800868985514e+17
19323.0	5.050159709465258e+17
19324.0	5.048830102514346e+17
19325.0	5.0476521895581005e+17
19326.0	5.046870376185855e+17
19327.0	5.045875949349545e+17
19328.0	5.044896367553194e+17
19329.0	5.0439133023873696e+17
19330.0	5.0428985010203296e+17
19331.0	5.041906871784788e+17
19332.0	5.0409420371613e+17
19333.0	5.039938071778645e+17
19334.0	5.0389518154465274e+17
19335.0	5.0379507462307834e+17
19336.0	5.036955773435903e+17
19337.0	5.035956934191787e+17
19338.0	5.0348298855601485e+17
19339.0	5.0339510180904954e+17
19340.0	5.032870210262355e+17
19341.0	5.0319258228708685e+17
19342.0	5.030680139748692e+17
19343.0	5.0299178795226445e+17
19344.0	5.028896401522687e+17
19345.0	5.0265236760603264e+17
19346.0	5.0264513173258234e+17
19347.0	5.0258014700393805e+17
19348.0	5.0248221916310176e+17
19349.0	5.0237720756223994e+17
19350.0	5.0227458189120845e+17
19351.0	5.0217068052261536e+17
19352.0	5.0206453184593914e+17
19353.0	5.0196552383201274e+17
19354.0	5.018611617890303e+17
19355.0	5.017504472629248e+17
19356.0	5.016510503671124e+17
19357.0	5.015455339817641e+17
19358.0	5.0138890168347296e+17
19359.0	5.010837037820585e+17
19360.0	5.009816561560234e+17
19361.0	5.0087398019345056e+17
19362.0	5.007683913864532e+17
19363.0	5.00659386528563e+17
19364.0	5.0054961837725e+17
19365.0	5.0043986539533645e+17
19366.0	5.003291368183124e+17
19367.0	5.002178134190762e+17
19368.0	5.0010582200702285e+17
19369.0	4.999884176359423e+17
19370.0	4.9986316865809056e+17
19371.0	4.997617504572756e+17
19372.0	4.996498496421888e+17
19373.0	4.9950007475131725e+17
19374.0	4.991357810638847e+17
19375.0	4.99017088831761e+17
19376.0	4.9889733159594656e+17
19377.0	4.9877555487266125e+17
19378.0	4.9865354117119994e+17
19379.0	4.9853016005672954e+17
19380.0	4.984054145351678e+17
19381.0	4.982788514119679e+17
19382.0	4.9805175648419834e+17
19383.0	4.9769262975986336e+17
19384.0	4.975668082595155e+17
19385.0	4.974325703289514e+17
19386.0	4.9729671018141005e+17
19387.0	4.971585689616383e+17
19388.0	4.968993226664616e+17
19389.0	4.965081170662741e+17
19390.0	4.963606395355135e+17
19391.0	4.9543919023335974e+17
19392.0	4.9605578864285005e+17
19393.0	4.957070595981311e+17
19394.0	4.9553445497077754e+17
19395.0	4.9536920820121594e+17
19396.0	4.952020733657087e+17
19397.0	4.950323615498238e+17
19398.0	4.948549406031871e+17
19399.0	4.946297775718398e+17
19400.0	4.944891927505578e+17
19401.0	4.9430242794318496e+17
19402.0	4.9410829814770336e+17
19403.0	4.9390680077762554e+17
19404.0	4.9370171203474765e+17
19405.0	4.934880054651561e+17
19406.0	4.9326908306882554e+17
19407.0	4.930431581421568e+17
19408.0	4.9274054728744966e+17
19409.0	4.924940740460543e+17
19410.0	4.922439981072383e+17
19411.0	4.919826856280064e+17
19412.0	4.917110202783061e+17
19413.0	4.9142925001140896e+17
19414.0	4.911338151215104e+17
19415.0	4.9083437669853856e+17
19416.0	4.905053417985364e+17
19417.0	4.901752105074687e+17
19418.0	4.8984040522383354e+17
19419.0	4.8942211805129376e+17
19420.0	4.88985152594466e+17
19421.0	4.885875318063104e+17
19422.0	4.881691594893994e+17
19423.0	4.877146022827348e+17
19424.0	4.871168154664959e+17
19425.0	4.8663461052634445e+17
19426.0	4.859961033796267e+17
19427.0	4.8537266874395296e+17
19428.0	4.8456849295059616e+17
19429.0	4.837296698993324e+17
19430.0	4.82709249213508e+17
19431.0	4.813317576414548e+17
19432.0	4.798125990477821e+17
19433.0	4.776901531577005e+17
19434.0	4.750747632315047e+17
19435.0	4.735552440674985e+17
19436.0	4.720012003988819e+17
19437.0	4.7043334824263674e+17
19438.0	4.6738350273112736e+17
19439.0	4.6674027146990944e+17
19440.0	4.6461677169104205e+17
19441.0	4.623999943660886e+17
19442.0	4.599121008656385e+17
19443.0	4.5677409276177056e+17
19444.0	4.5171401884521875e+17
19445.0	4.436697258743121e+17
19446.0	4.377493852476757e+17
19447.0	4.3082716569490714e+17
19448.0	4.1934684792640806e+17
19449.0	4.009248655321767e+17
19450.0	3.5275584779059194e+17
19451.0	3.369820872157857e+17
19452.0	3.809116438222178e+17
19453.0	4.109723590721546e+17
19454.0	4.260157747888126e+17
19455.0	4.339856648612523e+17
19456.0	4.4004098539083104e+17
19457.0	4.467827086633631e+17
19458.0	4.512486493519912e+17
19459.0	4.5718771118462317e+17
19460.0	4.597627425390591e+17
19461.0	4.6194853695979514e+17
19462.0	4.639184507633663e+17
19463.0	4.657636633651881e+17
19464.0	4.6742433414075725e+17
19465.0	4.6894717379543046e+17
19466.0	4.703178341045587e+17
19467.0	4.715890108355924e+17
19468.0	4.734534154540369e+17
19469.0	4.757594605005483e+17
19470.0	4.774588553975124e+17
19471.0	4.786466953625597e+17
19472.0	4.796028097484114e+17
19473.0	4.8036980625244115e+17
19474.0	4.80986837094673e+17
19475.0	4.814062307246078e+17
19476.0	4.819814353382057e+17
19477.0	4.823229895365973e+17
19478.0	4.8266436890241715e+17
19479.0	4.830343147640149e+17
19480.0	4.8327604788264954e+17
19481.0	4.835010232188928e+17
19482.0	4.837076683281749e+17
19483.0	4.839962120465066e+17
19484.0	4.8417914200173216e+17
19485.0	4.8433185828809376e+17
19486.0	4.844741620050602e+17
19487.0	4.846025230865748e+17
19488.0	4.8471762415561376e+17
19489.0	4.848204094898176e+17
19490.0	4.8482215201341414e+17
19491.0	4.849970057663829e+17
19492.0	4.85073146155281e+17
19493.0	4.8513777877210445e+17
19494.0	4.8522828423277216e+17
19495.0	4.85308098412544e+17
19496.0	4.853228283887615e+17
19497.0	4.853800130401621e+17
19498.0	4.853699957140141e+17
19499.0	4.841504402396488e+17
19500.0	4.854435685597184e+17
19501.0	4.854527679965866e+17
19502.0	4.854565205704704e+17
19503.0	4.854572503094613e+17
19504.0	4.854517894654633e+17
19505.0	4.8544312836751354e+17
19506.0	4.8543068659384314e+17
19507.0	4.854124742967295e+17
19508.0	4.853938623523498e+17
19509.0	4.853703333554857e+17
19510.0	4.854819012127401e+17
19511.0	4.8379541400671405e+17
19512.0	4.853194735747065e+17
19513.0	4.850798970972835e+17
19514.0	4.851734156061349e+17
19515.0	4.85668986744559e+17
19516.0	4.8566247599636474e+17
19517.0	4.856116931111594e+17
19518.0	4.855674051056981e+17
19519.0	4.855162382319615e+17
19520.0	4.854626766203562e+17
19521.0	4.855223438103892e+17
19522.0	4.8565733063393274e+17
19523.0	4.856017170290005e+17
19524.0	4.855423282708479e+17
19525.0	4.8548097091611296e+17
19526.0	4.854206466883583e+17
19527.0	4.853578209776981e+17
19528.0	4.852939800357545e+17
19529.0	4.8522930939057485e+17
19530.0	4.851647426942292e+17
19531.0	4.850984139707734e+17
19532.0	4.852741281852072e+17
19533.0	4.8522508118261754e+17
19534.0	4.851554183370068e+17
19535.0	4.8508406812289696e+17
19536.0	4.850120087218857e+17
19537.0	4.8494302626228896e+17
19538.0	4.848673264850261e+17
19539.0	4.847598974271489e+17
19540.0	4.8472327933569696e+17
19541.0	4.84651044962304e+17
19542.0	4.845764851968682e+17
19543.0	4.845016288941396e+17
19544.0	4.8442678160916474e+17
19545.0	4.8432581814080826e+17
19546.0	4.8421389013265056e+17
19547.0	4.8419891213325645e+17
19548.0	4.841222040453119e+17
19549.0	4.84038802477329e+17
19550.0	4.839673871116969e+17
19551.0	4.8388967350927354e+17
19552.0	4.838949611984212e+17
19553.0	4.8395420525308576e+17
19554.0	4.8387367195989325e+17
19555.0	4.8379601533009914e+17
19556.0	4.837172622393343e+17
19557.0	4.8363704184122016e+17
19558.0	4.835568419951957e+17
19559.0	4.834761786785791e+17
19560.0	4.8339431481234765e+17
19561.0	4.8331349616667296e+17
19562.0	4.8323365409477965e+17
19563.0	4.831529821798398e+17
19564.0	4.830715961846442e+17
19565.0	4.8298597743766176e+17
19566.0	4.8290193959376205e+17
19567.0	4.828218894843904e+17
19568.0	4.827382877082964e+17
19569.0	4.826562114704724e+17
19570.0	4.8257519932757325e+17
19571.0	4.8249245717408416e+17
19572.0	4.8240779906252794e+17
19573.0	4.8232613631317325e+17
19574.0	4.822384595610282e+17
19575.0	4.821612213130581e+17
19576.0	4.8207781638963194e+17
19577.0	4.8199165643762336e+17
19578.0	4.819087428769109e+17
19579.0	4.818261535358976e+17
19580.0	4.8174281257560736e+17
19581.0	4.8165954774193485e+17
19582.0	4.81576955674624e+17
19583.0	4.8149309685759994e+17
19584.0	4.81408810291473e+17
19585.0	4.8131824904656205e+17
19586.0	4.81232423939823e+17
19587.0	4.811528700865194e+17
19588.0	4.810430736236543e+17
19589.0	4.809867597796693e+17
19590.0	4.8089732715205965e+17
19591.0	4.8081903501530445e+17
19592.0	4.8073487211124045e+17
19593.0	4.8064924679318176e+17
19594.0	4.8054990274559974e+17
19595.0	4.804796227780607e+17
19596.0	4.803347699728384e+17
19597.0	4.8031048285552634e+17
19598.0	4.8020194027984205e+17
19599.0	4.8014166869060256e+17
19600.0	4.800573264101375e+17
19601.0	4.799682207984298e+17
19602.0	4.7988485187611296e+17
19603.0	4.7976699046570656e+17
19604.0	4.797144427571883e+17
19605.0	4.796133763186687e+17
19606.0	4.795465574208853e+17
19607.0	4.7946202583749965e+17
19608.0	4.7937575935016954e+17
19609.0	4.792882326842026e+17
19610.0	4.7920624669381965e+17
19611.0	4.791201758707711e+17
19612.0	4.7903587168856736e+17
19613.0	4.789498014946644e+17
19614.0	4.788627781451775e+17
19615.0	4.7877982536772256e+17
19616.0	4.7868757207067296e+17
19617.0	4.7860841443928736e+17
19618.0	4.784893574425257e+17
19619.0	4.7839264846643194e+17
19620.0	4.783105370663593e+17
19621.0	4.782667139994964e+17
19622.0	4.78181894267426e+17
19623.0	4.780964121149439e+17
19624.0	4.780103310158506e+17
19625.0	4.77925316108834e+17
19626.0	4.7783957600665594e+17
19627.0	4.777543127968425e+17
19628.0	4.776540845899776e+17
19629.0	4.775771108627796e+17
19630.0	4.77486617006353e+17
19631.0	4.767407843311612e+17
19632.0	4.773261272765782e+17
19633.0	4.772379430136489e+17
19634.0	4.7715529893696845e+17
19635.0	4.7706746573728416e+17
19636.0	4.769833505783807e+17
19637.0	4.768768755149482e+17
19638.0	4.768123379690153e+17
19639.0	4.767266841995947e+17
19640.0	4.766376701635242e+17
19641.0	4.7649465760918195e+17
19642.0	4.7646992673450656e+17
19643.0	4.763837260977493e+17
19644.0	4.762954589274111e+17
19645.0	4.761962509150889e+17
19646.0	4.761276964143104e+17
19647.0	4.7604244012509856e+17
19648.0	4.7595657083835725e+17
19649.0	4.7587076041168205e+17
19650.0	4.7578553285345274e+17
19651.0	4.756996157516458e+17
19652.0	4.756139169633621e+17
19653.0	4.755283850384724e+17
19654.0	4.7544270861981005e+17
19655.0	4.75356923428864e+17
