# Flux units: erg / (cm m2 s)
# Wavelength units: Angstrom
wave	flux
19000.0	7.367272637136893e+17
19001.0	7.365484265603071e+17
19002.0	7.364569921312084e+17
19003.0	7.363194862086826e+17
19004.0	7.36183519036484e+17
19005.0	7.360458082921129e+17
19006.0	7.359095626181289e+17
19007.0	7.357615137532586e+17
19008.0	7.356098317822634e+17
19009.0	7.354587781180072e+17
19010.0	7.351697201080997e+17
19011.0	7.352130899105108e+17
19012.0	7.350325639905276e+17
19013.0	7.349523241588051e+17
19014.0	7.347889247005353e+17
19015.0	7.346637349322751e+17
19016.0	7.34522573534003e+17
19017.0	7.343919979997864e+17
19018.0	7.342637670815062e+17
19019.0	7.34127562371891e+17
19020.0	7.339818488954879e+17
19021.0	7.338550651518973e+17
19022.0	7.337211267645437e+17
19023.0	7.335672288029352e+17
19024.0	7.334402863748436e+17
19025.0	7.333088405225471e+17
19026.0	7.331616552648703e+17
19027.0	7.330113985183743e+17
19028.0	7.32899928178688e+17
19029.0	7.327557183602687e+17
19030.0	7.326307289399296e+17
19031.0	7.324963600771753e+17
19032.0	7.323581970470228e+17
19033.0	7.321802464296957e+17
19034.0	7.320762525766996e+17
19035.0	7.319287324737535e+17
19036.0	7.29669119001668e+17
19037.0	7.3166564112029e+17
19038.0	7.315244809803092e+17
19039.0	7.313963110192467e+17
19040.0	7.312614856764074e+17
19041.0	7.311203272141481e+17
19042.0	7.309460786293417e+17
19043.0	7.308485312817834e+17
19044.0	7.307070785191933e+17
19045.0	7.305742865749331e+17
19046.0	7.304096339984381e+17
19047.0	7.3029116769949e+17
19048.0	7.300714651626152e+17
19049.0	7.299932416726356e+17
19050.0	7.29865308270319e+17
19051.0	7.294018611664209e+17
19052.0	7.295452167449258e+17
19053.0	7.294718933204991e+17
19054.0	7.293358063310163e+17
19055.0	7.290863721906177e+17
19056.0	7.290512720177833e+17
19057.0	7.289221514876244e+17
19058.0	7.28779069797171e+17
19059.0	7.286491759771645e+17
19060.0	7.285032641101823e+17
19061.0	7.283770623961769e+17
19062.0	7.282362457696938e+17
19063.0	7.281006753786538e+17
19064.0	7.279032703210836e+17
19065.0	7.277440964842836e+17
19066.0	7.276613797762387e+17
19067.0	7.275442823583059e+17
19068.0	7.274119043918506e+17
19069.0	7.272753983913983e+17
19070.0	7.271248575507113e+17
19071.0	7.269977048481791e+17
19072.0	7.268626538517846e+17
19073.0	7.267222179282943e+17
19074.0	7.265888963832488e+17
19075.0	7.264513260082518e+17
19076.0	7.263045108279977e+17
19077.0	7.261701732827135e+17
19078.0	7.26019218743842e+17
19079.0	7.258986624232105e+17
19080.0	7.257548327485437e+17
19081.0	7.256065474647378e+17
19082.0	7.254668490397012e+17
19083.0	7.252963027670355e+17
19084.0	7.251021958305108e+17
19085.0	7.250680328050004e+17
19086.0	7.247607792052906e+17
19087.0	7.247297045856255e+17
19088.0	7.246205376178858e+17
19089.0	7.24407651803682e+17
19090.0	7.243708068003839e+17
19091.0	7.242344099916457e+17
19092.0	7.240711678197757e+17
19093.0	7.239710780249427e+17
19094.0	7.238340106868051e+17
19095.0	7.23697184940578e+17
19096.0	7.235531638658387e+17
19097.0	7.234216237815126e+17
19098.0	7.232833434506582e+17
19099.0	7.231450085938516e+17
19100.0	7.23004739883281e+17
19101.0	7.228696941996713e+17
19102.0	7.226928447269544e+17
19103.0	7.225937466053971e+17
19104.0	7.224593949392893e+17
19105.0	7.223198792460969e+17
19106.0	7.221716476493824e+17
19107.0	7.220370002848425e+17
19108.0	7.2190759286429e+17
19109.0	7.215713166382418e+17
19110.0	7.216243225744723e+17
19111.0	7.214944971216211e+17
19112.0	7.213576551574186e+17
19113.0	7.212192259287721e+17
19114.0	7.210796218755753e+17
19115.0	7.209202158141439e+17
19116.0	7.207962004510036e+17
19117.0	7.206565768243881e+17
19118.0	7.204861816864768e+17
19119.0	7.190310085984238e+17
19120.0	7.202300586098687e+17
19121.0	7.201038589930153e+17
19122.0	7.199806802537129e+17
19123.0	7.198409252055721e+17
19124.0	7.196932894796457e+17
19125.0	7.195638575923197e+17
19126.0	7.194263210513748e+17
19127.0	7.185366121447423e+17
19128.0	7.190536533661011e+17
19129.0	7.189781371595433e+17
19130.0	7.188680700941651e+17
19131.0	7.187361340675411e+17
19132.0	7.186004340725075e+17
19133.0	7.183582144146089e+17
19134.0	7.18282017472512e+17
19135.0	7.18186393772578e+17
19136.0	7.180519689857706e+17
19137.0	7.178433624801279e+17
19138.0	7.177658221024598e+17
19139.0	7.176375289686698e+17
19140.0	7.175010288402432e+17
19141.0	7.17363129492002e+17
19142.0	7.172143488608938e+17
19143.0	7.170621354715817e+17
19144.0	7.169310102039212e+17
19145.0	7.168090444573353e+17
19146.0	7.164120257615192e+17
19147.0	7.164903525711871e+17
19148.0	7.163957083810474e+17
19149.0	7.162564641991336e+17
19150.0	7.161173512989353e+17
19151.0	7.159816409579519e+17
19152.0	7.158410237007187e+17
19153.0	7.156998309849769e+17
19154.0	7.155138352731475e+17
19155.0	7.15432602509858e+17
19156.0	7.152930840204628e+17
19157.0	7.151488832897024e+17
19158.0	7.148803127771133e+17
19159.0	7.148703424970751e+17
19160.0	7.147328000841042e+17
19161.0	7.145929593323519e+17
19162.0	7.14154824293854e+17
19163.0	7.143145057812479e+17
19164.0	7.141900612009983e+17
19165.0	7.140430428766207e+17
19166.0	7.138614096603817e+17
19167.0	7.137469649999187e+17
19168.0	7.136159155093504e+17
19169.0	7.134815743290025e+17
19170.0	7.133611337711615e+17
19171.0	7.132042694579539e+17
19172.0	7.13081358455057e+17
19173.0	7.129467646377981e+17
19174.0	7.12783018730018e+17
19175.0	7.126708424889683e+17
19176.0	7.125307328823293e+17
19177.0	7.123272381147817e+17
19178.0	7.122476790185983e+17
19179.0	7.120927921799168e+17
19180.0	7.119676488286207e+17
19181.0	7.117968496394239e+17
19182.0	7.116883902507689e+17
19183.0	7.11562833620719e+17
19184.0	7.1140604130973e+17
19185.0	7.112801945736531e+17
19186.0	7.111479779480916e+17
19187.0	7.109737343964499e+17
19188.0	7.108691757105152e+17
19189.0	7.107294792428202e+17
19190.0	7.105894709985279e+17
19191.0	7.104392072615251e+17
19192.0	7.103160492141225e+17
19193.0	7.101708685541375e+17
19194.0	7.100289244987391e+17
19195.0	7.098975601557504e+17
19196.0	7.097515244169897e+17
19197.0	7.096141321601023e+17
19198.0	7.094664659555667e+17
19199.0	7.075155266240506e+17
19200.0	7.079085875746139e+17
19201.0	7.090521414216362e+17
19202.0	7.08924269535778e+17
19203.0	7.087834585017002e+17
19204.0	7.086375757152253e+17
19205.0	7.085041940518228e+17
19206.0	7.083615917703168e+17
19207.0	7.081831772629674e+17
19208.0	7.080071479164927e+17
19209.0	7.079465403635028e+17
19210.0	7.07808411586833e+17
19211.0	7.076750601224191e+17
19212.0	7.075345629620905e+17
19213.0	7.073492710544723e+17
19214.0	7.0719034635933e+17
19215.0	7.071095263155539e+17
19216.0	7.069745401910612e+17
19217.0	7.068333383876608e+17
19218.0	7.06335450315707e+17
19219.0	7.064848494668457e+17
19220.0	7.064054605195945e+17
19221.0	7.06133638582545e+17
19222.0	7.0613283663162e+17
19223.0	7.059856703881215e+17
19224.0	7.05831618215936e+17
19225.0	7.05647887987507e+17
19226.0	7.055635789818538e+17
19227.0	7.054226731565055e+17
19228.0	7.052940797105491e+17
19229.0	7.051535231309139e+17
19230.0	7.050050844753919e+17
19231.0	7.048636117199529e+17
19232.0	7.047245494310228e+17
19233.0	7.045582568816639e+17
19234.0	7.044372955310761e+17
19235.0	7.042907926866602e+17
19236.0	7.041666049376255e+17
19237.0	7.040168512279892e+17
19238.0	7.038422363406336e+17
19239.0	7.037427585646591e+17
19240.0	7.035623493861375e+17
19241.0	7.034359427104767e+17
19242.0	7.033073900890794e+17
19243.0	7.030952263243091e+17
19244.0	7.030333077716992e+17
19245.0	7.028886267931306e+17
19246.0	7.027403185804627e+17
19247.0	7.026011568865279e+17
19248.0	7.024638384493908e+17
19249.0	7.02318813188369e+17
19250.0	7.021687822352384e+17
19251.0	7.019721743750483e+17
19252.0	7.017651398945449e+17
19253.0	7.017379721292457e+17
19254.0	7.015988655205034e+17
19255.0	7.013794992269992e+17
19256.0	7.012947467436031e+17
19257.0	7.011718175653887e+17
19258.0	7.010284512215037e+17
19259.0	7.008529383336617e+17
19260.0	7.006950448081577e+17
19261.0	7.005885094865577e+17
19262.0	7.004239047251284e+17
19263.0	7.002779489577641e+17
19264.0	6.99929572304486e+17
19265.0	6.999321982184104e+17
19266.0	6.998009541820416e+17
19267.0	6.99724105445103e+17
19268.0	6.995747690687146e+17
19269.0	6.994289856173395e+17
19270.0	6.992842398367741e+17
19271.0	6.989920511284567e+17
19272.0	6.989736509265236e+17
19273.0	6.97756995953185e+17
19274.0	6.980372150266529e+17
19275.0	6.985490966249471e+17
19276.0	6.983931426854228e+17
19277.0	6.982460652912639e+17
19278.0	6.980996916314111e+17
19279.0	6.979387167604735e+17
19280.0	6.977652117558611e+17
19281.0	6.976503711531007e+17
19282.0	6.975082935790249e+17
19283.0	6.973310428512256e+17
19284.0	6.971649802196307e+17
19285.0	6.969679355226793e+17
19286.0	6.968908925894655e+17
19287.0	6.967572797500073e+17
19288.0	6.959790390859085e+17
19289.0	6.951110406657345e+17
19290.0	6.963032910812499e+17
19291.0	6.960329524598103e+17
19292.0	6.959977120574121e+17
19293.0	6.958421317604691e+17
19294.0	6.956870669434879e+17
19295.0	6.955383441238697e+17
19296.0	6.953811757935274e+17
19297.0	6.952166959524521e+17
19298.0	6.950603817921193e+17
19299.0	6.949180380195497e+17
19300.0	6.947613860080297e+17
19301.0	6.946027953192959e+17
19302.0	6.944396085122388e+17
19303.0	6.942570127731369e+17
19304.0	6.940682531547817e+17
19305.0	6.939054857082196e+17
19306.0	6.93750434313011e+17
19307.0	6.935713554279081e+17
19308.0	6.934189549726377e+17
19309.0	6.932060298717865e+17
19310.0	6.930147568167593e+17
19311.0	6.929299108702889e+17
19312.0	6.927828453599913e+17
19313.0	6.926194875651412e+17
19314.0	6.911991808873821e+17
19315.0	6.910909965751648e+17
19316.0	6.921281670742015e+17
19317.0	6.919650670193321e+17
19318.0	6.917965963679059e+17
19319.0	6.916360697282557e+17
19320.0	6.914682740801535e+17
19321.0	6.913005419757565e+17
19322.0	6.910879171870719e+17
19323.0	6.909298731559594e+17
19324.0	6.907861451232595e+17
19325.0	6.905636308647935e+17
19326.0	6.904429733915306e+17
19327.0	6.902660914828627e+17
19328.0	6.900987059677865e+17
19329.0	6.899240036291924e+17
19330.0	6.897308681633791e+17
19331.0	6.895505483235327e+17
19332.0	6.893896623718399e+17
19333.0	6.892037697699839e+17
19334.0	6.890282814887252e+17
19335.0	6.888480851711316e+17
19336.0	6.886645527041364e+17
19337.0	6.884760456527872e+17
19338.0	6.881961437386067e+17
19339.0	6.881011082898089e+17
19340.0	6.878601562903894e+17
19341.0	6.876158453525161e+17
19342.0	6.872652627050492e+17
19343.0	6.872414403865257e+17
19344.0	6.870442535026687e+17
19345.0	6.860653557273926e+17
19346.0	6.862834347190949e+17
19347.0	6.864321861997907e+17
19348.0	6.862623115051005e+17
19349.0	6.860461792296959e+17
19350.0	6.858460229184169e+17
19351.0	6.856374641579348e+17
19352.0	6.854145964594516e+17
19353.0	6.852404831409491e+17
19354.0	6.850303634003283e+17
19355.0	6.847749699229014e+17
19356.0	6.845896589311997e+17
19357.0	6.842444744927913e+17
19358.0	6.840128820128425e+17
19359.0	6.837458559827968e+17
19360.0	6.835587383645523e+17
19361.0	6.833357879683753e+17
19362.0	6.831233196272297e+17
19363.0	6.828906561317545e+17
19364.0	6.826550579516755e+17
19365.0	6.824154065360212e+17
19366.0	6.821060975875412e+17
19367.0	6.817443632644096e+17
19368.0	6.814973737041919e+17
19369.0	6.812068567056383e+17
19370.0	6.808720447810217e+17
19371.0	6.807129328801108e+17
19372.0	6.804748451708927e+17
19373.0	6.80040509263053e+17
19374.0	6.796938392720724e+17
19375.0	6.794216754293418e+17
19376.0	6.791442533274964e+17
19377.0	6.788564569642324e+17
19378.0	6.783731299079507e+17
19379.0	6.779694396822868e+17
19380.0	6.776672581145939e+17
19381.0	6.773566128608595e+17
19382.0	6.767364082586967e+17
19383.0	6.763023426737491e+17
19384.0	6.760193741641044e+17
19385.0	6.754457832390656e+17
19386.0	6.748932937875455e+17
19387.0	6.745358281474047e+17
19388.0	6.737193092164269e+17
19389.0	6.732724425457664e+17
19390.0	6.725491840341331e+17
19391.0	6.701774839392915e+17
19392.0	6.712198418836133e+17
19393.0	6.706861565455017e+17
19394.0	6.702224725333331e+17
19395.0	6.697508445792938e+17
19396.0	6.692862225809405e+17
19397.0	6.688125794036393e+17
19398.0	6.683133140620627e+17
19399.0	6.675522815787005e+17
19400.0	6.672744617170259e+17
19401.0	6.667713534842196e+17
19402.0	6.662314467349842e+17
19403.0	6.656652933595133e+17
19404.0	6.650924099436541e+17
19405.0	6.644284224700415e+17
19406.0	6.638193134097748e+17
19407.0	6.631948628437673e+17
19408.0	6.622675256475652e+17
19409.0	6.618624124343636e+17
19410.0	6.610876673731241e+17
19411.0	6.603496201650175e+17
19412.0	6.596118179741695e+17
19413.0	6.587816940492115e+17
19414.0	6.578958978689706e+17
19415.0	6.570893720070828e+17
19416.0	6.559857257742333e+17
19417.0	6.551057621931345e+17
19418.0	6.539744083181567e+17
19419.0	6.527696455947602e+17
19420.0	6.514630030174893e+17
19421.0	6.49964355479142e+17
19422.0	6.482415191064576e+17
19423.0	6.462644550631419e+17
19424.0	6.438363769514679e+17
19425.0	6.412593950359548e+17
19426.0	6.394641800058195e+17
19427.0	6.3774027953821e+17
19428.0	6.359860227954004e+17
19429.0	6.341671731418451e+17
19430.0	6.32234941734366e+17
19431.0	6.299888768428718e+17
19432.0	6.281830897199785e+17
19433.0	6.25892267060975e+17
19434.0	6.234792833406292e+17
19435.0	6.207821128750418e+17
19436.0	6.177482150860113e+17
19437.0	6.143345011195903e+17
19438.0	6.081939235318442e+17
19439.0	6.044838263433901e+17
19440.0	5.991876856031913e+17
19441.0	5.945459674360489e+17
19442.0	5.893549827205805e+17
19443.0	5.834333754840403e+17
19444.0	5.7642934798909414e+17
19445.0	5.675481096869214e+17
19446.0	5.570695947179351e+17
19447.0	5.4558491445384474e+17
19448.0	5.309444499963909e+17
19449.0	5.116688750084096e+17
19450.0	4.8431683464068595e+17
19451.0	4.7577754668892224e+17
19452.0	4.9836869619985e+17
19453.0	5.220400067073374e+17
19454.0	5.384094920387235e+17
19455.0	5.5102093684026016e+17
19456.0	5.6153364859890374e+17
19457.0	5.712068976050172e+17
19458.0	5.772944689070098e+17
19459.0	5.848708277075974e+17
19460.0	5.902409078057641e+17
19461.0	5.948981593680554e+17
19462.0	5.994573067889331e+17
19463.0	6.049383706875218e+17
19464.0	6.09520607542204e+17
19465.0	6.13182963904239e+17
19466.0	6.161110148666705e+17
19467.0	6.186911248242002e+17
19468.0	6.209840180712788e+17
19469.0	6.229536715483816e+17
19470.0	6.250175407674708e+17
19471.0	6.268309460746239e+17
19472.0	6.285277521772543e+17
19473.0	6.30124081840128e+17
19474.0	6.316861840949247e+17
19475.0	6.329370147465894e+17
19476.0	6.345605518808403e+17
19477.0	6.366402845868033e+17
19478.0	6.388725042905088e+17
19479.0	6.408531219578872e+17
19480.0	6.423963116765181e+17
19481.0	6.437143483602259e+17
19482.0	6.448840960551593e+17
19483.0	6.459430176555007e+17
19484.0	6.467675307201874e+17
19485.0	6.475729282443946e+17
19486.0	6.482833692426237e+17
19487.0	6.489699134035283e+17
19488.0	6.495233105723391e+17
19489.0	6.501517748775594e+17
19490.0	6.502011075821563e+17
19491.0	6.511481580071593e+17
19492.0	6.516924078183764e+17
19493.0	6.521574254794068e+17
19494.0	6.525608157424298e+17
19495.0	6.529423536816127e+17
19496.0	6.531717236697768e+17
19497.0	6.536705431568383e+17
19498.0	6.538087917507926e+17
19499.0	6.517274927519052e+17
19500.0	6.546627408603817e+17
19501.0	6.549440588414976e+17
19502.0	6.552090881032191e+17
19503.0	6.55462691241984e+17
19504.0	6.557022411554815e+17
19505.0	6.559316311364947e+17
19506.0	6.561528115363839e+17
19507.0	6.563488758147754e+17
19508.0	6.565695803708755e+17
19509.0	6.567605300450644e+17
19510.0	6.571460369143126e+17
19511.0	6.548678927974388e+17
19512.0	6.576693277884411e+17
19513.0	6.573772117114868e+17
19514.0	6.580623342130513e+17
19515.0	6.587855561643352e+17
19516.0	6.590696881739091e+17
19517.0	6.594811076629846e+17
19518.0	6.596641003929597e+17
19519.0	6.597324470659754e+17
19520.0	6.599842212085761e+17
19521.0	6.602056815083519e+17
19522.0	6.602381672316927e+17
19523.0	6.602986363726505e+17
19524.0	6.604923847660884e+17
19525.0	6.606430475911165e+17
19526.0	6.606762510996819e+17
19527.0	6.606938271907839e+17
19528.0	6.60709491937553e+17
19529.0	6.608008570907304e+17
19530.0	6.609602894364671e+17
19531.0	6.609653017695571e+17
19532.0	6.60962490187776e+17
19533.0	6.60960471748881e+17
19534.0	6.609508549088596e+17
19535.0	6.609334168103593e+17
19536.0	6.609705305986386e+17
19537.0	6.610861424639999e+17
19538.0	6.610179706235564e+17
19539.0	6.608277125900974e+17
19540.0	6.610066055277228e+17
19541.0	6.609902516568061e+17
19542.0	6.60958220386304e+17
19543.0	6.609241060147199e+17
19544.0	6.608904068093268e+17
19545.0	6.606488684462077e+17
19546.0	6.604548708412074e+17
19547.0	6.608951773407914e+17
19548.0	6.608554816787795e+17
19549.0	6.607650059976701e+17
19550.0	6.607605228459348e+17
19551.0	6.607109707792383e+17
19552.0	6.60657887318289e+17
19553.0	6.605931942335827e+17
19554.0	6.605307395091114e+17
19555.0	6.604836803969023e+17
19556.0	6.604298839042729e+17
19557.0	6.603682353250304e+17
19558.0	6.6030542534301e+17
19559.0	6.602394520169129e+17
19560.0	6.60165746631202e+17
19561.0	6.600990520246271e+17
19562.0	6.600408322889044e+17
19563.0	6.599748566559401e+17
19564.0	6.599036677128191e+17
19565.0	6.599041917211988e+17
19566.0	6.598354005218644e+17
19567.0	6.597750904149334e+17
19568.0	6.596868124792147e+17
19569.0	6.59614067798835e+17
19570.0	6.595464531716777e+17
19571.0	6.594664694022143e+17
19572.0	6.593743300504233e+17
19573.0	6.592990616573268e+17
19574.0	6.591879849530707e+17
19575.0	6.59144781734434e+17
19576.0	6.590622124561748e+17
19577.0	6.589659675099136e+17
19578.0	6.588755613144403e+17
19579.0	6.587998238583465e+17
19580.0	6.587185329340415e+17
19581.0	6.586378869538816e+17
19582.0	6.58556991832064e+17
19583.0	6.584684317594963e+17
19584.0	6.583748239818751e+17
19585.0	6.582405859814057e+17
19586.0	6.581351187393196e+17
19587.0	6.580941050172756e+17
19588.0	6.578145389969409e+17
19589.0	6.579101413059242e+17
19590.0	6.577921652512083e+17
19591.0	6.577317140758527e+17
19592.0	6.576402495875754e+17
19593.0	6.575363271076522e+17
19594.0	6.573467657480872e+17
19595.0	6.573329121716905e+17
19596.0	6.570430716444672e+17
19597.0	6.571462193665364e+17
19598.0	6.569310698165588e+17
19599.0	6.569624626440873e+17
19600.0	6.568669930848255e+17
19601.0	6.567387330860372e+17
19602.0	6.566457069884755e+17
19603.0	6.563756445619538e+17
19604.0	6.564415209297236e+17
19605.0	6.562360054164138e+17
19606.0	6.562636711854079e+17
19607.0	6.561639806883156e+17
19608.0	6.560565850450601e+17
19609.0	6.559373241352191e+17
19610.0	6.558594068294313e+17
19611.0	6.557533563693738e+17
19612.0	6.556546673322666e+17
19613.0	6.555461532079443e+17
19614.0	6.55471254962176e+17
19615.0	6.553983536245418e+17
19616.0	6.55279382471202e+17
19617.0	6.551887228698623e+17
19618.0	6.548422470052518e+17
19619.0	6.54688091932808e+17
19620.0	6.545895822721021e+17
19621.0	6.547648547564201e+17
19622.0	6.546608578276009e+17
19623.0	6.545553823367167e+17
19624.0	6.544440947987796e+17
19625.0	6.543414854855337e+17
19626.0	6.542291892174845e+17
19627.0	6.541260866540884e+17
19628.0	6.539695723555498e+17
19629.0	6.538689629563561e+17
19630.0	6.536587366804138e+17
19631.0	6.517526862583126e+17
19632.0	6.535794962115242e+17
19633.0	6.534547850133503e+17
19634.0	6.533673776753321e+17
19635.0	6.53240178905361e+17
19636.0	6.531443025685161e+17
19637.0	6.528620167517526e+17
19638.0	6.529252435077801e+17
19639.0	6.528122602127359e+17
19640.0	6.526637455704064e+17
19641.0	6.523220383498244e+17
19642.0	6.524845730824191e+17
19643.0	6.523709851784531e+17
19644.0	6.522401575665663e+17
19645.0	6.520407348390568e+17
19646.0	6.52046973936162e+17
19647.0	6.519359236560211e+17
19648.0	6.518225369388372e+17
19649.0	6.517097327405738e+17
19650.0	6.516012813910015e+17
19651.0	6.514871727641939e+17
19652.0	6.513737666833066e+17
19653.0	6.512645451197097e+17
19654.0	6.511485770181289e+17
19655.0	6.510346056149674e+17
19656.0	6.509258727576916e+17
19657.0	6.508132601692159e+17
19658.0	6.507032672032084e+17
19659.0	6.505901840837289e+17
19660.0	6.504793549832191e+17
19661.0	6.503644078451369e+17
19662.0	6.502535113561428e+17
19663.0	6.501186219802621e+17
19664.0	6.500170432774143e+17
19665.0	6.499141468640595e+17
