# Flux units: erg / (cm m2 s)
# Wavelength units: Angstrom
wave	flux
19000.0	5.801049669500928e+17
19001.0	5.799903278137343e+17
19002.0	5.798951187906559e+17
19003.0	5.797900246319104e+17
19004.0	5.796850261032959e+17
19005.0	5.795790379985577e+17
19006.0	5.79474264564258e+17
19007.0	5.79369250656529e+17
19008.0	5.792597757569705e+17
19009.0	5.791415882394281e+17
19010.0	5.790242843918336e+17
19011.0	5.789453821236564e+17
19012.0	5.788354386504361e+17
19013.0	5.787396050255872e+17
19014.0	5.786301378854912e+17
19015.0	5.785261411663871e+17
19016.0	5.784231807199914e+17
19017.0	5.783207481966591e+17
19018.0	5.782154939553107e+17
19019.0	5.781110845865983e+17
19020.0	5.780056859213823e+17
19021.0	5.779026377441279e+17
19022.0	5.777974437609471e+17
19023.0	5.776895295619071e+17
19024.0	5.775861678604287e+17
19025.0	5.774829733019647e+17
19026.0	5.773776680299177e+17
19027.0	5.772724330124628e+17
19028.0	5.771695220588541e+17
19029.0	5.770638218231808e+17
19030.0	5.769615642722303e+17
19031.0	5.768573616127999e+17
19032.0	5.767518891278336e+17
19033.0	5.766382717239295e+17
19034.0	5.765381844456788e+17
19035.0	5.764117089834324e+17
19036.0	5.7611299128169805e+17
19037.0	5.76210366173457e+17
19038.0	5.761205121581055e+17
19039.0	5.760205207197013e+17
19040.0	5.759175233634303e+17
19041.0	5.758128289917609e+17
19042.0	5.7568462323930445e+17
19043.0	5.7560528329550496e+17
19044.0	5.7549995914909005e+17
19045.0	5.7539619738091514e+17
19046.0	5.7528786459033594e+17
19047.0	5.7518189766683296e+17
19048.0	5.750684405552468e+17
19049.0	5.749385352009043e+17
19050.0	5.748669229826047e+17
19051.0	5.7473660267178656e+17
19052.0	5.7464965474986656e+17
19053.0	5.7456140596456096e+17
19054.0	5.744592465603242e+17
19055.0	5.743264509110954e+17
19056.0	5.7424760813213e+17
19057.0	5.741474394144767e+17
19058.0	5.740263653769215e+17
19059.0	5.7393310090308256e+17
19060.0	5.7383532147070285e+17
19061.0	5.7373234005278714e+17
19062.0	5.73628132569907e+17
19063.0	5.735236583292926e+17
19064.0	5.7341248173069645e+17
19065.0	5.7330130072808096e+17
19066.0	5.732011194974207e+17
19067.0	5.731082674634751e+17
19068.0	5.730059015596713e+17
19069.0	5.7290221486953805e+17
19070.0	5.7279616503862605e+17
19071.0	5.7269430874275834e+17
19072.0	5.7258507131071136e+17
19073.0	5.724874862144169e+17
19074.0	5.7238403552378874e+17
19075.0	5.722803300291923e+17
19076.0	5.7217580965123405e+17
19077.0	5.7207121223789216e+17
19078.0	5.719662616641535e+17
19079.0	5.7186581975749965e+17
19080.0	5.717613650203989e+17
19081.0	5.716542630483284e+17
19082.0	5.7155361184590496e+17
19083.0	5.7144270962469536e+17
19084.0	5.713275365534377e+17
19085.0	5.712434350260224e+17
19086.0	5.710980886910292e+17
19087.0	5.7102183030237856e+17
19088.0	5.709181392082259e+17
19089.0	5.708131415184726e+17
19090.0	5.707248667284821e+17
19091.0	5.706220732852906e+17
19092.0	5.705039996431017e+17
19093.0	5.7041871371414176e+17
19094.0	5.7031574501894816e+17
19095.0	5.702125883490303e+17
19096.0	5.7010870375765325e+17
19097.0	5.7000592751110816e+17
19098.0	5.6989627078847136e+17
19099.0	5.697912814873258e+17
19100.0	5.696951392316074e+17
19101.0	5.6959189902513485e+17
19102.0	5.6948256134922234e+17
19103.0	5.693871138100564e+17
19104.0	5.692847015591936e+17
19105.0	5.69166308380945e+17
19106.0	5.6907800423082656e+17
19107.0	5.6897007248561485e+17
19108.0	5.6886468836065274e+17
19109.0	5.6876264870379514e+17
19110.0	5.6866313632481274e+17
19111.0	5.685587581337599e+17
19112.0	5.684555961510569e+17
19113.0	5.683578142719999e+17
19114.0	5.682518050559317e+17
19115.0	5.6814764944261114e+17
19116.0	5.680458805280767e+17
19117.0	5.6794051352985594e+17
19118.0	5.6780763783932576e+17
19119.0	5.671087578808312e+17
19120.0	5.676191033152852e+17
19121.0	5.6753087186643616e+17
19122.0	5.6743196116036256e+17
19123.0	5.6732991835777696e+17
19124.0	5.672250402056874e+17
19125.0	5.671217124081664e+17
19126.0	5.670046667199828e+17
19127.0	5.6680751856353274e+17
19128.0	5.667962482589694e+17
19129.0	5.667037860855807e+17
19130.0	5.6661079626874874e+17
19131.0	5.665105007433045e+17
19132.0	5.6640823053953696e+17
19133.0	5.663023763030015e+17
19134.0	5.6620334291353594e+17
19135.0	5.6610124306841594e+17
19136.0	5.6599808087599776e+17
19137.0	5.6588845903598925e+17
19138.0	5.6579199095275514e+17
19139.0	5.6569240873861114e+17
19140.0	5.655907255276884e+17
19141.0	5.654885788461737e+17
19142.0	5.653837793372843e+17
19143.0	5.6528073332708685e+17
19144.0	5.651774245437438e+17
19145.0	5.650794902017363e+17
19146.0	5.6491628214353926e+17
19147.0	5.6487035060005536e+17
19148.0	5.647677298223785e+17
19149.0	5.6466438825355936e+17
19150.0	5.645692593416873e+17
19151.0	5.644667159489194e+17
19152.0	5.64364613657122e+17
19153.0	5.642484658995199e+17
19154.0	5.64153583612723e+17
19155.0	5.6405723471762765e+17
19156.0	5.6395616995682976e+17
19157.0	5.6384962848358394e+17
19158.0	5.637411477738836e+17
19159.0	5.636485494254249e+17
19160.0	5.6354718589037216e+17
19161.0	5.634441507853653e+17
19162.0	5.6333395747143686e+17
19163.0	5.632381829862741e+17
19164.0	5.6314069407935136e+17
19165.0	5.6302619034910714e+17
19166.0	5.629295310755155e+17
19167.0	5.6283496902382925e+17
19168.0	5.6273504811963725e+17
19169.0	5.626337278558206e+17
19170.0	5.625323975955796e+17
19171.0	5.6243065985870496e+17
19172.0	5.6232932323710285e+17
19173.0	5.622275509671252e+17
19174.0	5.6212265645725e+17
19175.0	5.620238189417813e+17
19176.0	5.619227996192768e+17
19177.0	5.6180713064147616e+17
19178.0	5.617197741943466e+17
19179.0	5.616180354088958e+17
19180.0	5.6151599840843085e+17
19181.0	5.614062823363924e+17
19182.0	5.6131109757037216e+17
19183.0	5.61213101572096e+17
19184.0	5.611117426507775e+17
19185.0	5.6100972389553485e+17
19186.0	5.6090909387434656e+17
19187.0	5.6080188110274554e+17
19188.0	5.6070617141957965e+17
19189.0	5.6060511798340256e+17
19190.0	5.60503625753122e+17
19191.0	5.603992684636841e+17
19192.0	5.6030048079052794e+17
19193.0	5.601964921804117e+17
19194.0	5.6009235683956045e+17
19195.0	5.5999303970542925e+17
19196.0	5.5988727732415136e+17
19197.0	5.597793710243838e+17
19198.0	5.596569408984404e+17
19199.0	5.5948666082426874e+17
19200.0	5.593956479227219e+17
19201.0	5.5935657371675296e+17
19202.0	5.5927531767507616e+17
19203.0	5.591808742522879e+17
19204.0	5.59082529497634e+17
19205.0	5.5898300733194234e+17
19206.0	5.5888367642651296e+17
19207.0	5.5876842666939725e+17
19208.0	5.586678951444479e+17
19209.0	5.5858064194710176e+17
19210.0	5.584805728441684e+17
19211.0	5.5838129478696954e+17
19212.0	5.5827990308017485e+17
19213.0	5.581699772230313e+17
19214.0	5.5807195661817165e+17
19215.0	5.5797646392033274e+17
19216.0	5.5787523530205856e+17
19217.0	5.577671696886441e+17
19218.0	5.5763161341842765e+17
19219.0	5.575496108605439e+17
19220.0	5.5746779739586554e+17
19221.0	5.5735681799946234e+17
19222.0	5.5726631351746554e+17
19223.0	5.571695532310526e+17
19224.0	5.570659163832319e+17
19225.0	5.5696427518525434e+17
19226.0	5.568684686835711e+17
19227.0	5.5676894861503136e+17
19228.0	5.566711427585364e+17
19229.0	5.5657062815061325e+17
19230.0	5.564696560839337e+17
19231.0	5.5636841264578554e+17
19232.0	5.5626859981482656e+17
19233.0	5.561628334489599e+17
19234.0	5.560673643091284e+17
19235.0	5.559646521655296e+17
19236.0	5.558674637804884e+17
19237.0	5.557662333446825e+17
19238.0	5.556591004046676e+17
19239.0	5.5556672561261216e+17
19240.0	5.554665875832832e+17
19241.0	5.553643646353407e+17
19242.0	5.552645060864683e+17
19243.0	5.551503386694996e+17
19244.0	5.550656679051264e+17
19245.0	5.5496472799477754e+17
19246.0	5.5486433858682874e+17
19247.0	5.5476385236036256e+17
19248.0	5.5466475395918496e+17
19249.0	5.54564081226001e+17
19250.0	5.54460026905122e+17
19251.0	5.543535463890943e+17
19252.0	5.5423483339516576e+17
19253.0	5.541617589725866e+17
19254.0	5.54063876989474e+17
19255.0	5.539446086696958e+17
19256.0	5.5386229063024634e+17
19257.0	5.5376363263098874e+17
19258.0	5.536634476953599e+17
19259.0	5.535555956419242e+17
19260.0	5.5345547271208954e+17
19261.0	5.533610555037011e+17
19262.0	5.532555366716756e+17
19263.0	5.5314906153833805e+17
19264.0	5.530236046628179e+17
19265.0	5.529419843458389e+17
19266.0	5.5283914420606285e+17
19267.0	5.527619929199956e+17
19268.0	5.526620696390315e+17
19269.0	5.525620541532842e+17
19270.0	5.5245783639435936e+17
19271.0	5.5234138629734394e+17
19272.0	5.5225874578582176e+17
19273.0	5.52142486040303e+17
19274.0	5.520240770635092e+17
19275.0	5.5196375115803296e+17
19276.0	5.518623468683262e+17
19277.0	5.517631153679017e+17
19278.0	5.5166311288449696e+17
19279.0	5.515610063284906e+17
19280.0	5.514591053632851e+17
19281.0	5.5136228635661645e+17
19282.0	5.512644181448021e+17
19283.0	5.5116360888702285e+17
19284.0	5.510606191504042e+17
19285.0	5.5095712525844474e+17
19286.0	5.5085832479266125e+17
19287.0	5.507584821122387e+17
19288.0	5.505714457236819e+17
19289.0	5.5042265292909203e+17
19290.0	5.504583985354068e+17
19291.0	5.503407573958656e+17
19292.0	5.502661030488747e+17
19293.0	5.501666908438526e+17
19294.0	5.500663040922964e+17
19295.0	5.4996783071232e+17
19296.0	5.4985997698116256e+17
19297.0	5.4976559430587725e+17
19298.0	5.496655883272191e+17
19299.0	5.4956033268776954e+17
19300.0	5.494682545029119e+17
19301.0	5.493689215003306e+17
19302.0	5.492676010967039e+17
19303.0	5.491625460847956e+17
19304.0	5.490676843500884e+17
19305.0	5.489673272382804e+17
19306.0	5.488680763741523e+17
19307.0	5.487648191108437e+17
19308.0	5.486657228068179e+17
19309.0	5.485646266586451e+17
19310.0	5.4846197127796045e+17
19311.0	5.4836327839607456e+17
19312.0	5.4826510120386554e+17
19313.0	5.4815943515176954e+17
19314.0	5.475223412058793e+17
19315.0	5.47463198443657e+17
19316.0	5.478494654605994e+17
19317.0	5.4776482517483514e+17
19318.0	5.4766705839527245e+17
19319.0	5.475696332417706e+17
19320.0	5.474667875794943e+17
19321.0	5.4736240428537165e+17
19322.0	5.4726623623468365e+17
19323.0	5.4716747149038925e+17
19324.0	5.470681866523989e+17
19325.0	5.469680284904106e+17
19326.0	5.4686869681602554e+17
19327.0	5.4676830188557645e+17
19328.0	5.4665515578163194e+17
19329.0	5.4656871236457805e+17
19330.0	5.464666669755051e+17
19331.0	5.4636312764525216e+17
19332.0	5.4626764333602125e+17
19333.0	5.461660860940287e+17
19334.0	5.460664337651028e+17
19335.0	5.459384491922772e+17
19336.0	5.4586475065726285e+17
19337.0	5.4576371672459936e+17
19338.0	5.45643248624162e+17
19339.0	5.455609396723711e+17
19340.0	5.454453064859647e+17
19341.0	5.4533741325844474e+17
19342.0	5.452332439437311e+17
19343.0	5.4514975974795936e+17
19344.0	5.450301439300947e+17
19345.0	5.448142942109694e+17
19346.0	5.447493619111251e+17
19347.0	5.4472345278655136e+17
19348.0	5.4464543635537914e+17
19349.0	5.4454314077607245e+17
19350.0	5.4443809548096845e+17
19351.0	5.4433980741932365e+17
19352.0	5.442221875309226e+17
19353.0	5.4413977651773434e+17
19354.0	5.440378261296468e+17
19355.0	5.439256781302443e+17
19356.0	5.4383228251450003e+17
19357.0	5.437293287090858e+17
19358.0	5.4362499840300365e+17
19359.0	5.43515579916834e+17
19360.0	5.434034607183188e+17
19361.0	5.433118922812074e+17
19362.0	5.432098793280852e+17
19363.0	5.431059200081919e+17
19364.0	5.4300143716925434e+17
19365.0	5.4289667373137914e+17
19366.0	5.4279163032371194e+17
19367.0	5.4268625430773754e+17
19368.0	5.425804680189268e+17
19369.0	5.4247154564901536e+17
19370.0	5.4236608190218234e+17
19371.0	5.4225616569193805e+17
19372.0	5.4215468779219616e+17
19373.0	5.42045557035281e+17
19374.0	5.4193877788480845e+17
19375.0	5.4182862231961594e+17
19376.0	5.4171985164369914e+17
19377.0	5.4160957605150714e+17
19378.0	5.4149979559690234e+17
19379.0	5.4138958634461856e+17
19380.0	5.4127853012254714e+17
19381.0	5.411659809379668e+17
19382.0	5.410457054958932e+17
19383.0	5.409338011855529e+17
19384.0	5.408233827074047e+17
19385.0	5.4070767870716576e+17
19386.0	5.405920739721215e+17
19387.0	5.4047452895204685e+17
19388.0	5.403563849853609e+17
19389.0	5.402359804286292e+17
19390.0	5.401068756271103e+17
19391.0	5.398020442379603e+17
19392.0	5.3982938900288845e+17
19393.0	5.3974230686324045e+17
19394.0	5.396203179780777e+17
19395.0	5.394903583074986e+17
19396.0	5.393635328305834e+17
19397.0	5.392283651626324e+17
19398.0	5.390866984206335e+17
19399.0	5.3891201034267296e+17
19400.0	5.388011272055466e+17
19401.0	5.3867229307644576e+17
19402.0	5.3853077264575136e+17
19403.0	5.383848093286399e+17
19404.0	5.382369616505513e+17
19405.0	5.3807976528827725e+17
19406.0	5.3792612080244045e+17
19407.0	5.3776106976706554e+17
19408.0	5.375597648456361e+17
19409.0	5.3743004299209376e+17
19410.0	5.372681387332949e+17
19411.0	5.3709271497441274e+17
19412.0	5.3690961668778656e+17
19413.0	5.367150464204799e+17
19414.0	5.3651934494938445e+17
19415.0	5.3630602747139405e+17
19416.0	5.360779872873129e+17
19417.0	5.35867637838643e+17
19418.0	5.356358940142249e+17
19419.0	5.353844195546453e+17
19420.0	5.351303173636094e+17
19421.0	5.348664839678634e+17
19422.0	5.345736948449279e+17
19423.0	5.3426139088377165e+17
19424.0	5.339418495112532e+17
19425.0	5.335928058937343e+17
19426.0	5.3321253274692256e+17
19427.0	5.328166976836947e+17
19428.0	5.323735454187519e+17
19429.0	5.3190722990025376e+17
19430.0	5.3141290363125754e+17
19431.0	5.3084441437798394e+17
19432.0	5.302833326850047e+17
19433.0	5.296513144761002e+17
19434.0	5.289260093538303e+17
19435.0	5.281238471759187e+17
19436.0	5.2724108410661536e+17
19437.0	5.26278072607266e+17
19438.0	5.248693972238335e+17
19439.0	5.2391749566682445e+17
19440.0	5.2260653994693965e+17
19441.0	5.2099035948209485e+17
19442.0	5.191601011818496e+17
19443.0	5.170343227774293e+17
19444.0	5.1445535213267603e+17
19445.0	5.113518317633536e+17
19446.0	5.075821058326527e+17
19447.0	5.026775818043389e+17
19448.0	4.961075894157314e+17
19449.0	4.862332798063957e+17
19450.0	4.669425148668574e+17
19451.0	4.5062246912491674e+17
19452.0	4.7868636012653216e+17
19453.0	4.915473564390744e+17
19454.0	4.9923777556206906e+17
19455.0	5.0463941024808954e+17
19456.0	5.0871887658134176e+17
19457.0	5.1189631414872736e+17
19458.0	5.128799484117012e+17
19459.0	5.1653761756910957e+17
19460.0	5.184549900954281e+17
19461.0	5.199995417045673e+17
19462.0	5.213124398066347e+17
19463.0	5.2242986383878816e+17
19464.0	5.233734790589098e+17
19465.0	5.2418951340796576e+17
19466.0	5.249042443403262e+17
19467.0	5.2555164096484685e+17
19468.0	5.261119294450347e+17
19469.0	5.265719853143379e+17
19470.0	5.270081228854613e+17
19471.0	5.273928833783125e+17
19472.0	5.2770727519409485e+17
19473.0	5.2797813719476896e+17
19474.0	5.2823804115681274e+17
19475.0	5.284078457367209e+17
19476.0	5.2864803003869856e+17
19477.0	5.288393402133162e+17
19478.0	5.2897960291205114e+17
19479.0	5.290914800293204e+17
19480.0	5.292137338546858e+17
19481.0	5.292927460136277e+17
19482.0	5.293606408901972e+17
19483.0	5.2942363807798605e+17
19484.0	5.294715447891286e+17
19485.0	5.2950350014272845e+17
19486.0	5.2952018508404045e+17
19487.0	5.2955312134553594e+17
19488.0	5.295640697372671e+17
19489.0	5.295313183047679e+17
19490.0	5.294734765457407e+17
19491.0	5.295400464416767e+17
19492.0	5.295327376572415e+17
19493.0	5.295135306809343e+17
19494.0	5.2948334119922336e+17
19495.0	5.2944731995723085e+17
19496.0	5.293788185843028e+17
19497.0	5.2935767404926285e+17
19498.0	5.292389750363476e+17
19499.0	5.289849354802515e+17
19500.0	5.292241708908543e+17
19501.0	5.291925509417642e+17
19502.0	5.2914835290412365e+17
19503.0	5.2909428825565856e+17
19504.0	5.2903568159539194e+17
19505.0	5.2897481071001594e+17
19506.0	5.289197097189375e+17
19507.0	5.2885350808289274e+17
19508.0	5.2878786009497594e+17
19509.0	5.2871439909737805e+17
19510.0	5.2861276768610976e+17
19511.0	5.277488301211642e+17
19512.0	5.284019742004564e+17
19513.0	5.2831348354362e+17
19514.0	5.282674568593406e+17
19515.0	5.282615381371562e+17
19516.0	5.2821148464141645e+17
19517.0	5.281391582030506e+17
19518.0	5.280670435071315e+17
19519.0	5.279910289473534e+17
19520.0	5.2790432128914765e+17
19521.0	5.2783755663769594e+17
19522.0	5.277529318009515e+17
19523.0	5.2767481820173645e+17
19524.0	5.275885610816854e+17
19525.0	5.275139666433364e+17
19526.0	5.274324945250985e+17
19527.0	5.2734905332094285e+17
19528.0	5.272651366924287e+17
19529.0	5.2718237783162874e+17
19530.0	5.271009640142164e+17
19531.0	5.270164726262443e+17
19532.0	5.2693158564549965e+17
19533.0	5.268463295660032e+17
19534.0	5.2676051669265056e+17
19535.0	5.2667256423492256e+17
19536.0	5.2658433425408e+17
19537.0	5.2649974199309645e+17
19538.0	5.2638716456686925e+17
19539.0	5.262972119154687e+17
19540.0	5.2623840322955936e+17
19541.0	5.2615319929924256e+17
19542.0	5.2606664130778445e+17
19543.0	5.259690369875967e+17
19544.0	5.25886600389154e+17
19545.0	5.2575493643304954e+17
19546.0	5.256552796301993e+17
19547.0	5.256232568182101e+17
19548.0	5.2553971103607443e+17
19549.0	5.2544232069529594e+17
19550.0	5.253637168518485e+17
19551.0	5.252749524467711e+17
19552.0	5.2518562306894496e+17
19553.0	5.250944890918227e+17
19554.0	5.2500463906106016e+17
19555.0	5.249150052466687e+17
19556.0	5.2482746732598605e+17
19557.0	5.2473842441912314e+17
19558.0	5.2464844093958816e+17
19559.0	5.2455876231604896e+17
19560.0	5.2446271708856314e+17
19561.0	5.243761530852694e+17
19562.0	5.242843883547306e+17
19563.0	5.241986028841642e+17
19564.0	5.241082842098346e+17
19565.0	5.240178241175551e+17
19566.0	5.2392536788609696e+17
19567.0	5.23836550423074e+17
19568.0	5.237440112842068e+17
19569.0	5.2365392728118605e+17
19570.0	5.235651911177557e+17
19571.0	5.234741993974442e+17
19572.0	5.2338008431875405e+17
19573.0	5.2329077108899834e+17
19574.0	5.231922907185151e+17
19575.0	5.2311127969409696e+17
19576.0	5.23019138245154e+17
19577.0	5.2292507999928314e+17
19578.0	5.2283585009636685e+17
19579.0	5.227442019674794e+17
19580.0	5.2265347064354125e+17
19581.0	5.225642571683156e+17
19582.0	5.224740882306389e+17
19583.0	5.2238298599041696e+17
19584.0	5.2229165564996256e+17
19585.0	5.221889652468393e+17
19586.0	5.2209509511550285e+17
19587.0	5.2201300098198176e+17
19588.0	5.218968547622911e+17
19589.0	5.218279308132351e+17
19590.0	5.21733377499682e+17
19591.0	5.2165159919725216e+17
19592.0	5.2156149212555936e+17
19593.0	5.2146754950266874e+17
19594.0	5.2135343961757e+17
19595.0	5.212855504033109e+17
19596.0	5.2119430338969594e+17
19597.0	5.2110234103753363e+17
19598.0	5.2097306531812685e+17
19599.0	5.2091910496802125e+17
19600.0	5.2083009512625485e+17
19601.0	5.2073296923634336e+17
19602.0	5.2063661314102605e+17
19603.0	5.205312762019839e+17
19604.0	5.2045639466352634e+17
19605.0	5.2034899818141005e+17
19606.0	5.202809927150251e+17
19607.0	5.2019137672642554e+17
19608.0	5.2009878893363194e+17
19609.0	5.200050334466047e+17
19610.0	5.1991243600691194e+17
19611.0	5.198182228514132e+17
19612.0	5.1973534522190496e+17
19613.0	5.1964297490377376e+17
19614.0	5.1954852952364365e+17
19615.0	5.1946014994595834e+17
19616.0	5.1936158820597766e+17
19617.0	5.1926400499711994e+17
19618.0	5.191327543197694e+17
19619.0	5.190265720886612e+17
19620.0	5.1895374093571405e+17
19621.0	5.1889550176638285e+17
19622.0	5.188196282750292e+17
19623.0	5.1872885934216525e+17
19624.0	5.186358760265044e+17
19625.0	5.1854703053154976e+17
19626.0	5.1845478422500685e+17
19627.0	5.1836237580861414e+17
19628.0	5.182668654946985e+17
19629.0	5.1813806722689696e+17
19630.0	5.180419723668138e+17
19631.0	5.17905369408034e+17
19632.0	5.178886638447273e+17
19633.0	5.1780775816724474e+17
19634.0	5.177239212305066e+17
19635.0	5.1763004998068896e+17
19636.0	5.175321526184617e+17
19637.0	5.174095675828907e+17
19638.0	5.173604326397268e+17
19639.0	5.17268953890816e+17
19640.0	5.171558211387392e+17
19641.0	5.1699693691863046e+17
19642.0	5.169934749401087e+17
19643.0	5.169033010391722e+17
19644.0	5.16805766484241e+17
19645.0	5.1670734651173536e+17
19646.0	5.16619813204787e+17
19647.0	5.165422704503465e+17
19648.0	5.164513675793749e+17
19649.0	5.163603576138409e+17
19650.0	5.1626998035906554e+17
19651.0	5.161783882241364e+17
19652.0	5.1608731408575136e+17
19653.0	5.159970001649662e+17
19654.0	5.1590531219019085e+17
