# Flux units: erg / (cm m2 s)
# Wavelength units: Angstrom
wave	flux
19000.0	4.62458900779281e+17
19001.0	4.62361324630835e+17
19002.0	4.622972332889429e+17
19003.0	4.622153549523626e+17
19004.0	4.62128400109841e+17
19005.0	4.620464260033194e+17
19006.0	4.6195160327563936e+17
19007.0	4.618908235464702e+17
19008.0	4.618007024937642e+17
19009.0	4.6171908979643725e+17
19010.0	4.6156316759381306e+17
19011.0	4.615599486053034e+17
19012.0	4.614445395345407e+17
19013.0	4.6140554215423994e+17
19014.0	4.613154102662484e+17
19015.0	4.612311988480681e+17
19016.0	4.611501983793151e+17
19017.0	4.61080728052258e+17
19018.0	4.6099720470964896e+17
19019.0	4.6091594440376314e+17
19020.0	4.60836146581777e+17
19021.0	4.607569015690581e+17
19022.0	4.606767709989546e+17
19023.0	4.605843612543658e+17
19024.0	4.604970725452457e+17
19025.0	4.6043232367629645e+17
19026.0	4.6034646865018874e+17
19027.0	4.6025282039753376e+17
19028.0	4.601896506141353e+17
19029.0	4.6010598648272205e+17
19030.0	4.600272393338879e+17
19031.0	4.599486754761385e+17
19032.0	4.59868983070993e+17
19033.0	4.5977389211757216e+17
19034.0	4.5970586246403405e+17
19035.0	4.5962491288616954e+17
19036.0	4.583047339616925e+17
19037.0	4.5946397499501216e+17
19038.0	4.593811500739242e+17
19039.0	4.593018028599978e+17
19040.0	4.5922092689216845e+17
19041.0	4.5913992796132685e+17
19042.0	4.585243473696078e+17
19043.0	4.58983207862272e+17
19044.0	4.5890243835985914e+17
19045.0	4.5881868985303034e+17
19046.0	4.587313997458091e+17
19047.0	4.586602268109482e+17
19048.0	4.5847622269446803e+17
19049.0	4.573956935079239e+17
19050.0	4.5840945860225696e+17
19051.0	4.58094637848985e+17
19052.0	4.5824741914705914e+17
19053.0	4.5817933112279034e+17
19054.0	4.5809719490641914e+17
19055.0	4.578243445959338e+17
19056.0	4.57886815957811e+17
19057.0	4.578580222006613e+17
19058.0	4.5721676219241715e+17
19059.0	4.5747498465798803e+17
19060.0	4.576147111149566e+17
19061.0	4.5753508197389645e+17
19062.0	4.574537952438955e+17
19063.0	4.5737701424496634e+17
19064.0	4.572799156180309e+17
19065.0	4.5719568812168525e+17
19066.0	4.5692237552899437e+17
19067.0	4.5705009648981325e+17
19068.0	4.5697746449640096e+17
19069.0	4.568967918125055e+17
19070.0	4.5680981592855885e+17
19071.0	4.5673392258416634e+17
19072.0	4.564408003635879e+17
19073.0	4.5657678319452154e+17
19074.0	4.564938354502314e+17
19075.0	4.5641733309289805e+17
19076.0	4.5632120083360416e+17
19077.0	4.5625427875594234e+17
19078.0	4.5616849237661e+17
19079.0	4.560951691618987e+17
19080.0	4.560159152013311e+17
19081.0	4.559296110351702e+17
19082.0	4.5585169750425594e+17
19083.0	4.557683129931093e+17
19084.0	4.5567322155035315e+17
19085.0	4.556150075468458e+17
19086.0	4.5521920743615123e+17
19087.0	4.549654436555429e+17
19088.0	4.550998053180752e+17
19089.0	4.5525967254323194e+17
19090.0	4.552168428972714e+17
19091.0	4.5510445155833197e+17
19092.0	4.5461857464483955e+17
19093.0	4.54980068774161e+17
19094.0	4.549007892982442e+17
19095.0	4.54819750940945e+17
19096.0	4.5473940632152736e+17
19097.0	4.546618674817706e+17
19098.0	4.543591948309843e+17
19099.0	4.5423127953408026e+17
19100.0	4.544177493420714e+17
19101.0	4.5434099938099194e+17
19102.0	4.542422054163797e+17
19103.0	4.541821062829396e+17
19104.0	4.5410659699698336e+17
19105.0	4.535363582296078e+17
19106.0	4.5393650147218765e+17
19107.0	4.537477536677884e+17
19108.0	4.536023690947243e+17
19109.0	4.536412477063166e+17
19110.0	4.536281874126166e+17
19111.0	4.5341085067291283e+17
19112.0	4.532951250720082e+17
19113.0	4.5338916325512525e+17
19114.0	4.5321743796360506e+17
19115.0	4.5319874849450656e+17
19116.0	4.531425955020798e+17
19117.0	4.5306563414807885e+17
19118.0	4.5294179347770016e+17
19119.0	4.509562685445433e+17
19120.0	4.528021455241214e+17
19121.0	4.527430370852863e+17
19122.0	4.5267742775487123e+17
19123.0	4.526000267679061e+17
19124.0	4.52514360135953e+17
19125.0	4.5244101937506976e+17
19126.0	4.523623954688681e+17
19127.0	4.5200592611573715e+17
19128.0	4.5220135712413005e+17
19129.0	4.5211502674356896e+17
19130.0	4.520456063287295e+17
19131.0	4.519673139822591e+17
19132.0	4.518862382956542e+17
19133.0	4.518036801323007e+17
19134.0	4.517292889079808e+17
19135.0	4.5165058237399034e+17
19136.0	4.515713538588672e+17
19137.0	4.5146604327403514e+17
19138.0	4.514130669076479e+17
19139.0	4.513369437853013e+17
19140.0	4.5125801551243936e+17
19141.0	4.511784113274879e+17
19142.0	4.510953285266089e+17
19143.0	4.51010175696896e+17
19144.0	4.509370508727636e+17
19145.0	4.5086207440322554e+17
19146.0	4.5070043739149664e+17
19147.0	4.5067920386730656e+17
19148.0	4.5044467670275437e+17
19149.0	4.5033083769978874e+17
19150.0	4.504692892281514e+17
19151.0	4.5038994585900365e+17
19152.0	4.5031165546987514e+17
19153.0	4.4984417938745946e+17
19154.0	4.501060919317845e+17
19155.0	4.5007701806503245e+17
19156.0	4.499977234896213e+17
19157.0	4.4979826706787014e+17
19158.0	4.495250306017965e+17
19159.0	4.4975102221789856e+17
19160.0	4.49681339589154e+17
19161.0	4.496044760323412e+17
19162.0	4.494254551684438e+17
19163.0	4.4944858528699725e+17
19164.0	4.4936873741298336e+17
19165.0	4.488700123676665e+17
19166.0	4.4918658438266874e+17
19167.0	4.4911852404080634e+17
19168.0	4.4905598004756474e+17
19169.0	4.489735284894378e+17
19170.0	4.488997282425514e+17
19171.0	4.4880990156008096e+17
19172.0	4.487416315030187e+17
19173.0	4.486648727339007e+17
19174.0	4.4857719765947744e+17
19175.0	4.485072243654656e+17
19176.0	4.4843019415497376e+17
19177.0	4.483301766419796e+17
19178.0	4.482622666659158e+17
19179.0	4.4817005489247565e+17
19180.0	4.4811542219543885e+17
19181.0	4.480091686611626e+17
19182.0	4.479529767316138e+17
19183.0	4.4788147433417376e+17
19184.0	4.478013965423957e+17
19185.0	4.4772286456135674e+17
19186.0	4.4764772430424736e+17
19187.0	4.475624188717737e+17
19188.0	4.474903701662378e+17
19189.0	4.4741425193724576e+17
19190.0	4.473370395541504e+17
19191.0	4.4725065206114976e+17
19192.0	4.4717998922356045e+17
19193.0	4.4705495282701664e+17
19194.0	4.469470688968704e+17
19195.0	4.469459144845994e+17
19196.0	4.468654217363455e+17
19197.0	4.4678799530393594e+17
19198.0	4.467108664573951e+17
19199.0	4.458159827582974e+17
19200.0	4.460498746256047e+17
19201.0	4.464757588710741e+17
19202.0	4.464022983628117e+17
19203.0	4.4632116877940045e+17
19204.0	4.4624292152169805e+17
19205.0	4.4616764571866445e+17
19206.0	4.4608846054468256e+17
19207.0	4.4599720122777594e+17
19208.0	4.4589080788336614e+17
19209.0	4.4585567450562554e+17
19210.0	4.4577544208383994e+17
19211.0	4.4570123995272525e+17
19212.0	4.456240809771007e+17
19213.0	4.4552899449760416e+17
19214.0	4.4544598831267846e+17
19215.0	4.4538954528413005e+17
19216.0	4.4531456909421216e+17
19217.0	4.4523728505842336e+17
19218.0	4.450391515900584e+17
19219.0	4.4506301319522976e+17
19220.0	4.450011624505344e+17
19221.0	4.448787906254165e+17
19222.0	4.4484672153627296e+17
19223.0	4.447680358339925e+17
19224.0	4.4468746570082976e+17
19225.0	4.4459447979868154e+17
19226.0	4.445375865815039e+17
19227.0	4.444598606058838e+17
19228.0	4.443854542121643e+17
19229.0	4.4430339782737914e+17
19230.0	4.4422821835352736e+17
19231.0	4.441524120409429e+17
19232.0	4.440758394290175e+17
19233.0	4.439893484765183e+17
19234.0	4.439161035554814e+17
19235.0	4.438391882689194e+17
19236.0	4.437667425026047e+17
19237.0	4.436847419020629e+17
19238.0	4.435962339786752e+17
19239.0	4.4353532010168314e+17
19240.0	4.4345575960739834e+17
19241.0	4.43378228736819e+17
19242.0	4.43298482295057e+17
19243.0	4.432071304238421e+17
19244.0	4.4314786092373325e+17
19245.0	4.4306977836236794e+17
19246.0	4.4299272634149536e+17
19247.0	4.429173637163691e+17
19248.0	4.4284043521774925e+17
19249.0	4.427533544062976e+17
19250.0	4.426090059661312e+17
19251.0	4.4252446879034e+17
19252.0	4.424963569571157e+17
19253.0	4.4245109852951885e+17
19254.0	4.4237923402383354e+17
19255.0	4.4227596949039776e+17
19256.0	4.4221977553360205e+17
19257.0	4.421476620260693e+17
19258.0	4.420702406268244e+17
19259.0	4.419859029600938e+17
19260.0	4.4187039371537056e+17
19261.0	4.418393608989353e+17
19262.0	4.4175230930780154e+17
19263.0	4.416740531022506e+17
19264.0	4.4152418544735565e+17
19265.0	4.414976980680702e+17
19266.0	4.413920917848064e+17
19267.0	4.413797815025664e+17
19268.0	4.413008721040726e+17
19269.0	4.4122572066215245e+17
19270.0	4.411494344512853e+17
19271.0	4.410166175509164e+17
19272.0	4.409912550140587e+17
19273.0	4.40891481329937e+17
19274.0	4.407896260826452e+17
19275.0	4.407671347565908e+17
19276.0	4.406876399031636e+17
19277.0	4.4061281617619616e+17
19278.0	4.405291338694655e+17
19279.0	4.404572625130836e+17
19280.0	4.403707008166569e+17
19281.0	4.403058529621332e+17
19282.0	4.4023134981980154e+17
19283.0	4.4014601649520634e+17
19284.0	4.400740879564799e+17
19285.0	4.3997583030353914e+17
19286.0	4.399194784311978e+17
19287.0	4.3984692361297914e+17
19288.0	4.395114620605781e+17
19289.0	4.387900600877035e+17
19290.0	4.396201430482943e+17
19291.0	4.395104750010368e+17
19292.0	4.394665609876821e+17
19293.0	4.39388795305984e+17
19294.0	4.3931143542319763e+17
19295.0	4.392371245197993e+17
19296.0	4.3892494149440915e+17
19297.0	4.390457272434689e+17
19298.0	4.3900450897919994e+17
19299.0	4.386684141568001e+17
19300.0	4.3885216284016634e+17
19301.0	4.3877870058427725e+17
19302.0	4.387032063978153e+17
19303.0	4.386144665993215e+17
19304.0	4.385462505089706e+17
19305.0	4.384718659955369e+17
19306.0	4.383976102472362e+17
19307.0	4.3831162177235616e+17
19308.0	4.382407937490944e+17
19309.0	4.381373879375189e+17
19310.0	4.380573685164713e+17
19311.0	4.3800570377885e+17
19312.0	4.379271747338238e+17
19313.0	4.378263315021824e+17
19314.0	4.3310234849334125e+17
19315.0	4.332747592739572e+17
19316.0	4.372974239656624e+17
19317.0	4.375470581044565e+17
19318.0	4.374795621761023e+17
19319.0	4.374063402538325e+17
19320.0	4.3724324208639974e+17
19321.0	4.370480121948842e+17
19322.0	4.371740032849238e+17
19323.0	4.3709726751457274e+17
19324.0	4.3703112655612576e+17
19325.0	4.3692638220233376e+17
19326.0	4.3688079277424634e+17
19327.0	4.36802231083554e+17
19328.0	4.3628549010445696e+17
19329.0	4.3665407365611514e+17
19330.0	4.3657321949866656e+17
19331.0	4.3649752146903034e+17
19332.0	4.364274860294143e+17
19333.0	4.3635015816314874e+17
19334.0	4.362644995702785e+17
19335.0	4.35296236592607e+17
19336.0	4.361179467437397e+17
19337.0	4.3604860804792314e+17
19338.0	4.3594407578610336e+17
19339.0	4.3589489994847565e+17
19340.0	4.357642142438739e+17
19341.0	4.354136543854599e+17
19342.0	4.355247873632941e+17
19343.0	4.3559569787453446e+17
19344.0	4.351890604512602e+17
19345.0	4.3493328417368685e+17
19346.0	4.3527547611600224e+17
19347.0	4.3487469093519354e+17
19348.0	4.3521892361611936e+17
19349.0	4.3513822366924794e+17
19350.0	4.3491271327962445e+17
19351.0	4.349829197769386e+17
19352.0	4.344663523022157e+17
19353.0	4.3484048624626336e+17
19354.0	4.347667356319743e+17
19355.0	4.3467810425623885e+17
19356.0	4.3461460249367885e+17
19357.0	4.3454031109379405e+17
19358.0	4.34464668848401e+17
19359.0	4.342921992077307e+17
19360.0	4.3396145352103245e+17
19361.0	4.3423240695753376e+17
19362.0	4.3416401009268045e+17
19363.0	4.3408910995947514e+17
19364.0	4.340145068528981e+17
19365.0	4.339376602131114e+17
19366.0	4.338606485274623e+17
19367.0	4.337873501989546e+17
19368.0	4.33713650335744e+17
19369.0	4.3363215158367565e+17
19370.0	4.3356075278554445e+17
19371.0	4.334801268681385e+17
19372.0	4.3341163947622394e+17
19373.0	4.3333358550603085e+17
19374.0	4.3326040294031354e+17
19375.0	4.331879627664042e+17
19376.0	4.331136948546218e+17
19377.0	4.3303739046843725e+17
19378.0	4.3296352108543994e+17
19379.0	4.3288869861676365e+17
19380.0	4.3280933301780474e+17
19381.0	4.3273426322500256e+17
19382.0	4.3265314112143354e+17
19383.0	4.3257320502722554e+17
19384.0	4.325073372577791e+17
19385.0	4.32437756760337e+17
19386.0	4.3236367885052576e+17
19387.0	4.322885796276906e+17
19388.0	4.322075357478911e+17
19389.0	4.321166447607807e+17
19390.0	4.320411483373567e+17
19391.0	4.308002810451266e+17
19392.0	4.3188774670172154e+17
19393.0	4.3181349374962336e+17
19394.0	4.317377667093844e+17
19395.0	4.315297694263982e+17
19396.0	4.315567490072576e+17
19397.0	4.315112203965781e+17
19398.0	4.313244892834474e+17
19399.0	4.3107859436666854e+17
19400.0	4.31185992806127e+17
19401.0	4.312073521594367e+17
19402.0	4.311336268507817e+17
19403.0	4.310554450242218e+17
19404.0	4.309792742266197e+17
19405.0	4.3089991261224954e+17
19406.0	4.3082729089488205e+17
19407.0	4.30593187075413e+17
19408.0	4.305433463706969e+17
19409.0	4.3059644800696314e+17
19410.0	4.305222606258176e+17
19411.0	4.3044454751272954e+17
19412.0	4.303656589459455e+17
19413.0	4.30125621374703e+17
19414.0	4.302067420801706e+17
19415.0	4.3013299538056525e+17
19416.0	4.300289541319337e+17
19417.0	4.2996140752240634e+17
19418.0	4.298989615360682e+17
19419.0	4.2981889402033485e+17
19420.0	4.297404115320832e+17
19421.0	4.296596903340714e+17
19422.0	4.2957239379558394e+17
19423.0	4.2949651750802765e+17
19424.0	4.294149731778559e+17
19425.0	4.293298598445056e+17
19426.0	4.2924689063935994e+17
19427.0	4.291613513045331e+17
19428.0	4.290730050715647e+17
19429.0	4.289859039177387e+17
19430.0	4.288850391553366e+17
19431.0	4.285164716818439e+17
19432.0	4.2870192227396256e+17
19433.0	4.285991939123883e+17
19434.0	4.284928997632683e+17
19435.0	4.2835585213835936e+17
19436.0	4.281026240402769e+17
19437.0	4.280896000273066e+17
19438.0	4.256682699915271e+17
19439.0	4.2757659295743994e+17
19440.0	4.276238968072874e+17
19441.0	4.2742870948795725e+17
19442.0	4.271715330118998e+17
19443.0	4.268320120722772e+17
19444.0	4.263816170132821e+17
19445.0	4.257423794984276e+17
19446.0	4.2476577719582714e+17
19447.0	4.231472419089065e+17
19448.0	4.201077707986263e+17
19449.0	4.1355686025625594e+17
19450.0	3.998083415976613e+17
19451.0	3.909378750371157e+17
19452.0	4.038020388880385e+17
19453.0	4.154932293446318e+17
19454.0	4.206486268586665e+17
19455.0	4.23040126025728e+17
19456.0	4.242778753422677e+17
19457.0	4.2491355587761485e+17
19458.0	4.0937878695447155e+17
19459.0	4.248578718083782e+17
19460.0	4.2584298966657696e+17
19461.0	4.2598644381122554e+17
19462.0	4.2605284963997e+17
19463.0	4.260876799093419e+17
19464.0	4.2609233901213e+17
19465.0	4.2608663629660154e+17
19466.0	4.2606199203430394e+17
19467.0	4.260367733620736e+17
19468.0	4.259995606581246e+17
19469.0	4.255949985764687e+17
19470.0	4.259073379794944e+17
19471.0	4.258571171310249e+17
19472.0	4.2579517683793914e+17
19473.0	4.2573563540712096e+17
19474.0	4.253566199223631e+17
19475.0	4.254662679068668e+17
19476.0	4.255537824792575e+17
19477.0	4.254926953775104e+17
19478.0	4.254347043711659e+17
19479.0	4.250551386636281e+17
19480.0	4.252989694235989e+17
19481.0	4.25220044296465e+17
19482.0	4.2516262462423034e+17
19483.0	4.25100545499682e+17
19484.0	4.250282897353386e+17
19485.0	4.2495244679249914e+17
19486.0	4.2455437246027194e+17
19487.0	4.248204719685631e+17
19488.0	4.2475478769991674e+17
19489.0	4.246817575272447e+17
19490.0	4.243521314400934e+17
19491.0	4.2453647312814074e+17
19492.0	4.2447139130135885e+17
19493.0	4.2439961159051955e+17
19494.0	4.243263460474879e+17
19495.0	4.2425365994755405e+17
19496.0	4.2409811691001165e+17
19497.0	4.240919046564521e+17
19498.0	4.237809611177983e+17
19499.0	4.223316411110734e+17
19500.0	4.2386368684359674e+17
19501.0	4.2383987249425056e+17
19502.0	4.2378271412715526e+17
19503.0	4.2371303415480314e+17
19504.0	4.2364010716200954e+17
19505.0	4.2356074310096205e+17
19506.0	4.2349594956267514e+17
19507.0	4.234172261116586e+17
19508.0	4.2334598229306016e+17
19509.0	4.2326534540055885e+17
19510.0	4.23073522332467e+17
19511.0	4.1582908648979776e+17
19512.0	4.2275695458167334e+17
19513.0	4.223681145689417e+17
19514.0	4.225287945803088e+17
19515.0	4.227511616886105e+17
19516.0	4.227257865688404e+17
19517.0	4.226755188839764e+17
19518.0	4.22532769592115e+17
19519.0	4.224569028815529e+17
19520.0	4.221684046714193e+17
19521.0	4.2240653558196896e+17
19522.0	4.222862602797055e+17
19523.0	4.221884845522945e+17
19524.0	4.21951547200854e+17
19525.0	4.221086596770474e+17
19526.0	4.2204195325651616e+17
19527.0	4.219678907258197e+17
19528.0	4.218745016811518e+17
19529.0	4.217903630341461e+17
19530.0	4.217530760910164e+17
19531.0	4.2168012120610125e+17
19532.0	4.216068645410133e+17
19533.0	4.215328499651925e+17
19534.0	4.214626205390165e+17
19535.0	4.213884460903083e+17
19536.0	4.213118130804053e+17
19537.0	4.212423361822719e+17
19538.0	4.208790031302659e+17
19539.0	4.2099902740343514e+17
19540.0	4.2102442167719245e+17
19541.0	4.208926588054185e+17
19542.0	4.208558863635797e+17
19543.0	4.2050286088355866e+17
19544.0	4.207200256567978e+17
19545.0	4.206083479087781e+17
19546.0	4.2042736578833075e+17
19547.0	4.205228140265472e+17
19548.0	4.204498617980245e+17
19549.0	4.2036374302010016e+17
19550.0	4.2030140958091936e+17
19551.0	4.202333907626666e+17
19552.0	4.201584171592362e+17
19553.0	4.2008549967353165e+17
19554.0	4.200055641385643e+17
19555.0	4.1990758890209286e+17
19556.0	4.1984618918488736e+17
19557.0	4.1979511213916154e+17
19558.0	4.197259289122134e+17
19559.0	4.196545015229097e+17
19560.0	4.1947244950541626e+17
19561.0	4.1950655828459526e+17
19562.0	4.193322086170621e+17
19563.0	4.1936714269545805e+17
19564.0	4.1929025956522656e+17
19565.0	4.192212046839808e+17
19566.0	4.1914315630619296e+17
19567.0	4.190784097441108e+17
19568.0	4.19003931627793e+17
19569.0	4.1893134059874976e+17
19570.0	4.18860329144593e+17
19571.0	4.1878864226768205e+17
19572.0	4.187139377288534e+17
19573.0	4.1861018889311565e+17
19574.0	4.185507036659711e+17
19575.0	4.1850306175522125e+17
19576.0	4.18414109724945e+17
19577.0	4.1830851308858016e+17
19578.0	4.1828048430257485e+17
19579.0	4.1821175503912954e+17
19580.0	4.1813985033803085e+17
19581.0	4.1806573957283834e+17
19582.0	4.18000079491345e+17
19583.0	4.179294170731862e+17
19584.0	4.17855069749248e+17
19585.0	4.177701949319849e+17
19586.0	4.1769527809146874e+17
19587.0	4.1763657139705165e+17
19588.0	4.174947415665324e+17
19589.0	4.1749616476378464e+17
19590.0	4.1740285869643085e+17
19591.0	4.17353301107234e+17
19592.0	4.172814219913897e+17
19593.0	4.171826836013055e+17
19594.0	4.1708005142910266e+17
19595.0	4.170650567223978e+17
19596.0	4.169911084864853e+17
19597.0	4.1692363185192954e+17
19598.0	4.167451880543571e+17
19599.0	4.167808801133908e+17
19600.0	4.167091614995796e+17
19601.0	4.166291495583743e+17
19602.0	4.165614620901375e+17
19603.0	4.164193687175167e+17
19604.0	4.164203427747155e+17
19605.0	4.1630958134231046e+17
19606.0	4.1627888497896096e+17
19607.0	4.1621030069862394e+17
19608.0	4.161331695452159e+17
19609.0	4.160589827932159e+17
19610.0	4.1584910079972717e+17
19611.0	4.157024856877739e+17
19612.0	4.158534763675648e+17
19613.0	4.1577836274428576e+17
19614.0	4.157053402611712e+17
19615.0	4.156397347755349e+17
19616.0	4.154136120175277e+17
19617.0	4.152729977662125e+17
19618.0	4.1532973495528083e+17
19619.0	4.151945946202109e+17
19620.0	4.150966095970298e+17
19621.0	4.1489178180976614e+17
19622.0	4.151405789751978e+17
19623.0	4.150563855226197e+17
19624.0	4.149579295490048e+17
19625.0	4.1492701682947405e+17
19626.0	4.148536332866902e+17
19627.0	4.1478541209326925e+17
19628.0	4.146958403545771e+17
19629.0	4.1387474886328275e+17
19630.0	4.145675301639509e+17
19631.0	4.1380405282078656e+17
19632.0	4.144279967148714e+17
19633.0	4.1434935589164365e+17
19634.0	4.142867326260565e+17
19635.0	4.1418052117463014e+17
19636.0	4.137807692606119e+17
19637.0	4.136863770083324e+17
19638.0	4.1397795348807654e+17
19639.0	4.1392960385843194e+17
19640.0	4.138537093256533e+17
19641.0	4.135059272848737e+17
19642.0	4.136973666440533e+17
19643.0	4.1362534687921485e+17
19644.0	4.135691897623891e+17
19645.0	4.13462538887714e+17
19646.0	4.130526361987748e+17
19647.0	4.133574767454889e+17
19648.0	4.132951816841898e+17
19649.0	4.132217954151082e+17
19650.0	4.131527416523434e+17
19651.0	4.1308210160380576e+17
19652.0	4.130113004939946e+17
19653.0	4.129392717813076e+17
19654.0	4.128701461561344e+17
19655.0	4.1279643776450554e+17
