# Flux units: erg / (cm m2 s)
# Wavelength units: Angstrom
wave	flux
19000.0	5.681195668996096e+17
19001.0	5.6792686330729786e+17
19002.0	5.6791975955442336e+17
19003.0	5.678116519280639e+17
19004.0	5.6771271060357114e+17
19005.0	5.675988813873151e+17
19006.0	5.674956104925183e+17
19007.0	5.673886946776404e+17
19008.0	5.672497519263743e+17
19009.0	5.6703932376459936e+17
19010.0	5.66889135874594e+17
19011.0	5.669311316929193e+17
19012.0	5.6679500297011174e+17
19013.0	5.667788504257877e+17
19014.0	5.666363892127059e+17
19015.0	5.665412078720341e+17
19016.0	5.6647126561587194e+17
19017.0	5.6637158539482445e+17
19018.0	5.662690868112041e+17
19019.0	5.661722441067177e+17
19020.0	5.6606517177439565e+17
19021.0	5.6597719296245754e+17
19022.0	5.658721799634944e+17
19023.0	5.657363110778196e+17
19024.0	5.6564175713512083e+17
19025.0	5.655572672850602e+17
19026.0	5.6545164415467514e+17
19027.0	5.653530127193428e+17
19028.0	5.652511111249919e+17
19029.0	5.651387475383636e+17
19030.0	5.650589965527721e+17
19031.0	5.6495244375490554e+17
19032.0	5.648439161389055e+17
19033.0	5.6464283680112614e+17
19034.0	5.6456676254242125e+17
19035.0	5.6418794530843296e+17
19036.0	5.630612543111167e+17
19037.0	5.640541330997247e+17
19038.0	5.641602403926015e+17
19039.0	5.6411760634101754e+17
19040.0	5.640328941928447e+17
19041.0	5.639344725426175e+17
19042.0	5.63541544691302e+17
19043.0	5.637407749701631e+17
19044.0	5.636316175794175e+17
19045.0	5.635277431242751e+17
19046.0	5.6339206235313485e+17
19047.0	5.632782766178303e+17
19048.0	5.6311134254967456e+17
19049.0	5.625792602046456e+17
19050.0	5.6292345877189965e+17
19051.0	5.626868309600937e+17
19052.0	5.6268106588924576e+17
19053.0	5.6268825688364365e+17
19054.0	5.626093004390399e+17
19055.0	5.6222916150995706e+17
19056.0	5.6238069311515296e+17
19057.0	5.623231223081641e+17
19058.0	5.6198519366614995e+17
19059.0	5.6203450616818336e+17
19060.0	5.6202042449155405e+17
19061.0	5.6192235306571085e+17
19062.0	5.618163332939775e+17
19063.0	5.617112824064681e+17
19064.0	5.6156351092490246e+17
19065.0	5.61387959938799e+17
19066.0	5.612777648073386e+17
19067.0	5.6130559338523296e+17
19068.0	5.6121848810700794e+17
19069.0	5.611190006142292e+17
19070.0	5.6099938801199776e+17
19071.0	5.6091232789244576e+17
19072.0	5.6073296120818323e+17
19073.0	5.6071513674437965e+17
19074.0	5.6061774367730336e+17
19075.0	5.605158658506751e+17
19076.0	5.6040873906230605e+17
19077.0	5.602984599049556e+17
19078.0	5.60182399738402e+17
19079.0	5.601092308740777e+17
19080.0	5.5999948180684794e+17
19081.0	5.59861223006754e+17
19082.0	5.5979714816245754e+17
19083.0	5.5962701607731174e+17
19084.0	5.594102737403903e+17
19085.0	5.5948783292252154e+17
19086.0	5.5895746269238566e+17
19087.0	5.590948873153192e+17
19088.0	5.590147182275239e+17
19089.0	5.58937881024922e+17
19090.0	5.589707674441045e+17
19091.0	5.5887072071079264e+17
19092.0	5.5856692839055405e+17
19093.0	5.5869867595311776e+17
19094.0	5.5860002249768954e+17
19095.0	5.585015013725524e+17
19096.0	5.583992571734698e+17
19097.0	5.582996448302421e+17
19098.0	5.5810202516411706e+17
19099.0	5.5798075944686944e+17
19100.0	5.579817942515711e+17
19101.0	5.578738276936362e+17
19102.0	5.5774237366244685e+17
19103.0	5.576866893135871e+17
19104.0	5.575974401168724e+17
19105.0	5.5728104566074074e+17
19106.0	5.573870920663039e+17
19107.0	5.572287489114111e+17
19108.0	5.570973023600639e+17
19109.0	5.570627951220052e+17
19110.0	5.569717402774185e+17
19111.0	5.568207698001919e+17
19112.0	5.567133104734206e+17
19113.0	5.5668218237637965e+17
19114.0	5.565324605434537e+17
19115.0	5.56432420171503e+17
19116.0	5.5633029397217274e+17
19117.0	5.5617523083291296e+17
19118.0	5.555514150748161e+17
19119.0	5.5080713897464794e+17
19120.0	5.556226153425579e+17
19121.0	5.55796081479953e+17
19122.0	5.5574831499837434e+17
19123.0	5.5565639130371405e+17
19124.0	5.5553167772876794e+17
19125.0	5.554071430408874e+17
19126.0	5.5515001633723725e+17
19127.0	5.545934733006165e+17
19128.0	5.5492166787181216e+17
19129.0	5.5493876294615014e+17
19130.0	5.5494735707504634e+17
19131.0	5.548777652529834e+17
19132.0	5.5478463248029005e+17
19133.0	5.546566871242068e+17
19134.0	5.5458593725480954e+17
19135.0	5.5448663361235616e+17
19136.0	5.5437610831926605e+17
19137.0	5.542481082275156e+17
19138.0	5.5417231610565965e+17
19139.0	5.5409539068286285e+17
19140.0	5.540020786036735e+17
19141.0	5.5390329044118176e+17
19142.0	5.537747549465257e+17
19143.0	5.536813668106239e+17
19144.0	5.535653533406547e+17
19145.0	5.534982471330473e+17
19146.0	5.528402943541253e+17
19147.0	5.532748478764373e+17
19148.0	5.531260276790613e+17
19149.0	5.530154230437205e+17
19150.0	5.530077738915157e+17
19151.0	5.529044940488703e+17
19152.0	5.528027600868692e+17
19153.0	5.525188805044903e+17
19154.0	5.525606997426175e+17
19155.0	5.524919871165781e+17
19156.0	5.524006292335274e+17
19157.0	5.5224645647510195e+17
19158.0	5.5207589083873306e+17
19159.0	5.520923871761749e+17
19160.0	5.5198697341146445e+17
19161.0	5.518821407675732e+17
19162.0	5.517592235431252e+17
19163.0	5.5167689844326394e+17
19164.0	5.5159696905994234e+17
19165.0	5.513186329493501e+17
19166.0	5.513530472136704e+17
19167.0	5.51296284299537e+17
19168.0	5.5121346196493645e+17
19169.0	5.511172408563028e+17
19170.0	5.5102484684035405e+17
19171.0	5.5092059930187085e+17
19172.0	5.5082205622654285e+17
19173.0	5.507257440316074e+17
19174.0	5.5060919515873274e+17
19175.0	5.505206777282558e+17
19176.0	5.5042784372981754e+17
19177.0	5.501959968653308e+17
19178.0	5.502310584505683e+17
19179.0	5.5013106204890445e+17
19180.0	5.5001908503729485e+17
19181.0	5.498643343037779e+17
19182.0	5.4979864171642874e+17
19183.0	5.4973541915470496e+17
19184.0	5.496389393973247e+17
19185.0	5.495321533961556e+17
19186.0	5.4944081690405536e+17
19187.0	5.4928207710781434e+17
19188.0	5.492386650827434e+17
19189.0	5.491380163269972e+17
19190.0	5.490373746316628e+17
19191.0	5.489039852787028e+17
19192.0	5.48825545712162e+17
19193.0	5.4868817163059194e+17
19194.0	5.4854392567125344e+17
19195.0	5.48468022120721e+17
19196.0	5.4831590897527456e+17
19197.0	5.481491099637077e+17
19198.0	5.4791539020267514e+17
19199.0	5.4755428111045965e+17
19200.0	5.4750270871743136e+17
19201.0	5.476315838808062e+17
19202.0	5.476647009168041e+17
19203.0	5.4763481293564576e+17
19204.0	5.4757583179393683e+17
19205.0	5.4749232397025274e+17
19206.0	5.4741144534603085e+17
19207.0	5.4720107932986e+17
19208.0	5.471495209178452e+17
19209.0	5.471297047887871e+17
19210.0	5.4705218908760723e+17
19211.0	5.4697191849765536e+17
19212.0	5.4686822761321805e+17
19213.0	5.466832708304894e+17
19214.0	5.466302932058112e+17
19215.0	5.465603891877205e+17
19216.0	5.46448807629073e+17
19217.0	5.4627952782650016e+17
19218.0	5.4603406688037536e+17
19219.0	5.459390231128743e+17
19220.0	5.460036983018837e+17
19221.0	5.4588629588814496e+17
19222.0	5.4583324919726074e+17
19223.0	5.4575840219190605e+17
19224.0	5.456432672189097e+17
19225.0	5.455660053430271e+17
19226.0	5.454812189556735e+17
19227.0	5.453973989359615e+17
19228.0	5.4532374276341754e+17
19229.0	5.4522740973677216e+17
19230.0	5.451290782640809e+17
19231.0	5.450237177670313e+17
19232.0	5.449336750079999e+17
19233.0	5.4478799124125005e+17
19234.0	5.4473449513069216e+17
19235.0	5.4461223270700365e+17
19236.0	5.4454718681142605e+17
19237.0	5.4444090440635725e+17
19238.0	5.442886113951742e+17
19239.0	5.442567797735424e+17
19240.0	5.441573445697534e+17
19241.0	5.440479687955798e+17
19242.0	5.4395343638364154e+17
19243.0	5.437276012849831e+17
19244.0	5.4377389696395936e+17
19245.0	5.4366576081633274e+17
19246.0	5.4357201700345165e+17
19247.0	5.434683176605013e+17
19248.0	5.4338263795630074e+17
19249.0	5.432789621713577e+17
19250.0	5.43137817829922e+17
19251.0	5.429821905567736e+17
19252.0	5.427178236455594e+17
19253.0	5.428773755289598e+17
19254.0	5.4279762412393805e+17
19255.0	5.425216505948837e+17
19256.0	5.425926148631211e+17
19257.0	5.42503523581952e+17
19258.0	5.4240569472669005e+17
19259.0	5.422294205726718e+17
19260.0	5.42145199088162e+17
19261.0	5.420842115312298e+17
19262.0	5.4192605879773856e+17
19263.0	5.417749890553172e+17
19264.0	5.41539126424371e+17
19265.0	5.4152387607483725e+17
19266.0	5.4141603625478816e+17
19267.0	5.4150124451921914e+17
19268.0	5.4141034367549434e+17
19269.0	5.4130893610024954e+17
19270.0	5.411707493023742e+17
19271.0	5.4099655608238074e+17
19272.0	5.4098877907380896e+17
19273.0	5.407689036617045e+17
19274.0	5.4048660064829344e+17
19275.0	5.4074743847212365e+17
19276.0	5.406364810259113e+17
19277.0	5.405435739067732e+17
19278.0	5.404424409186303e+17
19279.0	5.403230048266921e+17
19280.0	5.402202070493866e+17
19281.0	5.4014176797218125e+17
19282.0	5.400582330253311e+17
19283.0	5.3995642650187085e+17
19284.0	5.398311790619306e+17
19285.0	5.3971260413050854e+17
19286.0	5.39592943084066e+17
19287.0	5.394578751706453e+17
19288.0	5.387306606613842e+17
19289.0	5.3843142538253626e+17
19290.0	5.391529809368404e+17
19291.0	5.38929992232688e+17
19292.0	5.390840183302826e+17
19293.0	5.389996485771262e+17
19294.0	5.388965013443925e+17
19295.0	5.3881450298081274e+17
19296.0	5.386067440741037e+17
19297.0	5.3858319501448544e+17
19298.0	5.384985013911551e+17
19299.0	5.383083226999466e+17
19300.0	5.383245243176276e+17
19301.0	5.382307995888297e+17
19302.0	5.381208058538664e+17
19303.0	5.3798211028691616e+17
19304.0	5.379293650965845e+17
19305.0	5.378203843559423e+17
19306.0	5.3772774630140576e+17
19307.0	5.3759965337572685e+17
19308.0	5.375036152785577e+17
19309.0	5.3741049306152954e+17
19310.0	5.3728750418438835e+17
19311.0	5.3717510907057485e+17
19312.0	5.3706692692541434e+17
19313.0	5.368268788684117e+17
19314.0	5.319210481046878e+17
19315.0	5.320909320967534e+17
19316.0	5.364069498355714e+17
19317.0	5.365817352213845e+17
19318.0	5.365339416865451e+17
19319.0	5.3646669881453216e+17
19320.0	5.363345835513172e+17
19321.0	5.3618332296806394e+17
19322.0	5.361750713739945e+17
19323.0	5.3607762231296e+17
19324.0	5.359894726530389e+17
19325.0	5.35898842341922e+17
19326.0	5.3580310113157114e+17
19327.0	5.3570604186118816e+17
19328.0	5.3542497637717344e+17
19329.0	5.3551766371478176e+17
19330.0	5.3541410585968634e+17
19331.0	5.3528529801489043e+17
19332.0	5.3522852244794016e+17
19333.0	5.351201705732778e+17
19334.0	5.350304416180906e+17
19335.0	5.3455171284718976e+17
19336.0	5.3483282167234554e+17
19337.0	5.3473625425401165e+17
19338.0	5.3445534130285184e+17
19339.0	5.345197969899519e+17
19340.0	5.342929786765311e+17
19341.0	5.340696635157164e+17
19342.0	5.3403883272492384e+17
19343.0	5.3402615621003936e+17
19344.0	5.336549951886678e+17
19345.0	5.329531692908543e+17
19346.0	5.330419671804585e+17
19347.0	5.3336381346283514e+17
19348.0	5.33580576072226e+17
19349.0	5.3349810759707296e+17
19350.0	5.3335130653764256e+17
19351.0	5.333207757793961e+17
19352.0	5.3302699330546304e+17
19353.0	5.3317545593842336e+17
19354.0	5.330835407022762e+17
19355.0	5.328957843614383e+17
19356.0	5.328905882479275e+17
19357.0	5.327895183141545e+17
19358.0	5.326849199221417e+17
19359.0	5.325300804091901e+17
19360.0	5.323134172747092e+17
19361.0	5.32381695091234e+17
19362.0	5.3229608592124576e+17
19363.0	5.3219922301419514e+17
19364.0	5.3210081520517114e+17
19365.0	5.3199652712174925e+17
19366.0	5.3190059493075616e+17
19367.0	5.3179990542035616e+17
19368.0	5.31698026615057e+17
19369.0	5.3157559655901856e+17
19370.0	5.3148214047539194e+17
19371.0	5.31346696053282e+17
19372.0	5.3129446578367136e+17
19373.0	5.31178430013986e+17
19374.0	5.3108860577819296e+17
19375.0	5.309911214850048e+17
19376.0	5.3088852615277216e+17
19377.0	5.307800464916479e+17
19378.0	5.306765591008596e+17
19379.0	5.305760333780308e+17
19380.0	5.3046980479986336e+17
19381.0	5.303587806642175e+17
19382.0	5.3017969674594976e+17
19383.0	5.301055654286674e+17
19384.0	5.3003116441763834e+17
19385.0	5.299327014535167e+17
19386.0	5.298295129767934e+17
19387.0	5.297140555317247e+17
19388.0	5.295908716194473e+17
19389.0	5.2945334766141434e+17
19390.0	5.29202739814946e+17
19391.0	5.280726107466405e+17
19392.0	5.28699334205986e+17
19393.0	5.289644463751166e+17
19394.0	5.289064627088041e+17
19395.0	5.2875013281983155e+17
19396.0	5.286835522284203e+17
19397.0	5.285682227795285e+17
19398.0	5.2833126606438406e+17
19399.0	5.2799747817908896e+17
19400.0	5.279931101609983e+17
19401.0	5.28053870596369e+17
19402.0	5.279674472420692e+17
19403.0	5.278356164924757e+17
19404.0	5.2772446156445005e+17
19405.0	5.2756964728722765e+17
19406.0	5.27430053789696e+17
19407.0	5.2718121412198374e+17
19408.0	5.2687010917253126e+17
19409.0	5.2688515938385914e+17
19410.0	5.2685884718667085e+17
19411.0	5.267327766145706e+17
19412.0	5.265798271948117e+17
19413.0	5.2635976240988154e+17
19414.0	5.262432770108073e+17
19415.0	5.260660402640213e+17
19416.0	5.2577989421957075e+17
19417.0	5.2572769974135456e+17
19418.0	5.255391333406036e+17
19419.0	5.253462863030954e+17
19420.0	5.251399036174334e+17
19421.0	5.249266716333396e+17
19422.0	5.246613996612265e+17
19423.0	5.2445066874060794e+17
19424.0	5.2420231050909005e+17
19425.0	5.239258951800147e+17
19426.0	5.2363212948329805e+17
19427.0	5.2332407749782176e+17
19428.0	5.229937577426943e+17
19429.0	5.226128345486676e+17
19430.0	5.2214549890553165e+17
19431.0	5.2165795279885664e+17
19432.0	5.213616464024915e+17
19433.0	5.208989715398656e+17
19434.0	5.2035240926904314e+17
19435.0	5.197076411449342e+17
19436.0	5.1896671140140365e+17
19437.0	5.180918563427668e+17
19438.0	5.1531734479885664e+17
19439.0	5.157929730703359e+17
19440.0	5.156205035694762e+17
19441.0	5.146155106522451e+17
19442.0	5.133589958797995e+17
19443.0	5.1186218355916794e+17
19444.0	5.100954583389524e+17
19445.0	5.080063705874432e+17
19446.0	5.0539932732620794e+17
19447.0	5.021762460844029e+17
19448.0	4.978396536766465e+17
19449.0	4.91629931659264e+17
19450.0	4.80370472517631e+17
19451.0	4.708219688932698e+17
19452.0	4.870856420010666e+17
19453.0	4.948207763193859e+17
19454.0	4.996710529673897e+17
19455.0	5.031452086719828e+17
19456.0	5.057268133396481e+17
19457.0	5.0747765633843194e+17
19458.0	4.9566221983198957e+17
19459.0	5.0820736743724666e+17
19460.0	5.121393746247679e+17
19461.0	5.1335486973323936e+17
19462.0	5.1429051752338765e+17
19463.0	5.150711224467455e+17
19464.0	5.157291688984575e+17
19465.0	5.1630913271889914e+17
19466.0	5.167540831518719e+17
19467.0	5.171980015064404e+17
19468.0	5.1753830104869536e+17
19469.0	5.1766590554767334e+17
19470.0	5.181051232758441e+17
19471.0	5.183838690301269e+17
19472.0	5.185563748816212e+17
19473.0	5.187191904228694e+17
19474.0	5.1868099478377786e+17
19475.0	5.18572551123763e+17
19476.0	5.18970533111398e+17
19477.0	5.191849681616894e+17
19478.0	5.1930114940381856e+17
19479.0	5.192383515153746e+17
19480.0	5.193894903939072e+17
19481.0	5.19413962969361e+17
19482.0	5.194710886907904e+17
19483.0	5.1949378945242445e+17
19484.0	5.194802674357588e+17
19485.0	5.194588606169087e+17
19486.0	5.193066324077229e+17
19487.0	5.1942167992948045e+17
19488.0	5.193565449748478e+17
19489.0	5.190615107807913e+17
19490.0	5.187995962791251e+17
19491.0	5.19184909022003e+17
19492.0	5.1927723557956256e+17
19493.0	5.1925359927842125e+17
19494.0	5.1920013099008006e+17
19495.0	5.191101099715241e+17
19496.0	5.188432322101246e+17
19497.0	5.188204858703872e+17
19498.0	5.180552797749246e+17
19499.0	5.1704108979759795e+17
19500.0	5.185952168629589e+17
19501.0	5.187453377839103e+17
19502.0	5.1873538770643616e+17
19503.0	5.186919035393366e+17
19504.0	5.186279106936832e+17
19505.0	5.1855597893932365e+17
19506.0	5.184931330260991e+17
19507.0	5.1839247923718816e+17
19508.0	5.183044383495509e+17
19509.0	5.1813149663996576e+17
19510.0	5.1758903926456294e+17
19511.0	5.109606082674666e+17
19512.0	5.1674259481340576e+17
19513.0	5.1695019070149946e+17
19514.0	5.170569081257982e+17
19515.0	5.175196471612757e+17
19516.0	5.1761386562955936e+17
19517.0	5.176035162543445e+17
19518.0	5.1753906294401683e+17
19519.0	5.174682833649662e+17
19520.0	5.1728610670673894e+17
19521.0	5.173666666337621e+17
19522.0	5.172332304444073e+17
19523.0	5.171722526042794e+17
19524.0	5.170190627809964e+17
19525.0	5.170376552917673e+17
19526.0	5.169651629686783e+17
19527.0	5.1686685812981766e+17
19528.0	5.167793594957823e+17
19529.0	5.166869059207166e+17
19530.0	5.166275387632298e+17
19531.0	5.165463746467156e+17
19532.0	5.1645900442828794e+17
19533.0	5.163732380418047e+17
19534.0	5.1628746913873914e+17
19535.0	5.1617633392394234e+17
19536.0	5.1606590621832525e+17
19537.0	5.1597981596166816e+17
19538.0	5.156400295226027e+17
19539.0	5.156269038676651e+17
19540.0	5.1568327531342496e+17
19541.0	5.1561781222440954e+17
19542.0	5.1554669849914016e+17
19543.0	5.1531433958004045e+17
19544.0	5.153024177602559e+17
19545.0	5.149446644607657e+17
19546.0	5.148173569185108e+17
19547.0	5.1504933450547194e+17
19548.0	5.1503143118875296e+17
19549.0	5.148747626796371e+17
19550.0	5.1488718411093325e+17
19551.0	5.1480543670654285e+17
19552.0	5.1471429699720525e+17
19553.0	5.14618355159313e+17
19554.0	5.145258135038634e+17
19555.0	5.144238979984042e+17
19556.0	5.1435629651339936e+17
19557.0	5.1428157275067725e+17
19558.0	5.141943776444416e+17
19559.0	5.1410653731444045e+17
19560.0	5.139468175190697e+17
19561.0	5.139070334271488e+17
19562.0	5.13785087533602e+17
19563.0	5.137542612866388e+17
19564.0	5.136635745621332e+17
19565.0	5.1357441722067616e+17
19566.0	5.1347211374209696e+17
19567.0	5.133964279458474e+17
19568.0	5.132876202901503e+17
19569.0	5.132059399946238e+17
19570.0	5.131299471753215e+17
19571.0	5.130417048911872e+17
19572.0	5.129217023584939e+17
19573.0	5.128429482890581e+17
19574.0	5.126825246195708e+17
19575.0	5.126835625700009e+17
19576.0	5.1258370800571725e+17
19577.0	5.124581442453503e+17
19578.0	5.1240244262993914e+17
19579.0	5.122997023145982e+17
19580.0	5.1221546139647994e+17
19581.0	5.121445626991956e+17
19582.0	5.120607019248298e+17
19583.0	5.1197135353282554e+17
19584.0	5.118784475321685e+17
19585.0	5.1167869771885184e+17
19586.0	5.1156244671146694e+17
19587.0	5.115503217475583e+17
19588.0	5.1133800768689485e+17
19589.0	5.113417950035967e+17
19590.0	5.112384774122153e+17
19591.0	5.112330521498964e+17
19592.0	5.1115727799364256e+17
19593.0	5.110425186205694e+17
19594.0	5.1074131383637286e+17
19595.0	5.108719230648318e+17
19596.0	5.107864343412735e+17
19597.0	5.106753941274624e+17
19598.0	5.10291139048243e+17
19599.0	5.104816193099093e+17
19600.0	5.104261271300777e+17
19601.0	5.1029084936164704e+17
19602.0	5.101641790040746e+17
19603.0	5.1001147816673274e+17
19604.0	5.0998797300749645e+17
19605.0	5.0978533171090835e+17
19606.0	5.09882068299503e+17
19607.0	5.098094995002709e+17
19608.0	5.0971750317424634e+17
19609.0	5.096082204437162e+17
19610.0	5.0948468204284595e+17
19611.0	5.0935795275530246e+17
19612.0	5.093751826765141e+17
19613.0	5.0927379397563725e+17
19614.0	5.091527915907753e+17
19615.0	5.090846045110271e+17
19616.0	5.0890345650585606e+17
19617.0	5.087117212385281e+17
19618.0	5.084049932550143e+17
19619.0	5.082038955322025e+17
19620.0	5.0826380969683603e+17
19621.0	5.0831140309346976e+17
19622.0	5.08436175458577e+17
19623.0	5.0836112887425696e+17
19624.0	5.082543832083115e+17
19625.0	5.081949058105343e+17
19626.0	5.080894798823423e+17
19627.0	5.0799246311423994e+17
19628.0	5.078578205731498e+17
19629.0	5.0730086782293286e+17
19630.0	5.074413080805375e+17
19631.0	5.0718771277114016e+17
19632.0	5.073836229787647e+17
19633.0	5.0736893802141005e+17
19634.0	5.073639488968021e+17
19635.0	5.0725301347068563e+17
19636.0	5.0705305876561894e+17
19637.0	5.066798541395289e+17
19638.0	5.070246204058281e+17
19639.0	5.069273198231551e+17
19640.0	5.065740750509396e+17
19641.0	5.060765950148613e+17
19642.0	5.06626379419921e+17
19643.0	5.065574925205502e+17
19644.0	5.064319472151209e+17
19645.0	5.063305174799699e+17
19646.0	5.061562861617148e+17
19647.0	5.062508984052394e+17
19648.0	5.061706438235476e+17
19649.0	5.060823133192191e+17
19650.0	5.0600110194687994e+17
19651.0	5.0590843886632954e+17
19652.0	5.0581819708757325e+17
19653.0	5.0573676977848314e+17
19654.0	5.056408066894506e+17
19655.0	5.0554560570545485e+17
