# Flux units: erg / (cm m2 s)
# Wavelength units: Angstrom
wave	flux
19000.0	4.86705287344947e+17
19001.0	4.866110198732117e+17
19002.0	4.8653777075787085e+17
19003.0	4.8645358289769805e+17
19004.0	4.863593524057428e+17
19005.0	4.862761450340351e+17
19006.0	4.8619359071546016e+17
19007.0	4.8611212160314016e+17
19008.0	4.860254152032255e+17
19009.0	4.8593024239097165e+17
19010.0	4.8584737888228685e+17
19011.0	4.857620940019028e+17
19012.0	4.856588459660628e+17
19013.0	4.856067249580714e+17
19014.0	4.8550973936762874e+17
19015.0	4.854253152982356e+17
19016.0	4.853500855626409e+17
19017.0	4.852700403466239e+17
19018.0	4.851814041474389e+17
19019.0	4.851003464264362e+17
19020.0	4.8501304597326496e+17
19021.0	4.849303934380714e+17
19022.0	4.848480607185578e+17
19023.0	4.8474981837482656e+17
19024.0	4.8466276580502176e+17
19025.0	4.845868477142357e+17
19026.0	4.8450167174594554e+17
19027.0	4.844185077852842e+17
19028.0	4.8432854443840845e+17
19029.0	4.842408814575615e+17
19030.0	4.841549882632874e+17
19031.0	4.840756962044585e+17
19032.0	4.8398931570196474e+17
19033.0	4.838773572851029e+17
19034.0	4.8377730314185376e+17
19035.0	4.836067415599787e+17
19036.0	4.8334138199681696e+17
19037.0	4.8345058105098234e+17
19038.0	4.834422365530794e+17
19039.0	4.833846700102996e+17
19040.0	4.833084484616191e+17
19041.0	4.8323020896337914e+17
19042.0	4.8271131525775296e+17
19043.0	4.830686270368426e+17
19044.0	4.82988613837346e+17
19045.0	4.828976964960255e+17
19046.0	4.828110655935827e+17
19047.0	4.827243267577172e+17
19048.0	4.8258082724468045e+17
19049.0	4.816417177556297e+17
19050.0	4.824520326119423e+17
19051.0	4.8234494308297363e+17
19052.0	4.822708586020863e+17
19053.0	4.8221071752560634e+17
19054.0	4.821322022518782e+17
19055.0	4.819074431320064e+17
19056.0	4.819392670640808e+17
19057.0	4.8189716995331405e+17
19058.0	4.813514169734476e+17
19059.0	4.815452911261012e+17
19060.0	4.8164709506307405e+17
19061.0	4.8156010107371514e+17
19062.0	4.814721211432959e+17
19063.0	4.813963158093823e+17
19064.0	4.813105682273619e+17
19065.0	4.81218084802833e+17
19066.0	4.809750441099264e+17
19067.0	4.810476873580543e+17
19068.0	4.8097999401779194e+17
19069.0	4.808956767633407e+17
19070.0	4.80801969021474e+17
19071.0	4.807213788954623e+17
19072.0	4.8047113840011923e+17
19073.0	4.805635574420821e+17
19074.0	4.804677995244202e+17
19075.0	4.80392877441024e+17
19076.0	4.8030665100929696e+17
19077.0	4.8022299135180794e+17
19078.0	4.801378940966229e+17
19079.0	4.8005343213868365e+17
19080.0	4.7997294176720205e+17
19081.0	4.798864143242581e+17
19082.0	4.798101661417471e+17
19083.0	4.7971434447066445e+17
19084.0	4.7962125601778336e+17
19085.0	4.795532542563668e+17
19086.0	4.792004904310099e+17
19087.0	4.790058185217359e+17
19088.0	4.7906433668218835e+17
19089.0	4.7920623075546445e+17
19090.0	4.791369133107882e+17
19091.0	4.7902674096837984e+17
19092.0	4.786082541469706e+17
19093.0	4.78886930485521e+17
19094.0	4.7880572421625165e+17
19095.0	4.787170018241194e+17
19096.0	4.786394081787903e+17
19097.0	4.7855542681818445e+17
19098.0	4.7828910067766586e+17
19099.0	4.781628923925847e+17
19100.0	4.783043170533376e+17
19101.0	4.782190230153898e+17
19102.0	4.7813548785882445e+17
19103.0	4.780509701166421e+17
19104.0	4.7797589571010554e+17
19105.0	4.774794397133495e+17
19106.0	4.778035528772266e+17
19107.0	4.7762184996563603e+17
19108.0	4.774772739844779e+17
19109.0	4.7755080362885126e+17
19110.0	4.774678372199081e+17
19111.0	4.772634039768403e+17
19112.0	4.771605736237735e+17
19113.0	4.7722263044860576e+17
19114.0	4.7705288277142163e+17
19115.0	4.770368676604587e+17
19116.0	4.7695697218109434e+17
19117.0	4.768607742809428e+17
19118.0	4.766688910245887e+17
19119.0	4.76112071443524e+17
19120.0	4.765528752477525e+17
19121.0	4.7653050234088096e+17
19122.0	4.764690536202238e+17
19123.0	4.7639238964237645e+17
19124.0	4.762999032818345e+17
19125.0	4.762200834397525e+17
19126.0	4.761255248134142e+17
19127.0	4.760254345292458e+17
19128.0	4.7595568234496e+17
19129.0	4.7588544886429e+17
19130.0	4.7581436911288314e+17
19131.0	4.7573409551701325e+17
19132.0	4.7564910165142176e+17
19133.0	4.7556872948940794e+17
19134.0	4.7548752461823994e+17
19135.0	4.7540793161809914e+17
19136.0	4.7532167107269965e+17
19137.0	4.752338614310229e+17
19138.0	4.751584782538068e+17
19139.0	4.750789275462314e+17
19140.0	4.7499768786234016e+17
19141.0	4.749131776699049e+17
19142.0	4.748268981103274e+17
19143.0	4.7474522417616205e+17
19144.0	4.746583606296576e+17
19145.0	4.7458003263160314e+17
19146.0	4.744448829991594e+17
19147.0	4.7441485520786765e+17
19148.0	4.7418786702513517e+17
19149.0	4.7407241321512954e+17
19150.0	4.7417219514804896e+17
19151.0	4.740856509278889e+17
19152.0	4.740057414675114e+17
19153.0	4.7360552811014765e+17
19154.0	4.738146500258474e+17
19155.0	4.7375821517619194e+17
19156.0	4.736738588448085e+17
19157.0	4.734917727136429e+17
19158.0	4.732845297762307e+17
19159.0	4.7341783831893325e+17
19160.0	4.7333773410303994e+17
19161.0	4.7325685023593805e+17
19162.0	4.731723552828074e+17
19163.0	4.730923138416639e+17
19164.0	4.7301080523298125e+17
19165.0	4.725867723532964e+17
19166.0	4.728417129857023e+17
19167.0	4.7276944296072525e+17
19168.0	4.7268542762625696e+17
19169.0	4.7260477276815354e+17
19170.0	4.7252465876555085e+17
19171.0	4.7243834474277536e+17
19172.0	4.723585262987945e+17
19173.0	4.722806089231017e+17
19174.0	4.721953265593002e+17
19175.0	4.7211155980724896e+17
19176.0	4.7203342663461536e+17
19177.0	4.7193640000989856e+17
19178.0	4.718654177760596e+17
19179.0	4.717853483029845e+17
19180.0	4.71701891719714e+17
19181.0	4.716181589415251e+17
19182.0	4.7152887814772045e+17
19183.0	4.7145476940977485e+17
19184.0	4.713753001416021e+17
19185.0	4.7128906217553914e+17
19186.0	4.712085991369387e+17
19187.0	4.711217630631253e+17
19188.0	4.7104523567977805e+17
19189.0	4.709604528575828e+17
19190.0	4.7087662703575034e+17
19191.0	4.707896158497451e+17
19192.0	4.70705266369058e+17
19193.0	4.705749604586837e+17
19194.0	4.704628911723861e+17
19195.0	4.7044059488146765e+17
19196.0	4.7034461725218125e+17
19197.0	4.702447368230228e+17
19198.0	4.701391420740948e+17
19199.0	4.7003331314319354e+17
19200.0	4.699537903976447e+17
19201.0	4.698990660550655e+17
19202.0	4.698421842324138e+17
19203.0	4.697718781902847e+17
19204.0	4.697088117265749e+17
19205.0	4.69632458756369e+17
19206.0	4.6955811220138656e+17
19207.0	4.694622423657129e+17
19208.0	4.6939886650217805e+17
19209.0	4.6932435853639674e+17
19210.0	4.692424524475049e+17
19211.0	4.691685015552e+17
19212.0	4.6908751045372576e+17
19213.0	4.6899961489872205e+17
19214.0	4.6892427485293216e+17
19215.0	4.6884552889248416e+17
19216.0	4.6876391570582176e+17
19217.0	4.6868262764762445e+17
19218.0	4.6859103439421434e+17
19219.0	4.6850148649314976e+17
19220.0	4.68438090916386e+17
19221.0	4.6835758474635936e+17
19222.0	4.6827305686794234e+17
19223.0	4.681976581718015e+17
19224.0	4.681132765347839e+17
19225.0	4.680407429677055e+17
19226.0	4.6796165775796896e+17
19227.0	4.678795432121685e+17
19228.0	4.678020354801663e+17
19229.0	4.677094867643049e+17
19230.0	4.676384146325504e+17
19231.0	4.675622143350102e+17
19232.0	4.674815554224127e+17
19233.0	4.673939939437226e+17
19234.0	4.6731432237028685e+17
19235.0	4.6723328953548794e+17
19236.0	4.671559725744127e+17
19237.0	4.6706858173399034e+17
19238.0	4.6698740573361485e+17
19239.0	4.6691351307223034e+17
19240.0	4.6682896771754656e+17
19241.0	4.667519482025302e+17
19242.0	4.666627901620224e+17
19243.0	4.665793334389417e+17
19244.0	4.6650810674708474e+17
19245.0	4.6643015253142176e+17
19246.0	4.6635126508311885e+17
19247.0	4.6627044832488096e+17
19248.0	4.6618789652288845e+17
19249.0	4.6609315712204794e+17
19250.0	4.65957224902383e+17
19251.0	4.658750530344274e+17
19252.0	4.6584088707290445e+17
19253.0	4.6578184385549645e+17
19254.0	4.657048266473472e+17
19255.0	4.656053992729257e+17
19256.0	4.655371203379198e+17
19257.0	4.654592423886847e+17
19258.0	4.653759506415615e+17
19259.0	4.652910953278123e+17
19260.0	4.6519705302029645e+17
19261.0	4.651328078872575e+17
19262.0	4.650433360429055e+17
19263.0	4.649578338975743e+17
19264.0	4.648773089230847e+17
19265.0	4.6479522380731725e+17
19266.0	4.647165362875051e+17
19267.0	4.6465216413695994e+17
19268.0	4.64568872669457e+17
19269.0	4.6449039612313594e+17
19270.0	4.644085523895637e+17
19271.0	4.643226455638015e+17
19272.0	4.6425080419669325e+17
19273.0	4.6416145957956256e+17
19274.0	4.640604540283561e+17
19275.0	4.64014545134114e+17
19276.0	4.6393338101759994e+17
19277.0	4.63854703424307e+17
19278.0	4.637653763533482e+17
19279.0	4.636901721331028e+17
19280.0	4.636120974710099e+17
19281.0	4.635297553143124e+17
19282.0	4.6344999223514445e+17
19283.0	4.6336530315564365e+17
19284.0	4.632820139251027e+17
19285.0	4.6319459833828685e+17
19286.0	4.630965009776639e+17
19287.0	4.6297945060584096e+17
19288.0	4.6276128626005325e+17
19289.0	4.626486218719231e+17
19290.0	4.6273493764232525e+17
19291.0	4.626775504759466e+17
19292.0	4.6263538737479674e+17
19293.0	4.625619530110292e+17
19294.0	4.6248488994515635e+17
19295.0	4.624066200382123e+17
19296.0	4.6212516119838765e+17
19297.0	4.6221636417181024e+17
19298.0	4.62165140045824e+17
19299.0	4.61865364540621e+17
19300.0	4.62011023491072e+17
19301.0	4.619305093518676e+17
19302.0	4.6185026889099936e+17
19303.0	4.6176198333562874e+17
19304.0	4.616873152872447e+17
19305.0	4.616033897108821e+17
19306.0	4.6152436538845856e+17
19307.0	4.614368868870826e+17
19308.0	4.613550960017408e+17
19309.0	4.612650180105555e+17
19310.0	4.611735110199978e+17
19311.0	4.6107205073633274e+17
19312.0	4.6094120683656525e+17
19313.0	4.606611011491157e+17
19314.0	4.5779436399056256e+17
19315.0	4.578298090050907e+17
19316.0	4.601717360427012e+17
19317.0	4.605477669306366e+17
19318.0	4.6052334412759034e+17
19319.0	4.604603539303081e+17
19320.0	4.603225966990675e+17
19321.0	4.6014301848207354e+17
19322.0	4.602490267893759e+17
19323.0	4.6017395392075085e+17
19324.0	4.600945533692585e+17
19325.0	4.6001909064007674e+17
19326.0	4.5993731429498874e+17
19327.0	4.598622559666176e+17
19328.0	4.594116051948889e+17
19329.0	4.5970513985535994e+17
19330.0	4.596273175505578e+17
19331.0	4.595451044386132e+17
19332.0	4.594674599723007e+17
19333.0	4.593904685591211e+17
19334.0	4.592952650585429e+17
19335.0	4.584773859147785e+17
19336.0	4.591434894846634e+17
19337.0	4.590705357881343e+17
19338.0	4.5897308749605536e+17
19339.0	4.589044066768213e+17
19340.0	4.5881040323652256e+17
19341.0	4.584625240276997e+17
19342.0	4.5858340862252397e+17
19343.0	4.5857895042689696e+17
19344.0	4.582124787073028e+17
19345.0	4.582611801691481e+17
19346.0	4.582964283310079e+17
19347.0	4.579067361056085e+17
19348.0	4.5818878095960723e+17
19349.0	4.581119933896021e+17
19350.0	4.5789949666699936e+17
19351.0	4.5795461059051514e+17
19352.0	4.5750552897781696e+17
19353.0	4.57803895476497e+17
19354.0	4.5772840646301005e+17
19355.0	4.576409905965738e+17
19356.0	4.5756847177946445e+17
19357.0	4.574912440172543e+17
19358.0	4.574113225332053e+17
19359.0	4.572530587904677e+17
19360.0	4.569570754953214e+17
19361.0	4.571734792121001e+17
19362.0	4.570950137107797e+17
19363.0	4.570165157036031e+17
19364.0	4.5693904558052685e+17
19365.0	4.5685733319857485e+17
19366.0	4.567723337405781e+17
19367.0	4.566980647802197e+17
19368.0	4.5662167210393594e+17
19369.0	4.56542714401041e+17
19370.0	4.564649093627904e+17
19371.0	4.5637635593120416e+17
19372.0	4.56303107514914e+17
19373.0	4.562194685493247e+17
19374.0	4.561409731286357e+17
19375.0	4.5606802131954336e+17
19376.0	4.55989526597905e+17
19377.0	4.559103267438591e+17
19378.0	4.5583163398116685e+17
19379.0	4.5575163895698765e+17
19380.0	4.5566182793325216e+17
19381.0	4.555841082490879e+17
19382.0	4.555027827217749e+17
19383.0	4.554250821915987e+17
19384.0	4.5533866631714125e+17
19385.0	4.5526851874979846e+17
19386.0	4.551868799079764e+17
19387.0	4.5510138901736096e+17
19388.0	4.5501275086083405e+17
19389.0	4.549159039620438e+17
19390.0	4.5477704230065485e+17
19391.0	4.5450574206511763e+17
19392.0	4.545489890443263e+17
19393.0	4.5457563853346125e+17
19394.0	4.54528558379827e+17
19395.0	4.5435384681376454e+17
19396.0	4.543611097404758e+17
19397.0	4.5430399548347725e+17
19398.0	4.5412659285196806e+17
19399.0	4.5400579319179936e+17
19400.0	4.5397431570923514e+17
19401.0	4.5398346069005645e+17
19402.0	4.539095850855082e+17
19403.0	4.53828658925841e+17
19404.0	4.537438948382038e+17
19405.0	4.536595455672319e+17
19406.0	4.5358081659371514e+17
19407.0	4.533654462835367e+17
19408.0	4.5340533712049485e+17
19409.0	4.533253242006187e+17
19410.0	4.5324994025444685e+17
19411.0	4.5316820403486714e+17
19412.0	4.5308397297336314e+17
19413.0	4.5286824586772474e+17
19414.0	4.5291778667970554e+17
19415.0	4.528284482841258e+17
19416.0	4.5272878784621216e+17
19417.0	4.52656429601041e+17
19418.0	4.525674561798143e+17
19419.0	4.5247669843176096e+17
19420.0	4.523848935757141e+17
19421.0	4.5229283580313594e+17
19422.0	4.521911916691455e+17
19423.0	4.521017019990015e+17
19424.0	4.5200262149352096e+17
19425.0	4.518953788025514e+17
19426.0	4.517926707833514e+17
19427.0	4.5168152116811085e+17
19428.0	4.515570716246015e+17
19429.0	4.514371758369449e+17
19430.0	4.512923897910613e+17
19431.0	4.5114824085995514e+17
19432.0	4.510277050215081e+17
19433.0	4.50878932709103e+17
19434.0	4.507174370454185e+17
19435.0	4.505145748488191e+17
19436.0	4.50278686003473e+17
19437.0	4.49959288705297e+17
19438.0	4.493212742494891e+17
19439.0	4.493009856320853e+17
19440.0	4.492322258900309e+17
19441.0	4.489313953076566e+17
19442.0	4.4853916433995085e+17
19443.0	4.480181567750143e+17
19444.0	4.473698183195305e+17
19445.0	4.46556098597137e+17
19446.0	4.4549206609756154e+17
19447.0	4.4406428551959885e+17
19448.0	4.420607541597525e+17
19449.0	4.3897504175663776e+17
19450.0	4.330951375060989e+17
19451.0	4.2796886006606534e+17
19452.0	4.365319982284799e+17
19453.0	4.4040209651029325e+17
19454.0	4.4265497386024954e+17
19455.0	4.4412566901882874e+17
19456.0	4.450305842348032e+17
19457.0	4.4522381064710835e+17
19458.0	4.377658623612282e+17
19459.0	4.439349368193036e+17
19460.0	4.468989475072682e+17
19461.0	4.4744544525571405e+17
19462.0	4.4772133699584e+17
19463.0	4.4789605051924486e+17
19464.0	4.4800481252693325e+17
19465.0	4.48089085251857e+17
19466.0	4.4814047959668045e+17
19467.0	4.4817259489307296e+17
19468.0	4.4818520269127674e+17
19469.0	4.4792201976217555e+17
19470.0	4.481709997992618e+17
19471.0	4.4815165028652365e+17
19472.0	4.481213581841748e+17
19473.0	4.4808543445975034e+17
19474.0	4.4776671230470765e+17
19475.0	4.479676366629545e+17
19476.0	4.4794340875523405e+17
19477.0	4.4789676774522874e+17
19478.0	4.478495026227882e+17
19479.0	4.475324121918117e+17
19480.0	4.4773247860517536e+17
19481.0	4.476627067775659e+17
19482.0	4.47604386238737e+17
19483.0	4.4754402202528416e+17
19484.0	4.474735328318804e+17
19485.0	4.47409754804497e+17
19486.0	4.470629963137032e+17
19487.0	4.472652364950187e+17
19488.0	4.4719303329928525e+17
19489.0	4.4710784915210234e+17
19490.0	4.470255063662591e+17
19491.0	4.469680488054783e+17
19492.0	4.4690817847132154e+17
19493.0	4.468336381394943e+17
19494.0	4.46755995910144e+17
19495.0	4.466737086988287e+17
19496.0	4.4656276830945274e+17
19497.0	4.4644748401923405e+17
19498.0	4.461829917682346e+17
19499.0	4.4595412866170874e+17
19500.0	4.461841505845247e+17
19501.0	4.462017779859455e+17
19502.0	4.4615457151385594e+17
19503.0	4.4609302709316256e+17
19504.0	4.4602005529122125e+17
19505.0	4.459377612991146e+17
19506.0	4.458676974081366e+17
19507.0	4.457792972783615e+17
19508.0	4.456737246893397e+17
19509.0	4.455183710246228e+17
19510.0	4.450141475263827e+17
19511.0	4.41729174575513e+17
19512.0	4.445996560591529e+17
19513.0	4.44978609398306e+17
19514.0	4.450109599951529e+17
19515.0	4.4511599969785165e+17
19516.0	4.45051142615859e+17
19517.0	4.450358062830932e+17
19518.0	4.448972045287422e+17
19519.0	4.4482674490518163e+17
19520.0	4.445695423545339e+17
19521.0	4.4477147439431674e+17
19522.0	4.446521162465279e+17
19523.0	4.445595532700333e+17
19524.0	4.443423861200219e+17
19525.0	4.4446983053639674e+17
19526.0	4.443963115874985e+17
19527.0	4.443246005933397e+17
19528.0	4.4422662109265914e+17
19529.0	4.441417966769494e+17
19530.0	4.440994534304425e+17
19531.0	4.440232537620479e+17
19532.0	4.4394742207392416e+17
19533.0	4.4386854385309005e+17
19534.0	4.4379835874672634e+17
19535.0	4.437220644268715e+17
19536.0	4.4364064187132576e+17
19537.0	4.4356454356527763e+17
19538.0	4.432352389715289e+17
19539.0	4.434105454297087e+17
19540.0	4.4333863289924256e+17
19541.0	4.4320547626024954e+17
19542.0	4.4316384443760634e+17
19543.0	4.4284501483847686e+17
19544.0	4.4301359454180685e+17
19545.0	4.4293998814167034e+17
19546.0	4.4286820815121056e+17
19547.0	4.428090302966442e+17
19548.0	4.4273870328299514e+17
19549.0	4.426540525114708e+17
19550.0	4.425846838263807e+17
19551.0	4.425185629306879e+17
19552.0	4.4243845172428794e+17
19553.0	4.423670127307434e+17
19554.0	4.4228647566267725e+17
19555.0	4.4217923849420806e+17
19556.0	4.421160237618516e+17
19557.0	4.420622106318165e+17
19558.0	4.419898347705685e+17
19559.0	4.419143882593621e+17
19560.0	4.4174140397759123e+17
19561.0	4.417617100013566e+17
19562.0	4.415979687073108e+17
19563.0	4.4161579722560845e+17
19564.0	4.415297665979732e+17
19565.0	4.414605049375402e+17
19566.0	4.41380451193105e+17
19567.0	4.413134696262313e+17
19568.0	4.412361330218325e+17
19569.0	4.411622242822825e+17
19570.0	4.4108637127311354e+17
19571.0	4.410098059313151e+17
19572.0	4.409341945140565e+17
19573.0	4.40830362980625e+17
19574.0	4.407668632453119e+17
19575.0	4.4071269171199994e+17
19576.0	4.406215679410176e+17
19577.0	4.4051485946456736e+17
19578.0	4.404854996161877e+17
19579.0	4.4041038158888954e+17
19580.0	4.403316951176532e+17
19581.0	4.4025396837307725e+17
19582.0	4.4018591369352525e+17
19583.0	4.4011311322890234e+17
19584.0	4.400325931477674e+17
19585.0	4.399508346983764e+17
19586.0	4.3987362734844576e+17
19587.0	4.398070588506112e+17
19588.0	4.397252253930836e+17
19589.0	4.396544621019136e+17
19590.0	4.395757162812757e+17
19591.0	4.395072578300585e+17
19592.0	4.3943420542757536e+17
19593.0	4.393343484166142e+17
19594.0	4.3924117104448845e+17
19595.0	4.392087708150442e+17
19596.0	4.3912828995065165e+17
19597.0	4.390542435680255e+17
19598.0	4.389486795074217e+17
19599.0	4.389008955495764e+17
19600.0	4.3882778302873594e+17
19601.0	4.38753054162944e+17
19602.0	4.386768702231893e+17
19603.0	4.385986015046315e+17
19604.0	4.385272807205547e+17
19605.0	4.3843960921128954e+17
19606.0	4.3837948421297485e+17
19607.0	4.3831124582290765e+17
19608.0	4.3822689123915085e+17
19609.0	4.3815863858845e+17
19610.0	4.379623401979906e+17
19611.0	4.3782114915997024e+17
19612.0	4.379377280920234e+17
19613.0	4.3785453609943034e+17
19614.0	4.377811384358229e+17
19615.0	4.3770932579969696e+17
19616.0	4.3750830224616115e+17
19617.0	4.373605068570625e+17
19618.0	4.374440294307155e+17
19619.0	4.373486354388309e+17
19620.0	4.372457256736081e+17
19621.0	4.369698923042131e+17
19622.0	4.3718091298133325e+17
19623.0	4.3709697083746976e+17
19624.0	4.369961975808e+17
19625.0	4.3695833154409805e+17
19626.0	4.368751036203007e+17
19627.0	4.3679964753210016e+17
19628.0	4.3671350177082016e+17
19629.0	4.35980078503253e+17
19630.0	4.365320294760447e+17
19631.0	4.364316042067966e+17
19632.0	4.36398014402833e+17
19633.0	4.36336152473327e+17
19634.0	4.362772591323818e+17
19635.0	4.36179708499285e+17
19636.0	4.358300594339836e+17
19637.0	4.3574208761255226e+17
19638.0	4.3597152848445414e+17
19639.0	4.3591270239218336e+17
19640.0	4.358084998725631e+17
19641.0	4.3571217712196256e+17
19642.0	4.356722790847829e+17
19643.0	4.3560494470703776e+17
19644.0	4.355481850085376e+17
19645.0	4.354785209046355e+17
19646.0	4.350801779272357e+17
19647.0	4.3532101800864416e+17
19648.0	4.3526151446637216e+17
19649.0	4.3518508753660576e+17
19650.0	4.351126192608597e+17
19651.0	4.350391646945278e+17
19652.0	4.349668444078079e+17
19653.0	4.348894355914751e+17
19654.0	4.3481948152135674e+17
19655.0	4.3474087292436486e+17
19656.0	4.3467186152407034e+17
