# Flux units: erg / (cm m2 s)
# Wavelength units: Angstrom
wave	flux
19000.0	7.265362395529215e+17
19001.0	7.263955537887232e+17
19002.0	7.262698794385407e+17
19003.0	7.261364212989952e+17
19004.0	7.260029803560957e+17
19005.0	7.258697403203583e+17
19006.0	7.257362310103037e+17
19007.0	7.255993402523645e+17
19008.0	7.254647927122602e+17
19009.0	7.253284210693459e+17
19010.0	7.251687321720147e+17
19011.0	7.250645990681257e+17
19012.0	7.249086147198975e+17
19013.0	7.247993310106964e+17
19014.0	7.246612018145961e+17
19015.0	7.245289819734015e+17
19016.0	7.243946638617258e+17
19017.0	7.242639745220607e+17
19018.0	7.241284835431763e+17
19019.0	7.239954013530794e+17
19020.0	7.238602378095274e+17
19021.0	7.237451972782761e+17
19022.0	7.236118655270911e+17
19023.0	7.234735931654143e+17
19024.0	7.233409743060991e+17
19025.0	7.232062946454186e+17
19026.0	7.230692362551293e+17
19027.0	7.229183505028436e+17
19028.0	7.228043701518333e+17
19029.0	7.226699234148352e+17
19030.0	7.225367022534655e+17
19031.0	7.224020755808255e+17
19032.0	7.222672801573545e+17
19033.0	7.221252726281555e+17
19034.0	7.21994533516083e+17
19035.0	7.218423665437353e+17
19036.0	7.203525873718606e+17
19037.0	7.215794793130664e+17
19038.0	7.214554839427752e+17
19039.0	7.213243960044202e+17
19040.0	7.211902424492714e+17
19041.0	7.210557533498025e+17
19042.0	7.20912014971153e+17
19043.0	7.20786477495091e+17
19044.0	7.206507014433449e+17
19045.0	7.205159173444948e+17
19046.0	7.203783889125373e+17
19047.0	7.202453200044032e+17
19048.0	7.200974762409981e+17
19049.0	7.199672275828735e+17
19050.0	7.198364370206717e+17
19051.0	7.194875179040764e+17
19052.0	7.195233538976425e+17
19053.0	7.194351043433811e+17
19054.0	7.193022756290557e+17
19055.0	7.191477026641236e+17
19056.0	7.190309086341802e+17
19057.0	7.188972048482304e+17
19058.0	7.187592386707455e+17
19059.0	7.186269238984701e+17
19060.0	7.184913048535037e+17
19061.0	7.18357818052881e+17
19062.0	7.1822241445533e+17
19063.0	7.180873879257087e+17
19064.0	7.179438491959293e+17
19065.0	7.178036612956157e+17
19066.0	7.176767961825279e+17
19067.0	7.175472345513983e+17
19068.0	7.174121066594301e+17
19069.0	7.172770366488575e+17
19070.0	7.171401022701568e+17
19071.0	7.170059499732991e+17
19072.0	7.168706085912575e+17
19073.0	7.167360800653311e+17
19074.0	7.166012461940736e+17
19075.0	7.164660398686207e+17
19076.0	7.163294413138602e+17
19077.0	7.161945519379795e+17
19078.0	7.160585913368573e+17
19079.0	7.159250693040808e+17
19080.0	7.157887558221824e+17
19081.0	7.15651356434978e+17
19082.0	7.155163401114964e+17
19083.0	7.153750794480297e+17
19084.0	7.152302645313535e+17
19085.0	7.151125378280105e+17
19086.0	7.149434861256701e+17
19087.0	7.148095873045844e+17
19088.0	7.146913916780543e+17
19089.0	7.145400024694783e+17
19090.0	7.144305219076093e+17
19091.0	7.142977147240447e+17
19092.0	7.1415306939706e+17
19093.0	7.140301828609363e+17
19094.0	7.138956609060863e+17
19095.0	7.137605475543722e+17
19096.0	7.1362435626653e+17
19097.0	7.134899874037757e+17
19098.0	7.133540196723369e+17
19099.0	7.132185380607316e+17
19100.0	7.130815799143081e+17
19101.0	7.129478098583551e+17
19102.0	7.128066725074259e+17
19103.0	7.126781807034368e+17
19104.0	7.125426849710079e+17
19105.0	7.124045808009215e+17
19106.0	7.122658677577044e+17
19107.0	7.121333519384575e+17
19108.0	7.119961854749353e+17
19109.0	7.117626525002408e+17
19110.0	7.117149037046442e+17
19111.0	7.115929752873641e+17
19112.0	7.114587014955007e+17
19113.0	7.113243968055977e+17
19114.0	7.111889311323476e+17
19115.0	7.11047461872162e+17
19116.0	7.10916375192098e+17
19117.0	7.107805103609172e+17
19118.0	7.106352641299795e+17
19119.0	7.102425369062053e+17
19120.0	7.103624668774399e+17
19121.0	7.102318226964479e+17
19122.0	7.101058601975807e+17
19123.0	7.09970564952883e+17
19124.0	7.098265101839017e+17
19125.0	7.09698876814131e+17
19126.0	7.095618377176404e+17
19127.0	7.09306730221841e+17
19128.0	7.092711628035411e+17
19129.0	7.091509094514687e+17
19130.0	7.090212010196991e+17
19131.0	7.088868704649216e+17
19132.0	7.087511910219775e+17
19133.0	7.086077477825194e+17
19134.0	7.084707207097002e+17
19135.0	7.083444046310057e+17
19136.0	7.082094182268927e+17
19137.0	7.080630335220393e+17
19138.0	7.079371329590612e+17
19139.0	7.078029938043561e+17
19140.0	7.076676685004799e+17
19141.0	7.075321431283028e+17
19142.0	7.073946704805887e+17
19143.0	7.072572994748415e+17
19144.0	7.071224073027583e+17
19145.0	7.069896988251475e+17
19146.0	7.06808857633314e+17
19147.0	7.067128487564628e+17
19148.0	7.0658156410525e+17
19149.0	7.064459615578794e+17
19150.0	7.063111345373183e+17
19151.0	7.061758750840148e+17
19152.0	7.060384231282003e+17
19153.0	7.059011645298004e+17
19154.0	7.057595351870121e+17
19155.0	7.056319567626237e+17
19156.0	7.054948769813844e+17
19157.0	7.053498694063444e+17
19158.0	7.051636140670975e+17
19159.0	7.050813187467945e+17
19160.0	7.049488329867263e+17
19161.0	7.048092740922025e+17
19162.0	7.04521555603183e+17
19163.0	7.045232372394666e+17
19164.0	7.044076713017343e+17
19165.0	7.042693529425236e+17
19166.0	7.041268715967828e+17
19167.0	7.039870213379411e+17
19168.0	7.03863936131618e+17
19169.0	7.037280832542036e+17
19170.0	7.035942499341652e+17
19171.0	7.034517704758612e+17
19172.0	7.033209859254953e+17
19173.0	7.031868734745257e+17
19174.0	7.030478654319274e+17
19175.0	7.029157459744084e+17
19176.0	7.027796399707476e+17
19177.0	7.026315848144211e+17
19178.0	7.025012533886975e+17
19179.0	7.023600638885887e+17
19180.0	7.022326734389245e+17
19181.0	7.020906942212778e+17
19182.0	7.019615068618751e+17
19183.0	7.018264980182355e+17
19184.0	7.016896369699498e+17
19185.0	7.015535539650559e+17
19186.0	7.014174061581652e+17
19187.0	7.012753311006719e+17
19188.0	7.011442556054185e+17
19189.0	7.009699185907028e+17
19190.0	7.008241921119571e+17
19191.0	7.006850358706175e+17
19192.0	7.005520226069161e+17
19193.0	7.004142796363092e+17
19194.0	7.002756436983807e+17
19195.0	7.001378136959658e+17
19196.0	6.999957419939155e+17
19197.0	6.998476883055955e+17
19198.0	6.996643215136084e+17
19199.0	6.985715688669181e+17
19200.0	6.98653809102029e+17
19201.0	6.992611745202173e+17
19202.0	6.99165553336866e+17
19203.0	6.990363777914195e+17
19204.0	6.989050274993491e+17
19205.0	6.987709169358163e+17
19206.0	6.986352223933779e+17
19207.0	6.984920299033939e+17
19208.0	6.983482369288873e+17
19209.0	6.982250876895232e+17
19210.0	6.980883608589652e+17
19211.0	6.9795173657914e+17
19212.0	6.978138271645695e+17
19213.0	6.976631511274835e+17
19214.0	6.975218359380649e+17
19215.0	6.973967892654761e+17
19216.0	6.972637157436074e+17
19217.0	6.971254127635113e+17
19218.0	6.96932226057284e+17
19219.0	6.968372701604521e+17
19220.0	6.96710618817058e+17
19221.0	6.965537607254015e+17
19222.0	6.964354082319018e+17
19223.0	6.962972968615935e+17
19224.0	6.961570080882687e+17
19225.0	6.960129117257725e+17
19226.0	6.958822539831978e+17
19227.0	6.95743675507234e+17
19228.0	6.9560739299328e+17
19229.0	6.954686410828457e+17
19230.0	6.953289228746751e+17
19231.0	6.951894550664531e+17
19232.0	6.950514334542505e+17
19233.0	6.949076459323391e+17
19234.0	6.947723241936211e+17
19235.0	6.946328939943252e+17
19236.0	6.944951952037203e+17
19237.0	6.943425110037844e+17
19238.0	6.941459833946111e+17
19239.0	6.940144577107284e+17
19240.0	6.938735856495274e+17
19241.0	6.937328177468756e+17
19242.0	6.935937348359507e+17
19243.0	6.93441998758434e+17
19244.0	6.933148296981162e+17
19245.0	6.931739775598591e+17
19246.0	6.930327768749396e+17
19247.0	6.928932688713043e+17
19248.0	6.927526558782804e+17
19249.0	6.92611067290146e+17
19250.0	6.924691346991785e+17
19251.0	6.923218657651368e+17
19252.0	6.921651594373801e+17
19253.0	6.920449209051817e+17
19254.0	6.919048945554772e+17
19255.0	6.917481822158847e+17
19256.0	6.916189258601812e+17
19257.0	6.914791348808361e+17
19258.0	6.91336779923456e+17
19259.0	6.911882550749865e+17
19260.0	6.910254150669652e+17
19261.0	6.909075491127293e+17
19262.0	6.907610450100223e+17
19263.0	6.905842900489556e+17
19264.0	6.903588249578153e+17
19265.0	6.902384437493759e+17
19266.0	6.900957396860927e+17
19267.0	6.899647006113791e+17
19268.0	6.89820505612834e+17
19269.0	6.896759773069311e+17
19270.0	6.895304260102825e+17
19271.0	6.89363257270818e+17
19272.0	6.892379613167615e+17
19273.0	6.890439456762537e+17
19274.0	6.889026038530047e+17
19275.0	6.888037325733887e+17
19276.0	6.886563812212736e+17
19277.0	6.885102774648831e+17
19278.0	6.883638246724948e+17
19279.0	6.882156784298666e+17
19280.0	6.880453464861354e+17
19281.0	6.877876987800234e+17
19282.0	6.876252909251241e+17
19283.0	6.874670145994751e+17
19284.0	6.873184318696106e+17
19285.0	6.871687196136788e+17
19286.0	6.870273916316329e+17
19287.0	6.868780521794217e+17
19288.0	6.863525740456616e+17
19289.0	6.856799335830854e+17
19290.0	6.86426813506082e+17
19291.0	6.86260457972258e+17
19292.0	6.861297265497428e+17
19293.0	6.858635368639144e+17
19294.0	6.856901880971263e+17
19295.0	6.855386867608233e+17
19296.0	6.853847572021247e+17
19297.0	6.852305829057876e+17
19298.0	6.85076379808563e+17
19299.0	6.849228862477652e+17
19300.0	6.847689348786857e+17
19301.0	6.846132051247103e+17
19302.0	6.844059644242601e+17
19303.0	6.842118229546323e+17
19304.0	6.840580574631252e+17
19305.0	6.839012759175167e+17
19306.0	6.837433851882153e+17
19307.0	6.835807242769747e+17
19308.0	6.834217955273385e+17
19309.0	6.832310374629375e+17
19310.0	6.830562365581993e+17
19311.0	6.829354353601193e+17
19312.0	6.827818196052649e+17
19313.0	6.826190678174378e+17
19314.0	6.813753300833615e+17
19315.0	6.813030767656977e+17
19316.0	6.820838397444095e+17
19317.0	6.818933650751487e+17
19318.0	6.817282669936639e+17
19319.0	6.815636989323946e+17
19320.0	6.813960960824659e+17
19321.0	6.812274861801471e+17
19322.0	6.810508983620948e+17
19323.0	6.808767684061866e+17
19324.0	6.807154967183359e+17
19325.0	6.80523609547298e+17
19326.0	6.803736315123028e+17
19327.0	6.802032687404371e+17
19328.0	6.800293510163114e+17
19329.0	6.798564469156521e+17
19330.0	6.796777154587305e+17
19331.0	6.794993444323327e+17
19332.0	6.793243182934697e+17
19333.0	6.791441461630292e+17
19334.0	6.788724229319337e+17
19335.0	6.786645203703123e+17
19336.0	6.784835014098943e+17
19337.0	6.782988993254739e+17
19338.0	6.780975466588842e+17
19339.0	6.779248589144063e+17
19340.0	6.777304926999892e+17
19341.0	6.775414285052585e+17
19342.0	6.773258990911487e+17
19343.0	6.771585326601555e+17
19344.0	6.769612154033491e+17
19345.0	6.765008670512465e+17
19346.0	6.763398183605588e+17
19347.0	6.76188360085777e+17
19348.0	6.759890827608061e+17
19349.0	6.757831492151977e+17
19350.0	6.755769972162559e+17
19351.0	6.75368967217698e+17
19352.0	6.75099767419699e+17
19353.0	6.747180668114259e+17
19354.0	6.745024803547817e+17
19355.0	6.742773361978025e+17
19356.0	6.740637169396394e+17
19357.0	6.738408628726441e+17
19358.0	6.73589043781086e+17
19359.0	6.730795650296489e+17
19360.0	6.728462973446825e+17
19361.0	6.726127309553663e+17
19362.0	6.723767571753642e+17
19363.0	6.721350963385684e+17
19364.0	6.716041604366337e+17
19365.0	6.712563958022143e+17
19366.0	6.710020907466751e+17
19367.0	6.707433838389929e+17
19368.0	6.702798810906627e+17
19369.0	6.697368751002963e+17
19370.0	6.694632891088895e+17
19371.0	6.691891001163775e+17
19372.0	6.683898022985722e+17
19373.0	6.680512915570687e+17
19374.0	6.677593314383188e+17
19375.0	6.668828216568493e+17
19376.0	6.664723438589268e+17
19377.0	6.660744421922138e+17
19378.0	6.654232536372564e+17
19379.0	6.650972099750569e+17
19380.0	6.647659873260884e+17
19381.0	6.644294756597759e+17
19382.0	6.640821096240468e+17
19383.0	6.637337872870058e+17
19384.0	6.633870514454527e+17
19385.0	6.630273436702036e+17
19386.0	6.62658701468194e+17
19387.0	6.622704414578004e+17
19388.0	6.618366951991978e+17
19389.0	6.614479981423274e+17
19390.0	6.610493150767785e+17
19391.0	6.595656323956719e+17
19392.0	6.602160972933801e+17
19393.0	6.598404462695763e+17
19394.0	6.593331431735295e+17
19395.0	6.588853473946281e+17
19396.0	6.584552467551572e+17
19397.0	6.580221430639274e+17
19398.0	6.575759122497535e+17
19399.0	6.56908948218402e+17
19400.0	6.564598782798506e+17
19401.0	6.559787364559529e+17
19402.0	6.553422413867688e+17
19403.0	6.547142384549887e+17
19404.0	6.541870036768084e+17
19405.0	6.533638511045288e+17
19406.0	6.527393256701952e+17
19407.0	6.519216197511849e+17
19408.0	6.510767427114324e+17
19409.0	6.501733241629348e+17
19410.0	6.492972449267711e+17
19411.0	6.480161481774414e+17
19412.0	6.469150331371512e+17
19413.0	6.456650505737558e+17
19414.0	6.43995512410385e+17
19415.0	6.423435649482755e+17
19416.0	6.408198147102035e+17
19417.0	6.396360505600681e+17
19418.0	6.386415529798314e+17
19419.0	6.376014988268884e+17
19420.0	6.365370566836223e+17
19421.0	6.354485909651456e+17
19422.0	6.343350276500138e+17
19423.0	6.331819286156628e+17
19424.0	6.319594794909696e+17
19425.0	6.307094221990569e+17
19426.0	6.294095690814804e+17
19427.0	6.28017378501154e+17
19428.0	6.265704088425812e+17
19429.0	6.250786882671956e+17
19430.0	6.233418325732012e+17
19431.0	6.214505804944727e+17
19432.0	6.196397674070013e+17
19433.0	6.175698994943316e+17
19434.0	6.153279073419264e+17
19435.0	6.127542617156266e+17
19436.0	6.098247841305943e+17
19437.0	6.066650361801384e+17
19438.0	6.017282253783036e+17
19439.0	5.990870053202602e+17
19440.0	5.948797768521047e+17
19441.0	5.902217431220219e+17
19442.0	5.850309423267846e+17
19443.0	5.794903119014572e+17
19444.0	5.7315030585398566e+17
19445.0	5.656977657735853e+17
19446.0	5.5677966855700474e+17
19447.0	5.4586049385813274e+17
19448.0	5.319818818704731e+17
19449.0	5.133410568415913e+17
19450.0	4.856407016865769e+17
19451.0	4.699951633618272e+17
19452.0	5.011072517231959e+17
19453.0	5.233750417167708e+17
19454.0	5.390148865534627e+17
19455.0	5.510186547893587e+17
19456.0	5.6061936575447066e+17
19457.0	5.684845165761873e+17
19458.0	5.7343232519263846e+17
19459.0	5.807650614105434e+17
19460.0	5.859651349730643e+17
19461.0	5.906167121313791e+17
19462.0	5.948187490298541e+17
19463.0	5.986665838062248e+17
19464.0	6.021972951564285e+17
19465.0	6.053586596615505e+17
19466.0	6.081502318166017e+17
19467.0	6.1062408872919e+17
19468.0	6.127649319550976e+17
19469.0	6.147332215144445e+17
19470.0	6.164721662514516e+17
19471.0	6.181192811063978e+17
19472.0	6.195959239977642e+17
19473.0	6.209494797953706e+17
19474.0	6.221605055933098e+17
19475.0	6.233323143692287e+17
19476.0	6.244580295617193e+17
19477.0	6.254957277042004e+17
19478.0	6.264867980487337e+17
19479.0	6.274436505621844e+17
19480.0	6.2832416653312e+17
19481.0	6.291829746040831e+17
19482.0	6.300166944456703e+17
19483.0	6.308276216004608e+17
19484.0	6.316055836928681e+17
19485.0	6.323525850409642e+17
19486.0	6.335814016084648e+17
19487.0	6.350270012675409e+17
19488.0	6.362928848568314e+17
19489.0	6.373723123395249e+17
19490.0	6.384222668674388e+17
19491.0	6.393629196506454e+17
19492.0	6.400237563630932e+17
19493.0	6.409163980668927e+17
19494.0	6.413115261102764e+17
19495.0	6.420708726232406e+17
19496.0	6.423741902181716e+17
19497.0	6.429356177315158e+17
19498.0	6.431755753313622e+17
19499.0	6.418624382937757e+17
19500.0	6.440831814729725e+17
19501.0	6.44336747422242e+17
19502.0	6.445704178302975e+17
19503.0	6.44890962620143e+17
19504.0	6.451643418323625e+17
19505.0	6.453557604297385e+17
19506.0	6.455398914239146e+17
19507.0	6.457170821032617e+17
19508.0	6.459643967919443e+17
19509.0	6.461610145087487e+17
19510.0	6.462998596725417e+17
19511.0	6.444455302616389e+17
19512.0	6.463353360744442e+17
19513.0	6.46249478741469e+17
19514.0	6.465377548632058e+17
19515.0	6.470376364179455e+17
19516.0	6.472016737599487e+17
19517.0	6.473132694394196e+17
19518.0	6.474233160925183e+17
19519.0	6.475218682555049e+17
19520.0	6.476135986626559e+17
19521.0	6.477049293526356e+17
19522.0	6.477857346464425e+17
19523.0	6.478652778042708e+17
19524.0	6.480840721345196e+17
19525.0	6.48375019189043e+17
19526.0	6.48460612141056e+17
19527.0	6.489399987885402e+17
19528.0	6.491981906356906e+17
19529.0	6.492381719997097e+17
19530.0	6.495825905582083e+17
19531.0	6.498382706464084e+17
19532.0	6.498603921746602e+17
19533.0	6.498941064795475e+17
19534.0	6.503367826210815e+17
19535.0	6.503448231018495e+17
19536.0	6.503476781645823e+17
19537.0	6.50350649619251e+17
19538.0	6.50573171357559e+17
19539.0	6.506617634466474e+17
19540.0	6.506837665557162e+17
19541.0	6.506711600857087e+17
19542.0	6.506531949030057e+17
19543.0	6.50703351508719e+17
19544.0	6.508897391083519e+17
19545.0	6.508301818789885e+17
19546.0	6.507730273566719e+17
19547.0	6.50800276840994e+17
19548.0	6.507660423026003e+17
19549.0	6.507217680684372e+17
19550.0	6.508982485123072e+17
19551.0	6.508590712662698e+17
19552.0	6.508144454096212e+17
19553.0	6.507664257318911e+17
19554.0	6.507171632818858e+17
19555.0	6.506689179506004e+17
19556.0	6.506188798339753e+17
19557.0	6.505972413497341e+17
19558.0	6.506700602692948e+17
19559.0	6.50613057580783e+17
19560.0	6.505517576880127e+17
19561.0	6.504920294009514e+17
19562.0	6.504320031784959e+17
19563.0	6.503694136071508e+17
19564.0	6.503049248549545e+17
19565.0	6.502390794551295e+17
19566.0	6.501697860577962e+17
19567.0	6.50103438110447e+17
19568.0	6.500318841929727e+17
19569.0	6.500273700033876e+17
19570.0	6.499929659452073e+17
19571.0	6.499193528341844e+17
19572.0	6.498425758198442e+17
19573.0	6.497681792827392e+17
19574.0	6.496852050444287e+17
19575.0	6.496145608015871e+17
19576.0	6.495357150167037e+17
19577.0	6.494549052489727e+17
19578.0	6.493726001419603e+17
19579.0	6.492915629730473e+17
19580.0	6.492094504544936e+17
19581.0	6.491273344406868e+17
19582.0	6.490447272738815e+17
19583.0	6.489602990101843e+17
19584.0	6.488749461121706e+17
19585.0	6.48780644037427e+17
19586.0	6.486911082998441e+17
19587.0	6.486098356906666e+17
19588.0	6.485345806494378e+17
19589.0	6.48499407285999e+17
19590.0	6.484055696605183e+17
19591.0	6.483224595966633e+17
19592.0	6.482319525980842e+17
19593.0	6.481393795552595e+17
19594.0	6.480308163575807e+17
19595.0	6.479550027748692e+17
19596.0	6.478191294851753e+17
19597.0	6.477693438656512e+17
19598.0	6.47653489709329e+17
19599.0	6.475820772098047e+17
19600.0	6.474879726867796e+17
19601.0	6.474468107659946e+17
19602.0	6.473653601785171e+17
19603.0	6.472319467782143e+17
19604.0	6.471699277021183e+17
19605.0	6.470579256644948e+17
19606.0	6.469819952704169e+17
19607.0	6.468841954257578e+17
19608.0	6.46784337715746e+17
19609.0	6.466828299665407e+17
19610.0	6.465867681715539e+17
19611.0	6.466029679717033e+17
19612.0	6.465049644236799e+17
19613.0	6.464035614621695e+17
19614.0	6.463003079038291e+17
19615.0	6.462017039411881e+17
19616.0	6.460894082323796e+17
19617.0	6.459968279194281e+17
19618.0	6.458562511372287e+17
19619.0	6.457430787489791e+17
19620.0	6.456448926788265e+17
19621.0	6.45586000945698e+17
19622.0	6.454844766988969e+17
19623.0	6.453808541816148e+17
19624.0	6.453417627090941e+17
19625.0	6.452836718084095e+17
19626.0	6.451785099815593e+17
19627.0	6.450712296117587e+17
19628.0	6.449572301067604e+17
19629.0	6.448744891416576e+17
19630.0	6.446273901800106e+17
19631.0	6.436096327374164e+17
19632.0	6.445544126458537e+17
19633.0	6.444644365762559e+17
19634.0	6.443658712711167e+17
19635.0	6.442575824508244e+17
19636.0	6.441532952062633e+17
19637.0	6.440178779073194e+17
19638.0	6.439404355365545e+17
19639.0	6.438329015511721e+17
19640.0	6.437196571607037e+17
19641.0	6.435650342835542e+17
19642.0	6.43569233760529e+17
19643.0	6.434711105350314e+17
19644.0	6.433585953942185e+17
19645.0	6.432365900114601e+17
19646.0	6.431450872152063e+17
19647.0	6.430380865355775e+17
19648.0	6.429292487507968e+17
19649.0	6.428200395603965e+17
19650.0	6.427110212108287e+17
19651.0	6.426011629518847e+17
19652.0	6.424920173051904e+17
19653.0	6.423824432103423e+17
19654.0	6.422728074592255e+17
19655.0	6.42162586952226e+17
19656.0	6.420524290801664e+17
19657.0	6.419427751537321e+17
19658.0	6.418325169679017e+17
19659.0	6.417220358548137e+17
19660.0	6.416116614867625e+17
19661.0	6.415010458064212e+17
19662.0	6.413902251644244e+17
19663.0	6.412756462163284e+17
19664.0	6.41164816556578e+17
19665.0	6.410575178716502e+17
