# Flux units: erg / (cm m2 s)
# Wavelength units: Angstrom
wave	flux
19000.0	7.888435533927764e+17
19001.0	7.886892462069076e+17
19002.0	7.885446990266367e+17
19003.0	7.883949211298476e+17
19004.0	7.882449002430459e+17
19005.0	7.880959349227519e+17
19006.0	7.879468399984639e+17
19007.0	7.877571446308865e+17
19008.0	7.876432429929812e+17
19009.0	7.874968141081258e+17
19010.0	7.873262725890047e+17
19011.0	7.871978821473619e+17
19012.0	7.870144624372394e+17
19013.0	7.869000151203837e+17
19014.0	7.8674740131485e+17
19015.0	7.865994515753642e+17
19016.0	7.864497693087059e+17
19017.0	7.862780916924415e+17
19018.0	7.861494778342058e+17
19019.0	7.860033782022143e+17
19020.0	7.858498152256851e+17
19021.0	7.857023973239464e+17
19022.0	7.855554424733696e+17
19023.0	7.854039351252306e+17
19024.0	7.85255964414225e+17
19025.0	7.851032580543828e+17
19026.0	7.849536838609577e+17
19027.0	7.847866978533373e+17
19028.0	7.846595856957437e+17
19029.0	7.845090652673363e+17
19030.0	7.843617379625641e+17
19031.0	7.842124913442812e+17
19032.0	7.840632354985299e+17
19033.0	7.839095789890216e+17
19034.0	7.837637596763475e+17
19035.0	7.836133635391485e+17
19036.0	7.81391139351209e+17
19037.0	7.833163510317055e+17
19038.0	7.831666996630868e+17
19039.0	7.830188900133545e+17
19040.0	7.828697592976726e+17
19041.0	7.827202102700713e+17
19042.0	7.825669761269756e+17
19043.0	7.824226023112703e+17
19044.0	7.822727484975788e+17
19045.0	7.821230486148434e+17
19046.0	7.819713607718227e+17
19047.0	7.81826278957602e+17
19048.0	7.81667086246434e+17
19049.0	7.815247367416488e+17
19050.0	7.813769550539433e+17
19051.0	7.809790431111844e+17
19052.0	7.810633711310164e+17
19053.0	7.809226332176381e+17
19054.0	7.807837336677033e+17
19055.0	7.806222719778815e+17
19056.0	7.804840991610195e+17
19057.0	7.803360219146921e+17
19058.0	7.801776152160938e+17
19059.0	7.80039265399603e+17
19060.0	7.798891467855187e+17
19061.0	7.79741888127522e+17
19062.0	7.795929709019135e+17
19063.0	7.794443695073961e+17
19064.0	7.792892213635754e+17
19065.0	7.791376627051177e+17
19066.0	7.78994946478353e+17
19067.0	7.788489342276948e+17
19068.0	7.7870099609245e+17
19069.0	7.785524346836308e+17
19070.0	7.784018314876244e+17
19071.0	7.782534455405224e+17
19072.0	7.781064969814015e+17
19073.0	7.779579235489106e+17
19074.0	7.778096778313725e+17
19075.0	7.776611842304681e+17
19076.0	7.775115837527379e+17
19077.0	7.773638842733908e+17
19078.0	7.772102842471764e+17
19079.0	7.770672633741311e+17
19080.0	7.769182653382655e+17
19081.0	7.767681360986111e+17
19082.0	7.766180212594004e+17
19083.0	7.764675999563773e+17
19084.0	7.763126362221225e+17
19085.0	7.761762468233216e+17
19086.0	7.760066982357673e+17
19087.0	7.758280136152404e+17
19088.0	7.7572686755485e+17
19089.0	7.755469189109076e+17
19090.0	7.754339096810836e+17
19091.0	7.752861356829354e+17
19092.0	7.751243894794921e+17
19093.0	7.749915781016233e+17
19094.0	7.748408110481408e+17
19095.0	7.746915953278975e+17
19096.0	7.74539679314739e+17
19097.0	7.743977182025044e+17
19098.0	7.742512349315071e+17
19099.0	7.741025509092009e+17
19100.0	7.739518730545832e+17
19101.0	7.738063599261012e+17
19102.0	7.736557037420543e+17
19103.0	7.735116597384531e+17
19104.0	7.733639898988543e+17
19105.0	7.732160533015209e+17
19106.0	7.730582217818111e+17
19107.0	7.729195909469523e+17
19108.0	7.727723403979433e+17
19109.0	7.723762367594491e+17
19110.0	7.724749076212393e+17
19111.0	7.72328541790754e+17
19112.0	7.721813793221288e+17
19113.0	7.720341131143846e+17
19114.0	7.718864169904809e+17
19115.0	7.717335069272748e+17
19116.0	7.71589986652433e+17
19117.0	7.714426906651304e+17
19118.0	7.71282245115358e+17
19119.0	7.710566595078824e+17
19120.0	7.709867765312168e+17
19121.0	7.708449204163926e+17
19122.0	7.707058459639808e+17
19123.0	7.705562723297961e+17
19124.0	7.704005422962004e+17
19125.0	7.702583974734505e+17
19126.0	7.701038098284543e+17
19127.0	7.698897716991315e+17
19128.0	7.695868338984274e+17
19129.0	7.696691844437332e+17
19130.0	7.695259306470057e+17
19131.0	7.693707419582463e+17
19132.0	7.692319991354708e+17
19133.0	7.690213374208684e+17
19134.0	7.688230508604077e+17
19135.0	7.687896499399338e+17
19136.0	7.686432245503318e+17
19137.0	7.684875108745215e+17
19138.0	7.683021971565225e+17
19139.0	7.682006689950377e+17
19140.0	7.680546791140008e+17
19141.0	7.679077509671594e+17
19142.0	7.677585955050836e+17
19143.0	7.676103181904553e+17
19144.0	7.674632932950015e+17
19145.0	7.673184287457279e+17
19146.0	7.671358888607744e+17
19147.0	7.670215269679103e+17
19148.0	7.668771244911274e+17
19149.0	7.66730356147268e+17
19150.0	7.665810414414505e+17
19151.0	7.664375835219284e+17
19152.0	7.662865013364051e+17
19153.0	7.661431874213204e+17
19154.0	7.659913058014548e+17
19155.0	7.658498275934207e+17
19156.0	7.657033388698281e+17
19157.0	7.65552991666176e+17
19158.0	7.652367190545746e+17
19159.0	7.65261327175953e+17
19160.0	7.651100787561811e+17
19161.0	7.64944249397794e+17
19162.0	7.644417021531482e+17
19163.0	7.646735084726953e+17
19164.0	7.645299016553811e+17
19165.0	7.643785005629439e+17
19166.0	7.642264329956009e+17
19167.0	7.640539690871466e+17
19168.0	7.639330061986474e+17
19169.0	7.637875434018131e+17
19170.0	7.636502028746751e+17
19171.0	7.634883659344553e+17
19172.0	7.633557244258985e+17
19173.0	7.632102160509608e+17
19174.0	7.630619021060777e+17
19175.0	7.629179976329897e+17
19176.0	7.627711091922259e+17
19177.0	7.626175903956991e+17
19178.0	7.624740362868055e+17
19179.0	7.623082235658241e+17
19180.0	7.621028489112234e+17
19181.0	7.620323025354751e+17
19182.0	7.618809987508905e+17
19183.0	7.617370891048275e+17
19184.0	7.615860424310781e+17
19185.0	7.614526160284332e+17
19186.0	7.613073029682515e+17
19187.0	7.611559510889812e+17
19188.0	7.610117594458794e+17
19189.0	7.608575660654591e+17
19190.0	7.607092083600041e+17
19191.0	7.605690783410858e+17
19192.0	7.604188295637672e+17
19193.0	7.601799737376765e+17
19194.0	7.600920595879251e+17
19195.0	7.599817952504489e+17
19196.0	7.598423403746644e+17
19197.0	7.596953330952874e+17
19198.0	7.595440971186175e+17
19199.0	7.57164364651997e+17
19200.0	7.5780747882223e+17
19201.0	7.591063283826687e+17
19202.0	7.589649403521708e+17
19203.0	7.5881545493818e+17
19204.0	7.586721003383466e+17
19205.0	7.585275180657324e+17
19206.0	7.583815502746963e+17
19207.0	7.582317832830973e+17
19208.0	7.580795725501778e+17
19209.0	7.579409398977876e+17
19210.0	7.577964633216339e+17
19211.0	7.57650170192418e+17
19212.0	7.575050592976893e+17
19213.0	7.573342150896296e+17
19214.0	7.571755855336787e+17
19215.0	7.570578370199552e+17
19216.0	7.56915417190673e+17
19217.0	7.567736329382569e+17
19218.0	7.565888442073087e+17
19219.0	7.56473222485333e+17
19220.0	7.563324738065748e+17
19221.0	7.561693411060394e+17
19222.0	7.560414422368253e+17
19223.0	7.558939317807786e+17
19224.0	7.557394266237612e+17
19225.0	7.555935361477288e+17
19226.0	7.554550296040787e+17
19227.0	7.553084438522534e+17
19228.0	7.551639070179325e+17
19229.0	7.550175669125117e+17
19230.0	7.548612021409108e+17
19231.0	7.547159929596585e+17
19232.0	7.545718203307348e+17
19233.0	7.544280773383506e+17
19234.0	7.542845339948372e+17
19235.0	7.541377304188244e+17
19236.0	7.53992974082594e+17
19237.0	7.538457561093458e+17
19238.0	7.536921769148415e+17
19239.0	7.5355288254109e+17
19240.0	7.533869019081382e+17
19241.0	7.53253437477137e+17
19242.0	7.531107910156284e+17
19243.0	7.52957226361378e+17
19244.0	7.528198092182867e+17
19245.0	7.526730166872744e+17
19246.0	7.525259477516287e+17
19247.0	7.523790784648531e+17
19248.0	7.52231921169203e+17
19249.0	7.520846204283561e+17
19250.0	7.51937523950114e+17
19251.0	7.517870401519612e+17
19252.0	7.516256784263849e+17
19253.0	7.514968355591508e+17
19254.0	7.513478626891092e+17
19255.0	7.511932333806931e+17
19256.0	7.510488682332156e+17
19257.0	7.509093834380628e+17
19258.0	7.507621345667753e+17
19259.0	7.506112455988563e+17
19260.0	7.504468066522451e+17
19261.0	7.503200505910612e+17
19262.0	7.501702991183871e+17
19263.0	7.500235949473792e+17
19264.0	7.498540238503935e+17
19265.0	7.497221641601024e+17
19266.0	7.495776852071764e+17
19267.0	7.494355135408808e+17
19268.0	7.492866294502739e+17
19269.0	7.491396764172288e+17
19270.0	7.489904924338858e+17
19271.0	7.488277138724182e+17
19272.0	7.486940228091901e+17
19273.0	7.480382956677796e+17
19274.0	7.481494975720102e+17
19275.0	7.482508835465898e+17
19276.0	7.481015101205161e+17
19277.0	7.479526409895936e+17
19278.0	7.478041434740051e+17
19279.0	7.476452898024106e+17
19280.0	7.475028996128765e+17
19281.0	7.473576227635199e+17
19282.0	7.47209030316851e+17
19283.0	7.470229767236264e+17
19284.0	7.46821820560179e+17
19285.0	7.467494316266838e+17
19286.0	7.466100514095101e+17
19287.0	7.46462016385843e+17
19288.0	7.458424002445308e+17
19289.0	7.447312122336566e+17
19290.0	7.460119741377193e+17
19291.0	7.45848277303296e+17
19292.0	7.457112015765503e+17
19293.0	7.455601588174845e+17
19294.0	7.454089751298047e+17
19295.0	7.452586472199508e+17
19296.0	7.451072055825748e+17
19297.0	7.449542825170259e+17
19298.0	7.448031792201727e+17
19299.0	7.446528402653181e+17
19300.0	7.445008063922173e+17
19301.0	7.443479571464191e+17
19302.0	7.441951020285952e+17
19303.0	7.440374905700351e+17
19304.0	7.438866354361684e+17
19305.0	7.437362433534633e+17
19306.0	7.435814426378237e+17
19307.0	7.434241186288982e+17
19308.0	7.432723744423936e+17
19309.0	7.430550229527209e+17
19310.0	7.428601197974867e+17
19311.0	7.428050133538131e+17
19312.0	7.426553421321555e+17
19313.0	7.424874416264531e+17
19314.0	7.41841781653503e+17
19315.0	7.417155115723446e+17
19316.0	7.420296962594132e+17
19317.0	7.418764811304957e+17
19318.0	7.41718939996433e+17
19319.0	7.415623778129236e+17
19320.0	7.414007375855615e+17
19321.0	7.412458065668777e+17
19322.0	7.410760226788694e+17
19323.0	7.408891938384556e+17
19324.0	7.407659267391488e+17
19325.0	7.405610073063423e+17
19326.0	7.404452365467647e+17
19327.0	7.402817413185533e+17
19328.0	7.401212339727017e+17
19329.0	7.39958815981568e+17
19330.0	7.397937820030292e+17
19331.0	7.396300295241727e+17
19332.0	7.394657664587091e+17
19333.0	7.392986101623464e+17
19334.0	7.391302582097236e+17
19335.0	7.389684774731775e+17
19336.0	7.388003788565161e+17
19337.0	7.386329897762815e+17
19338.0	7.384548038585e+17
19339.0	7.382950019945812e+17
19340.0	7.381230077083647e+17
19341.0	7.379539593614676e+17
19342.0	7.377588903914153e+17
19343.0	7.376087892535977e+17
19344.0	7.374346734884182e+17
19345.0	7.371640413356028e+17
19346.0	7.370585919193087e+17
19347.0	7.3690256520861e+17
19348.0	7.367280915294888e+17
19349.0	7.365456682461866e+17
19350.0	7.363648333458089e+17
19351.0	7.361831180610216e+17
19352.0	7.359995895786153e+17
19353.0	7.358188862395732e+17
19354.0	7.356291504668671e+17
19355.0	7.354362507908435e+17
19356.0	7.352513093872297e+17
19357.0	7.350594591260671e+17
19358.0	7.348613491458047e+17
19359.0	7.346438191185919e+17
19360.0	7.344719587704832e+17
19361.0	7.342715893186557e+17
19362.0	7.340741578369706e+17
19363.0	7.338704818754899e+17
19364.0	7.336642652842664e+17
19365.0	7.33456138187571e+17
19366.0	7.33245553648162e+17
19367.0	7.330306979091795e+17
19368.0	7.328120905050793e+17
19369.0	7.325805256376319e+17
19370.0	7.323027152131411e+17
19371.0	7.321375628154195e+17
19372.0	7.319113954579795e+17
19373.0	7.316772510935721e+17
19374.0	7.314423004441258e+17
19375.0	7.312019609529002e+17
19376.0	7.309541227451732e+17
19377.0	7.307041801153194e+17
19378.0	7.304512066813951e+17
19379.0	7.301931703031126e+17
19380.0	7.299301529092096e+17
19381.0	7.296612945275561e+17
19382.0	7.293796616940202e+17
19383.0	7.290930309278377e+17
19384.0	7.288087573605034e+17
19385.0	7.285156726789462e+17
19386.0	7.282159429615615e+17
19387.0	7.279025897253545e+17
19388.0	7.275866070799699e+17
19389.0	7.272606671568896e+17
19390.0	7.269211917953705e+17
19391.0	7.248148604212536e+17
19392.0	7.262125964307113e+17
19393.0	7.258546831884288e+17
19394.0	7.254774511217321e+17
19395.0	7.25091385291571e+17
19396.0	7.246887087592787e+17
19397.0	7.24277410275874e+17
19398.0	7.238526770173268e+17
19399.0	7.233849097803091e+17
19400.0	7.229493886320639e+17
19401.0	7.22473594196241e+17
19402.0	7.2198404454045e+17
19403.0	7.214551864268116e+17
19404.0	7.209198675471017e+17
19405.0	7.203643472216063e+17
19406.0	7.197717162535594e+17
19407.0	7.191696518763859e+17
19408.0	7.184915133104127e+17
19409.0	7.178344604893181e+17
19410.0	7.171412896776191e+17
19411.0	7.163895718346751e+17
19412.0	7.156079091777535e+17
19413.0	7.147799750989139e+17
19414.0	7.139435697842858e+17
19415.0	7.130785931504297e+17
19416.0	7.121281802218153e+17
19417.0	7.11146144338193e+17
19418.0	7.101364008823466e+17
19419.0	7.090435663069183e+17
19420.0	7.078955191719251e+17
19421.0	7.06645675020561e+17
19422.0	7.053307618350419e+17
19423.0	7.039076288954365e+17
19424.0	7.02362822971665e+17
19425.0	7.007143251847849e+17
19426.0	6.989068037171881e+17
19427.0	6.97119781560866e+17
19428.0	6.953014970897748e+17
19429.0	6.933436217775443e+17
19430.0	6.911898140977836e+17
19431.0	6.886582416747183e+17
19432.0	6.865083855186598e+17
19433.0	6.838110658057558e+17
19434.0	6.808413795953322e+17
19435.0	6.775271849983997e+17
19436.0	6.739111875794259e+17
19437.0	6.705927605802326e+17
19438.0	6.65395265885525e+17
19439.0	6.627016617667244e+17
19440.0	6.581532658150056e+17
19441.0	6.530376238017189e+17
19442.0	6.474338470111916e+17
19443.0	6.416844874667348e+17
19444.0	6.352878631387132e+17
19445.0	6.280390618644481e+17
19446.0	6.202140304692563e+17
19447.0	6.114076378442405e+17
19448.0	6.013551696500056e+17
19449.0	5.880714022442324e+17
19450.0	5.5824720407647123e+17
19451.0	5.458233230972252e+17
19452.0	5.7562364155439834e+17
19453.0	5.953050204176389e+17
19454.0	6.06062208649352e+17
19455.0	6.152186647369043e+17
19456.0	6.231901982774615e+17
19457.0	6.305490002072914e+17
19458.0	6.367204964564998e+17
19459.0	6.428839874570924e+17
19460.0	6.482493427417085e+17
19461.0	6.534271595096745e+17
19462.0	6.579768490546518e+17
19463.0	6.620450505359359e+17
19464.0	6.657112182620159e+17
19465.0	6.690320051863552e+17
19466.0	6.721405443899387e+17
19467.0	6.753981769099945e+17
19468.0	6.78246616067823e+17
19469.0	6.807475098135208e+17
19470.0	6.831102900218536e+17
19471.0	6.851879494134442e+17
19472.0	6.870935685911892e+17
19473.0	6.888463897635498e+17
19474.0	6.904758667313151e+17
19475.0	6.91944306193203e+17
19476.0	6.935026936228522e+17
19477.0	6.949678974588246e+17
19478.0	6.962708157737641e+17
19479.0	6.974756092553897e+17
19480.0	6.98560905757764e+17
19481.0	6.995629337914025e+17
19482.0	7.004766611701759e+17
19483.0	7.01335182909986e+17
19484.0	7.0211065099933e+17
19485.0	7.028338510004223e+17
19486.0	7.035006996884138e+17
19487.0	7.041244239407785e+17
19488.0	7.046862726321492e+17
19489.0	7.052433469472768e+17
19490.0	7.0571755859258e+17
19491.0	7.062497209789097e+17
19492.0	7.066901933632169e+17
19493.0	7.071138212828499e+17
19494.0	7.07486913012258e+17
19495.0	7.07833714844194e+17
19496.0	7.081314036132521e+17
19497.0	7.084493584203775e+17
19498.0	7.086275875394903e+17
19499.0	7.061548540712246e+17
19500.0	7.091953000076628e+17
19501.0	7.093936117339476e+17
19502.0	7.095891532622505e+17
19503.0	7.097617174145706e+17
19504.0	7.099110501558953e+17
19505.0	7.100536269919574e+17
19506.0	7.101876445118463e+17
19507.0	7.103008473787049e+17
19508.0	7.104012722984275e+17
19509.0	7.104940019286015e+17
19510.0	7.105642068880041e+17
19511.0	7.088407750639604e+17
19512.0	7.103643161460719e+17
19513.0	7.099750042042351e+17
19514.0	7.102734870948515e+17
19515.0	7.107899510401708e+17
19516.0	7.108783334140585e+17
19517.0	7.108939181894313e+17
19518.0	7.109102924726271e+17
19519.0	7.109158555178323e+17
19520.0	7.10921597100578e+17
19521.0	7.109227522118995e+17
19522.0	7.109096051660116e+17
19523.0	7.108960841280169e+17
19524.0	7.108752110343508e+17
19525.0	7.108461963771904e+17
19526.0	7.108190923653119e+17
19527.0	7.107872002757972e+17
19528.0	7.107518675987113e+17
19529.0	7.107101330156202e+17
19530.0	7.106656037677738e+17
19531.0	7.106169326447272e+17
19532.0	7.105649352987987e+17
19533.0	7.105099985846271e+17
19534.0	7.104519312419497e+17
19535.0	7.103924164449619e+17
19536.0	7.103297750739625e+17
19537.0	7.102682024116223e+17
19538.0	7.101992529472169e+17
19539.0	7.101043308145322e+17
19540.0	7.10055665144081e+17
19541.0	7.099822193857875e+17
19542.0	7.099050056045908e+17
19543.0	7.098261292012884e+17
19544.0	7.097453312475135e+17
19545.0	7.096473123203752e+17
19546.0	7.095357369832787e+17
19547.0	7.094906928147114e+17
19548.0	7.094049439044948e+17
19549.0	7.093108634288127e+17
19550.0	7.092258236355923e+17
19551.0	7.091342013016745e+17
19552.0	7.090410845372415e+17
19553.0	7.089459159192916e+17
19554.0	7.08852047815202e+17
19555.0	7.087565246387539e+17
19556.0	7.086593921078612e+17
19557.0	7.08559940686097e+17
19558.0	7.084604758425599e+17
19559.0	7.083576468875944e+17
19560.0	7.082565852725247e+17
19561.0	7.08153938210543e+17
19562.0	7.080517277756074e+17
19563.0	7.079464998185641e+17
19564.0	7.078421996415657e+17
19565.0	7.077363109418326e+17
19566.0	7.076281322919251e+17
19567.0	7.075215072122195e+17
19568.0	7.074123322753023e+17
19569.0	7.073038288464553e+17
19570.0	7.071958908097875e+17
19571.0	7.070857664222548e+17
19572.0	7.069732234592255e+17
19573.0	7.068632448936617e+17
19574.0	7.067464958825811e+17
19575.0	7.066395327419731e+17
19576.0	7.065263607731539e+17
19577.0	7.064082374284628e+17
19578.0	7.062982072729599e+17
19579.0	7.061843091303081e+17
19580.0	7.060698039320573e+17
19581.0	7.059553266958335e+17
19582.0	7.058406053511168e+17
19583.0	7.057246324260863e+17
19584.0	7.056073396933972e+17
19585.0	7.054845553584808e+17
19586.0	7.053525601921706e+17
19587.0	7.052243839396522e+17
19588.0	7.051119430380202e+17
19589.0	7.049869072007168e+17
19590.0	7.048981888630783e+17
19591.0	7.047860650508288e+17
19592.0	7.046674351740244e+17
19593.0	7.045461044450644e+17
19594.0	7.044124294600019e+17
19595.0	7.043084746140329e+17
19596.0	7.036176882641582e+17
19597.0	7.040664712424105e+17
19598.0	7.039389544742911e+17
19599.0	7.038300282596008e+17
19600.0	7.03709559530018e+17
19601.0	7.035852176403114e+17
19602.0	7.034651542203049e+17
19603.0	7.032917673552553e+17
19604.0	7.032196743299072e+17
19605.0	7.030871246766079e+17
19606.0	7.029784812978175e+17
19607.0	7.028576808686932e+17
19608.0	7.027339628817066e+17
19609.0	7.026089857646591e+17
19610.0	7.024899001068202e+17
19611.0	7.023665009568426e+17
19612.0	7.022439471688361e+17
19613.0	7.021199281706323e+17
19614.0	7.019952500375551e+17
19615.0	7.018738327661226e+17
19616.0	7.017345923590825e+17
19617.0	7.016259466035197e+17
19618.0	7.014805832815955e+17
19619.0	7.013479137411071e+17
19620.0	7.012258254509395e+17
19621.0	7.011300041992874e+17
19622.0	7.010061963143849e+17
19623.0	7.008818246451199e+17
19624.0	7.007568043267412e+17
19625.0	7.006322247598079e+17
19626.0	7.005078611995306e+17
19627.0	7.003830670939476e+17
19628.0	7.002070257238016e+17
19629.0	7.001285007332692e+17
19630.0	6.999691628292778e+17
19631.0	6.975817588408306e+17
19632.0	6.997558751308457e+17
19633.0	6.996297537377619e+17
19634.0	6.995072988654249e+17
19635.0	6.993798820615508e+17
19636.0	6.992560302063615e+17
19637.0	6.991101404992852e+17
19638.0	6.990052348045993e+17
19639.0	6.988775066435583e+17
19640.0	6.98750912832034e+17
19641.0	6.986057158142634e+17
19642.0	6.985021346807807e+17
19643.0	6.98374675374626e+17
19644.0	6.982479601380009e+17
19645.0	6.981130387455997e+17
19646.0	6.979990000238591e+17
19647.0	6.978729569943551e+17
19648.0	6.977468655206399e+17
19649.0	6.976203484648787e+17
19650.0	6.974945647831721e+17
19651.0	6.973679825059839e+17
19652.0	6.972416504889343e+17
19653.0	6.971149055426559e+17
19654.0	6.969890061680639e+17
19655.0	6.968625208492031e+17
19656.0	6.967358671290365e+17
19657.0	6.966103376920575e+17
19658.0	6.964832535663956e+17
19659.0	6.963574350719657e+17
19660.0	6.962310300041215e+17
19661.0	6.961045142066516e+17
19662.0	6.95977981771776e+17
19663.0	6.958489365293738e+17
19664.0	6.957139731240275e+17
19665.0	6.95598258917649e+17
19666.0	6.954705888477183e+17
