# Flux units: erg / (cm m2 s)
# Wavelength units: Angstrom
wave	flux
19000.0	4.14734999495202e+17
19001.0	4.1464508997522765e+17
19002.0	4.1459308452031136e+17
19003.0	4.1452105818439674e+17
19004.0	4.144371497347754e+17
19005.0	4.143653662490623e+17
19006.0	4.142772532893011e+17
19007.0	4.142331746495146e+17
19008.0	4.1414980474852685e+17
19009.0	4.140764019818495e+17
19010.0	4.139099041213095e+17
19011.0	4.139344963742378e+17
19012.0	4.138205253905065e+17
19013.0	4.138042849755136e+17
19014.0	4.137169449560746e+17
19015.0	4.136352733287764e+17
19016.0	4.1356794712992416e+17
19017.0	4.135145163106986e+17
19018.0	4.1343990698257056e+17
19019.0	4.1336811147318605e+17
19020.0	4.1329744472091296e+17
19021.0	4.132270564704255e+17
19022.0	4.131581147654827e+17
19023.0	4.130678979428351e+17
19024.0	4.129911838430548e+17
19025.0	4.1293953175825056e+17
19026.0	4.1286355648511994e+17
19027.0	4.12784261210658e+17
19028.0	4.127216576582996e+17
19029.0	4.126457719335593e+17
19030.0	4.1257460333281274e+17
19031.0	4.1250510783993165e+17
19032.0	4.1244070199514445e+17
19033.0	4.123491720058197e+17
19034.0	4.122945101583702e+17
19035.0	4.122245321807189e+17
19036.0	4.1105712315978976e+17
19037.0	4.1207733028563616e+17
19038.0	4.120055944751785e+17
19039.0	4.1193628758616736e+17
19040.0	4.118625864646655e+17
19041.0	4.1179192306783565e+17
19042.0	4.107340964604572e+17
19043.0	4.116552093095253e+17
19044.0	4.115858445391189e+17
19045.0	4.115090069869909e+17
19046.0	4.1142797492114765e+17
19047.0	4.1136590558330874e+17
19048.0	4.1113217386850963e+17
19049.0	4.091856498808123e+17
19050.0	4.111420820728489e+17
19051.0	4.108927113363451e+17
19052.0	4.110022640402432e+17
19053.0	4.1094308681482234e+17
19054.0	4.1086676537180154e+17
19055.0	4.104547871315285e+17
19056.0	4.106344722333692e+17
19057.0	4.106597316602538e+17
19058.0	4.0954549928372736e+17
19059.0	4.100907205656572e+17
19060.0	4.1044196115961165e+17
19061.0	4.1037072300332365e+17
19062.0	4.1029523315097594e+17
19063.0	4.102334976797354e+17
19064.0	4.101411890877781e+17
19065.0	4.1006532076939936e+17
19066.0	4.0961725662494765e+17
19067.0	4.099335712494931e+17
19068.0	4.098791199561045e+17
19069.0	4.098079795270997e+17
19070.0	4.0972371665879034e+17
19071.0	4.0965925349184845e+17
19072.0	4.091831688800933e+17
19073.0	4.095247548153855e+17
19074.0	4.0944564569811616e+17
19075.0	4.0938262802814285e+17
19076.0	4.0929588283091616e+17
19077.0	4.092355018402474e+17
19078.0	4.0915487158872736e+17
19079.0	4.090933682722133e+17
19080.0	4.090255686063444e+17
19081.0	4.0894675092329805e+17
19082.0	4.0887898327394976e+17
19083.0	4.0880354976508576e+17
19084.0	4.087152059787946e+17
19085.0	4.0866690675070285e+17
19086.0	4.080578225067347e+17
19087.0	4.076714251867466e+17
19088.0	4.0796561667522477e+17
19089.0	4.0835290360709126e+17
19090.0	4.0831778784542714e+17
19091.0	4.081853043223214e+17
19092.0	4.073885389553686e+17
19093.0	4.081072645428565e+17
19094.0	4.0803825307265696e+17
19095.0	4.0796257776216736e+17
19096.0	4.078938108897962e+17
19097.0	4.0782427583064736e+17
19098.0	4.073479584350203e+17
19099.0	4.0718900284183936e+17
19100.0	4.0760561557831674e+17
19101.0	4.0753518650327034e+17
19102.0	4.074430544216063e+17
19103.0	4.073973418207914e+17
19104.0	4.073352644438698e+17
19105.0	4.063683169397445e+17
19106.0	4.0717980368459085e+17
19107.0	4.069088676544508e+17
19108.0	4.067174606613164e+17
19109.0	4.069283829121023e+17
19110.0	4.069074845827072e+17
19111.0	4.065882378600442e+17
19112.0	4.0645843016308e+17
19113.0	4.066963456262143e+17
19114.0	4.06464717145156e+17
19115.0	4.0650984464056314e+17
19116.0	4.0647335105003514e+17
19117.0	4.064095462490111e+17
19118.0	4.063037361924778e+17
19119.0	4.0279960435643206e+17
19120.0	4.061810982387711e+17
19121.0	4.0612395937518925e+17
19122.0	4.0606825482376525e+17
19123.0	4.060003733689684e+17
19124.0	4.059251351748608e+17
19125.0	4.0585817115415885e+17
19126.0	4.0578723240127136e+17
19127.0	4.0536382712927514e+17
19128.0	4.0564285676803405e+17
19129.0	4.0556653071127885e+17
19130.0	4.05508264768307e+17
19131.0	4.0543779333079034e+17
19132.0	4.0536331801067514e+17
19133.0	4.0529094256885754e+17
19134.0	4.0522634874934605e+17
19135.0	4.051569704872618e+17
19136.0	4.0508136613041485e+17
19137.0	4.0497986586105165e+17
19138.0	4.049461625312596e+17
19139.0	4.048809675281749e+17
19140.0	4.048116298809342e+17
19141.0	4.04739758035217e+17
19142.0	4.0466109071796896e+17
19143.0	4.045843411064149e+17
19144.0	4.045206854828031e+17
19145.0	4.044572678859434e+17
19146.0	4.042862805822124e+17
19147.0	4.042858758318761e+17
19148.0	4.039089384150362e+17
19149.0	4.037725603408555e+17
19150.0	4.041108963196927e+17
19151.0	4.040386899083264e+17
19152.0	4.0397213105739085e+17
19153.0	4.0317423972952634e+17
19154.0	4.037506936165717e+17
19155.0	4.037638080866986e+17
19156.0	4.0369181153034234e+17
19157.0	4.033938437701638e+17
19158.0	4.030087861108743e+17
19159.0	4.034657593065472e+17
19160.0	4.034088059710123e+17
19161.0	4.0334268472579405e+17
19162.0	4.0319413743779834e+17
19163.0	4.032047141442902e+17
19164.0	4.031319472340991e+17
19165.0	4.022785767287452e+17
19166.0	4.029597338654036e+17
19167.0	4.029103736881151e+17
19168.0	4.0285534931298976e+17
19169.0	4.0278314968241485e+17
19170.0	4.0271851119356576e+17
19171.0	4.0263843829514234e+17
19172.0	4.02577641369327e+17
19173.0	4.0251115801586336e+17
19174.0	4.024279561666559e+17
19175.0	4.023679364453717e+17
19176.0	4.023018549761366e+17
19177.0	4.0220544575296845e+17
19178.0	4.0214818874982406e+17
19179.0	4.020683351435946e+17
19180.0	4.0202230230766925e+17
19181.0	4.019134050336767e+17
19182.0	4.0187300563735885e+17
19183.0	4.018142165248683e+17
19184.0	4.0174262450913274e+17
19185.0	4.016720229782868e+17
19186.0	4.016073054268074e+17
19187.0	4.01529031954705e+17
19188.0	4.0146754247939405e+17
19189.0	4.0140185303777274e+17
19190.0	4.0133265603952634e+17
19191.0	4.0125358585937914e+17
19192.0	4.0119387323105274e+17
19193.0	4.0104198790621875e+17
19194.0	4.0092132120548704e+17
19195.0	4.0098633193881594e+17
19196.0	4.009134215834282e+17
19197.0	4.0084124075731616e+17
19198.0	4.007736065567403e+17
19199.0	4.001121311216979e+17
19200.0	4.0026740208872134e+17
19201.0	4.005660526116863e+17
19202.0	4.0050452343029754e+17
19203.0	4.004316275452586e+17
19204.0	4.0036351736108365e+17
19205.0	4.002958904306346e+17
19206.0	4.0022593622070605e+17
19207.0	4.0013358086225914e+17
19208.0	4.00030891717427e+17
19209.0	4.000182240804863e+17
19210.0	3.9994421286010874e+17
19211.0	3.9988215372840954e+17
19212.0	3.9981357497057274e+17
19213.0	3.997272077500415e+17
19214.0	3.996520310024874e+17
19215.0	3.9960553350758394e+17
19216.0	3.9953933746394445e+17
19217.0	3.9947287536162125e+17
19218.0	3.9925250201572666e+17
19219.0	3.9931000990815565e+17
19220.0	3.992611036244649e+17
19221.0	3.991361958532438e+17
19222.0	3.99121441619968e+17
19223.0	3.990534113372843e+17
19224.0	3.989802374397951e+17
19225.0	3.988934293280085e+17
19226.0	3.9885131949451936e+17
19227.0	3.987814895058943e+17
19228.0	3.9871556714059085e+17
19229.0	3.9863599378377376e+17
19230.0	3.9857502873627296e+17
19231.0	3.9851136255699616e+17
19232.0	3.984433521273514e+17
19233.0	3.9836218996817914e+17
19234.0	3.9829687724496205e+17
19235.0	3.982304747716608e+17
19236.0	3.981676752754004e+17
19237.0	3.9809077494852256e+17
19238.0	3.9800615060111354e+17
19239.0	3.979619314521429e+17
19240.0	3.9788879446452896e+17
19241.0	3.9782314682613766e+17
19242.0	3.977460564972885e+17
19243.0	3.9766607671241376e+17
19244.0	3.976170390771029e+17
19245.0	3.975459827438932e+17
19246.0	3.9747987610883405e+17
19247.0	3.974152788639744e+17
19248.0	3.973465222676479e+17
19249.0	3.972609876164608e+17
19250.0	3.970739121509717e+17
19251.0	3.969972636221437e+17
19252.0	3.970320587991723e+17
19253.0	3.969982547361791e+17
19254.0	3.96936788119825e+17
19255.0	3.9683763924718925e+17
19256.0	3.9679225373218125e+17
19257.0	3.967306192737621e+17
19258.0	3.9666095020660045e+17
19259.0	3.965866561503231e+17
19260.0	3.9648279127217485e+17
19261.0	3.9645841977944736e+17
19262.0	3.9637681449205754e+17
19263.0	3.9630374803865594e+17
19264.0	3.961425697439742e+17
19265.0	3.961391246824788e+17
19266.0	3.960164847714304e+17
19267.0	3.960507732765354e+17
19268.0	3.959755473158143e+17
19269.0	3.959124160501076e+17
19270.0	3.95845452239121e+17
19271.0	3.9570350231169734e+17
19272.0	3.957039895500117e+17
19273.0	3.956078698037248e+17
19274.0	3.955105032306686e+17
19275.0	3.9550779622686714e+17
19276.0	3.954367017254911e+17
19277.0	3.953713864856917e+17
19278.0	3.952930185718442e+17
19279.0	3.952311774740478e+17
19280.0	3.951522415116287e+17
19281.0	3.950977031165268e+17
19282.0	3.950332401593002e+17
19283.0	3.94956576391168e+17
19284.0	3.9489195244257274e+17
19285.0	3.9479910690979834e+17
19286.0	3.9475217572386125e+17
19287.0	3.9468714835312634e+17
19288.0	3.943887299848874e+17
19289.0	3.937609276806467e+17
19290.0	3.9449080536323405e+17
19291.0	3.943815640864086e+17
19292.0	3.943541273264127e+17
19293.0	3.9428322576302074e+17
19294.0	3.942160512581632e+17
19295.0	3.941483019239424e+17
19296.0	3.9366186108627744e+17
19297.0	3.939459440923993e+17
19298.0	3.939409486763349e+17
19299.0	3.934105368526852e+17
19300.0	3.938044405787307e+17
19301.0	3.937411816663722e+17
19302.0	3.936766367105023e+17
19303.0	3.9359150736889165e+17
19304.0	3.935344231011669e+17
19305.0	3.9346745306862925e+17
19306.0	3.9340451481081165e+17
19307.0	3.933251069891925e+17
19308.0	3.9326367910024525e+17
19309.0	3.9317625323738445e+17
19310.0	3.931047338530133e+17
19311.0	3.930561121528491e+17
19312.0	3.929902950645759e+17
19313.0	3.929146487646891e+17
19314.0	3.873827326001083e+17
19315.0	3.876414011299256e+17
19316.0	3.921788150306142e+17
19317.0	3.92655805681937e+17
19318.0	3.9259274949427194e+17
19319.0	3.925233564822186e+17
19320.0	3.9230126298234835e+17
19321.0	3.92021706469103e+17
19322.0	3.923175825997824e+17
19323.0	3.9225448733518496e+17
19324.0	3.921934523127125e+17
19325.0	3.921070748860416e+17
19326.0	3.920590949842943e+17
19327.0	3.9198962283970554e+17
19328.0	3.911105879474185e+17
19329.0	3.918598131154944e+17
19330.0	3.9178636183470074e+17
19331.0	3.91719814098671e+17
19332.0	3.9165850218222925e+17
19333.0	3.915917798233429e+17
19334.0	3.9150119816615264e+17
19335.0	3.897956052063595e+17
19336.0	3.913767974163798e+17
19337.0	3.9132202560826016e+17
19338.0	3.912191620502869e+17
19339.0	3.911831517134848e+17
19340.0	3.910148804313087e+17
19341.0	3.904517943503543e+17
19342.0	3.9075544420406656e+17
19343.0	3.90921098170641e+17
19344.0	3.902478716938932e+17
19345.0	3.9005979490822784e+17
19346.0	3.9058992515427014e+17
19347.0	3.899013840153259e+17
19348.0	3.905872791775914e+17
19349.0	3.9051456518553594e+17
19350.0	3.901858448583339e+17
19351.0	3.9037266447127885e+17
19352.0	3.895088525257373e+17
19353.0	3.9024986783307085e+17
19354.0	3.9018626589655034e+17
19355.0	3.901036101457238e+17
19356.0	3.900494778291542e+17
19357.0	3.8998528631330125e+17
19358.0	3.8991744861907616e+17
19359.0	3.896756917327182e+17
19360.0	3.891474234081278e+17
19361.0	3.897086930059264e+17
19362.0	3.8965129318673056e+17
19363.0	3.895838752724308e+17
19364.0	3.8951934220042234e+17
19365.0	3.8944980707136845e+17
19366.0	3.8937488729483936e+17
19367.0	3.8931554033991674e+17
19368.0	3.89251633058065e+17
19369.0	3.891786079884629e+17
19370.0	3.891175836614655e+17
19371.0	3.8904081797174605e+17
19372.0	3.889836226947754e+17
19373.0	3.889109159728468e+17
19374.0	3.888467898881364e+17
19375.0	3.8878506860762445e+17
19376.0	3.887202720634197e+17
19377.0	3.886526375832234e+17
19378.0	3.885877182857215e+17
19379.0	3.8852099229177165e+17
19380.0	3.884442123414186e+17
19381.0	3.8837576143994874e+17
19382.0	3.883082835471018e+17
19383.0	3.882337650256554e+17
19384.0	3.8817080747403936e+17
19385.0	3.8811932728579405e+17
19386.0	3.880527414515029e+17
19387.0	3.8798554303911245e+17
19388.0	3.8791481225379846e+17
19389.0	3.878459097655978e+17
19390.0	3.877792436802901e+17
19391.0	3.866775397597167e+17
19392.0	3.876432908386303e+17
19393.0	3.875788222889983e+17
19394.0	3.875123573205674e+17
19395.0	3.8720079477254874e+17
19396.0	3.873239546374828e+17
19397.0	3.873114024138068e+17
19398.0	3.8705145825635e+17
19399.0	3.86729431688806e+17
19400.0	3.8694658394903904e+17
19401.0	3.8704473961048736e+17
19402.0	3.869828498587647e+17
19403.0	3.8691334094411085e+17
19404.0	3.868432957876906e+17
19405.0	3.86771802128384e+17
19406.0	3.8671285139537914e+17
19407.0	3.863498654220282e+17
19408.0	3.8641277012541485e+17
19409.0	3.865099860530517e+17
19410.0	3.864471664241321e+17
19411.0	3.863792354066432e+17
19412.0	3.8630906910474234e+17
19413.0	3.8593797015906995e+17
19414.0	3.8617277848180045e+17
19415.0	3.861085501958827e+17
19416.0	3.8601041347870714e+17
19417.0	3.859647808492885e+17
19418.0	3.859086143651838e+17
19419.0	3.858404781064191e+17
19420.0	3.8577336735498234e+17
19421.0	3.8570386494149965e+17
19422.0	3.856270798181716e+17
19423.0	3.855690088404308e+17
19424.0	3.8550079918134605e+17
19425.0	3.8542589904814074e+17
19426.0	3.853623222774442e+17
19427.0	3.852915939388074e+17
19428.0	3.852165883887615e+17
19429.0	3.851529106052436e+17
19430.0	3.8506992378402144e+17
19431.0	3.847855955509254e+17
19432.0	3.849299765668522e+17
19433.0	3.848519936202069e+17
19434.0	3.8477734794144416e+17
19435.0	3.846776614289408e+17
19436.0	3.8449323914035174e+17
19437.0	3.845136459672233e+17
19438.0	3.8221762656556397e+17
19439.0	3.842329992844629e+17
19440.0	3.842278725866836e+17
19441.0	3.841155315094869e+17
19442.0	3.8398546453463034e+17
19443.0	3.8382040000757754e+17
19444.0	3.836103459078142e+17
19445.0	3.833233039600298e+17
19446.0	3.82887463555345e+17
19447.0	3.8214676540730016e+17
19448.0	3.806210532136277e+17
19449.0	3.763809637018282e+17
19450.0	3.6038321352212416e+17
19451.0	3.4640901068991155e+17
19452.0	3.660400502155949e+17
19453.0	3.7776620977302214e+17
19454.0	3.8074143840665594e+17
19455.0	3.818421329679701e+17
19456.0	3.823313479183018e+17
19457.0	3.825461812876629e+17
19458.0	3.640557870689293e+17
19459.0	3.822713418285086e+17
19460.0	3.8279330849095674e+17
19461.0	3.8281989925983565e+17
19462.0	3.828052698770091e+17
19463.0	3.827822379750742e+17
19464.0	3.8274151037446816e+17
19465.0	3.8270330795458554e+17
19466.0	3.82654054732049e+17
19467.0	3.826089532413268e+17
19468.0	3.8255809024491514e+17
19469.0	3.8186161103612486e+17
19470.0	3.824466388495018e+17
19471.0	3.823902902626986e+17
19472.0	3.8231958939675296e+17
19473.0	3.822600813106515e+17
19474.0	3.81601811791871e+17
19475.0	3.819458951555752e+17
19476.0	3.820789146408276e+17
19477.0	3.8201659028930554e+17
19478.0	3.819663846102357e+17
19479.0	3.813234407986508e+17
19480.0	3.8183735943058765e+17
19481.0	3.817415868328619e+17
19482.0	3.8170500341432314e+17
19483.0	3.816527083427157e+17
19484.0	3.815815466625706e+17
19485.0	3.81513305895731e+17
19486.0	3.808361226524007e+17
19487.0	3.813916505276415e+17
19488.0	3.813353590532778e+17
19489.0	3.812681888126293e+17
19490.0	3.808698828849144e+17
19491.0	3.811333913619114e+17
19492.0	3.8107646570878285e+17
19493.0	3.8101061730303994e+17
19494.0	3.80944751071505e+17
19495.0	3.8088307914397e+17
19496.0	3.807067668916904e+17
19497.0	3.8074538622539085e+17
19498.0	3.8056597724856326e+17
19499.0	3.790353736575647e+17
19500.0	3.8054857459193165e+17
19501.0	3.8050503610859514e+17
19502.0	3.804419960690006e+17
19503.0	3.803792123013802e+17
19504.0	3.8031357389045754e+17
19505.0	3.802376898434389e+17
19506.0	3.801867184941738e+17
19507.0	3.8011574891315194e+17
19508.0	3.800546787983359e+17
19509.0	3.7998668276913485e+17
19510.0	3.798008429456041e+17
19511.0	3.713900352634783e+17
19512.0	3.795644976201717e+17
19513.0	3.79154299092991e+17
19514.0	3.793037411658407e+17
19515.0	3.794993449096538e+17
19516.0	3.794710680305661e+17
19517.0	3.7944722823577594e+17
19518.0	3.792544477478909e+17
19519.0	3.7918462495948774e+17
19520.0	3.7874398578169094e+17
19521.0	3.792196576040276e+17
19522.0	3.790783548577108e+17
19523.0	3.789684294199983e+17
19524.0	3.7860866355363955e+17
19525.0	3.789521937585493e+17
19526.0	3.7889286847419725e+17
19527.0	3.7882764187402234e+17
19528.0	3.7872856598227616e+17
19529.0	3.7864520572818784e+17
19530.0	3.786382326977876e+17
19531.0	3.785725071152468e+17
19532.0	3.785071337843369e+17
19533.0	3.78437576495377e+17
19534.0	3.783814864874155e+17
19535.0	3.7831539886653434e+17
19536.0	3.782442680145236e+17
19537.0	3.781851207084714e+17
19538.0	3.7760646299429626e+17
19539.0	3.7793257488384064e+17
19540.0	3.779923700700501e+17
19541.0	3.7782824164174496e+17
19542.0	3.7782250089786016e+17
19543.0	3.7726143828896454e+17
19544.0	3.7770733495691936e+17
19545.0	3.7759805271572416e+17
19546.0	3.774001559459158e+17
19547.0	3.775486038289066e+17
19548.0	3.774827789112661e+17
19549.0	3.774013878829055e+17
19550.0	3.773448454493525e+17
19551.0	3.7729125035322016e+17
19552.0	3.772196432379903e+17
19553.0	3.771577188133546e+17
19554.0	3.770817945010176e+17
19555.0	3.7697257643267424e+17
19556.0	3.7692505601693e+17
19557.0	3.7689922043248634e+17
19558.0	3.7683877680687776e+17
19559.0	3.767755197120511e+17
19560.0	3.765227622847826e+17
19561.0	3.766434979818154e+17
19562.0	3.7640163861463014e+17
19563.0	3.7652101612612256e+17
19564.0	3.7644499904976205e+17
19565.0	3.7638795385896954e+17
19566.0	3.7631549047657805e+17
19567.0	3.762653154159273e+17
19568.0	3.7619840291525965e+17
19569.0	3.7613368788036275e+17
19570.0	3.7607072669368314e+17
19571.0	3.760053590250837e+17
19572.0	3.7593966126475936e+17
19573.0	3.758229962096638e+17
19574.0	3.7578308321279994e+17
19575.0	3.7575471294054394e+17
19576.0	3.7566455176232954e+17
19577.0	3.755484324560896e+17
19578.0	3.7555432482406394e+17
19579.0	3.7549559324344314e+17
19580.0	3.7542921586606074e+17
19581.0	3.753598156537855e+17
19582.0	3.7530716895969274e+17
19583.0	3.7524662683784525e+17
19584.0	3.7517700747318605e+17
19585.0	3.7509957370074445e+17
19586.0	3.75033119567599e+17
19587.0	3.7498741626415776e+17
19588.0	3.748295983759362e+17
19589.0	3.74859788067362e+17
19590.0	3.747641177407487e+17
19591.0	3.747332519275178e+17
19592.0	3.7466735025411405e+17
19593.0	3.745624453283838e+17
19594.0	3.744619570047656e+17
19595.0	3.7447725405088416e+17
19596.0	3.7440813387830605e+17
19597.0	3.743521007730686e+17
19598.0	3.7411853011954323e+17
19599.0	3.7422536079005e+17
19600.0	3.7415932385034234e+17
19601.0	3.740873457489237e+17
19602.0	3.740279944598868e+17
19603.0	3.738782955558227e+17
19604.0	3.7390490869432314e+17
19605.0	3.737908756348928e+17
19606.0	3.7377482445291514e+17
19607.0	3.737183377337002e+17
19608.0	3.7364338559112525e+17
19609.0	3.735810071330815e+17
19610.0	3.732648132345861e+17
19611.0	3.7306649640523117e+17
19612.0	3.7340274844412576e+17
19613.0	3.733301052659029e+17
19614.0	3.7326827073918285e+17
19615.0	3.7321308774946125e+17
19616.0	3.7288160533326554e+17
19617.0	3.7268370786440557e+17
19618.0	3.728917114388478e+17
19619.0	3.727438448863912e+17
19620.0	3.7261681885183917e+17
19621.0	3.7225584376763706e+17
19622.0	3.7276940756145485e+17
19623.0	3.726857223187114e+17
19624.0	3.725806509490176e+17
19625.0	3.7257959181735245e+17
19626.0	3.72511746363665e+17
19627.0	3.724543784910847e+17
19628.0	3.72373533561105e+17
19629.0	3.709497651844429e+17
19630.0	3.722610420482047e+17
19631.0	3.716496865886204e+17
19632.0	3.721295776011606e+17
19633.0	3.7206283503970976e+17
19634.0	3.720040761262079e+17
19635.0	3.7188433238207104e+17
19636.0	3.712181182223694e+17
19637.0	3.71143617526715e+17
19638.0	3.7171199891647104e+17
19639.0	3.7168617095167994e+17
19640.0	3.716211797218645e+17
19641.0	3.711219255651005e+17
19642.0	3.714714987134976e+17
19643.0	3.714042408118953e+17
19644.0	3.713695627957588e+17
19645.0	3.71263279412019e+17
19646.0	3.705591224598517e+17
19647.0	3.7117353794382496e+17
19648.0	3.7113064202786125e+17
19649.0	3.7106010334167034e+17
19650.0	3.710033994274133e+17
19651.0	3.7094128695814816e+17
19652.0	3.708786722209791e+17
19653.0	3.7081261214269434e+17
19654.0	3.7075443211304954e+17
19655.0	3.7068081802335565e+17
