# Flux units: erg / (cm m2 s)
# Wavelength units: Angstrom
wave	flux
19000.0	8.175491601137664e+17
19001.0	8.173812759658496e+17
19002.0	8.172454715326463e+17
19003.0	8.170925631471615e+17
19004.0	8.169402015591084e+17
19005.0	8.167884196238675e+17
19006.0	8.166365177315328e+17
19007.0	8.164442045590186e+17
19008.0	8.163211761156093e+17
19009.0	8.161739331163475e+17
19010.0	8.159528273051644e+17
19011.0	8.1587008976541e+17
19012.0	8.156684445461161e+17
19013.0	8.155686756155391e+17
19014.0	8.154057772367872e+17
19015.0	8.152579645112319e+17
19016.0	8.151043052055212e+17
19017.0	8.14937661313297e+17
19018.0	8.148010318604969e+17
19019.0	8.146515319062525e+17
19020.0	8.144909865320445e+17
19021.0	8.143431398326271e+17
19022.0	8.141943213129727e+17
19023.0	8.140345236433576e+17
19024.0	8.138853199467859e+17
19025.0	8.137305590770345e+17
19026.0	8.135749559910397e+17
19027.0	8.133911759902033e+17
19028.0	8.13276322804531e+17
19029.0	8.131203215392767e+17
19030.0	8.129719807508479e+17
19031.0	8.128198678850216e+17
19032.0	8.126664357707775e+17
19033.0	8.124988667549012e+17
19034.0	8.123566839037952e+17
19035.0	8.121994170772137e+17
19036.0	8.092808859964739e+17
19037.0	8.118974884260518e+17
19038.0	8.117427018312361e+17
19039.0	8.115929488206505e+17
19040.0	8.114405257161385e+17
19041.0	8.112857020716372e+17
19042.0	8.111186172182525e+17
19043.0	8.109805607234217e+17
19044.0	8.108248132135594e+17
19045.0	8.106717664160425e+17
19046.0	8.105095187136508e+17
19047.0	8.10365677155123e+17
19048.0	8.101790423711743e+17
19049.0	8.100477561820498e+17
19050.0	8.098977719255037e+17
19051.0	8.093021198002848e+17
19052.0	8.09557838266368e+17
19053.0	8.094351543151272e+17
19054.0	8.0929129248413e+17
19055.0	8.090966077123244e+17
19056.0	8.089797629313024e+17
19057.0	8.088287442195796e+17
19058.0	8.086644777986728e+17
19059.0	8.085229274486098e+17
19060.0	8.083659777114111e+17
19061.0	8.082164258876072e+17
19062.0	8.080620739624957e+17
19063.0	8.0790874502813e+17
19064.0	8.077339149729791e+17
19065.0	8.075709317294761e+17
19066.0	8.074368417879379e+17
19067.0	8.072916974785876e+17
19068.0	8.071402666065919e+17
19069.0	8.069867343882918e+17
19070.0	8.068278407309992e+17
19071.0	8.066764835389437e+17
19072.0	8.065251527710038e+17
19073.0	8.063701121411753e+17
19074.0	8.062179580313597e+17
19075.0	8.060641668846931e+17
19076.0	8.059067424920918e+17
19077.0	8.057551972554067e+17
19078.0	8.055931310265684e+17
19079.0	8.054484371854675e+17
19080.0	8.052925797848404e+17
19081.0	8.051332792800596e+17
19082.0	8.049778579472381e+17
19083.0	8.048127372864169e+17
19084.0	8.046372122350931e+17
19085.0	8.04523234820096e+17
19086.0	8.043015036381864e+17
19087.0	8.041310218179924e+17
19088.0	8.040442987107668e+17
19089.0	8.038320184142505e+17
19090.0	8.037483006656511e+17
19091.0	8.035971954114557e+17
19092.0	8.034175941956948e+17
19093.0	8.032943514233514e+17
19094.0	8.031391259645267e+17
19095.0	8.029846577173844e+17
19096.0	8.028286350611795e+17
19097.0	8.026786452122284e+17
19098.0	8.025247517245437e+17
19099.0	8.023703989605714e+17
19100.0	8.022128228739753e+17
19101.0	8.020624270163965e+17
19102.0	8.018965415941459e+17
19103.0	8.017551404214953e+17
19104.0	8.016024846729215e+17
19105.0	8.014476168484178e+17
19106.0	8.012779443890857e+17
19107.0	8.011368066187261e+17
19108.0	8.009854565569876e+17
19109.0	8.005184771500708e+17
19110.0	8.006714947272701e+17
19111.0	8.005236322293074e+17
19112.0	8.003711731935913e+17
19113.0	8.002174369923072e+17
19114.0	8.000626840917332e+17
19115.0	7.998965362458624e+17
19116.0	7.99751650864879e+17
19117.0	7.995976562944681e+17
19118.0	7.994198152882858e+17
19119.0	7.989613209583611e+17
19120.0	7.991129833559379e+17
19121.0	7.989701603142313e+17
19122.0	7.98832060478259e+17
19123.0	7.986763256911187e+17
19124.0	7.98506680914193e+17
19125.0	7.983668391837696e+17
19126.0	7.982118375609684e+17
19127.0	7.9780080821207e+17
19128.0	7.976661881105062e+17
19129.0	7.97738650444322e+17
19130.0	7.975977626544809e+17
19131.0	7.974374925664253e+17
19132.0	7.97291530507605e+17
19133.0	7.970362622301524e+17
19134.0	7.968669103554561e+17
19135.0	7.968285780519592e+17
19136.0	7.966763305489748e+17
19137.0	7.964960132257108e+17
19138.0	7.963474509780308e+17
19139.0	7.96212997390336e+17
19140.0	7.960603518479016e+17
19141.0	7.959065440638291e+17
19142.0	7.957473781962066e+17
19143.0	7.955891596820479e+17
19144.0	7.95437691900177e+17
19145.0	7.952883428010668e+17
19146.0	7.950340940191063e+17
19147.0	7.949683028656127e+17
19148.0	7.948255818853033e+17
19149.0	7.946714765852671e+17
19150.0	7.945174253917524e+17
19151.0	7.943645869113343e+17
19152.0	7.942061632957098e+17
19153.0	7.940537987716436e+17
19154.0	7.938828052463615e+17
19155.0	7.937476776340138e+17
19156.0	7.935930960008532e+17
19157.0	7.934300806010199e+17
19158.0	7.930752606579368e+17
19159.0	7.931241374416896e+17
19160.0	7.929682993348605e+17
19161.0	7.9279591288122e+17
19162.0	7.921844964644184e+17
19163.0	7.9250346503482e+17
19164.0	7.923595112087551e+17
19165.0	7.921971838145876e+17
19166.0	7.920270204818772e+17
19167.0	7.918511986136403e+17
19168.0	7.917221029696851e+17
19169.0	7.915716416809641e+17
19170.0	7.91433249502003e+17
19171.0	7.912552500909395e+17
19172.0	7.911220184438099e+17
19173.0	7.909697987630422e+17
19174.0	7.908074745845075e+17
19175.0	7.906622473677481e+17
19176.0	7.905064365238953e+17
19177.0	7.903283971271338e+17
19178.0	7.901875347827369e+17
19179.0	7.900080747752105e+17
19180.0	7.898519439059624e+17
19181.0	7.897163224842239e+17
19182.0	7.89567912210159e+17
19183.0	7.894205169576616e+17
19184.0	7.892483164514988e+17
19185.0	7.891121879384063e+17
19186.0	7.889600929682772e+17
19187.0	7.887902872698879e+17
19188.0	7.8864706451101e+17
19189.0	7.884845555034792e+17
19190.0	7.883269865471999e+17
19191.0	7.88174066557474e+17
19192.0	7.880258357996202e+17
19193.0	7.87841194987793e+17
19194.0	7.87701376885282e+17
19195.0	7.875596004622333e+17
19196.0	7.874024906424319e+17
19197.0	7.87244156784913e+17
19198.0	7.870695297340755e+17
19199.0	7.841065216944804e+17
19200.0	7.84856531616837e+17
19201.0	7.865805210036905e+17
19202.0	7.86443164258577e+17
19203.0	7.862860210241535e+17
19204.0	7.861331119396179e+17
19205.0	7.859813780990633e+17
19206.0	7.858249597801811e+17
19207.0	7.856582834520064e+17
19208.0	7.854854572954963e+17
19209.0	7.853563170521085e+17
19210.0	7.852028213242538e+17
19211.0	7.850486641546579e+17
19212.0	7.848927277613055e+17
19213.0	7.846992011766442e+17
19214.0	7.845275920673452e+17
19215.0	7.844133032951808e+17
19216.0	7.84264680789333e+17
19217.0	7.841110734929919e+17
19218.0	7.838273746851155e+17
19219.0	7.83771388416273e+17
19220.0	7.836365686658387e+17
19221.0	7.834310192485715e+17
19222.0	7.833290808841556e+17
19223.0	7.831683238374058e+17
19224.0	7.830016574357501e+17
19225.0	7.828328557139282e+17
19226.0	7.82696041292322e+17
19227.0	7.825384920492714e+17
19228.0	7.823867716304893e+17
19229.0	7.822291801647785e+17
19230.0	7.820593473432234e+17
19231.0	7.819040305883817e+17
19232.0	7.817495483602259e+17
19233.0	7.815855087113555e+17
19234.0	7.814354344170833e+17
19235.0	7.812756633113942e+17
19236.0	7.811236955684864e+17
19237.0	7.809621673290408e+17
19238.0	7.8078821821754e+17
19239.0	7.806477374149974e+17
19240.0	7.804525167509501e+17
19241.0	7.803160287860054e+17
19242.0	7.801674458464255e+17
19243.0	7.799816036461225e+17
19244.0	7.798532635361279e+17
19245.0	7.79692882998067e+17
19246.0	7.795315398672384e+17
19247.0	7.793726884326058e+17
19248.0	7.792143239566676e+17
19249.0	7.790536035401727e+17
19250.0	7.788910915966292e+17
19251.0	7.787172374162089e+17
19252.0	7.785183839256573e+17
19253.0	7.78409193050385e+17
19254.0	7.782462190343508e+17
19255.0	7.780563775651836e+17
19256.0	7.779189324600659e+17
19257.0	7.777669568877908e+17
19258.0	7.776056896738642e+17
19259.0	7.774309433649833e+17
19260.0	7.772412481372157e+17
19261.0	7.771173061743956e+17
19262.0	7.769470038704127e+17
19263.0	7.767863142121471e+17
19264.0	7.76552641147699e+17
19265.0	7.764310275828394e+17
19266.0	7.762498153349119e+17
19267.0	7.761055012181331e+17
19268.0	7.759401625933139e+17
19269.0	7.757765053251583e+17
19270.0	7.756118036753064e+17
19271.0	7.753970983720278e+17
19272.0	7.752757198280019e+17
19273.0	7.741612181771593e+17
19274.0	7.744450597311822e+17
19275.0	7.74766052053265e+17
19276.0	7.745968673914879e+17
19277.0	7.744302612479997e+17
19278.0	7.742638606254079e+17
19279.0	7.740844782125053e+17
19280.0	7.739158000828415e+17
19281.0	7.737597942038525e+17
19282.0	7.735930400014335e+17
19283.0	7.733820532282708e+17
19284.0	7.731623293004457e+17
19285.0	7.730507848613888e+17
19286.0	7.729104233168893e+17
19287.0	7.727457950673578e+17
19288.0	7.719212425762129e+17
19289.0	7.705324748275674e+17
19290.0	7.722318656001363e+17
19291.0	7.720159819770538e+17
19292.0	7.718870992639318e+17
19293.0	7.717124944429056e+17
19294.0	7.715248184928938e+17
19295.0	7.713195256272211e+17
19296.0	7.711435467522048e+17
19297.0	7.709640937351849e+17
19298.0	7.707880148959232e+17
19299.0	7.706168116554409e+17
19300.0	7.704394369160531e+17
19301.0	7.70259983339793e+17
19302.0	7.700809634545663e+17
19303.0	7.698881753470292e+17
19304.0	7.697145700286463e+17
19305.0	7.695399506673663e+17
19306.0	7.693578897719293e+17
19307.0	7.691674967517866e+17
19308.0	7.689889087400617e+17
19309.0	7.687210793609896e+17
19310.0	7.68490148812117e+17
19311.0	7.684274125100374e+17
19312.0	7.681953852904786e+17
19313.0	7.680003385502378e+17
19314.0	7.668381574496242e+17
19315.0	7.667096638281064e+17
19316.0	7.674383197099348e+17
19317.0	7.672543518042794e+17
19318.0	7.670623778111487e+17
19319.0	7.668726504270506e+17
19320.0	7.666789362171903e+17
19321.0	7.66491557503522e+17
19322.0	7.662707973029887e+17
19323.0	7.660472309732694e+17
19324.0	7.658212369803945e+17
19325.0	7.655527725836969e+17
19326.0	7.65423217943074e+17
19327.0	7.652215942545408e+17
19328.0	7.65021173911825e+17
19329.0	7.647985771653802e+17
19330.0	7.645726916651689e+17
19331.0	7.643643691139072e+17
19332.0	7.641358462353408e+17
19333.0	7.638569250193407e+17
19334.0	7.636445207112362e+17
19335.0	7.634342355053224e+17
19336.0	7.632167621012138e+17
19337.0	7.629994176020479e+17
19338.0	7.627481165769385e+17
19339.0	7.625363212817748e+17
19340.0	7.62267824309316e+17
19341.0	7.620480508887039e+17
19342.0	7.617577124975955e+17
19343.0	7.61591550111471e+17
19344.0	7.61357656846063e+17
19345.0	7.608246107198797e+17
19346.0	7.607979237616298e+17
19347.0	7.606397333493075e+17
19348.0	7.604077814874111e+17
19349.0	7.60148272209374e+17
19350.0	7.598628867320489e+17
19351.0	7.596112515607209e+17
19352.0	7.593530833414825e+17
19353.0	7.591089432515926e+17
19354.0	7.588491873484799e+17
19355.0	7.585714669617151e+17
19356.0	7.583195599994879e+17
19357.0	7.580491460902911e+17
19358.0	7.577659606652242e+17
19359.0	7.574487699204777e+17
19360.0	7.57209886831411e+17
19361.0	7.568767707338067e+17
19362.0	7.565731728894633e+17
19363.0	7.562785886044157e+17
19364.0	7.559791193533096e+17
19365.0	7.556746762169002e+17
19366.0	7.553664020032168e+17
19367.0	7.550524558322345e+17
19368.0	7.547331097744726e+17
19369.0	7.542986862755837e+17
19370.0	7.53874644517956e+17
19371.0	7.536386299133951e+17
19372.0	7.533035739501908e+17
19373.0	7.529488995494569e+17
19374.0	7.525585597235199e+17
19375.0	7.521114294408531e+17
19376.0	7.517394526972585e+17
19377.0	7.513579270613672e+17
19378.0	7.509704992008872e+17
19379.0	7.504302896229034e+17
19380.0	7.500178535044435e+17
19381.0	7.496022209069055e+17
19382.0	7.490952405625513e+17
19383.0	7.485442042276522e+17
19384.0	7.481113155644074e+17
19385.0	7.475400502411264e+17
19386.0	7.469480236722858e+17
19387.0	7.464666667504982e+17
19388.0	7.457330183886167e+17
19389.0	7.452061506120361e+17
19390.0	7.444525467303936e+17
19391.0	7.417217187228296e+17
19392.0	7.431350574033576e+17
19393.0	7.425558483479209e+17
19394.0	7.419715018293245e+17
19395.0	7.41368938889216e+17
19396.0	7.407320296325119e+17
19397.0	7.400919833160361e+17
19398.0	7.394379730430633e+17
19399.0	7.386817207380649e+17
19400.0	7.38072495984913e+17
19401.0	7.373650985134762e+17
19402.0	7.366054911847081e+17
19403.0	7.358058309091327e+17
19404.0	7.350222359363583e+17
19405.0	7.342067860635645e+17
19406.0	7.333352524742655e+17
19407.0	7.324131071972692e+17
19408.0	7.314236416633516e+17
19409.0	7.305124226880851e+17
19410.0	7.29485088461073e+17
19411.0	7.284523200937981e+17
19412.0	7.272765732159487e+17
19413.0	7.261230969738582e+17
19414.0	7.248560104581802e+17
19415.0	7.234868452087123e+17
19416.0	7.22042232399462e+17
19417.0	7.204911606049448e+17
19418.0	7.188422851908948e+17
19419.0	7.17001490449476e+17
19420.0	7.15014009572557e+17
19421.0	7.130655367015085e+17
19422.0	7.113740040972969e+17
19423.0	7.096169426234024e+17
19424.0	7.078015018904233e+17
19425.0	7.059020345682602e+17
19426.0	7.03856400155716e+17
19427.0	7.017538808446976e+17
19428.0	6.995126099028649e+17
19429.0	6.971444816074067e+17
19430.0	6.945478701394602e+17
19431.0	6.914949701959686e+17
19432.0	6.887697267643727e+17
19433.0	6.853981477972649e+17
19434.0	6.815788012929024e+17
19435.0	6.77404273156642e+17
19436.0	6.735658652183209e+17
19437.0	6.698049815095978e+17
19438.0	6.641903332928169e+17
19439.0	6.609730170519555e+17
19440.0	6.559045211826858e+17
19441.0	6.503331980989775e+17
19442.0	6.44037798194927e+17
19443.0	6.374259320422399e+17
19444.0	6.304959245757094e+17
19445.0	6.227594930290689e+17
19446.0	6.14202675822592e+17
19447.0	6.049183435849723e+17
19448.0	5.947016843973978e+17
19449.0	5.826948866856276e+17
19450.0	5.6130581826982656e+17
19451.0	5.514748602176867e+17
19452.0	5.73432496040619e+17
19453.0	5.888748640272388e+17
19454.0	5.994563586665125e+17
19455.0	6.089297955738963e+17
19456.0	6.176254665424899e+17
19457.0	6.255146780590075e+17
19458.0	6.320901281458867e+17
19459.0	6.390109292549464e+17
19460.0	6.453319428647589e+17
19461.0	6.509818423891284e+17
19462.0	6.560277264859137e+17
19463.0	6.60612557587524e+17
19464.0	6.647437799544148e+17
19465.0	6.68515157671936e+17
19466.0	6.719467841825446e+17
19467.0	6.757334690125142e+17
19468.0	6.794768329736187e+17
19469.0	6.827268926078971e+17
19470.0	6.856977589556563e+17
19471.0	6.883311964826284e+17
19472.0	6.907362945619283e+17
19473.0	6.929149180510207e+17
19474.0	6.949329974241961e+17
19475.0	6.967661975393618e+17
19476.0	6.986156470872745e+17
19477.0	7.003124877230079e+17
19478.0	7.018917009205929e+17
19479.0	7.033989279776767e+17
19480.0	7.048187258164564e+17
19481.0	7.063123146746534e+17
19482.0	7.081107849740283e+17
19483.0	7.097177420944726e+17
19484.0	7.111578839154687e+17
19485.0	7.124663464012457e+17
19486.0	7.13707632914159e+17
19487.0	7.148004143617363e+17
19488.0	7.157776323881641e+17
19489.0	7.167534918795263e+17
19490.0	7.174375301535057e+17
19491.0	7.184261424261802e+17
19492.0	7.19140354523136e+17
19493.0	7.199172899198291e+17
19494.0	7.205498751287296e+17
19495.0	7.21153626594782e+17
19496.0	7.21756706972194e+17
19497.0	7.223374083609939e+17
19498.0	7.227373683823959e+17
19499.0	7.200501113640246e+17
19500.0	7.238586021707775e+17
19501.0	7.242952387242664e+17
19502.0	7.247087368404991e+17
19503.0	7.251038687985663e+17
19504.0	7.254736210231296e+17
19505.0	7.258308448616447e+17
19506.0	7.261942797653332e+17
19507.0	7.265181095340714e+17
19508.0	7.268234344529919e+17
19509.0	7.271095368766803e+17
19510.0	7.274576512461481e+17
19511.0	7.252568171697476e+17
19512.0	7.277958065203866e+17
19513.0	7.275627367366637e+17
19514.0	7.28222776741068e+17
19515.0	7.291127847015767e+17
19516.0	7.293998341991081e+17
19517.0	7.29767397696034e+17
19518.0	7.299638310731773e+17
19519.0	7.301172522822314e+17
19520.0	7.304214919948969e+17
19521.0	7.305639855041194e+17
19522.0	7.306794752453289e+17
19523.0	7.308491875505492e+17
19524.0	7.310443109067434e+17
19525.0	7.311327164891135e+17
19526.0	7.312256461875881e+17
19527.0	7.313049929121791e+17
19528.0	7.314734971180372e+17
19529.0	7.31554723729681e+17
19530.0	7.316149686151849e+17
19531.0	7.316676390070953e+17
19532.0	7.317134764583594e+17
19533.0	7.317540562097492e+17
19534.0	7.31872720060416e+17
19535.0	7.318978833678335e+17
19536.0	7.319189425487871e+17
19537.0	7.319430656688127e+17
19538.0	7.319494926008319e+17
19539.0	7.318844580997805e+17
19540.0	7.319651051984211e+17
19541.0	7.319694180614143e+17
19542.0	7.32021199820117e+17
19543.0	7.320192143764138e+17
19544.0	7.320071865106432e+17
19545.0	7.319373324746747e+17
19546.0	7.318380671401984e+17
19547.0	7.319483735605247e+17
19548.0	7.319234730961578e+17
19549.0	7.318767416989011e+17
19550.0	7.318612447242922e+17
19551.0	7.318259949546153e+17
19552.0	7.317873041779369e+17
19553.0	7.317431339625129e+17
19554.0	7.317194018914303e+17
19555.0	7.316965330081108e+17
19556.0	7.31649640969011e+17
19557.0	7.315973174460415e+17
19558.0	7.315432297988096e+17
19559.0	7.314842390102015e+17
19560.0	7.314245698628266e+17
19561.0	7.31364302188271e+17
19562.0	7.313051759236438e+17
19563.0	7.312412705292287e+17
19564.0	7.312131496782505e+17
19565.0	7.311560763856211e+17
19566.0	7.310817548566525e+17
19567.0	7.310143551875753e+17
19568.0	7.309360534039208e+17
19569.0	7.308629780026708e+17
19570.0	7.307951341567999e+17
19571.0	7.3074621836602e+17
19572.0	7.307127184599722e+17
19573.0	7.306354467973802e+17
19574.0	7.305391627741864e+17
19575.0	7.304712845350228e+17
19576.0	7.30386503250739e+17
19577.0	7.30299057185314e+17
19578.0	7.302343108329471e+17
19579.0	7.301471341816489e+17
19580.0	7.300580468850687e+17
19581.0	7.300121171591168e+17
19582.0	7.299445007843327e+17
19583.0	7.298513788469245e+17
19584.0	7.297558878268074e+17
19585.0	7.296434115532116e+17
19586.0	7.295386107161257e+17
19587.0	7.294475774022995e+17
19588.0	7.292968239104e+17
19589.0	7.292603017286996e+17
19590.0	7.291591745426772e+17
19591.0	7.290710337606995e+17
19592.0	7.289712472140458e+17
19593.0	7.28865542644258e+17
19594.0	7.28732521411379e+17
19595.0	7.287099633259862e+17
19596.0	7.2803523990214e+17
19597.0	7.284994684048726e+17
19598.0	7.283613385097215e+17
19599.0	7.282927676511572e+17
19600.0	7.281873712229033e+17
19601.0	7.280691796508671e+17
19602.0	7.279651206463487e+17
19603.0	7.277596999942141e+17
19604.0	7.277431561213268e+17
19605.0	7.275948307120127e+17
19606.0	7.275317583063721e+17
19607.0	7.274232973798058e+17
19608.0	7.273090557236564e+17
19609.0	7.271903643303933e+17
19610.0	7.270878345691135e+17
19611.0	7.269734633089706e+17
19612.0	7.268619211068756e+17
19613.0	7.267461272786259e+17
19614.0	7.266271221514237e+17
19615.0	7.265235424160426e+17
19616.0	7.264225878955348e+17
19617.0	7.263277734166527e+17
19618.0	7.261364165454504e+17
19619.0	7.25994520864358e+17
19620.0	7.258832963108861e+17
19621.0	7.258621578575871e+17
19622.0	7.257461664776191e+17
19623.0	7.256286974443519e+17
19624.0	7.255091346145279e+17
19625.0	7.253923530276863e+17
19626.0	7.252720870927017e+17
19627.0	7.251547219383636e+17
19628.0	7.249690574367404e+17
19629.0	7.249002020645545e+17
19630.0	7.247080345741996e+17
19631.0	7.21731638595856e+17
19632.0	7.245506339493204e+17
19633.0	7.244270419312639e+17
19634.0	7.243158528895658e+17
19635.0	7.241881289228288e+17
19636.0	7.240723889214803e+17
19637.0	7.238840038544726e+17
19638.0	7.238302360928255e+17
19639.0	7.237060442892969e+17
19640.0	7.235765996792489e+17
19641.0	7.233852154052609e+17
19642.0	7.233410285524308e+17
19643.0	7.232153035909802e+17
19644.0	7.23087770325265e+17
19645.0	7.229345255565993e+17
19646.0	7.228513808897364e+17
19647.0	7.227280131271336e+17
19648.0	7.226036378927104e+17
19649.0	7.224794512621568e+17
19650.0	7.223567822706003e+17
19651.0	7.222315056802474e+17
19652.0	7.221069196121428e+17
19653.0	7.219826514722816e+17
19654.0	7.218577629948586e+17
19655.0	7.21732225798417e+17
19656.0	7.216088715973974e+17
19657.0	7.214883544236032e+17
19658.0	7.213876328267773e+17
19659.0	7.212627725910015e+17
19660.0	7.211376418226175e+17
19661.0	7.210121314697215e+17
19662.0	7.208864852213757e+17
19663.0	7.207525782913023e+17
19664.0	7.206208859537407e+17
19665.0	7.205088858734591e+17
19666.0	7.203799869423615e+17
