# Flux units: erg / (cm m2 s)
# Wavelength units: Angstrom
wave	flux
19000.0	6.962579491170985e+17
19001.0	6.961153478841684e+17
19002.0	6.959956676837375e+17
19003.0	6.958637833169578e+17
19004.0	6.957324217701716e+17
19005.0	6.956007286636543e+17
19006.0	6.954693287389866e+17
19007.0	6.953309694154068e+17
19008.0	6.951985926373375e+17
19009.0	6.950724972489386e+17
19010.0	6.948863448099497e+17
19011.0	6.948089021595647e+17
19012.0	6.946628838970707e+17
19013.0	6.945464670049619e+17
19014.0	6.944079954837503e+17
19015.0	6.942798488709801e+17
19016.0	6.941475503166804e+17
19017.0	6.939994996342783e+17
19018.0	6.938885528136361e+17
19019.0	6.937578290107732e+17
19020.0	6.936198283001855e+17
19021.0	6.934921292196521e+17
19022.0	6.93365298569762e+17
19023.0	6.932293403454121e+17
19024.0	6.931005503963135e+17
19025.0	6.92971093762594e+17
19026.0	6.928373695643647e+17
19027.0	6.927045161036457e+17
19028.0	6.925784490267988e+17
19029.0	6.924454213626538e+17
19030.0	6.923176160264191e+17
19031.0	6.921872666350931e+17
19032.0	6.920560099459071e+17
19033.0	6.919143169895081e+17
19034.0	6.917917086056447e+17
19035.0	6.916588106853033e+17
19036.0	6.909818431690065e+17
19037.0	6.91399591862818e+17
19038.0	6.912673651010217e+17
19039.0	6.911386632323071e+17
19040.0	6.910085081071615e+17
19041.0	6.908767104226644e+17
19042.0	6.90735893516561e+17
19043.0	6.906155779489791e+17
19044.0	6.90483651289634e+17
19045.0	6.903540891691689e+17
19046.0	6.90215973884177e+17
19047.0	6.900924855353343e+17
19048.0	6.899363904574803e+17
19049.0	6.898226763049641e+17
19050.0	6.896944575501652e+17
19051.0	6.894848577634301e+17
19052.0	6.894335834456064e+17
19053.0	6.893062707303763e+17
19054.0	6.891770777086633e+17
19055.0	6.890169646273879e+17
19056.0	6.889132280949417e+17
19057.0	6.887805594632191e+17
19058.0	6.886452017233919e+17
19059.0	6.885182442657108e+17
19060.0	6.883855290772138e+17
19061.0	6.882580510365012e+17
19062.0	6.881267583462057e+17
19063.0	6.879967904268287e+17
19064.0	6.878507695079424e+17
19065.0	6.877140555399165e+17
19066.0	6.875980958269439e+17
19067.0	6.874735572942848e+17
19068.0	6.873446089403049e+17
19069.0	6.872145769878867e+17
19070.0	6.870806843883519e+17
19071.0	6.869531655230804e+17
19072.0	6.868237065824938e+17
19073.0	6.866926036844541e+17
19074.0	6.865635374006271e+17
19075.0	6.864333292175359e+17
19076.0	6.863004007486803e+17
19077.0	6.861719810867199e+17
19078.0	6.860345187150506e+17
19079.0	6.859123363326633e+17
19080.0	6.857809227066025e+17
19081.0	6.856466852653738e+17
19082.0	6.855143811885738e+17
19083.0	6.85378657985058e+17
19084.0	6.852328252506111e+17
19085.0	6.851306460632404e+17
19086.0	6.849550362170708e+17
19087.0	6.848565441025366e+17
19088.0	6.847337074786303e+17
19089.0	6.84581966577664e+17
19090.0	6.844785516085247e+17
19091.0	6.843497766890153e+17
19092.0	6.842119277423273e+17
19093.0	6.840925735791273e+17
19094.0	6.839621307946323e+17
19095.0	6.838323186936489e+17
19096.0	6.837007152054271e+17
19097.0	6.83573941108736e+17
19098.0	6.834438910509055e+17
19099.0	6.833135918514175e+17
19100.0	6.831837458464768e+17
19101.0	6.830551688981161e+17
19102.0	6.829151110911316e+17
19103.0	6.827953618943999e+17
19104.0	6.826667047649279e+17
19105.0	6.825367302045693e+17
19106.0	6.824047338498729e+17
19107.0	6.8227575068317e+17
19108.0	6.821485620494336e+17
19109.0	6.819622416984744e+17
19110.0	6.818893892943871e+17
19111.0	6.817600534566228e+17
19112.0	6.816308643495935e+17
19113.0	6.815012715408042e+17
19114.0	6.81371555209762e+17
19115.0	6.812363500726953e+17
19116.0	6.811106727165952e+17
19117.0	6.80981885493794e+17
19118.0	6.808425195372543e+17
19119.0	6.804235879099045e+17
19120.0	6.805901867832659e+17
19121.0	6.804644573478911e+17
19122.0	6.803380487847935e+17
19123.0	6.802068492779519e+17
19124.0	6.800766883506857e+17
19125.0	6.799496040153087e+17
19126.0	6.798191443137875e+17
19127.0	6.794973826864466e+17
19128.0	6.79513448268868e+17
19129.0	6.794230357819391e+17
19130.0	6.793036089174697e+17
19131.0	6.791744783209812e+17
19132.0	6.790468358635519e+17
19133.0	6.788448721567744e+17
19134.0	6.787647104090111e+17
19135.0	6.786598156894207e+17
19136.0	6.785317517044393e+17
19137.0	6.783840513163263e+17
19138.0	6.782660497462612e+17
19139.0	6.781450261801642e+17
19140.0	6.780164392353791e+17
19141.0	6.778876880835923e+17
19142.0	6.777559844913151e+17
19143.0	6.776227664057684e+17
19144.0	6.774964427074217e+17
19145.0	6.773720583154346e+17
19146.0	6.771739221906772e+17
19147.0	6.771049202974719e+17
19148.0	6.76986099929361e+17
19149.0	6.768571721973759e+17
19150.0	6.767279456212308e+17
19151.0	6.766003137893716e+17
19152.0	6.76469285200418e+17
19153.0	6.76341301256738e+17
19154.0	6.762005239868073e+17
19155.0	6.760868006068223e+17
19156.0	6.759581765424468e+17
19157.0	6.758289582850047e+17
19158.0	6.756614593140051e+17
19159.0	6.755707031038633e+17
19160.0	6.754398698995711e+17
19161.0	6.753109521640106e+17
19162.0	6.750994028647764e+17
19163.0	6.750588993099092e+17
19164.0	6.749314381163177e+17
19165.0	6.748007397588991e+17
19166.0	6.746616294451881e+17
19167.0	6.745381279541929e+17
19168.0	6.743994701359785e+17
19169.0	6.742795336635731e+17
19170.0	6.741617722873172e+17
19171.0	6.740286215902547e+17
19172.0	6.739045870032211e+17
19173.0	6.737772668081491e+17
19174.0	6.736423995921748e+17
19175.0	6.735210699117908e+17
19176.0	6.733923461627903e+17
19177.0	6.732473520794281e+17
19178.0	6.731358737006591e+17
19179.0	6.730019825691306e+17
19180.0	6.728678320198995e+17
19181.0	6.7274060871325e+17
19182.0	6.726123581516458e+17
19183.0	6.724954080935933e+17
19184.0	6.723516736296276e+17
19185.0	6.722384528670719e+17
19186.0	6.721126668085929e+17
19187.0	6.71974934253841e+17
19188.0	6.718561472304468e+17
19189.0	6.717271701454847e+17
19190.0	6.715988503079593e+17
19191.0	6.714687399220563e+17
19192.0	6.713449092481023e+17
19193.0	6.712082642763775e+17
19194.0	6.710837402140671e+17
19195.0	6.709606141132797e+17
19196.0	6.708319627859283e+17
19197.0	6.707051446490452e+17
19198.0	6.705779517510995e+17
19199.0	6.699154480824316e+17
19200.0	6.699840793389741e+17
19201.0	6.701949186823508e+17
19202.0	6.700678092510548e+17
19203.0	6.69939135484177e+17
19204.0	6.698093152043007e+17
19205.0	6.696831785020074e+17
19206.0	6.695548800554323e+17
19207.0	6.694193932009472e+17
19208.0	6.692761291980797e+17
19209.0	6.691721501649578e+17
19210.0	6.690446301812051e+17
19211.0	6.689180659395242e+17
19212.0	6.687910591987711e+17
19213.0	6.6864972052125e+17
19214.0	6.685196085974358e+17
19215.0	6.684068109702484e+17
19216.0	6.68276121281058e+17
19217.0	6.681522775348563e+17
19218.0	6.67931148235571e+17
19219.0	6.678788639992489e+17
19220.0	6.677667619274751e+17
19221.0	6.676032050429951e+17
19222.0	6.675146360225791e+17
19223.0	6.673839755537066e+17
19224.0	6.672464402710527e+17
19225.0	6.671124162499923e+17
19226.0	6.670009373818879e+17
19227.0	6.668733300867071e+17
19228.0	6.667493013716991e+17
19229.0	6.666217815976618e+17
19230.0	6.664904995329364e+17
19231.0	6.66362774238003e+17
19232.0	6.662319330645332e+17
19233.0	6.661030340635305e+17
19234.0	6.659806748213247e+17
19235.0	6.658518237751978e+17
19236.0	6.657290269971795e+17
19237.0	6.655991475077119e+17
19238.0	6.654628405269844e+17
19239.0	6.653466235633663e+17
19240.0	6.651824789170857e+17
19241.0	6.650790417880403e+17
19242.0	6.649598376411133e+17
19243.0	6.648139954694825e+17
19244.0	6.647080881050964e+17
19245.0	6.64580105839138e+17
19246.0	6.64451256820258e+17
19247.0	6.643236474279252e+17
19248.0	6.64198209217058e+17
19249.0	6.64070155228501e+17
19250.0	6.639402839878314e+17
19251.0	6.638044956327935e+17
19252.0	6.636458554512723e+17
19253.0	6.635568444910249e+17
19254.0	6.634265048864084e+17
19255.0	6.632789338226685e+17
19256.0	6.631732797243391e+17
19257.0	6.630481222522195e+17
19258.0	6.629202942667433e+17
19259.0	6.627832970433876e+17
19260.0	6.626561390979753e+17
19261.0	6.625339813920767e+17
19262.0	6.623986702789289e+17
19263.0	6.622721871970304e+17
19264.0	6.62089830323541e+17
19265.0	6.619998038523903e+17
19266.0	6.618773894550868e+17
19267.0	6.617659249175209e+17
19268.0	6.616368721253714e+17
19269.0	6.615087399130452e+17
19270.0	6.613810476832084e+17
19271.0	6.612149754047148e+17
19272.0	6.611203224764415e+17
19273.0	6.600597196592456e+17
19274.0	6.604197325002063e+17
19275.0	6.607397522330964e+17
19276.0	6.606089811744084e+17
19277.0	6.604806200928938e+17
19278.0	6.603527959521962e+17
19279.0	6.602175193721512e+17
19280.0	6.600852237538644e+17
19281.0	6.599585104046762e+17
19282.0	6.598282333650943e+17
19283.0	6.596911640696148e+17
19284.0	6.595509601610409e+17
19285.0	6.594145529364479e+17
19286.0	6.593082516570111e+17
19287.0	6.591834100159827e+17
19288.0	6.589318523693736e+17
19289.0	6.585388517468835e+17
19290.0	6.587955346232659e+17
19291.0	6.586343970832384e+17
19292.0	6.585361989894141e+17
19293.0	6.584057435521023e+17
19294.0	6.582755523559423e+17
19295.0	6.581471181537279e+17
19296.0	6.58016282153233e+17
19297.0	6.578834100278611e+17
19298.0	6.577529223643133e+17
19299.0	6.576262295672148e+17
19300.0	6.574958193584809e+17
19301.0	6.573639774240767e+17
19302.0	6.57232916329267e+17
19303.0	6.570915152265215e+17
19304.0	6.569646889806506e+17
19305.0	6.568390464372735e+17
19306.0	6.567085374526804e+17
19307.0	6.565713569382397e+17
19308.0	6.564429978839721e+17
19309.0	6.562974912566612e+17
19310.0	6.561552187173546e+17
19311.0	6.560458762878976e+17
19312.0	6.559154795009363e+17
19313.0	6.557703680469676e+17
19314.0	6.554220174682789e+17
19315.0	6.553073917536942e+17
19316.0	6.553870852773204e+17
19317.0	6.552531692595882e+17
19318.0	6.551190328311805e+17
19319.0	6.549872341680127e+17
19320.0	6.548496834363391e+17
19321.0	6.547176660402173e+17
19322.0	6.545551011086336e+17
19323.0	6.544274952814591e+17
19324.0	6.54301392483123e+17
19325.0	6.541533085958143e+17
19326.0	6.540305324397908e+17
19327.0	6.538931093547689e+17
19328.0	6.537600553364138e+17
19329.0	6.5362369984157e+17
19330.0	6.534814997938176e+17
19331.0	6.533439578002772e+17
19332.0	6.532111727766185e+17
19333.0	6.530707805437951e+17
19334.0	6.529291973383507e+17
19335.0	6.527948123974314e+17
19336.0	6.526550298066941e+17
19337.0	6.525143738220543e+17
19338.0	6.523503694752425e+17
19339.0	6.52224062693922e+17
19340.0	6.520710371475455e+17
19341.0	6.519353845481472e+17
19342.0	6.517449547579391e+17
19343.0	6.516500477946537e+17
19344.0	6.515048009345705e+17
19345.0	6.511156888513187e+17
19346.0	6.51156240850398e+17
19347.0	6.510629895886163e+17
19348.0	6.509242752172031e+17
19349.0	6.507728666449235e+17
19350.0	6.506256518873087e+17
19351.0	6.504748673575592e+17
19352.0	6.503217597426346e+17
19353.0	6.501800563703807e+17
19354.0	6.500279865660756e+17
19355.0	6.498640888244906e+17
19356.0	6.497218318740138e+17
19357.0	6.495662015949482e+17
19358.0	6.494031552271702e+17
19359.0	6.492026526061908e+17
19360.0	6.490728686769492e+17
19361.0	6.489122169771347e+17
19362.0	6.4875795068573e+17
19363.0	6.485954855785812e+17
19364.0	6.484309108064255e+17
19365.0	6.482657412120575e+17
19366.0	6.480996077666304e+17
19367.0	6.479312860829014e+17
19368.0	6.477611419740841e+17
19369.0	6.475704069783551e+17
19370.0	6.473008612201811e+17
19371.0	6.472165847203839e+17
19372.0	6.470372336249514e+17
19373.0	6.468535354829482e+17
19374.0	6.466729130240682e+17
19375.0	6.464878441835178e+17
19376.0	6.462998907103913e+17
19377.0	6.461042315318612e+17
19378.0	6.458890677911551e+17
19379.0	6.456687733680809e+17
19380.0	6.454694338975059e+17
19381.0	6.452650274979839e+17
19382.0	6.450482519561556e+17
19383.0	6.448351516732074e+17
19384.0	6.44606492409856e+17
19385.0	6.443788007724372e+17
19386.0	6.441554500998484e+17
19387.0	6.439266160039252e+17
19388.0	6.436667544043517e+17
19389.0	6.434087404655956e+17
19390.0	6.431639582976682e+17
19391.0	6.42419412225228e+17
19392.0	6.425819312291837e+17
19393.0	6.423150155792383e+17
19394.0	6.420316237944148e+17
19395.0	6.417374374789119e+17
19396.0	6.414511161125546e+17
19397.0	6.411584923151017e+17
19398.0	6.408517434998783e+17
19399.0	6.404431297205587e+17
19400.0	6.401696302017193e+17
19401.0	6.398384624981332e+17
19402.0	6.394922275962879e+17
19403.0	6.391296740556799e+17
19404.0	6.387190231029075e+17
19405.0	6.383061376346793e+17
19406.0	6.378976850564436e+17
19407.0	6.374551785745066e+17
19408.0	6.368899872325633e+17
19409.0	6.365000491510442e+17
19410.0	6.359677542946131e+17
19411.0	6.354441651355647e+17
19412.0	6.348460111080106e+17
19413.0	6.342659234856959e+17
19414.0	6.335719032575314e+17
19415.0	6.328856417927167e+17
19416.0	6.321110361920854e+17
19417.0	6.31270050907204e+17
19418.0	6.30355118714607e+17
19419.0	6.293908362013353e+17
19420.0	6.285172857110527e+17
19421.0	6.276657554565802e+17
19422.0	6.267111875805183e+17
19423.0	6.257520017757524e+17
19424.0	6.24718301504034e+17
19425.0	6.235751884084564e+17
19426.0	6.223712050566482e+17
19427.0	6.210630465880063e+17
19428.0	6.196545463866708e+17
19429.0	6.181021733792425e+17
19430.0	6.163603454776662e+17
19431.0	6.14314946715102e+17
19432.0	6.1218563859415e+17
19433.0	6.095969574365868e+17
19434.0	6.067159348281344e+17
19435.0	6.043121946547539e+17
19436.0	6.017158968508415e+17
19437.0	5.989433102128468e+17
19438.0	5.952365532981929e+17
19439.0	5.922687304073217e+17
19440.0	5.881820331638781e+17
19441.0	5.832790314582007e+17
19442.0	5.774101513065819e+17
19443.0	5.7191989440238925e+17
19444.0	5.658273880823122e+17
19445.0	5.5850204341644e+17
19446.0	5.494547831674197e+17
19447.0	5.396741853544443e+17
19448.0	5.2767380234130816e+17
19449.0	5.119040106965675e+17
19450.0	4.803018365075435e+17
19451.0	4.683515250256552e+17
19452.0	4.981987604081328e+17
19453.0	5.205657853274801e+17
19454.0	5.3363376313248365e+17
19455.0	5.4406780645539834e+17
19456.0	5.5332666808292755e+17
19457.0	5.612735563126096e+17
19458.0	5.6738529477481875e+17
19459.0	5.731237198386519e+17
19460.0	5.78615988400947e+17
19461.0	5.838669277560831e+17
19462.0	5.880652354289667e+17
19463.0	5.916055111903914e+17
19464.0	5.947009750007807e+17
19465.0	5.97426122452719e+17
19466.0	5.998626755051519e+17
19467.0	6.020807628510547e+17
19468.0	6.044606125484712e+17
19469.0	6.069195022969513e+17
19470.0	6.091850156168532e+17
19471.0	6.110226239455231e+17
19472.0	6.126060225691647e+17
19473.0	6.140032549825196e+17
19474.0	6.152520597853526e+17
19475.0	6.16266141689446e+17
19476.0	6.173705857488212e+17
19477.0	6.182784647998121e+17
19478.0	6.191383831030441e+17
19479.0	6.198834454943059e+17
19480.0	6.205942215475199e+17
19481.0	6.21254266724898e+17
19482.0	6.218545686555305e+17
19483.0	6.225459115196416e+17
19484.0	6.232379779710976e+17
19485.0	6.2387009397719e+17
19486.0	6.244154313015295e+17
19487.0	6.249355231799978e+17
19488.0	6.253548541050879e+17
19489.0	6.257287827379539e+17
19490.0	6.259458316085926e+17
19491.0	6.2638779807389e+17
19492.0	6.266923624955904e+17
19493.0	6.269463183753215e+17
19494.0	6.271522786945706e+17
19495.0	6.27397343978018e+17
19496.0	6.275308500724393e+17
19497.0	6.277270890435923e+17
19498.0	6.278850736553985e+17
19499.0	6.272445027713014e+17
19500.0	6.281611674910719e+17
19501.0	6.282585286115327e+17
19502.0	6.283452347318271e+17
19503.0	6.284463127046825e+17
19504.0	6.285241139680596e+17
19505.0	6.285830987448319e+17
19506.0	6.286317860858537e+17
19507.0	6.286688208115028e+17
19508.0	6.28720351261491e+17
19509.0	6.287533992312831e+17
19510.0	6.287503745089533e+17
19511.0	6.282232353609038e+17
19512.0	6.287689948419409e+17
19513.0	6.286078024963407e+17
19514.0	6.287190494194344e+17
19515.0	6.288233010124119e+17
19516.0	6.288694732390399e+17
19517.0	6.288438502359039e+17
19518.0	6.288262723272701e+17
19519.0	6.288245256093695e+17
19520.0	6.287931208280745e+17
19521.0	6.287604933372585e+17
19522.0	6.287152084855465e+17
19523.0	6.286778451361791e+17
19524.0	6.286315971324586e+17
19525.0	6.286016897176916e+17
19526.0	6.285556552040447e+17
19527.0	6.285154890809344e+17
19528.0	6.284623594127359e+17
19529.0	6.284025132657321e+17
19530.0	6.28341843567138e+17
19531.0	6.28278800941056e+17
19532.0	6.282121823212884e+17
19533.0	6.281583243122004e+17
19534.0	6.280960120542548e+17
19535.0	6.280216371877203e+17
19536.0	6.279467025214121e+17
19537.0	6.278761276243967e+17
19538.0	6.277964756942848e+17
19539.0	6.276559282722136e+17
19540.0	6.276396436073129e+17
19541.0	6.275623621580116e+17
19542.0	6.274797419888639e+17
19543.0	6.273964454881961e+17
19544.0	6.273129505969492e+17
19545.0	6.271895873082705e+17
19546.0	6.270337986942292e+17
19547.0	6.270689979924479e+17
19548.0	6.269826480384681e+17
19549.0	6.268805100950868e+17
19550.0	6.268031068711593e+17
19551.0	6.267124095210835e+17
19552.0	6.266204547186685e+17
19553.0	6.265257983650473e+17
19554.0	6.264295281131519e+17
19555.0	6.26338851594786e+17
19556.0	6.262455553141418e+17
19557.0	6.261499247635114e+17
19558.0	6.260537894283946e+17
19559.0	6.25953892012305e+17
19560.0	6.258569573826559e+17
19561.0	6.257591224456532e+17
19562.0	6.256633626405546e+17
19563.0	6.255647079967402e+17
19564.0	6.254659203934889e+17
19565.0	6.253654203258195e+17
19566.0	6.252623395728041e+17
19567.0	6.251647762169855e+17
19568.0	6.250604516431188e+17
19569.0	6.249597972250623e+17
19570.0	6.248606798097065e+17
19571.0	6.24758460916258e+17
19572.0	6.246511451045888e+17
19573.0	6.245512519527082e+17
19574.0	6.244372507000831e+17
19575.0	6.243452633918121e+17
19576.0	6.242524101694804e+17
19577.0	6.241386550525951e+17
19578.0	6.24040357344051e+17
19579.0	6.239369534898175e+17
19580.0	6.238325595002196e+17
19581.0	6.237281895579647e+17
19582.0	6.236246632999594e+17
19583.0	6.23518810112e+17
19584.0	6.234124677283839e+17
19585.0	6.232928176570367e+17
19586.0	6.231817787015167e+17
19587.0	6.230869115142144e+17
19588.0	6.229295198371839e+17
19589.0	6.228735580351145e+17
19590.0	6.227620472203946e+17
19591.0	6.226634959661737e+17
19592.0	6.225565879806633e+17
19593.0	6.224463706193919e+17
19594.0	6.223104526603603e+17
19595.0	6.222298821077674e+17
19596.0	6.220088227135487e+17
19597.0	6.220138021213526e+17
19598.0	6.218757162663935e+17
19599.0	6.21797963866658e+17
19600.0	6.216898937793193e+17
19601.0	6.21573325263121e+17
19602.0	6.214673722507263e+17
19603.0	6.213102785090899e+17
19604.0	6.212477601710079e+17
19605.0	6.211078325971628e+17
19606.0	6.210324224365907e+17
19607.0	6.209240934208852e+17
19608.0	6.208133804326911e+17
19609.0	6.206984880302762e+17
19610.0	6.205955166786899e+17
19611.0	6.204842869522431e+17
19612.0	6.203757254322857e+17
19613.0	6.202637550616575e+17
19614.0	6.201502898410835e+17
19615.0	6.200448011381417e+17
19616.0	6.199305074726227e+17
19617.0	6.198238723964927e+17
19618.0	6.196569186151081e+17
19619.0	6.195240428546728e+17
19620.0	6.194189229708626e+17
19621.0	6.193808286941183e+17
19622.0	6.192707546382336e+17
19623.0	6.191602556294484e+17
19624.0	6.190481764166314e+17
19625.0	6.189383469585748e+17
19626.0	6.188261496061951e+17
19627.0	6.187164726110889e+17
19628.0	6.185920847238484e+17
19629.0	6.184838282696019e+17
19630.0	6.18376359715362e+17
19631.0	6.177106917239461e+17
19632.0	6.181600943407103e+17
19633.0	6.180437528761683e+17
19634.0	6.17937987838498e+17
19635.0	6.178218142160212e+17
19636.0	6.177140656919891e+17
19637.0	6.175559889453055e+17
19638.0	6.174910937650516e+17
19639.0	6.17379465859345e+17
19640.0	6.172620384195924e+17
19641.0	6.170888247093933e+17
19642.0	6.17045166338867e+17
19643.0	6.169312052117503e+17
19644.0	6.168162922572457e+17
19645.0	6.166816874648916e+17
19646.0	6.166003227208361e+17
19647.0	6.164886826516479e+17
19648.0	6.163764606227796e+17
19649.0	6.162644287356927e+17
19650.0	6.161535368604329e+17
19651.0	6.160410524079444e+17
19652.0	6.159291690691242e+17
19653.0	6.158180344135679e+17
19654.0	6.157052734166356e+17
19655.0	6.155930557917865e+17
19656.0	6.154820660494336e+17
19657.0	6.153702206690644e+17
19658.0	6.152591722064553e+17
19659.0	6.151472859316223e+17
19660.0	6.150359759541588e+17
19661.0	6.149235966388905e+17
19662.0	6.148123210547199e+17
19663.0	6.14695155409442e+17
19664.0	6.145855065860776e+17
19665.0	6.1447681867776e+17
