# Flux units: erg / (cm m2 s)
# Wavelength units: Angstrom
wave	flux
19000.0	5.5533560296461645e+17
19001.0	5.552281413309779e+17
19002.0	5.5513846396573e+17
19003.0	5.550391231337813e+17
19004.0	5.5494070295156045e+17
19005.0	5.548395828958549e+17
19006.0	5.547407210534228e+17
19007.0	5.5464185236029434e+17
19008.0	5.5454070762810016e+17
19009.0	5.544359255954772e+17
19010.0	5.5433723851571194e+17
19011.0	5.5424248716110496e+17
19012.0	5.541381493052756e+17
19013.0	5.5404953142121805e+17
19014.0	5.539478529638399e+17
19015.0	5.5384980908059296e+17
19016.0	5.537549268637013e+17
19017.0	5.536569729482751e+17
19018.0	5.535575210371753e+17
19019.0	5.5345919424812365e+17
19020.0	5.5336002671083514e+17
19021.0	5.532626547550889e+17
19022.0	5.531635165080234e+17
19023.0	5.530609743036415e+17
19024.0	5.529617546171732e+17
19025.0	5.528659104366591e+17
19026.0	5.527668358032042e+17
19027.0	5.526689160713556e+17
19028.0	5.5257005311044256e+17
19029.0	5.5247012493612365e+17
19030.0	5.5237275948154874e+17
19031.0	5.5227340942213114e+17
19032.0	5.5217146203996154e+17
19033.0	5.5205950180556794e+17
19034.0	5.519520401020244e+17
19035.0	5.5180556647792634e+17
19036.0	5.5161950009207456e+17
19037.0	5.516175598070442e+17
19038.0	5.515600926692694e+17
19039.0	5.5147717491425274e+17
19040.0	5.513844215862611e+17
19041.0	5.512887009279999e+17
19042.0	5.5110361202469523e+17
19043.0	5.5109565906507085e+17
19044.0	5.509967796764671e+17
19045.0	5.5089771972307616e+17
19046.0	5.507979900092415e+17
19047.0	5.5069903512316576e+17
19048.0	5.5058600918603085e+17
19049.0	5.503232945509715e+17
19050.0	5.5039212811277645e+17
19051.0	5.5028376239691085e+17
19052.0	5.501934963610965e+17
19053.0	5.5010579723933005e+17
19054.0	5.5001281727911245e+17
19055.0	5.49873834262528e+17
19056.0	5.4981189669573965e+17
19057.0	5.497240278444713e+17
19058.0	5.4953917445133626e+17
19059.0	5.4949639331949216e+17
19060.0	5.4943189198438394e+17
19061.0	5.4933400538753696e+17
19062.0	5.492360079911593e+17
19063.0	5.491381500553897e+17
19064.0	5.490380192262826e+17
19065.0	5.489335807071573e+17
19066.0	5.488097716338687e+17
19067.0	5.4874640520751776e+17
19068.0	5.4865062331241805e+17
19069.0	5.485530894565375e+17
19070.0	5.484534228669781e+17
19071.0	5.4835677477819725e+17
19072.0	5.482280731891028e+17
19073.0	5.4816267923619834e+17
19074.0	5.4806449770987514e+17
19075.0	5.479673423200256e+17
19076.0	5.478692585908905e+17
19077.0	5.4777133983771296e+17
19078.0	5.47672268280081e+17
19079.0	5.475762109590186e+17
19080.0	5.4747839461676365e+17
19081.0	5.473776051421183e+17
19082.0	5.472840755882666e+17
19083.0	5.4718026202043725e+17
19084.0	5.470723327918079e+17
19085.0	5.469904067100671e+17
19086.0	5.468198319161342e+17
19087.0	5.467221883092991e+17
19088.0	5.4664879365160934e+17
19089.0	5.465881115099136e+17
19090.0	5.465026794094591e+17
19091.0	5.4640126729038496e+17
19092.0	5.462381672355159e+17
19093.0	5.462135719067647e+17
19094.0	5.461164924338175e+17
19095.0	5.4601894082205005e+17
19096.0	5.4592212866607776e+17
19097.0	5.4582503066828794e+17
19098.0	5.4569151136180896e+17
19099.0	5.455866135663957e+17
19100.0	5.455309265611434e+17
19101.0	5.454341778789717e+17
19102.0	5.453361503535103e+17
19103.0	5.452407450370047e+17
19104.0	5.45144718893602e+17
19105.0	5.4496844921350835e+17
19106.0	5.4494953520933536e+17
19107.0	5.448327548807849e+17
19108.0	5.447244168473258e+17
19109.0	5.4465715447179936e+17
19110.0	5.4456041389861536e+17
19111.0	5.4444110629218976e+17
19112.0	5.44339554083362e+17
19113.0	5.4426998281338874e+17
19114.0	5.441557931666089e+17
19115.0	5.440690666340351e+17
19116.0	5.439714956585641e+17
19117.0	5.4386393615783245e+17
19118.0	5.4369607465915725e+17
19119.0	5.433265224329897e+17
19120.0	5.4353451055841274e+17
19121.0	5.434797535002624e+17
19122.0	5.4339234658167456e+17
19123.0	5.432981239190869e+17
19124.0	5.4319700945578656e+17
19125.0	5.4310096485744634e+17
19126.0	5.4299622420862285e+17
19127.0	5.428865957975382e+17
19128.0	5.4280209119750816e+17
19129.0	5.427095087874047e+17
19130.0	5.426229161929385e+17
19131.0	5.4252978411929594e+17
19132.0	5.4243456579884365e+17
19133.0	5.4233607836794874e+17
19134.0	5.4224226660734285e+17
19135.0	5.421461825825449e+17
19136.0	5.4204977056317434e+17
19137.0	5.419521332477951e+17
19138.0	5.4185677721436154e+17
19139.0	5.417615335882751e+17
19140.0	5.416657067442175e+17
19141.0	5.4156956595650554e+17
19142.0	5.414712795725823e+17
19143.0	5.413761309474815e+17
19144.0	5.412777504014335e+17
19145.0	5.4118390243000314e+17
19146.0	5.4103918104630605e+17
19147.0	5.409906361019049e+17
19148.0	5.408678640702805e+17
19149.0	5.407664572639913e+17
19150.0	5.407037634641919e+17
19151.0	5.406070609892692e+17
19152.0	5.405102141603839e+17
19153.0	5.403534525377192e+17
19154.0	5.4031239554443936e+17
19155.0	5.402217232203775e+17
19156.0	5.401257239205205e+17
19157.0	5.400106676606294e+17
19158.0	5.398907486644907e+17
19159.0	5.398362895417343e+17
19160.0	5.3973953428848634e+17
19161.0	5.3964341230523725e+17
19162.0	5.3954602909477536e+17
19163.0	5.3945109193250125e+17
19164.0	5.3935601160465043e+17
19165.0	5.39195697476403e+17
19166.0	5.39163011195426e+17
19167.0	5.390692769595391e+17
19168.0	5.389749047700138e+17
19169.0	5.38879473029393e+17
19170.0	5.3878421835830605e+17
19171.0	5.386880617021439e+17
19172.0	5.385926221321555e+17
19173.0	5.384972033239722e+17
19174.0	5.3840088085299194e+17
19175.0	5.383054833658538e+17
19176.0	5.3820997074507085e+17
19177.0	5.3810281536552954e+17
19178.0	5.38018319503633e+17
19179.0	5.3792272761050445e+17
19180.0	5.378255102148607e+17
19181.0	5.3772812148189856e+17
19182.0	5.376330219301545e+17
19183.0	5.375395409603242e+17
19184.0	5.374442521755646e+17
19185.0	5.373477601847978e+17
19186.0	5.37252546408175e+17
19187.0	5.371518250909694e+17
19188.0	5.370600675606526e+17
19189.0	5.3696324037509114e+17
19190.0	5.368667560039763e+17
19191.0	5.3676727312493216e+17
19192.0	5.366714994786303e+17
19193.0	5.3656466237685754e+17
19194.0	5.364598844686336e+17
19195.0	5.3637359463301114e+17
19196.0	5.362712700431018e+17
19197.0	5.3616847569114445e+17
19198.0	5.360627893665791e+17
19199.0	5.359508176677547e+17
19200.0	5.358589616411989e+17
19201.0	5.3577747854786554e+17
19202.0	5.356930711158784e+17
19203.0	5.3560483840873805e+17
19204.0	5.3551722813631136e+17
19205.0	5.354255212871679e+17
19206.0	5.35334424219921e+17
19207.0	5.352328793511253e+17
19208.0	5.351461912663382e+17
19209.0	5.3505531740596896e+17
19210.0	5.349630755733503e+17
19211.0	5.3487065058945696e+17
19212.0	5.347761276846079e+17
19213.0	5.346747993118037e+17
19214.0	5.3458538653723296e+17
19215.0	5.344916322385918e+17
19216.0	5.343959879865685e+17
19217.0	5.342982088338089e+17
19218.0	5.341993081241599e+17
19219.0	5.3409722079204685e+17
19220.0	5.340140523574613e+17
19221.0	5.339212812735828e+17
19222.0	5.338288042104147e+17
19223.0	5.337345366687743e+17
19224.0	5.3363876994307405e+17
19225.0	5.335476698000041e+17
19226.0	5.334529028565674e+17
19227.0	5.3335928962635085e+17
19228.0	5.3326721675427834e+17
19229.0	5.3317244694473376e+17
19230.0	5.33078095237393e+17
19231.0	5.329831764601513e+17
19232.0	5.328897737140906e+17
19233.0	5.327915805835264e+17
19234.0	5.327009365710163e+17
19235.0	5.3260366478923085e+17
19236.0	5.3251222791345485e+17
19237.0	5.324172604822868e+17
19238.0	5.323186312839167e+17
19239.0	5.3222922927472634e+17
19240.0	5.3213437194403834e+17
19241.0	5.320391133582676e+17
19242.0	5.319449263472639e+17
19243.0	5.31839416602897e+17
19244.0	5.3175765165233485e+17
19245.0	5.316630659727359e+17
19246.0	5.3156909874326176e+17
19247.0	5.314742451874474e+17
19248.0	5.3138062000346445e+17
19249.0	5.31283828539392e+17
19250.0	5.3117779394778445e+17
19251.0	5.3107926925748883e+17
19252.0	5.3097949739089914e+17
19253.0	5.309081761174868e+17
19254.0	5.308155046483285e+17
19255.0	5.307054796658004e+17
19256.0	5.3062626659969696e+17
19257.0	5.3053240024323405e+17
19258.0	5.304378269368319e+17
19259.0	5.3033571122326176e+17
19260.0	5.302403686116009e+17
19261.0	5.3015125558995616e+17
19262.0	5.300518249999017e+17
19263.0	5.29956141601041e+17
19264.0	5.2985862654962336e+17
19265.0	5.297658282027689e+17
19266.0	5.2967138974324045e+17
19267.0	5.295877570691071e+17
19268.0	5.2949508511061325e+17
19269.0	5.294015481468245e+17
19270.0	5.2930580372084045e+17
19271.0	5.292097653440511e+17
19272.0	5.2911915495587834e+17
19273.0	5.2901472286801914e+17
19274.0	5.289033216644435e+17
19275.0	5.288407678844928e+17
19276.0	5.2874558787201696e+17
19277.0	5.286522283971924e+17
19278.0	5.28556402811426e+17
19279.0	5.284627857364309e+17
19280.0	5.2836915698728954e+17
19281.0	5.282751871014228e+17
19282.0	5.2818226872756896e+17
19283.0	5.2808721978709325e+17
19284.0	5.2799006516619936e+17
19285.0	5.27892235891507e+17
19286.0	5.2778938093185696e+17
19287.0	5.276771414267221e+17
19288.0	5.27510224974643e+17
19289.0	5.274017042093395e+17
19290.0	5.273922220763817e+17
19291.0	5.273037184172032e+17
19292.0	5.272388079277396e+17
19293.0	5.271497386666666e+17
19294.0	5.270566992871423e+17
19295.0	5.269661015517866e+17
19296.0	5.2683318412793184e+17
19297.0	5.267719492468736e+17
19298.0	5.266842550883668e+17
19299.0	5.2654875893650765e+17
19300.0	5.2649887146530125e+17
19301.0	5.264062010447189e+17
19302.0	5.263116557702485e+17
19303.0	5.262146872366421e+17
19304.0	5.26124547239663e+17
19305.0	5.260292544004096e+17
19306.0	5.259353645558442e+17
19307.0	5.258378024583168e+17
19308.0	5.257437087006719e+17
19309.0	5.256478445273087e+17
19310.0	5.255494663580329e+17
19311.0	5.254472031447722e+17
19312.0	5.2533532008557216e+17
19313.0	5.251654824405674e+17
19314.0	5.2411609568160435e+17
19315.0	5.2405921861249715e+17
19316.0	5.248373653940906e+17
19317.0	5.248684327436287e+17
19318.0	5.2479719661458765e+17
19319.0	5.247136849461246e+17
19320.0	5.2460890633885e+17
19321.0	5.244975936350889e+17
19322.0	5.2444112774758394e+17
19323.0	5.243484466315262e+17
19324.0	5.242556321366015e+17
19325.0	5.241635686318079e+17
19326.0	5.240707920953343e+17
19327.0	5.2397750217605114e+17
19328.0	5.238138091864064e+17
19329.0	5.237915038078292e+17
19330.0	5.2369821151177376e+17
19331.0	5.236018777161726e+17
19332.0	5.235119156974932e+17
19333.0	5.234172692703913e+17
19334.0	5.233235053947562e+17
19335.0	5.230880175947778e+17
19336.0	5.2313655065531725e+17
19337.0	5.2304372588434765e+17
19338.0	5.229338579085994e+17
19339.0	5.228536514215934e+17
19340.0	5.227507636764672e+17
19341.0	5.226052016144385e+17
19342.0	5.225474814902271e+17
19343.0	5.224681791553536e+17
19344.0	5.223117171458048e+17
19345.0	5.2222378544988154e+17
19346.0	5.221553241325567e+17
19347.0	5.2201907992657914e+17
19348.0	5.220025860358143e+17
19349.0	5.2191152671730336e+17
19350.0	5.217937891786751e+17
19351.0	5.217266494166355e+17
19352.0	5.2156172826487443e+17
19353.0	5.2154483598513485e+17
19354.0	5.2145156060610554e+17
19355.0	5.2135003153585485e+17
19356.0	5.2126373324171936e+17
19357.0	5.211698359173119e+17
19358.0	5.2107519885748896e+17
19359.0	5.2096464700047334e+17
19360.0	5.208292539585876e+17
19361.0	5.2079237742810445e+17
19362.0	5.2069820922156365e+17
19363.0	5.206037870499157e+17
19364.0	5.2050917459667616e+17
19365.0	5.204143528476672e+17
19366.0	5.2031910139221325e+17
19367.0	5.2022434982789126e+17
19368.0	5.2012903098395296e+17
19369.0	5.200324637054292e+17
19370.0	5.1993688628264954e+17
19371.0	5.1983813188430496e+17
19372.0	5.19745969463842e+17
19373.0	5.196496035119104e+17
19374.0	5.1955400546713594e+17
19375.0	5.194575366848511e+17
19376.0	5.193610779688959e+17
19377.0	5.192637556457471e+17
19378.0	5.191668133265407e+17
19379.0	5.19069757481506e+17
19380.0	5.189717028328788e+17
19381.0	5.18873652797986e+17
19382.0	5.1876918414977696e+17
19383.0	5.1867409277692576e+17
19384.0	5.185772465072809e+17
19385.0	5.184778082975742e+17
19386.0	5.1837803873785165e+17
19387.0	5.182757861501609e+17
19388.0	5.1817097706427725e+17
19389.0	5.180593454536021e+17
19390.0	5.1792680691520845e+17
19391.0	5.177289771144532e+17
19392.0	5.1768669363677856e+17
19393.0	5.1763930443284474e+17
19394.0	5.175528619245567e+17
19395.0	5.1743472802420045e+17
19396.0	5.173485234727594e+17
19397.0	5.17247563010321e+17
19398.0	5.171183258086058e+17
19399.0	5.170014680951465e+17
19400.0	5.169028694452906e+17
19401.0	5.1681733598248954e+17
19402.0	5.167109186606421e+17
19403.0	5.1659858107869856e+17
19404.0	5.1648625929530016e+17
19405.0	5.1636957040257696e+17
19406.0	5.1625240028337485e+17
19407.0	5.1610707254312954e+17
19408.0	5.1600377802042016e+17
19409.0	5.1588617945306445e+17
19410.0	5.1576853404931405e+17
19411.0	5.156443727942996e+17
19412.0	5.155157307643221e+17
19413.0	5.1536026944580256e+17
19414.0	5.152503505092607e+17
19415.0	5.151123696517119e+17
19416.0	5.149606853738494e+17
19417.0	5.148254312333311e+17
19418.0	5.1467418155526816e+17
19419.0	5.1451728214971725e+17
19420.0	5.143559814512638e+17
19421.0	5.1418914441134074e+17
19422.0	5.140094236579157e+17
19423.0	5.1382901105404576e+17
19424.0	5.136387542788778e+17
19425.0	5.134387306474153e+17
19426.0	5.1322603707214496e+17
19427.0	5.129999194172074e+17
19428.0	5.127578204154538e+17
19429.0	5.125105357859498e+17
19430.0	5.122311990542335e+17
19431.0	5.119347589294762e+17
19432.0	5.116342083867989e+17
19433.0	5.1129995779986765e+17
19434.0	5.1092822593372154e+17
19435.0	5.105343267515049e+17
19436.0	5.1007762562635085e+17
19437.0	5.095421614839125e+17
19438.0	5.088194474628437e+17
19439.0	5.0834818462296736e+17
19440.0	5.078345214241449e+17
19441.0	5.071225248983721e+17
19442.0	5.0628671545453216e+17
19443.0	5.053582994134356e+17
19444.0	5.042342450954238e+17
19445.0	5.029297258845526e+17
19446.0	5.013667361849343e+17
19447.0	4.994219123583657e+17
19448.0	4.96939531571473e+17
19449.0	4.935014119287465e+17
19450.0	4.8741988461881965e+17
19451.0	4.819553946522967e+17
19452.0	4.909387121076906e+17
19453.0	4.9505564601876474e+17
19454.0	4.9774394140699283e+17
19455.0	4.997036388646911e+17
19456.0	5.012329975862614e+17
19457.0	5.022402450117973e+17
19458.0	5.0063554274918496e+17
19459.0	5.033432189676206e+17
19460.0	5.049665418428415e+17
19461.0	5.056894150377471e+17
19462.0	5.062343388037119e+17
19463.0	5.0667084868922016e+17
19464.0	5.0705643049669965e+17
19465.0	5.073842808553472e+17
19466.0	5.0766095035924474e+17
19467.0	5.0788407684628474e+17
19468.0	5.080786086658047e+17
19469.0	5.081971793330175e+17
19470.0	5.083856999459498e+17
19471.0	5.0850509108893005e+17
19472.0	5.086011008745471e+17
19473.0	5.0867438368413005e+17
19474.0	5.086801216318121e+17
19475.0	5.087617003552766e+17
19476.0	5.088133646734676e+17
19477.0	5.0884274486422176e+17
19478.0	5.088599178827092e+17
19479.0	5.088172604129278e+17
19480.0	5.088622183885481e+17
19481.0	5.088524380405759e+17
19482.0	5.0883722215423994e+17
19483.0	5.088161048821759e+17
19484.0	5.08787816608563e+17
19485.0	5.0875408790323194e+17
19486.0	5.0866458669875206e+17
19487.0	5.086714991913643e+17
19488.0	5.086221220271444e+17
19489.0	5.085618268798975e+17
19490.0	5.0850396093371725e+17
19491.0	5.084619106593451e+17
19492.0	5.0841532781035514e+17
19493.0	5.0835769891225594e+17
19494.0	5.082946957126313e+17
19495.0	5.0822429418018125e+17
19496.0	5.081405855891455e+17
19497.0	5.0805003825534285e+17
19498.0	5.0788591381162656e+17
19499.0	5.0774227812351994e+17
19500.0	5.078259894408532e+17
19501.0	5.078032797313706e+17
19502.0	5.0774873113012896e+17
19503.0	5.0768322602816845e+17
19504.0	5.076115605422079e+17
19505.0	5.0753518254598816e+17
19506.0	5.074597348463957e+17
19507.0	5.07376643866624e+17
19508.0	5.072876178767871e+17
19509.0	5.071752527522474e+17
19510.0	5.0693367349466426e+17
19511.0	5.057536466092029e+17
19512.0	5.0664989660282874e+17
19513.0	5.0674183427850234e+17
19514.0	5.067106571081044e+17
19515.0	5.0670937903377056e+17
19516.0	5.066516468858879e+17
19517.0	5.065910772214443e+17
19518.0	5.06502422008081e+17
19519.0	5.064237184101033e+17
19520.0	5.063067641577471e+17
19521.0	5.062802272157694e+17
19522.0	5.061875419054079e+17
19523.0	5.0610255293317114e+17
19524.0	5.059937726103552e+17
19525.0	5.059492544774143e+17
19526.0	5.0586761402777594e+17
19527.0	5.057834483275092e+17
19528.0	5.056951524960938e+17
19529.0	5.0560847503687674e+17
19530.0	5.0553224838512634e+17
19531.0	5.054479328083968e+17
19532.0	5.053630947611989e+17
19533.0	5.052778789470207e+17
19534.0	5.0519286383028896e+17
19535.0	5.051054678168917e+17
19536.0	5.050174289565013e+17
19537.0	5.049320792741205e+17
19538.0	5.047932124397568e+17
19539.0	5.0475489404736845e+17
19540.0	5.0467262501137056e+17
19541.0	5.0457812580433914e+17
19542.0	5.044990271728298e+17
19543.0	5.0436354430293325e+17
19544.0	5.0432273547263994e+17
19545.0	5.0422923045546656e+17
19546.0	5.0414369461589325e+17
19547.0	5.0406867089053005e+17
19548.0	5.039876798589609e+17
19549.0	5.038959698640896e+17
19550.0	5.038187017666559e+17
19551.0	5.037334166066515e+17
19552.0	5.0364711747365536e+17
19553.0	5.035607892601514e+17
19554.0	5.034742474866687e+17
19555.0	5.033806995477845e+17
19556.0	5.0329788595131725e+17
19557.0	5.032152018190336e+17
19558.0	5.0312933483915936e+17
19559.0	5.0304301417540256e+17
19560.0	5.029354786521087e+17
19561.0	5.028677384754517e+17
19562.0	5.0276373714261325e+17
19563.0	5.026966595261781e+17
19564.0	5.026092500211028e+17
19565.0	5.025235796142761e+17
19566.0	5.024355214600874e+17
19567.0	5.023499129891498e+17
19568.0	5.022613426405375e+17
19569.0	5.0217527181748896e+17
19570.0	5.020889025697108e+17
19571.0	5.0200220819346765e+17
19572.0	5.019131259300522e+17
19573.0	5.018218760503296e+17
19574.0	5.01732114239761e+17
19575.0	5.01655333450547e+17
19576.0	5.0156434152052045e+17
19577.0	5.01469279228177e+17
19578.0	5.013936927670271e+17
19579.0	5.013049722623315e+17
19580.0	5.0121837092973216e+17
19581.0	5.011329113565866e+17
19582.0	5.010465638492841e+17
19583.0	5.009596281607508e+17
19584.0	5.008718025807188e+17
19585.0	5.007756957668692e+17
19586.0	5.0068632130027514e+17
19587.0	5.0060746922393594e+17
19588.0	5.0051684268769274e+17
19589.0	5.004313594167296e+17
19590.0	5.003430625367381e+17
19591.0	5.0026174057458336e+17
19592.0	5.001767123856042e+17
19593.0	5.00083511665186e+17
19594.0	4.999784555347966e+17
19595.0	4.999147253923839e+17
19596.0	4.9982694371273376e+17
19597.0	4.997377179342164e+17
19598.0	4.996343590289407e+17
19599.0	4.9956250465949005e+17
19600.0	4.994793674025641e+17
19601.0	4.993896253052245e+17
19602.0	4.993021753950207e+17
19603.0	4.992136691493546e+17
19604.0	4.99127011053841e+17
19605.0	4.990310837562026e+17
19606.0	4.9895887629626016e+17
19607.0	4.9887393381089274e+17
19608.0	4.9878614143576723e+17
19609.0	4.986987867362645e+17
19610.0	4.985897181948587e+17
19611.0	4.9849042154291194e+17
19612.0	4.984405939803476e+17
19613.0	4.983520123071146e+17
19614.0	4.9826254283953485e+17
19615.0	4.981769170321407e+17
19616.0	4.980626077777919e+17
19617.0	4.979573627639125e+17
19618.0	4.9789269093034656e+17
19619.0	4.9779756858955085e+17
19620.0	4.977113130074111e+17
19621.0	4.975951962876587e+17
19622.0	4.975665108833621e+17
19623.0	4.9747879896896845e+17
19624.0	4.97386233405986e+17
19625.0	4.973080178152789e+17
19626.0	4.972191605063679e+17
19627.0	4.971295425604265e+17
19628.0	4.9703675169341434e+17
19629.0	4.968120526219945e+17
19630.0	4.9684457826112845e+17
19631.0	4.9674699966600525e+17
19632.0	4.9668007318432416e+17
19633.0	4.965999388393471e+17
19634.0	4.965236751379113e+17
19635.0	4.9643332179066874e+17
19636.0	4.9629840228570426e+17
19637.0	4.9618946873098234e+17
19638.0	4.961826152382462e+17
19639.0	4.9609722801684474e+17
19640.0	4.959891993133055e+17
19641.0	4.9588778286011725e+17
19642.0	4.958318626515625e+17
19643.0	4.957506716215977e+17
19644.0	4.9566712010724685e+17
19645.0	4.9558295412735994e+17
19646.0	4.954374466611881e+17
19647.0	4.954135069021523e+17
19648.0	4.953296745791487e+17
19649.0	4.952439105694377e+17
19650.0	4.951584630898687e+17
19651.0	4.950721461310803e+17
19652.0	4.9498615360170656e+17
19653.0	4.949004872493738e+17
19654.0	4.948141135276713e+17
19655.0	4.9472800139072845e+17
