# Flux units: erg / (cm m2 s)
# Wavelength units: Angstrom
wave	flux
19000.0	6.478038778074452e+17
19001.0	6.47672520315153e+17
19002.0	6.475634985402365e+17
19003.0	6.474414263981395e+17
19004.0	6.473203208333993e+17
19005.0	6.472016753677652e+17
19006.0	6.470819486105599e+17
19007.0	6.469524963109546e+17
19008.0	6.468358335627263e+17
19009.0	6.467104433067348e+17
19010.0	6.465536611319805e+17
19011.0	6.464719263804073e+17
19012.0	6.462274113197395e+17
19013.0	6.462392138814803e+17
19014.0	6.461145939793235e+17
19015.0	6.459961808082259e+17
19016.0	6.458750927197524e+17
19017.0	6.457588147989161e+17
19018.0	6.456333033275391e+17
19019.0	6.455188139977385e+17
19020.0	6.453975299653631e+17
19021.0	6.45279375303202e+17
19022.0	6.451587409685161e+17
19023.0	6.450341242120874e+17
19024.0	6.449136564611753e+17
19025.0	6.447850458185728e+17
19026.0	6.446578877333504e+17
19027.0	6.444350498144255e+17
19028.0	6.444354070293161e+17
19029.0	6.443137723531263e+17
19030.0	6.441975401502036e+17
19031.0	6.440771880222719e+17
19032.0	6.439545859298643e+17
19033.0	6.438225336511145e+17
19034.0	6.436993045801642e+17
19035.0	6.434852845562537e+17
19036.0	6.35806420950491e+17
19037.0	6.43272973291793e+17
19038.0	6.432198853569193e+17
19039.0	6.431122584677034e+17
19040.0	6.4299550127773e+17
19041.0	6.428760656751273e+17
19042.0	6.426981897863165e+17
19043.0	6.426390932313427e+17
19044.0	6.425171759289684e+17
19045.0	6.423939263059283e+17
19046.0	6.422743768978771e+17
19047.0	6.421568727722665e+17
19048.0	6.420086409658365e+17
19049.0	6.418064542618963e+17
19050.0	6.417793253638144e+17
19051.0	6.404548328073882e+17
19052.0	6.41291425747217e+17
19053.0	6.414287154533716e+17
19054.0	6.413185737293823e+17
19055.0	6.411605515785558e+17
19056.0	6.410738989356372e+17
19057.0	6.409614779569491e+17
19058.0	6.407865606602751e+17
19059.0	6.407034036202153e+17
19060.0	6.406004465292627e+17
19061.0	6.404843080690346e+17
19062.0	6.403642052225705e+17
19063.0	6.402446941924009e+17
19064.0	6.401122496064169e+17
19065.0	6.399874963253929e+17
19066.0	6.39861643088145e+17
19067.0	6.397653602533375e+17
19068.0	6.396471438650026e+17
19069.0	6.395277249697108e+17
19070.0	6.394051118323027e+17
19071.0	6.392825749613225e+17
19072.0	6.391490454487039e+17
19073.0	6.39049239957777e+17
19074.0	6.389302492310185e+17
19075.0	6.388107600112297e+17
19076.0	6.386893442078036e+17
19077.0	6.385701952159741e+17
19078.0	6.384488825924266e+17
19079.0	6.38332778455586e+17
19080.0	6.382119318192127e+17
19081.0	6.380890958244521e+17
19082.0	6.379701107600042e+17
19083.0	6.378434875883519e+17
19084.0	6.377107535254868e+17
19085.0	6.376108105312938e+17
19086.0	6.374087386114729e+17
19087.0	6.37151663427857e+17
19088.0	6.371730364825599e+17
19089.0	6.370163429474303e+17
19090.0	6.369965087129599e+17
19091.0	6.36884266062097e+17
19092.0	6.366888403664896e+17
19093.0	6.366572548805972e+17
19094.0	6.365422927828308e+17
19095.0	6.364240589881344e+17
19096.0	6.363037030853289e+17
19097.0	6.361861254894931e+17
19098.0	6.360451138977791e+17
19099.0	6.359219499084457e+17
19100.0	6.358153423050068e+17
19101.0	6.357047337549823e+17
19102.0	6.355799625083561e+17
19103.0	6.35471513325841e+17
19104.0	6.353522205392895e+17
19105.0	6.351814869210454e+17
19106.0	6.350771361327785e+17
19107.0	6.349731145274707e+17
19108.0	6.34839438983168e+17
19109.0	6.342205526507514e+17
19110.0	6.345663651861844e+17
19111.0	6.344958100023977e+17
19112.0	6.343821715570687e+17
19113.0	6.342816969348436e+17
19114.0	6.341530783230633e+17
19115.0	6.340198470953642e+17
19116.0	6.339233855832063e+17
19117.0	6.338012926793044e+17
19118.0	6.336466351991466e+17
19119.0	6.330191232106486e+17
19120.0	6.333776780416339e+17
19121.0	6.332801076254035e+17
19122.0	6.332140120353449e+17
19123.0	6.330961696391165e+17
19124.0	6.32932173750818e+17
19125.0	6.328563170366804e+17
19126.0	6.3273721935517e+17
19127.0	6.324467589797203e+17
19128.0	6.324366992911016e+17
19129.0	6.323758528724991e+17
19130.0	6.322649707140435e+17
19131.0	6.321459253215231e+17
19132.0	6.320292058802857e+17
19133.0	6.318970958599508e+17
19134.0	6.317615403586902e+17
19135.0	6.316715880568148e+17
19136.0	6.315553532674047e+17
19137.0	6.314214993253716e+17
19138.0	6.313162144656041e+17
19139.0	6.312003588412756e+17
19140.0	6.310823568517801e+17
19141.0	6.309640444837887e+17
19142.0	6.308406717579263e+17
19143.0	6.307215548525226e+17
19144.0	6.306047995499859e+17
19145.0	6.304903077036032e+17
19146.0	6.303071289562454e+17
19147.0	6.302450370390698e+17
19148.0	6.301150740130476e+17
19149.0	6.299941123828393e+17
19150.0	6.298981691468457e+17
19151.0	6.297798128085673e+17
19152.0	6.296529461575679e+17
19153.0	6.295062846985556e+17
19154.0	6.294081515465385e+17
19155.0	6.29301090259217e+17
19156.0	6.291798207670954e+17
19157.0	6.290085298656596e+17
19158.0	6.286004951100072e+17
19159.0	6.288008993046527e+17
19160.0	6.286945173547689e+17
19161.0	6.28556111614225e+17
19162.0	6.276380967479982e+17
19163.0	6.282415225962495e+17
19164.0	6.28217208775202e+17
19165.0	6.28053287126084e+17
19166.0	6.279582433585834e+17
19167.0	6.277938192318463e+17
19168.0	6.277460934350164e+17
19169.0	6.276254479155199e+17
19170.0	6.275178063462399e+17
19171.0	6.273597746184191e+17
19172.0	6.272734309558953e+17
19173.0	6.271657962373119e+17
19174.0	6.270473521681748e+17
19175.0	6.269342683496447e+17
19176.0	6.268163078837588e+17
19177.0	6.266805553900202e+17
19178.0	6.265472107763027e+17
19179.0	6.263985405252948e+17
19180.0	6.263379999413588e+17
19181.0	6.262139114575188e+17
19182.0	6.261058438867625e+17
19183.0	6.259924434681855e+17
19184.0	6.258735771724457e+17
19185.0	6.25755956584994e+17
19186.0	6.256389238292479e+17
19187.0	6.255112179679231e+17
19188.0	6.254004348649472e+17
19189.0	6.252811627003901e+17
19190.0	6.251569418862591e+17
19191.0	6.250328446642858e+17
19192.0	6.249257838662995e+17
19193.0	6.247983149132457e+17
19194.0	6.246722572735828e+17
19195.0	6.245554174558207e+17
19196.0	6.244173505451348e+17
19197.0	6.24253808550434e+17
19198.0	6.239397971580244e+17
19199.0	6.188766133747699e+17
19200.0	6.199187190317069e+17
19201.0	6.236174360248319e+17
19202.0	6.236722968920063e+17
19203.0	6.235809984981674e+17
19204.0	6.234923926377811e+17
19205.0	6.233879369220096e+17
19206.0	6.232754842763263e+17
19207.0	6.231505657397247e+17
19208.0	6.230241082430803e+17
19209.0	6.22929145635362e+17
19210.0	6.228123128780116e+17
19211.0	6.226963854611795e+17
19212.0	6.22576779989265e+17
19213.0	6.224085187035135e+17
19214.0	6.222674226664788e+17
19215.0	6.222010496232105e+17
19216.0	6.221084372238336e+17
19217.0	6.219902333485055e+17
19218.0	6.217936329681576e+17
19219.0	6.217406247949652e+17
19220.0	6.216357141370196e+17
19221.0	6.21492876485154e+17
19222.0	6.214040235103572e+17
19223.0	6.21287130145314e+17
19224.0	6.211669864742911e+17
19225.0	6.210402952850089e+17
19226.0	6.209345498906624e+17
19227.0	6.208170252828671e+17
19228.0	6.207023054061567e+17
19229.0	6.205846108591443e+17
19230.0	6.20464506544674e+17
19231.0	6.203464320636244e+17
19232.0	6.202301259710463e+17
19233.0	6.201054748912297e+17
19234.0	6.199943319868756e+17
19235.0	6.198757168600403e+17
19236.0	6.1976104941213e+17
19237.0	6.196416390452563e+17
19238.0	6.19508453815091e+17
19239.0	6.194076254732287e+17
19240.0	6.192895623167999e+17
19241.0	6.191696576511999e+17
19242.0	6.190533183537151e+17
19243.0	6.189204344143871e+17
19244.0	6.188195668557823e+17
19245.0	6.187010809834153e+17
19246.0	6.185822042019156e+17
19247.0	6.184653937442815e+17
19248.0	6.183463177333418e+17
19249.0	6.182248627131732e+17
19250.0	6.181018265802067e+17
19251.0	6.179754178073939e+17
19252.0	6.178456294741331e+17
19253.0	6.177556912930815e+17
19254.0	6.176394275629737e+17
19255.0	6.175018852898131e+17
19256.0	6.173981763698687e+17
19257.0	6.172693511886164e+17
19258.0	6.171510291737257e+17
19259.0	6.170234426403498e+17
19260.0	6.167476096204796e+17
19261.0	6.167936562976084e+17
19262.0	6.166707354380969e+17
19263.0	6.165513187098623e+17
19264.0	6.163869187003731e+17
19265.0	6.16302168314129e+17
19266.0	6.161810880550228e+17
19267.0	6.160859426455551e+17
19268.0	6.159666656575487e+17
19269.0	6.158483184069289e+17
19270.0	6.157288611337556e+17
19271.0	6.155777922301951e+17
19272.0	6.154883542198953e+17
19273.0	6.1532542613149e+17
19274.0	6.152002776771241e+17
19275.0	6.151353397848746e+17
19276.0	6.150143875918505e+17
19277.0	6.148957244402344e+17
19278.0	6.147751175782399e+17
19279.0	6.146496669242707e+17
19280.0	6.145192078518953e+17
19281.0	6.144056149846697e+17
19282.0	6.142818781932201e+17
19283.0	6.141057048423082e+17
19284.0	6.14014828884787e+17
19285.0	6.139072119919956e+17
19286.0	6.137971143781033e+17
19287.0	6.13662469530146e+17
19288.0	6.114273266761711e+17
19289.0	6.083361725830401e+17
19290.0	6.132852665439571e+17
19291.0	6.131517129839958e+17
19292.0	6.130634511963476e+17
19293.0	6.129446117441535e+17
19294.0	6.128239219747497e+17
19295.0	6.127056783933437e+17
19296.0	6.12560531427601e+17
19297.0	6.124535343830356e+17
19298.0	6.123405673758719e+17
19299.0	6.121946170611027e+17
19300.0	6.120996793395882e+17
19301.0	6.119786727604223e+17
19302.0	6.118560270472532e+17
19303.0	6.117249327475369e+17
19304.0	6.116097490507092e+17
19305.0	6.11487935697169e+17
19306.0	6.113617111941119e+17
19307.0	6.112305214739796e+17
19308.0	6.111039101861887e+17
19309.0	6.10794020606225e+17
19310.0	6.1058214568919e+17
19311.0	6.106761511567359e+17
19312.0	6.105854753374207e+17
19313.0	6.104470396775082e+17
19314.0	6.019428369388859e+17
19315.0	6.025308559900801e+17
19316.0	6.100138009296896e+17
19317.0	6.099654281614676e+17
19318.0	6.09847544451345e+17
19319.0	6.097268942482089e+17
19320.0	6.095885106675711e+17
19321.0	6.094481540863316e+17
19322.0	6.092859182678016e+17
19323.0	6.091036116560554e+17
19324.0	6.090251698525524e+17
19325.0	6.087674406371327e+17
19326.0	6.087780280390996e+17
19327.0	6.086662531230378e+17
19328.0	6.085014908654932e+17
19329.0	6.084174602917203e+17
19330.0	6.082854437344596e+17
19331.0	6.081491346565802e+17
19332.0	6.080037516214272e+17
19333.0	6.078712950117716e+17
19334.0	6.077331252707327e+17
19335.0	6.0751099737757e+17
19336.0	6.074612989995689e+17
19337.0	6.073341641927337e+17
19338.0	6.071811785621501e+17
19339.0	6.070681946379604e+17
19340.0	6.069246078834003e+17
19341.0	6.067678135451647e+17
19342.0	6.066121774639785e+17
19343.0	6.065338223427583e+17
19344.0	6.063666731767126e+17
19345.0	6.060483424201382e+17
19346.0	6.060368974228137e+17
19347.0	6.059417101402111e+17
19348.0	6.058522468242772e+17
19349.0	6.057071051014143e+17
19350.0	6.055533994486441e+17
19351.0	6.054294320403795e+17
19352.0	6.052416587126099e+17
19353.0	6.05151184359697e+17
19354.0	6.049817211961341e+17
19355.0	6.048222559251114e+17
19356.0	6.046866289808724e+17
19357.0	6.045420847366144e+17
19358.0	6.043922414086825e+17
19359.0	6.042331030836563e+17
19360.0	6.040611291398143e+17
19361.0	6.039441151885311e+17
19362.0	6.03798205768226e+17
19363.0	6.036458962594473e+17
19364.0	6.034921592892073e+17
19365.0	6.033060761261395e+17
19366.0	6.031292548251647e+17
19367.0	6.029699216048127e+17
19368.0	6.028116615670441e+17
19369.0	6.026413468898644e+17
19370.0	6.024789202305024e+17
19371.0	6.023167731215017e+17
19372.0	6.021455805764948e+17
19373.0	6.019090762869418e+17
19374.0	6.017410289805994e+17
19375.0	6.015675009772201e+17
19376.0	6.013938021957631e+17
19377.0	6.012153017750867e+17
19378.0	6.00954133090577e+17
19379.0	6.007504276291583e+17
19380.0	6.005649605394431e+17
19381.0	6.003759670886399e+17
19382.0	6.000646327107584e+17
19383.0	5.998240429593939e+17
19384.0	5.996345167620778e+17
19385.0	5.993773595099133e+17
19386.0	5.990543003047252e+17
19387.0	5.988426044844713e+17
19388.0	5.985578826159443e+17
19389.0	5.981878796419072e+17
19390.0	5.979297834248874e+17
19391.0	5.909130028689994e+17
19392.0	5.970222203447972e+17
19393.0	5.96960344084753e+17
19394.0	5.966140803121151e+17
19395.0	5.963479617896447e+17
19396.0	5.960613910020095e+17
19397.0	5.958208636758697e+17
19398.0	5.955395931602943e+17
19399.0	5.9520256587421e+17
19400.0	5.949908532068351e+17
19401.0	5.947257518030847e+17
19402.0	5.944038064652287e+17
19403.0	5.940509731542356e+17
19404.0	5.93745724641553e+17
19405.0	5.934297603112959e+17
19406.0	5.93078190744098e+17
19407.0	5.926235850932223e+17
19408.0	5.92220790840798e+17
19409.0	5.919367919304703e+17
19410.0	5.913815043888468e+17
19411.0	5.909933980297897e+17
19412.0	5.905151467803988e+17
19413.0	5.898937493880831e+17
19414.0	5.893571759221416e+17
19415.0	5.886599047588521e+17
19416.0	5.878431131282089e+17
19417.0	5.870464753380004e+17
19418.0	5.861406047993855e+17
19419.0	5.849748379882845e+17
19420.0	5.837361024510629e+17
19421.0	5.822205441081343e+17
19422.0	5.808615117378895e+17
19423.0	5.799720455416489e+17
19424.0	5.791785130743126e+17
19425.0	5.783426797928448e+17
19426.0	5.774631353625257e+17
19427.0	5.765965392379904e+17
19428.0	5.7563076571955194e+17
19429.0	5.746182762528767e+17
19430.0	5.733019824422915e+17
19431.0	5.7109058836671315e+17
19432.0	5.7093553068004685e+17
19433.0	5.69338169707725e+17
19434.0	5.6742089546792954e+17
19435.0	5.649029639700474e+17
19436.0	5.614538345589409e+17
19437.0	5.581481474086234e+17
19438.0	5.451737584369671e+17
19439.0	5.5168388342743085e+17
19440.0	5.4943897979890336e+17
19441.0	5.465705813464401e+17
19442.0	5.432808298949292e+17
19443.0	5.3945780093146445e+17
19444.0	5.348906005168125e+17
19445.0	5.2904745304937805e+17
19446.0	5.215455416767831e+17
19447.0	5.1200209834038496e+17
19448.0	4.993590779794782e+17
19449.0	4.8087047710528845e+17
19450.0	4.4639857654716e+17
19451.0	4.252830599391948e+17
19452.0	4.6677857056850086e+17
19453.0	4.911032192816475e+17
19454.0	5.058262158977699e+17
19455.0	5.165316427131558e+17
19456.0	5.2466746944826e+17
19457.0	5.310944023063207e+17
19458.0	5.1874142897223334e+17
19459.0	5.3949533883378726e+17
19460.0	5.4330813607226016e+17
19461.0	5.461812612257109e+17
19462.0	5.4875819113185286e+17
19463.0	5.5110743135791776e+17
19464.0	5.537471801240231e+17
19465.0	5.575020043217577e+17
19466.0	5.606939113291772e+17
19467.0	5.630904922450603e+17
19468.0	5.650520414180698e+17
19469.0	5.6649681095447904e+17
19470.0	5.677673875505151e+17
19471.0	5.688471625312939e+17
19472.0	5.697980286544554e+17
19473.0	5.705868794396671e+17
19474.0	5.713874612737364e+17
19475.0	5.720023019902291e+17
19476.0	5.727172098523134e+17
19477.0	5.7338100907158176e+17
19478.0	5.739689861098154e+17
19479.0	5.745057810350078e+17
19480.0	5.754349614880082e+17
19481.0	5.767334266404865e+17
19482.0	5.779206554255357e+17
19483.0	5.788730581319681e+17
19484.0	5.79626098508868e+17
19485.0	5.802698030972927e+17
19486.0	5.80898896408303e+17
19487.0	5.812987130544127e+17
19488.0	5.817962373403988e+17
19489.0	5.820490657213098e+17
19490.0	5.823152737222652e+17
19491.0	5.826167709892607e+17
19492.0	5.82876521299968e+17
19493.0	5.831062494816937e+17
19494.0	5.832318149896874e+17
19495.0	5.83382007563332e+17
19496.0	5.835353174136147e+17
19497.0	5.836446119581011e+17
19498.0	5.828628761105755e+17
19499.0	5.734501273567165e+17
19500.0	5.839423112129193e+17
19501.0	5.840604526630228e+17
19502.0	5.84126523646498e+17
19503.0	5.841891924202836e+17
19504.0	5.842367927375188e+17
19505.0	5.842770776293376e+17
19506.0	5.843239461104297e+17
19507.0	5.843821987714388e+17
19508.0	5.844352723058687e+17
19509.0	5.845609351916201e+17
19510.0	5.844955999589716e+17
19511.0	5.691439677702024e+17
19512.0	5.830744809843334e+17
19513.0	5.818069414139174e+17
19514.0	5.827654384440632e+17
19515.0	5.848871932526593e+17
19516.0	5.850168333871788e+17
19517.0	5.851578073699668e+17
19518.0	5.851364117359273e+17
19519.0	5.851070301470719e+17
19520.0	5.851439749049002e+17
19521.0	5.852110819513684e+17
19522.0	5.851680346210303e+17
19523.0	5.851304543562409e+17
19524.0	5.851220674259626e+17
19525.0	5.851518650198698e+17
19526.0	5.851090177578324e+17
19527.0	5.850611408961535e+17
19528.0	5.850082176576169e+17
19529.0	5.849547581074089e+17
19530.0	5.849741601887572e+17
19531.0	5.849211383840767e+17
19532.0	5.848638450302976e+17
19533.0	5.848047105168724e+17
19534.0	5.847436749351593e+17
19535.0	5.846796740504233e+17
19536.0	5.846133310663337e+17
19537.0	5.845603937069737e+17
19538.0	5.844901562417151e+17
19539.0	5.844092485369857e+17
19540.0	5.843915227791359e+17
19541.0	5.843155665900884e+17
19542.0	5.842477857985876e+17
19543.0	5.841454896600406e+17
19544.0	5.841017140587177e+17
19545.0	5.839798168890024e+17
19546.0	5.838632836049578e+17
19547.0	5.838767903124137e+17
19548.0	5.837994092483924e+17
19549.0	5.837215219318783e+17
19550.0	5.836716373966848e+17
19551.0	5.835915988915542e+17
19552.0	5.835104017099433e+17
19553.0	5.834262736885076e+17
19554.0	5.833420686316884e+17
19555.0	5.832569200661844e+17
19556.0	5.831754255783251e+17
19557.0	5.830929615071913e+17
19558.0	5.830076805414912e+17
19559.0	5.829225724510207e+17
19560.0	5.828214247828137e+17
19561.0	5.827463486985556e+17
19562.0	5.826496722283177e+17
19563.0	5.825736694125908e+17
19564.0	5.824850524372991e+17
19565.0	5.823959239666346e+17
19566.0	5.823032970969087e+17
19567.0	5.822161758803284e+17
19568.0	5.821231413242538e+17
19569.0	5.820327070269439e+17
19570.0	5.819431705204052e+17
19571.0	5.818549845098495e+17
19572.0	5.81786388135936e+17
19573.0	5.817014616588287e+17
19574.0	5.816033991808339e+17
19575.0	5.815218152144895e+17
19576.0	5.814254375185066e+17
19577.0	5.813254044166825e+17
19578.0	5.812365245983401e+17
19579.0	5.811430933310121e+17
19580.0	5.810487058322774e+17
19581.0	5.809549539104084e+17
19582.0	5.808727048672596e+17
19583.0	5.808016941820586e+17
19584.0	5.807025813105321e+17
19585.0	5.80597503299857e+17
19586.0	5.804928142409728e+17
19587.0	5.8038768121501e+17
19588.0	5.80276863439121e+17
19589.0	5.802276690766506e+17
19590.0	5.801200346376873e+17
19591.0	5.800356708264618e+17
19592.0	5.799394141361492e+17
19593.0	5.798363915441492e+17
19594.0	5.797138046211411e+17
19595.0	5.796434629274284e+17
19596.0	5.794183423284566e+17
19597.0	5.794738271682559e+17
19598.0	5.793369359908861e+17
19599.0	5.79278388400401e+17
19600.0	5.791806857237844e+17
19601.0	5.790745281691648e+17
19602.0	5.789745299499689e+17
19603.0	5.787618949551443e+17
19604.0	5.787615869534208e+17
19605.0	5.78653585932288e+17
19606.0	5.785887493324799e+17
19607.0	5.784902192594944e+17
19608.0	5.783887095529471e+17
19609.0	5.782852010508287e+17
19610.0	5.781747578262868e+17
19611.0	5.780670541813075e+17
19612.0	5.779901939799379e+17
19613.0	5.778886650494973e+17
19614.0	5.777849733961044e+17
19615.0	5.776859269343914e+17
19616.0	5.775090337011028e+17
19617.0	5.774629414458708e+17
19618.0	5.773255062672724e+17
19619.0	5.772231416217599e+17
19620.0	5.77126999925282e+17
19621.0	5.770688959523497e+17
19622.0	5.770002080027987e+17
19623.0	5.768965005508607e+17
19624.0	5.767895196543657e+17
19625.0	5.766933190279167e+17
19626.0	5.765887766298623e+17
19627.0	5.764747643322367e+17
19628.0	5.762406536620717e+17
19629.0	5.761369212540243e+17
19630.0	5.7538894018641894e+17
19631.0	5.706311002663595e+17
19632.0	5.758589091534164e+17
19633.0	5.7583792637870074e+17
19634.0	5.757684098443947e+17
19635.0	5.7566555117977594e+17
19636.0	5.755386125964628e+17
19637.0	5.7540487917076474e+17
19638.0	5.753704269479935e+17
19639.0	5.7527107898572794e+17
19640.0	5.751619157928618e+17
19641.0	5.749719346533719e+17
19642.0	5.749641417064447e+17
19643.0	5.74860492415522e+17
19644.0	5.7475709771885216e+17
19645.0	5.746350241087487e+17
19646.0	5.7452223640808083e+17
19647.0	5.744573308119721e+17
19648.0	5.743560786356905e+17
19649.0	5.742531230127443e+17
19650.0	5.741516091118932e+17
19651.0	5.74048634544674e+17
19652.0	5.7394613162693965e+17
19653.0	5.7384266352994976e+17
19654.0	5.73749364732723e+17
19655.0	5.736466078498815e+17
19656.0	5.735446995446442e+17
19657.0	5.7344291937539405e+17
19658.0	5.73339710136866e+17
19659.0	5.732377602381141e+17
19660.0	5.7313537643861325e+17
19661.0	5.7303276293106336e+17
19662.0	5.729298832250196e+17
19663.0	5.728185052299263e+17
19664.0	5.7270289315485005e+17
