# Flux units: erg / (cm m2 s)
# Wavelength units: Angstrom
wave	flux
19000.0	5.203911816249343e+17
19001.0	5.2028305931851085e+17
19002.0	5.2020587363915085e+17
19003.0	5.2011178743125325e+17
19004.0	5.200183533677226e+17
19005.0	5.19921295425536e+17
19006.0	5.19829873369634e+17
19007.0	5.1973959139546445e+17
19008.0	5.196423484844713e+17
19009.0	5.195281933008894e+17
19010.0	5.194239169615188e+17
19011.0	5.1935927364922016e+17
19012.0	5.1923403208130554e+17
19013.0	5.191848293302272e+17
19014.0	5.190870042498387e+17
19015.0	5.1899394264050336e+17
19016.0	5.1890395035293005e+17
19017.0	5.1881511555345056e+17
19018.0	5.187214933753856e+17
19019.0	5.1863027425389216e+17
19020.0	5.1853705060461216e+17
19021.0	5.18446343328017e+17
19022.0	5.183535081411925e+17
19023.0	5.18251813535744e+17
19024.0	5.1815363207932576e+17
19025.0	5.1807027986431994e+17
19026.0	5.1797196936314874e+17
19027.0	5.178661078564864e+17
19028.0	5.17793522909184e+17
19029.0	5.177010908648788e+17
19030.0	5.1761161978948256e+17
19031.0	5.1751913664457376e+17
19032.0	5.1742379689902074e+17
19033.0	5.1731417617749325e+17
19034.0	5.1721202397347834e+17
19035.0	5.169735267603796e+17
19036.0	5.1528700208523936e+17
19037.0	5.1682751604763296e+17
19038.0	5.1684449200373754e+17
19039.0	5.167720902776147e+17
19040.0	5.1668461876674554e+17
19041.0	5.1659491448804685e+17
19042.0	5.161109053680293e+17
19043.0	5.1641634542059514e+17
19044.0	5.163235823058942e+17
19045.0	5.162280345927678e+17
19046.0	5.1613403143208954e+17
19047.0	5.1604011649160525e+17
19048.0	5.158829550119593e+17
19049.0	5.1504507232365126e+17
19050.0	5.1573660581887994e+17
19051.0	5.1543310716982605e+17
19052.0	5.154509698017961e+17
19053.0	5.1547964569900365e+17
19054.0	5.154002503204862e+17
19055.0	5.151694070830421e+17
19056.0	5.151842400993278e+17
19057.0	5.151311788681898e+17
19058.0	5.1462897793324294e+17
19059.0	5.1479022487470054e+17
19060.0	5.148563884124842e+17
19061.0	5.147639232331775e+17
19062.0	5.146725096357887e+17
19063.0	5.1458175664127994e+17
19064.0	5.1448166803483296e+17
19065.0	5.143815842518357e+17
19066.0	5.14152704507904e+17
19067.0	5.142128275488768e+17
19068.0	5.141258713082538e+17
19069.0	5.14034186199586e+17
19070.0	5.1393834229869216e+17
19071.0	5.138478194316628e+17
19072.0	5.1360525619036134e+17
19073.0	5.136681997609642e+17
19074.0	5.1357562462098765e+17
19075.0	5.134855518027775e+17
19076.0	5.133925795321173e+17
19077.0	5.1330016664180045e+17
19078.0	5.132058331796821e+17
19079.0	5.131187910257322e+17
19080.0	5.1302703580228256e+17
19081.0	5.129299854797483e+17
19082.0	5.128432300064767e+17
19083.0	5.127429973256874e+17
19084.0	5.1263799362409805e+17
19085.0	5.1256595288773965e+17
19086.0	5.122214765876563e+17
19087.0	5.1202522090919194e+17
19088.0	5.1206697045196755e+17
19089.0	5.1217164790661114e+17
19090.0	5.121038645985279e+17
19091.0	5.1199143809733984e+17
19092.0	5.1160382128346534e+17
19093.0	5.1183968482317645e+17
19094.0	5.117507815866367e+17
19095.0	5.1165997203892896e+17
19096.0	5.115687766152532e+17
19097.0	5.1147870994868896e+17
19098.0	5.1122095284114746e+17
19099.0	5.110949302239233e+17
19100.0	5.1120001620377594e+17
19101.0	5.111103523302058e+17
19102.0	5.1101263644153165e+17
19103.0	5.1093116704959136e+17
19104.0	5.108421698606419e+17
19105.0	5.103836901408778e+17
19106.0	5.1065191042908154e+17
19107.0	5.104730121786707e+17
19108.0	5.10323508449553e+17
19109.0	5.1033256437131936e+17
19110.0	5.102685276252841e+17
19111.0	5.100940095564457e+17
19112.0	5.09986603357525e+17
19113.0	5.1002314091834016e+17
19114.0	5.098593161576446e+17
19115.0	5.0982095589212154e+17
19116.0	5.09746462466594e+17
19117.0	5.096519548709546e+17
19118.0	5.095157340132693e+17
19119.0	5.083936543735795e+17
19120.0	5.09348530950417e+17
19121.0	5.092795222065151e+17
19122.0	5.092068825235455e+17
19123.0	5.091185186045951e+17
19124.0	5.090146798010366e+17
19125.0	5.0893398481742496e+17
19126.0	5.088273977660755e+17
19127.0	5.086103170187262e+17
19128.0	5.0864018228073805e+17
19129.0	5.085638781741738e+17
19130.0	5.0848476681994234e+17
19131.0	5.0839666623337805e+17
19132.0	5.0830571331037856e+17
19133.0	5.082116402446334e+17
19134.0	5.0812502010757114e+17
19135.0	5.080350881480704e+17
19136.0	5.0794436248644256e+17
19137.0	5.0784295882588154e+17
19138.0	5.0776211941840205e+17
19139.0	5.0767564398482765e+17
19140.0	5.0758574942453754e+17
19141.0	5.0749524396386976e+17
19142.0	5.0740184030904314e+17
19143.0	5.0731102258244256e+17
19144.0	5.0721954215581005e+17
19145.0	5.0713414137282554e+17
19146.0	5.0697091458007046e+17
19147.0	5.0694816152944634e+17
19148.0	5.067319028656812e+17
19149.0	5.0661758431395834e+17
19150.0	5.0668476357236045e+17
19151.0	5.06594036163106e+17
19152.0	5.065014264201215e+17
19153.0	5.061302549129893e+17
19154.0	5.06291172601583e+17
19155.0	5.0622925139258016e+17
19156.0	5.06138207453184e+17
19157.0	5.0595089885429786e+17
19158.0	5.0573719906549786e+17
19159.0	5.05856786641715e+17
19160.0	5.0577126729973754e+17
19161.0	5.0566906112901114e+17
19162.0	5.0551612694855674e+17
19163.0	5.0547019582450336e+17
19164.0	5.0541114009408845e+17
19165.0	5.0502490621214656e+17
19166.0	5.0522647907969696e+17
19167.0	5.051445404849492e+17
19168.0	5.0506074297466874e+17
19169.0	5.049735406682111e+17
19170.0	5.0488476277145594e+17
19171.0	5.047928284512255e+17
19172.0	5.047046779524436e+17
19173.0	5.046174873201321e+17
19174.0	5.0452491225006086e+17
19175.0	5.044391715886422e+17
19176.0	5.043498902355966e+17
19177.0	5.0424146209450656e+17
19178.0	5.0416358736090445e+17
19179.0	5.0407526063144954e+17
19180.0	5.039885602433706e+17
19181.0	5.038888597498538e+17
19182.0	5.0380549397326496e+17
19183.0	5.037234391263914e+17
19184.0	5.036350744384853e+17
19185.0	5.035430235166036e+17
19186.0	5.03455595766306e+17
19187.0	5.033587327194453e+17
19188.0	5.032754043420671e+17
19189.0	5.031845174094506e+17
19190.0	5.0309437978924365e+17
19191.0	5.02999754543377e+17
19192.0	5.0291048626257914e+17
19193.0	5.027804764700672e+17
19194.0	5.0266203142225914e+17
19195.0	5.026199533256702e+17
19196.0	5.0250667915564365e+17
19197.0	5.023672892216661e+17
19198.0	5.0212470829438285e+17
19199.0	5.014913535006035e+17
19200.0	5.014665744613375e+17
19201.0	5.0187523395857056e+17
19202.0	5.0192901094768634e+17
19203.0	5.018830369019219e+17
19204.0	5.018187587037866e+17
19205.0	5.017417294020607e+17
19206.0	5.0165903967737165e+17
19207.0	5.015563653524138e+17
19208.0	5.0146992389270176e+17
19209.0	5.0140070976771405e+17
19210.0	5.013124748935168e+17
19211.0	5.0122768340309325e+17
19212.0	5.011376292495359e+17
19213.0	5.0103446810569363e+17
19214.0	5.0094554907060896e+17
19215.0	5.008687097708543e+17
19216.0	5.007832763422036e+17
19217.0	5.006872847319039e+17
19218.0	5.005502928213332e+17
19219.0	5.004909452372649e+17
19220.0	5.004244662878208e+17
19221.0	5.0032296168434336e+17
19222.0	5.0024680892224845e+17
19223.0	5.001635890375338e+17
19224.0	5.0007126737332896e+17
19225.0	4.9998126956325536e+17
19226.0	4.9989963163019936e+17
19227.0	4.99812475670801e+17
19228.0	4.9972713647418016e+17
19229.0	4.9963673594101754e+17
19230.0	4.995492414313813e+17
19231.0	4.9946063354374816e+17
19232.0	4.9937261977927674e+17
19233.0	4.992778492007764e+17
19234.0	4.9919444371810976e+17
19235.0	4.9910412434472954e+17
19236.0	4.9902001331022496e+17
19237.0	4.989289839809876e+17
19238.0	4.988327879682729e+17
19239.0	4.987552194188628e+17
19240.0	4.986658753609727e+17
19241.0	4.9857687188056736e+17
19242.0	4.9848775179851085e+17
19243.0	4.983852361580542e+17
19244.0	4.983143890507093e+17
19245.0	4.9822545603461114e+17
19246.0	4.981373415369387e+17
19247.0	4.980488354310826e+17
19248.0	4.979611330936832e+17
19249.0	4.978635500246357e+17
19250.0	4.97724721987584e+17
19251.0	4.9763019516805094e+17
19252.0	4.975761312186366e+17
19253.0	4.9751800445665274e+17
19254.0	4.974333317349375e+17
19255.0	4.973231666626559e+17
19256.0	4.97255138267409e+17
19257.0	4.971684241080319e+17
19258.0	4.970799363872085e+17
19259.0	4.9698054822952954e+17
19260.0	4.968432813823315e+17
19261.0	4.968119005784745e+17
19262.0	4.9671599264453965e+17
19263.0	4.966198029931861e+17
19264.0	4.9650242078201165e+17
19265.0	4.964380017950719e+17
19266.0	4.963407263083178e+17
19267.0	4.962878544500051e+17
19268.0	4.9620018748456954e+17
19269.0	4.96112937013521e+17
19270.0	4.9601964779328845e+17
19271.0	4.9590908761757005e+17
19272.0	4.958449624416255e+17
19273.0	4.957400113785515e+17
19274.0	4.9562907811949203e+17
19275.0	4.955878521656661e+17
19276.0	4.9549760025067514e+17
19277.0	4.954109725638655e+17
19278.0	4.9531578605021856e+17
19279.0	4.9523126208648525e+17
19280.0	4.951412189779285e+17
19281.0	4.950560211293524e+17
19282.0	4.9496956834501965e+17
19283.0	4.948783222401706e+17
19284.0	4.947840354746368e+17
19285.0	4.946925842683221e+17
19286.0	4.945992028433066e+17
19287.0	4.944829828737707e+17
19288.0	4.937235066170022e+17
19289.0	4.932070447688354e+17
19290.0	4.9421143391600634e+17
19291.0	4.941388170220886e+17
19292.0	4.9408996708188154e+17
19293.0	4.940063732749653e+17
19294.0	4.9391779369888416e+17
19295.0	4.9383504294707194e+17
19296.0	4.935684245334703e+17
19297.0	4.9362924096279904e+17
19298.0	4.935707619491838e+17
19299.0	4.9328458102210586e+17
19300.0	4.9339619627499514e+17
19301.0	4.9331176619376634e+17
19302.0	4.932226816933887e+17
19303.0	4.9312788832583674e+17
19304.0	4.930471373482666e+17
19305.0	4.9295861264766285e+17
19306.0	4.9287068458680314e+17
19307.0	4.927746446021972e+17
19308.0	4.9268488845393914e+17
19309.0	4.925743472224938e+17
19310.0	4.9247656632210765e+17
19311.0	4.924027130172756e+17
19312.0	4.9230884617147725e+17
19313.0	4.921493010688681e+17
19314.0	4.862993408633502e+17
19315.0	4.866671150541546e+17
19316.0	4.916570460869977e+17
19317.0	4.9187523489955834e+17
19318.0	4.9180952301841056e+17
19319.0	4.917314015898281e+17
19320.0	4.9157800582621843e+17
19321.0	4.91400621789457e+17
19322.0	4.914691093910868e+17
19323.0	4.913812398407679e+17
19324.0	4.912941787425449e+17
19325.0	4.912032769900543e+17
19326.0	4.911246047095466e+17
19327.0	4.9104107395700045e+17
19328.0	4.90629226019772e+17
19329.0	4.9087229851948365e+17
19330.0	4.907842600785237e+17
19331.0	4.906940350769833e+17
19332.0	4.906126650201428e+17
19333.0	4.9052408516444154e+17
19334.0	4.904317106520064e+17
19335.0	4.8968415327901094e+17
19336.0	4.9025964590148256e+17
19337.0	4.9017793981098656e+17
19338.0	4.90067519934737e+17
19339.0	4.9000145587186336e+17
19340.0	4.8988937568037536e+17
19341.0	4.8956919859118125e+17
19342.0	4.8964335423542624e+17
19343.0	4.8964776300817056e+17
19344.0	4.893082982722223e+17
19345.0	4.892003305958061e+17
19346.0	4.8926310988950176e+17
19347.0	4.889827150047914e+17
19348.0	4.8921673137302176e+17
19349.0	4.891284305783466e+17
19350.0	4.889251102938453e+17
19351.0	4.889521688674303e+17
19352.0	4.88534611363976e+17
19353.0	4.887858091393022e+17
19354.0	4.88700428488977e+17
19355.0	4.886021576239787e+17
19356.0	4.8852569679025485e+17
19357.0	4.8843913963765754e+17
19358.0	4.883506311550291e+17
19359.0	4.881897075944103e+17
19360.0	4.879121597333502e+17
19361.0	4.880861502985556e+17
19362.0	4.880017474103979e+17
19363.0	4.879148459753471e+17
19364.0	4.878276625432574e+17
19365.0	4.8773881145589754e+17
19366.0	4.8765145836421126e+17
19367.0	4.8756424466322765e+17
19368.0	4.874772249488043e+17
19369.0	4.87384386057011e+17
19370.0	4.8729869209217696e+17
19371.0	4.872077859356671e+17
19372.0	4.8712480512628045e+17
19373.0	4.8703509371726496e+17
19374.0	4.869489718635178e+17
19375.0	4.868618639289002e+17
19376.0	4.867742874905257e+17
19377.0	4.866850712190975e+17
19378.0	4.8659681565300045e+17
19379.0	4.8650857651459405e+17
19380.0	4.8641739150677325e+17
19381.0	4.8632888686892365e+17
19382.0	4.8623196097740794e+17
19383.0	4.8614412071731194e+17
19384.0	4.860566352953342e+17
19385.0	4.859706139650729e+17
19386.0	4.8588051458293754e+17
19387.0	4.8578800116913485e+17
19388.0	4.8569223017922554e+17
19389.0	4.855894522549589e+17
19390.0	4.854320112249513e+17
19391.0	4.838613713245513e+17
19392.0	4.850315174783657e+17
19393.0	4.852087282204672e+17
19394.0	4.8513984167062176e+17
19395.0	4.849577562385069e+17
19396.0	4.849422557686442e+17
19397.0	4.8487325485410976e+17
19398.0	4.846894099114666e+17
19399.0	4.845160884775594e+17
19400.0	4.844972383666176e+17
19401.0	4.844944159495508e+17
19402.0	4.844013730048683e+17
19403.0	4.843041028308991e+17
19404.0	4.8420779336226125e+17
19405.0	4.8410682465102496e+17
19406.0	4.8400704446573216e+17
19407.0	4.837879595401214e+17
19408.0	4.837397316851029e+17
19409.0	4.8368590044965536e+17
19410.0	4.8359810737547936e+17
19411.0	4.8349392359041696e+17
19412.0	4.8338516738484896e+17
19413.0	4.8315765764041376e+17
19414.0	4.831620696287913e+17
19415.0	4.830464818806783e+17
19416.0	4.829063643048619e+17
19417.0	4.8279968434967885e+17
19418.0	4.8268557544325114e+17
19419.0	4.825603895896746e+17
19420.0	4.8243050632533325e+17
19421.0	4.822914910126078e+17
19422.0	4.821445812507987e+17
19423.0	4.820010244156074e+17
19424.0	4.818419283132415e+17
19425.0	4.816756534498645e+17
19426.0	4.814975370177193e+17
19427.0	4.813043101160789e+17
19428.0	4.8109747724178765e+17
19429.0	4.808608576787796e+17
19430.0	4.805105803766443e+17
19431.0	4.8013107317964806e+17
19432.0	4.8006199711716685e+17
19433.0	4.7977405584069965e+17
19434.0	4.794209200504832e+17
19435.0	4.789533514836651e+17
19436.0	4.7845061213989536e+17
19437.0	4.7794324577976314e+17
19438.0	4.7436612767143296e+17
19439.0	4.761577651000659e+17
19440.0	4.76059712758306e+17
19441.0	4.752052181095763e+17
19442.0	4.7413552553656326e+17
19443.0	4.7279533782466554e+17
19444.0	4.711233469022206e+17
19445.0	4.6906386059100154e+17
19446.0	4.663357551760725e+17
19447.0	4.6273755796384403e+17
19448.0	4.575942903070723e+17
19449.0	4.4947567280128e+17
19450.0	4.320156429844473e+17
19451.0	4.1702556217726394e+17
19452.0	4.428509715191121e+17
19453.0	4.538759321572697e+17
19454.0	4.599811517622951e+17
19455.0	4.6401938619979085e+17
19456.0	4.669333112356864e+17
19457.0	4.688885605640874e+17
19458.0	4.52931880310124e+17
19459.0	4.702644402651173e+17
19460.0	4.7306660408634016e+17
19461.0	4.739902455414783e+17
19462.0	4.746949726393685e+17
19463.0	4.7526003927067296e+17
19464.0	4.756975829123071e+17
19465.0	4.7605622792082765e+17
19466.0	4.7633193154641914e+17
19467.0	4.765714363711487e+17
19468.0	4.7675871204474874e+17
19469.0	4.766715834182309e+17
19470.0	4.7704170725812896e+17
19471.0	4.771435946617513e+17
19472.0	4.7721873505867085e+17
19473.0	4.772700139902291e+17
19474.0	4.7707144431424806e+17
19475.0	4.772544257895082e+17
19476.0	4.773409537916927e+17
19477.0	4.7735422974252365e+17
19478.0	4.77352505254434e+17
19479.0	4.7710590744220966e+17
19480.0	4.77307691213346e+17
19481.0	4.772737318212948e+17
19482.0	4.772456503967743e+17
19483.0	4.772077631089323e+17
19484.0	4.7716165281819283e+17
19485.0	4.771097476770474e+17
19486.0	4.768178861943473e+17
19487.0	4.7700879287691936e+17
19488.0	4.7695043493887994e+17
19489.0	4.7684736047732045e+17
19490.0	4.7671246536922445e+17
19491.0	4.767573623177215e+17
19492.0	4.767044151716523e+17
19493.0	4.766385635502762e+17
19494.0	4.765677601335977e+17
19495.0	4.764900044483242e+17
19496.0	4.763636125226324e+17
19497.0	4.762837297659903e+17
19498.0	4.755633616890536e+17
19499.0	4.7376540092770963e+17
19500.0	4.760141805824682e+17
19501.0	4.760417570826921e+17
19502.0	4.759893949022208e+17
19503.0	4.759233536983039e+17
19504.0	4.758508379570175e+17
19505.0	4.7577023629666976e+17
19506.0	4.7569957464746656e+17
19507.0	4.7561570639325856e+17
19508.0	4.7552964228109645e+17
19509.0	4.7541841919563085e+17
19510.0	4.751101158315348e+17
19511.0	4.664859850790173e+17
19512.0	4.7432789071844666e+17
19513.0	4.7427467926131994e+17
19514.0	4.7436324478648275e+17
19515.0	4.749110798188543e+17
19516.0	4.7486771050577914e+17
19517.0	4.7482909767325005e+17
19518.0	4.746959225793193e+17
19519.0	4.746158679261182e+17
19520.0	4.743737497004711e+17
19521.0	4.7453616706245965e+17
19522.0	4.7441811970457574e+17
19523.0	4.743175166667436e+17
19524.0	4.74116031879578e+17
19525.0	4.7421187941553485e+17
19526.0	4.74137980043264e+17
19527.0	4.740562894716927e+17
19528.0	4.739584078381055e+17
19529.0	4.738677975897429e+17
19530.0	4.73816397512704e+17
19531.0	4.737355320306346e+17
19532.0	4.7365452701805216e+17
19533.0	4.735726676257451e+17
19534.0	4.7349248343845536e+17
19535.0	4.7340939749184845e+17
19536.0	4.733250071166976e+17
19537.0	4.7324319560936096e+17
19538.0	4.7292123139713734e+17
19539.0	4.7304167789690874e+17
19540.0	4.7299777709561165e+17
19541.0	4.7286984320395936e+17
19542.0	4.728180041930068e+17
19543.0	4.7251973912657926e+17
19544.0	4.7265721289277434e+17
19545.0	4.72529946804224e+17
19546.0	4.724365532856319e+17
19547.0	4.7242796593752736e+17
19548.0	4.7235203162876576e+17
19549.0	4.722598739618474e+17
19550.0	4.721898080436224e+17
19551.0	4.7210938743739725e+17
19552.0	4.7202685751569056e+17
19553.0	4.719440444085589e+17
19554.0	4.7185998021044896e+17
19555.0	4.7175416686837766e+17
19556.0	4.7168131544296096e+17
19557.0	4.7161687995842554e+17
19558.0	4.715377407120724e+17
19559.0	4.7145684538053965e+17
19560.0	4.712883434116435e+17
19561.0	4.7129056723162445e+17
19562.0	4.7112765633986554e+17
19563.0	4.711309831918932e+17
19564.0	4.7104710501116576e+17
19565.0	4.7096652816711674e+17
19566.0	4.7088224991969274e+17
19567.0	4.7080355785605114e+17
19568.0	4.7071994538448205e+17
19569.0	4.706383144419327e+17
19570.0	4.7055651488836256e+17
19571.0	4.7047545891498656e+17
19572.0	4.703912155501909e+17
19573.0	4.702837770551295e+17
19574.0	4.702113972092927e+17
19575.0	4.7015050563201696e+17
19576.0	4.700536921478485e+17
19577.0	4.6994250792959994e+17
19578.0	4.699017997626025e+17
19579.0	4.698205152695636e+17
19580.0	4.697386161012734e+17
19581.0	4.696580961599487e+17
19582.0	4.6957865646161914e+17
19583.0	4.694974303393108e+17
19584.0	4.694137345409024e+17
19585.0	4.69319806947601e+17
19586.0	4.692339178078208e+17
19587.0	4.691622156916053e+17
19588.0	4.6904848748817056e+17
19589.0	4.689985142434475e+17
19590.0	4.6890915487634765e+17
19591.0	4.6884228389928954e+17
19592.0	4.687624593036628e+17
19593.0	4.6865741379884365e+17
19594.0	4.6855015894439226e+17
19595.0	4.6851568686858234e+17
19596.0	4.684294786820777e+17
19597.0	4.6835207580767565e+17
19598.0	4.6821176277729274e+17
19599.0	4.681882106418517e+17
19600.0	4.6810859681000096e+17
19601.0	4.680209952757076e+17
19602.0	4.6793180612744525e+17
19603.0	4.67825255916066e+17
19604.0	4.677701297591636e+17
19605.0	4.676721685736107e+17
19606.0	4.676195950002175e+17
19607.0	4.6754066693707085e+17
19608.0	4.674569269586602e+17
19609.0	4.673736680669183e+17
19610.0	4.671846306458284e+17
19611.0	4.670482885028524e+17
19612.0	4.6713499273570976e+17
19613.0	4.6705103807883936e+17
19614.0	4.669673150873598e+17
19615.0	4.6688724869010765e+17
19616.0	4.666831428124674e+17
19617.0	4.665514336277846e+17
19618.0	4.665669126367914e+17
19619.0	4.6645216430871885e+17
19620.0	4.663624770868562e+17
19621.0	4.6615328198055226e+17
19622.0	4.6631811763841696e+17
19623.0	4.662254903492607e+17
19624.0	4.6611992279340365e+17
19625.0	4.660723767225002e+17
19626.0	4.6598568003938976e+17
19627.0	4.6589571158944416e+17
19628.0	4.6578667855981216e+17
19629.0	4.6509262058291174e+17
19630.0	4.653238281655636e+17
19631.0	4.649083012644864e+17
19632.0	4.653766188640938e+17
19633.0	4.6537734643602765e+17
19634.0	4.653295203953321e+17
19635.0	4.6522864703460666e+17
19636.0	4.6490986490101715e+17
19637.0	4.648055735320574e+17
19638.0	4.650037383877972e+17
19639.0	4.6493994295405216e+17
19640.0	4.64830633939217e+17
19641.0	4.646386608548524e+17
19642.0	4.646795305724585e+17
19643.0	4.646003874813268e+17
19644.0	4.6452924432602445e+17
19645.0	4.6443832418850125e+17
19646.0	4.640905264889851e+17
19647.0	4.6429401202906445e+17
19648.0	4.6421887372929696e+17
19649.0	4.641376980085417e+17
19650.0	4.640578016903168e+17
19651.0	4.6397693648786765e+17
19652.0	4.638962700954283e+17
19653.0	4.6381492765108896e+17
19654.0	4.6373504461482656e+17
