# Flux units: erg / (cm m2 s)
# Wavelength units: Angstrom
wave	flux
19000.0	6.882892977624403e+17
19001.0	6.880868757580456e+17
19002.0	6.880388242735103e+17
19003.0	6.879079382209875e+17
19004.0	6.877818661109759e+17
19005.0	6.876523580271274e+17
19006.0	6.875259979781459e+17
19007.0	6.873946362216447e+17
19008.0	6.872377915517609e+17
19009.0	6.870170802148692e+17
19010.0	6.867783175023273e+17
19011.0	6.868473005211647e+17
19012.0	6.866133404964178e+17
19013.0	6.866341800356521e+17
19014.0	6.864701468879529e+17
19015.0	6.86357619793374e+17
19016.0	6.862432706931369e+17
19017.0	6.861272837870932e+17
19018.0	6.860010369843197e+17
19019.0	6.858781393332906e+17
19020.0	6.857461540934995e+17
19021.0	6.856341834432511e+17
19022.0	6.855043974867626e+17
19023.0	6.853481033891837e+17
19024.0	6.852323256390995e+17
19025.0	6.85102520668433e+17
19026.0	6.849563047144105e+17
19027.0	6.847774214236841e+17
19028.0	6.847282522270376e+17
19029.0	6.845975357642067e+17
19030.0	6.844918249029631e+17
19031.0	6.843648219370836e+17
19032.0	6.842250271828649e+17
19033.0	6.84006504084275e+17
19034.0	6.838733404547753e+17
19035.0	6.832291262584146e+17
19036.0	6.769607123664893e+17
19037.0	6.831238287458301e+17
19038.0	6.833728298942461e+17
19039.0	6.833196844974079e+17
19040.0	6.832170018537471e+17
19041.0	6.830948511383551e+17
19042.0	6.828479710494717e+17
19043.0	6.828532019058004e+17
19044.0	6.827209300552361e+17
19045.0	6.825940113948671e+17
19046.0	6.824351652031145e+17
19047.0	6.823036205050537e+17
19048.0	6.821000315054761e+17
19049.0	6.818857938670931e+17
19050.0	6.81836467523857e+17
19051.0	6.808397684932604e+17
19052.0	6.811951597005481e+17
19053.0	6.815276795079337e+17
19054.0	6.814436531284649e+17
19055.0	6.811234944942086e+17
19056.0	6.811879146695338e+17
19057.0	6.810867592418644e+17
19058.0	6.808914043600893e+17
19059.0	6.808122819608575e+17
19060.0	6.807058590466045e+17
19061.0	6.805904874449577e+17
19062.0	6.804600465478995e+17
19063.0	6.803324779102207e+17
19064.0	6.801395837566976e+17
19065.0	6.79953774481681e+17
19066.0	6.798880336598355e+17
19067.0	6.79824988447266e+17
19068.0	6.797088263591252e+17
19069.0	6.795831643821395e+17
19070.0	6.794395629475156e+17
19071.0	6.79322439385088e+17
19072.0	6.791825634011817e+17
19073.0	6.790770085680468e+17
19074.0	6.789556481294336e+17
19075.0	6.788295294626474e+17
19076.0	6.78695244206353e+17
19077.0	6.785619218224468e+17
19078.0	6.784234947608573e+17
19079.0	6.783220825718783e+17
19080.0	6.781863381172223e+17
19081.0	6.780310347841535e+17
19082.0	6.779255603418452e+17
19083.0	6.777289465397247e+17
19084.0	6.775048837442218e+17
19085.0	6.775383506550781e+17
19086.0	6.770705207831208e+17
19087.0	6.771592096208212e+17
19088.0	6.770248718658216e+17
19089.0	6.768510097162241e+17
19090.0	6.76871855546914e+17
19091.0	6.767641476377257e+17
19092.0	6.765600761533782e+17
19093.0	6.765434512605183e+17
19094.0	6.764262524103337e+17
19095.0	6.763063785728681e+17
19096.0	6.761764992232106e+17
19097.0	6.760550905501012e+17
19098.0	6.759018022305791e+17
19099.0	6.757704119528106e+17
19100.0	6.756602709278719e+17
19101.0	6.755377712463871e+17
19102.0	6.753690343964671e+17
19103.0	6.752945535538516e+17
19104.0	6.751734666537642e+17
19105.0	6.749765303795712e+17
19106.0	6.748955763976873e+17
19107.0	6.747428893316436e+17
19108.0	6.745723271905279e+17
19109.0	6.742341307422035e+17
19110.0	6.742706617319423e+17
19111.0	6.742367013612201e+17
19112.0	6.741357963334996e+17
19113.0	6.740364403321513e+17
19114.0	6.738961210802173e+17
19115.0	6.737420110965418e+17
19116.0	6.736392186320211e+17
19117.0	6.735026859278336e+17
19118.0	6.732412729251158e+17
19119.0	6.703179060215773e+17
19120.0	6.730267996367529e+17
19121.0	6.729708719483562e+17
19122.0	6.729054561850708e+17
19123.0	6.727829488140287e+17
19124.0	6.72598474306355e+17
19125.0	6.725115686070953e+17
19126.0	6.722971594216787e+17
19127.0	6.713623421037226e+17
19128.0	6.719770099449855e+17
19129.0	6.71948387734869e+17
19130.0	6.718949130851668e+17
19131.0	6.717845631139839e+17
19132.0	6.716605738953384e+17
19133.0	6.714977404583933e+17
19134.0	6.713864410365951e+17
19135.0	6.712846643625983e+17
19136.0	6.711554390447444e+17
19137.0	6.709656363029844e+17
19138.0	6.708927214736724e+17
19139.0	6.70787602149103e+17
19140.0	6.706658666698067e+17
19141.0	6.70541054878242e+17
19142.0	6.703925098971135e+17
19143.0	6.702611570884607e+17
19144.0	6.701278816108543e+17
19145.0	6.700342455915859e+17
19146.0	6.694411369622193e+17
19147.0	6.697447877246975e+17
19148.0	6.696340141288106e+17
19149.0	6.695047386191188e+17
19150.0	6.694057680044032e+17
19151.0	6.692778060808191e+17
19152.0	6.691440743328425e+17
19153.0	6.689607178868052e+17
19154.0	6.688372295379625e+17
19155.0	6.68750916563763e+17
19156.0	6.686195454399827e+17
19157.0	6.684300390957055e+17
19158.0	6.682057475708244e+17
19159.0	6.681909000841897e+17
19160.0	6.68077962297344e+17
19161.0	6.678895366154921e+17
19162.0	6.673985244058964e+17
19163.0	6.675370619174911e+17
19164.0	6.675849250078719e+17
19165.0	6.674337320927231e+17
19166.0	6.673024082946729e+17
19167.0	6.672101752001876e+17
19168.0	6.671183160279037e+17
19169.0	6.670067713092265e+17
19170.0	6.668897874870272e+17
19171.0	6.667543413871955e+17
19172.0	6.666327439704063e+17
19173.0	6.665206148453715e+17
19174.0	6.663718772058793e+17
19175.0	6.662705778436778e+17
19176.0	6.66147413295104e+17
19177.0	6.659067532891476e+17
19178.0	6.658791945448106e+17
19179.0	6.657473606494889e+17
19180.0	6.656334955719338e+17
19181.0	6.65455561871633e+17
19182.0	6.653753123231059e+17
19183.0	6.652762779549695e+17
19184.0	6.651490061342036e+17
19185.0	6.650168452928852e+17
19186.0	6.648981276153172e+17
19187.0	6.64712184402193e+17
19188.0	6.646383134113791e+17
19189.0	6.645090845283667e+17
19190.0	6.64374248350242e+17
19191.0	6.642167838321321e+17
19192.0	6.641060419731455e+17
19193.0	6.639492744085503e+17
19194.0	6.637768500663636e+17
19195.0	6.636169000037033e+17
19196.0	6.633762516718931e+17
19197.0	6.630196829836628e+17
19198.0	6.622001438741842e+17
19199.0	6.593827045375996e+17
19200.0	6.596085622155948e+17
19201.0	6.61915224384034e+17
19202.0	6.624254691551913e+17
19203.0	6.625056368448851e+17
19204.0	6.624861870882815e+17
19205.0	6.62417557299746e+17
19206.0	6.62324753010961e+17
19207.0	6.621236285145087e+17
19208.0	6.620081252816211e+17
19209.0	6.619882844760745e+17
19210.0	6.618772167196671e+17
19211.0	6.617668357805396e+17
19212.0	6.616347384829268e+17
19213.0	6.614202572952915e+17
19214.0	6.612999224339114e+17
19215.0	6.612452595378857e+17
19216.0	6.61133042192657e+17
19217.0	6.609604453247657e+17
19218.0	6.60517186524501e+17
19219.0	6.605818390642684e+17
19220.0	6.606076931036502e+17
19221.0	6.603873854685184e+17
19222.0	6.603552930310826e+17
19223.0	6.602600670210729e+17
19224.0	6.60112599556642e+17
19225.0	6.599720088633343e+17
19226.0	6.598882372179284e+17
19227.0	6.597716437456212e+17
19228.0	6.59667647865378e+17
19229.0	6.595428760595114e+17
19230.0	6.594145997029375e+17
19231.0	6.592837469951315e+17
19232.0	6.591623751619923e+17
19233.0	6.589911901667327e+17
19234.0	6.589076879354537e+17
19235.0	6.587642721686868e+17
19236.0	6.586676154815828e+17
19237.0	6.585321916814676e+17
19238.0	6.583522715587923e+17
19239.0	6.582928042972499e+17
19240.0	6.581665408570708e+17
19241.0	6.58026914713873e+17
19242.0	6.579067932726612e+17
19243.0	6.576628234715133e+17
19244.0	6.576690939559935e+17
19245.0	6.575385311444991e+17
19246.0	6.574106327646208e+17
19247.0	6.572811249603923e+17
19248.0	6.571642199212031e+17
19249.0	6.570344192846506e+17
19250.0	6.568895933229737e+17
19251.0	6.567048201109498e+17
19252.0	6.56426720698914e+17
19253.0	6.565199567912959e+17
19254.0	6.564099554366803e+17
19255.0	6.561304020691622e+17
19256.0	6.561435848365398e+17
19257.0	6.560300596374185e+17
19258.0	6.559043892019197e+17
19259.0	6.557070392994472e+17
19260.0	6.554824898248701e+17
19261.0	6.55503683363362e+17
19262.0	6.553396020510719e+17
19263.0	6.551741536752979e+17
19264.0	6.548339395570344e+17
19265.0	6.54869445808401e+17
19266.0	6.547523238537898e+17
19267.0	6.547582499859113e+17
19268.0	6.546286208963926e+17
19269.0	6.54498821378321e+17
19270.0	6.543424836599807e+17
19271.0	6.540706444563798e+17
19272.0	6.540836234504873e+17
19273.0	6.537681718738943e+17
19274.0	6.535249179006286e+17
19275.0	6.537330758254591e+17
19276.0	6.535958334450346e+17
19277.0	6.534707630746281e+17
19278.0	6.533421821416787e+17
19279.0	6.531884689391615e+17
19280.0	6.530410992020138e+17
19281.0	6.529415295707817e+17
19282.0	6.528189638290089e+17
19283.0	6.52670100779827e+17
19284.0	6.525031883123369e+17
19285.0	6.523513336059219e+17
19286.0	6.522228339026601e+17
19287.0	6.520183884262057e+17
19288.0	6.493757575441051e+17
19289.0	6.475854660676234e+17
19290.0	6.51599621005858e+17
19291.0	6.514204200665094e+17
19292.0	6.515214215632212e+17
19293.0	6.514053792923647e+17
19294.0	6.512731321182889e+17
19295.0	6.511568232994132e+17
19296.0	6.509932978722134e+17
19297.0	6.508680372901204e+17
19298.0	6.507445477528916e+17
19299.0	6.506012218141353e+17
19300.0	6.505018672807935e+17
19301.0	6.503715760504831e+17
19302.0	6.502206540174675e+17
19303.0	6.500455132342953e+17
19304.0	6.499508240252927e+17
19305.0	6.498140176427689e+17
19306.0	6.496800881333588e+17
19307.0	6.495114571896147e+17
19308.0	6.493652822698665e+17
19309.0	6.491347538149373e+17
19310.0	6.489386910045523e+17
19311.0	6.489093421312681e+17
19312.0	6.488167098089471e+17
19313.0	6.486095085349546e+17
19314.0	6.40748935236813e+17
19315.0	6.411781724788132e+17
19316.0	6.481491687811754e+17
19317.0	6.481525056296276e+17
19318.0	6.480436383449087e+17
19319.0	6.479258396393471e+17
19320.0	6.477739712315391e+17
19321.0	6.476135024033791e+17
19322.0	6.474618515401385e+17
19323.0	6.473195676762112e+17
19324.0	6.471926550975827e+17
19325.0	6.470299330194089e+17
19326.0	6.46927167328529e+17
19327.0	6.468037950220969e+17
19328.0	6.466262130840916e+17
19329.0	6.465428451404457e+17
19330.0	6.463874995847167e+17
19331.0	6.462257294737407e+17
19332.0	6.461071106419369e+17
19333.0	6.459506157770068e+17
19334.0	6.458191783133183e+17
19335.0	6.455704832092844e+17
19336.0	6.455251063625043e+17
19337.0	6.453820520748372e+17
19338.0	6.450818469330941e+17
19339.0	6.450798901504681e+17
19340.0	6.448645703816531e+17
19341.0	6.446761614071123e+17
19342.0	6.444112428750163e+17
19343.0	6.4442434336413e+17
19344.0	6.441808707977215e+17
19345.0	6.430991919524516e+17
19346.0	6.43254559458372e+17
19347.0	6.437115134301523e+17
19348.0	6.436776591753215e+17
19349.0	6.435079744826025e+17
19350.0	6.433254887740755e+17
19351.0	6.43169645703987e+17
19352.0	6.429358988197884e+17
19353.0	6.428806656382291e+17
19354.0	6.427219998714538e+17
19355.0	6.424836357576024e+17
19356.0	6.423935917402794e+17
19357.0	6.422159635251199e+17
19358.0	6.420381993446058e+17
19359.0	6.418432348127231e+17
19360.0	6.416354105447766e+17
19361.0	6.415174814662655e+17
19362.0	6.413650086592511e+17
19363.0	6.411926712090623e+17
19364.0	6.410175177031679e+17
19365.0	6.408359571182931e+17
19366.0	6.406512315116202e+17
19367.0	6.404672647244457e+17
19368.0	6.402835469391188e+17
19369.0	6.400653194690559e+17
19370.0	6.398834443113812e+17
19371.0	6.396761979486205e+17
19372.0	6.395256854194857e+17
19373.0	6.393124906248872e+17
19374.0	6.391223575816873e+17
19375.0	6.389221504494249e+17
19376.0	6.387066762603178e+17
19377.0	6.384856896372735e+17
19378.0	6.382757828973908e+17
19379.0	6.380614318729897e+17
19380.0	6.378403865995946e+17
19381.0	6.376120172325545e+17
19382.0	6.373236080115711e+17
19383.0	6.371014137785001e+17
19384.0	6.368907622700372e+17
19385.0	6.366526300312916e+17
19386.0	6.364084387708927e+17
19387.0	6.361517558246058e+17
19388.0	6.358840227747158e+17
19389.0	6.355908077202089e+17
19390.0	6.351182834434045e+17
19391.0	6.29461920216947e+17
19392.0	6.338204666604198e+17
19393.0	6.344248627210922e+17
19394.0	6.342070599243091e+17
19395.0	6.33917059244578e+17
19396.0	6.336279987180884e+17
19397.0	6.332995745087487e+17
19398.0	6.329366751477759e+17
19399.0	6.323072552402941e+17
19400.0	6.32189005926673e+17
19401.0	6.319732410722985e+17
19402.0	6.315828962831018e+17
19403.0	6.311877253180073e+17
19404.0	6.308220702993065e+17
19405.0	6.304151217285801e+17
19406.0	6.300119220267689e+17
19407.0	6.295356964863999e+17
19408.0	6.287487170598231e+17
19409.0	6.285906054305108e+17
19410.0	6.28187126108433e+17
19411.0	6.277297678057471e+17
19412.0	6.272511590618454e+17
19413.0	6.266920793800701e+17
19414.0	6.261403279862441e+17
19415.0	6.255838284305748e+17
19416.0	6.248591887346344e+17
19417.0	6.243252025950208e+17
19418.0	6.237386223998292e+17
19419.0	6.230909665673215e+17
19420.0	6.223897993849514e+17
19421.0	6.216561589223424e+17
19422.0	6.208214662119423e+17
19423.0	6.199901853581311e+17
19424.0	6.191333232345087e+17
19425.0	6.182278784876541e+17
19426.0	6.172734434312191e+17
19427.0	6.162560364227242e+17
19428.0	6.151529776021503e+17
19429.0	6.139710572680531e+17
19430.0	6.123732762361857e+17
19431.0	6.105635842861741e+17
19432.0	6.099899744867667e+17
19433.0	6.085280933085183e+17
19434.0	6.068326478381055e+17
19435.0	6.047445872017405e+17
19436.0	6.026104857602729e+17
19437.0	6.006219346367828e+17
19438.0	5.901046998106127e+17
19439.0	5.945007873720315e+17
19440.0	5.933256736243712e+17
19441.0	5.903685924159485e+17
19442.0	5.869498952668503e+17
19443.0	5.830266178240511e+17
19444.0	5.785383424666278e+17
19445.0	5.733278292814508e+17
19446.0	5.671224693402281e+17
19447.0	5.5957570659723904e+17
19448.0	5.499959916888067e+17
19449.0	5.370156937117696e+17
19450.0	5.165056094371827e+17
19451.0	5.0201227375411264e+17
19452.0	5.283399981159766e+17
19453.0	5.438968638909103e+17
19454.0	5.5464744141018406e+17
19455.0	5.6284506541260794e+17
19456.0	5.6938618554067654e+17
19457.0	5.7466716037666106e+17
19458.0	5.631495142812546e+17
19459.0	5.818859781095462e+17
19460.0	5.86808523174707e+17
19461.0	5.899483345496744e+17
19462.0	5.92688922632738e+17
19463.0	5.951229066040659e+17
19464.0	5.972880906343763e+17
19465.0	5.992400001783124e+17
19466.0	6.009492783934121e+17
19467.0	6.025952691748863e+17
19468.0	6.041034141554006e+17
19469.0	6.053484250704552e+17
19470.0	6.066797945378132e+17
19471.0	6.078291958038528e+17
19472.0	6.088485435867133e+17
19473.0	6.097713733741225e+17
19474.0	6.105975787705684e+17
19475.0	6.110488605753341e+17
19476.0	6.121393360644776e+17
19477.0	6.129105979659604e+17
19478.0	6.135715914055679e+17
19479.0	6.141480590639103e+17
19480.0	6.147814316834815e+17
19481.0	6.153083130915498e+17
19482.0	6.158112957049514e+17
19483.0	6.162646385207978e+17
19484.0	6.166607365668863e+17
19485.0	6.170186547724287e+17
19486.0	6.173788479684608e+17
19487.0	6.177622000140287e+17
19488.0	6.180548939262634e+17
19489.0	6.181685025920339e+17
19490.0	6.18008542463044e+17
19491.0	6.1883291809437e+17
19492.0	6.191366765805567e+17
19493.0	6.193636583320233e+17
19494.0	6.195545548783615e+17
19495.0	6.1976754009757e+17
19496.0	6.196917565041321e+17
19497.0	6.198804518098259e+17
19498.0	6.17895346097356e+17
19499.0	6.118248716872355e+17
19500.0	6.201895633463978e+17
19501.0	6.206343875308202e+17
19502.0	6.208018611961855e+17
19503.0	6.209226593184425e+17
19504.0	6.210149336569171e+17
19505.0	6.211000564973565e+17
19506.0	6.212098705063935e+17
19507.0	6.212498009096192e+17
19508.0	6.212969308356608e+17
19509.0	6.212685182708393e+17
19510.0	6.20913879032354e+17
19511.0	6.078093829603256e+17
19512.0	6.189153929308837e+17
19513.0	6.184582539203904e+17
19514.0	6.190762267333957e+17
19515.0	6.211751123091457e+17
19516.0	6.214912307800745e+17
19517.0	6.215361210875903e+17
19518.0	6.215962207103657e+17
19519.0	6.216043577300308e+17
19520.0	6.215661837615103e+17
19521.0	6.216192207355904e+17
19522.0	6.215747772612607e+17
19523.0	6.215829792926377e+17
19524.0	6.215421697632938e+17
19525.0	6.215431761865386e+17
19526.0	6.215351445138089e+17
19527.0	6.215020492881919e+17
19528.0	6.214663619827027e+17
19529.0	6.214280372988585e+17
19530.0	6.214008456260266e+17
19531.0	6.213636918520489e+17
19532.0	6.21317800993314e+17
19533.0	6.212727325676884e+17
19534.0	6.212229803627859e+17
19535.0	6.211526615979348e+17
19536.0	6.210855746142205e+17
19537.0	6.210517581081257e+17
19538.0	6.208302940334764e+17
19539.0	6.206834030761303e+17
19540.0	6.208484647370751e+17
19541.0	6.208082538048169e+17
19542.0	6.207467050500096e+17
19543.0	6.20638332133922e+17
19544.0	6.205883356807167e+17
19545.0	6.201925079575209e+17
19546.0	6.2002864600733e+17
19547.0	6.204015465463808e+17
19548.0	6.20358682227507e+17
19549.0	6.202144726188031e+17
19550.0	6.20223802778146e+17
19551.0	6.201512169220778e+17
19552.0	6.200829486825471e+17
19553.0	6.20010984771857e+17
19554.0	6.199271757272403e+17
19555.0	6.19854004486144e+17
19556.0	6.19786692268305e+17
19557.0	6.197097914520916e+17
19558.0	6.196268812468223e+17
19559.0	6.195457024502442e+17
19560.0	6.194280621495635e+17
19561.0	6.19369735389184e+17
19562.0	6.192898600424788e+17
19563.0	6.192256039343443e+17
19564.0	6.191376323925332e+17
19565.0	6.190498665114282e+17
19566.0	6.189456265226921e+17
19567.0	6.188723553872553e+17
19568.0	6.187631755569834e+17
19569.0	6.186794260015786e+17
19570.0	6.186024414390954e+17
19571.0	6.185186464453972e+17
19572.0	6.184035363586048e+17
19573.0	6.183283638053546e+17
19574.0	6.181710604184232e+17
19575.0	6.181525331290793e+17
19576.0	6.180551126592169e+17
19577.0	6.179406589110954e+17
19578.0	6.178508229312511e+17
19579.0	6.177539178714451e+17
19580.0	6.176606460575743e+17
19581.0	6.175817295287636e+17
19582.0	6.174935993723561e+17
19583.0	6.173963350005076e+17
19584.0	6.172964099020116e+17
19585.0	6.171172478997843e+17
19586.0	6.169949858256215e+17
19587.0	6.169705754656768e+17
19588.0	6.166690283563692e+17
19589.0	6.167647454494719e+17
19590.0	6.166437086014121e+17
19591.0	6.166104178513236e+17
19592.0	6.165193539889834e+17
19593.0	6.164122799789395e+17
19594.0	6.161381894127611e+17
19595.0	6.16212443832866e+17
19596.0	6.160242700888746e+17
19597.0	6.160140801671168e+17
19598.0	6.156839190964905e+17
19599.0	6.158111610677929e+17
19600.0	6.157204756015785e+17
19601.0	6.155723246753108e+17
19602.0	6.154322851135487e+17
19603.0	6.151768615070376e+17
19604.0	6.152325462753279e+17
19605.0	6.150121804791812e+17
19606.0	6.151044314693631e+17
19607.0	6.150094011236351e+17
19608.0	6.149018951002793e+17
19609.0	6.147757617534292e+17
19610.0	6.146846530120361e+17
19611.0	6.145682124920148e+17
19612.0	6.145012916027391e+17
19613.0	6.143880618224298e+17
19614.0	6.142583821216425e+17
19615.0	6.141721510062761e+17
19616.0	6.14001225498624e+17
19617.0	6.139067516671316e+17
19618.0	6.134638584703656e+17
19619.0	6.132555890469544e+17
19620.0	6.132712482013181e+17
19621.0	6.13462460998178e+17
19622.0	6.13431762747392e+17
19623.0	6.133288217346047e+17
19624.0	6.132072768864255e+17
19625.0	6.131081634556585e+17
19626.0	6.129742770077695e+17
19627.0	6.128249871881555e+17
19628.0	6.125828690324138e+17
19629.0	6.121660244907346e+17
19630.0	6.108563502006268e+17
19631.0	6.08841919871932e+17
19632.0	6.117466245693439e+17
19633.0	6.120433326402218e+17
19634.0	6.120896964766377e+17
19635.0	6.119936883687423e+17
19636.0	6.118925955061075e+17
19637.0	6.115201539637252e+17
19638.0	6.11737450647825e+17
19639.0	6.11634971288098e+17
19640.0	6.114130352144384e+17
19641.0	6.109179189482845e+17
19642.0	6.113126827862697e+17
19643.0	6.112055146840063e+17
19644.0	6.110528038502399e+17
19645.0	6.108801138687999e+17
19646.0	6.108552916282025e+17
19647.0	6.108064146347348e+17
19648.0	6.106990172438527e+17
19649.0	6.105926544479572e+17
19650.0	6.10490167468578e+17
19651.0	6.103790337217876e+17
19652.0	6.102703195291647e+17
19653.0	6.101674747057492e+17
19654.0	6.100554433079978e+17
19655.0	6.099433921271124e+17
19656.0	6.098451820096169e+17
19657.0	6.097349266898944e+17
19658.0	6.096320465644201e+17
19659.0	6.095242480582655e+17
19660.0	6.094205786346838e+17
19661.0	6.09308956041762e+17
19662.0	6.092009608227497e+17
19663.0	6.090675693027327e+17
19664.0	6.08967613026577e+17
19665.0	6.088794480574463e+17
