# Flux units: erg / (cm m2 s)
# Wavelength units: Angstrom
wave	flux
19000.0	5.915013136340308e+17
19001.0	5.913817137545215e+17
19002.0	5.912808836650324e+17
19003.0	5.911704322615978e+17
19004.0	5.910633343440212e+17
19005.0	5.909531617219924e+17
19006.0	5.908437254100308e+17
19007.0	5.90732666741282e+17
19008.0	5.906173928669183e+17
19009.0	5.905041945438889e+17
19010.0	5.903568893291177e+17
19011.0	5.902890138861567e+17
19012.0	5.901712157398356e+17
19013.0	5.90070909379106e+17
19014.0	5.899557018446506e+17
19015.0	5.898470202277887e+17
19016.0	5.897352720154623e+17
19017.0	5.896871437751635e+17
19018.0	5.896881866189482e+17
19019.0	5.895782708980394e+17
19020.0	5.894664403375444e+17
19021.0	5.893580967116799e+17
19022.0	5.892483368091648e+17
19023.0	5.891343756121428e+17
19024.0	5.890260435905194e+17
19025.0	5.889175619021481e+17
19026.0	5.888049523894954e+17
19027.0	5.886936462568105e+17
19028.0	5.885871028961279e+17
19029.0	5.884759202856959e+17
19030.0	5.883679878414335e+17
19031.0	5.882579070746623e+17
19032.0	5.881473661927423e+17
19033.0	5.880291723837439e+17
19034.0	5.879264289226751e+17
19035.0	5.87814130557474e+17
19036.0	5.873737449253545e+17
19037.0	5.875964406573737e+17
19038.0	5.874853245266602e+17
19039.0	5.873776055724712e+17
19040.0	5.872676377023827e+17
19041.0	5.871568255888041e+17
19042.0	5.870384968630271e+17
19043.0	5.869378089604435e+17
19044.0	5.868267604978346e+17
19045.0	5.86717974233088e+17
19046.0	5.866030924562432e+17
19047.0	5.864964802390697e+17
19048.0	5.863673613866324e+17
19049.0	5.862710212995753e+17
19050.0	5.861646380214954e+17
19051.0	5.860065784015528e+17
19052.0	5.859400962364756e+17
19053.0	5.858392637702143e+17
19054.0	5.85729418793233e+17
19055.0	5.855956378320896e+17
19056.0	5.855072219037695e+17
19057.0	5.853994868015103e+17
19058.0	5.852890026125993e+17
19059.0	5.851807831381332e+17
19060.0	5.850689607565311e+17
19061.0	5.84961576018466e+17
19062.0	5.848514429627049e+17
19063.0	5.847420086779903e+17
19064.0	5.846207293991594e+17
19065.0	5.84506813850146e+17
19066.0	5.842467454713855e+17
19067.0	5.841376658849791e+17
19068.0	5.840288483726675e+17
19069.0	5.839195327867561e+17
19070.0	5.838077796810751e+17
19071.0	5.837007177646079e+17
19072.0	5.835913015853055e+17
19073.0	5.834813999153151e+17
19074.0	5.833725400405332e+17
19075.0	5.832631789464234e+17
19076.0	5.831518498149716e+17
19077.0	5.83043046842914e+17
19078.0	5.829318363403606e+17
19079.0	5.828256976601087e+17
19080.0	5.827150657617919e+17
19081.0	5.826034479923199e+17
19082.0	5.824938869697193e+17
19083.0	5.823794298661545e+17
19084.0	5.822588893440682e+17
19085.0	5.821705000495786e+17
19086.0	5.82027588018722e+17
19087.0	5.819423367626751e+17
19088.0	5.818362014378665e+17
19089.0	5.817131117576191e+17
19090.0	5.816222481732948e+17
19091.0	5.815131216805887e+17
19092.0	5.814002867240959e+17
19093.0	5.81297617502208e+17
19094.0	5.811884741623807e+17
19095.0	5.810794248448681e+17
19096.0	5.809689748395347e+17
19097.0	5.808613366956031e+17
19098.0	5.807523960804692e+17
19099.0	5.806434028268201e+17
19100.0	5.805338497034922e+17
19101.0	5.804255482303828e+17
19102.0	5.803065709953023e+17
19103.0	5.802081199849471e+17
19104.0	5.80099266052096e+17
19105.0	5.799898591002623e+17
19106.0	5.798799341518847e+17
19107.0	5.79771247501858e+17
19108.0	5.796637501467306e+17
19109.0	5.795309157700947e+17
19110.0	5.794458331949737e+17
19111.0	5.793375915606015e+17
19112.0	5.792288657637375e+17
19113.0	5.791200715298131e+17
19114.0	5.790114863819433e+17
19115.0	5.788983594319872e+17
19116.0	5.787923110690815e+17
19117.0	5.786837712895999e+17
19118.0	5.785686684030292e+17
19119.0	5.779185972106573e+17
19120.0	5.783561623131476e+17
19121.0	5.782492973891583e+17
19122.0	5.781428874772479e+17
19123.0	5.780343233708031e+17
19124.0	5.779243831132159e+17
19125.0	5.778171410513919e+17
19126.0	5.777083764572159e+17
19127.0	5.77430022660642e+17
19128.0	5.774866842124287e+17
19129.0	5.773762188978857e+17
19130.0	5.772732569834836e+17
19131.0	5.771664554633897e+17
19132.0	5.770580072595456e+17
19133.0	5.769390262495914e+17
19134.0	5.7683910066176e+17
19135.0	5.767328678892884e+17
19136.0	5.766251806719999e+17
19137.0	5.76501313577506e+17
19138.0	5.764070888876713e+17
19139.0	5.7630029750381216e+17
19140.0	5.7619219679805434e+17
19141.0	5.7608396334257485e+17
19142.0	5.75973426794769e+17
19143.0	5.7586237385823565e+17
19144.0	5.757559503847422e+17
19145.0	5.756512704834217e+17
19146.0	5.754878620073984e+17
19147.0	5.7542500672689485e+17
19148.0	5.7532662464293536e+17
19149.0	5.752179168116734e+17
19150.0	5.7510994885563725e+17
19151.0	5.750027731337215e+17
19152.0	5.7489422398696096e+17
19153.0	5.7478441759757645e+17
19154.0	5.746664739788115e+17
19155.0	5.7457073018197325e+17
19156.0	5.7446249553810765e+17
19157.0	5.7435421349860685e+17
19158.0	5.7422954710958074e+17
19159.0	5.7413707347176096e+17
19160.0	5.740297582892372e+17
19161.0	5.739229329315156e+17
19162.0	5.7377681512420685e+17
19163.0	5.7370646986533536e+17
19164.0	5.735995280457728e+17
19165.0	5.7348984944285e+17
19166.0	5.7337153889239034e+17
19167.0	5.732725581414399e+17
19168.0	5.7316658821201914e+17
19169.0	5.7305856482126496e+17
19170.0	5.729526864674815e+17
19171.0	5.728425878050132e+17
19172.0	5.7273731343100576e+17
19173.0	5.7262956378849274e+17
19174.0	5.725163456124245e+17
19175.0	5.7241402591586976e+17
19176.0	5.723066571161599e+17
19177.0	5.7218467955561805e+17
19178.0	5.720903385437524e+17
19179.0	5.719801156599806e+17
19180.0	5.7187471328979616e+17
19181.0	5.717564113376596e+17
19182.0	5.7165859115062605e+17
19183.0	5.7155315662411085e+17
19184.0	5.71444037681152e+17
19185.0	5.7133748061907616e+17
19186.0	5.712302860227924e+17
19187.0	5.7111661017825274e+17
19188.0	5.710150556625577e+17
19189.0	5.709078342227285e+17
19190.0	5.708001433703764e+17
19191.0	5.706899416678399e+17
19192.0	5.7058550985960096e+17
19193.0	5.7047778489357645e+17
19194.0	5.7036936737805645e+17
19195.0	5.702629620798804e+17
19196.0	5.701538736155306e+17
19197.0	5.7004718030848e+17
19198.0	5.6994002961257805e+17
19199.0	5.696086070351189e+17
19200.0	5.695735965504853e+17
19201.0	5.696180064703828e+17
19202.0	5.6951116594326176e+17
19203.0	5.694033137500158e+17
19204.0	5.6929404975404365e+17
19205.0	5.691880887724713e+17
19206.0	5.690804317541715e+17
19207.0	5.6896380710420474e+17
19208.0	5.688459492589567e+17
19209.0	5.687587545721515e+17
19210.0	5.6865179884148045e+17
19211.0	5.6854531294276256e+17
19212.0	5.684380255125503e+17
19213.0	5.683219810047316e+17
19214.0	5.682116410299732e+17
19215.0	5.68115243131426e+17
19216.0	5.6800861490599245e+17
19217.0	5.6790145826816e+17
19218.0	5.677160626214228e+17
19219.0	5.6767320326580896e+17
19220.0	5.675774487734953e+17
19221.0	5.6744174710074016e+17
19222.0	5.673643701611177e+17
19223.0	5.6725574621593594e+17
19224.0	5.6714609655371085e+17
19225.0	5.6702880361130656e+17
19226.0	5.6693391202713594e+17
19227.0	5.668264819905877e+17
19228.0	5.6672158132906656e+17
19229.0	5.666142581773653e+17
19230.0	5.665066233189717e+17
19231.0	5.6639852058596685e+17
19232.0	5.6629150117178016e+17
19233.0	5.6617866306955936e+17
19234.0	5.6607558658075296e+17
19235.0	5.6596785105906336e+17
19236.0	5.658632718210389e+17
19237.0	5.657544687091711e+17
19238.0	5.6563996015547725e+17
19239.0	5.6554153144483834e+17
19240.0	5.6543100174772896e+17
19241.0	5.653238995659434e+17
19242.0	5.652179208983892e+17
19243.0	5.6509728334807034e+17
19244.0	5.6500495734975136e+17
19245.0	5.648971334680575e+17
19246.0	5.647885319624021e+17
19247.0	5.646828572420777e+17
19248.0	5.6457556233202336e+17
19249.0	5.644678834334379e+17
19250.0	5.6435885459810976e+17
19251.0	5.642416890926419e+17
19252.0	5.6412083385794554e+17
19253.0	5.64036032860433e+17
19254.0	5.639304605510313e+17
19255.0	5.638069831772841e+17
19256.0	5.6371212207172256e+17
19257.0	5.6360846627962874e+17
19258.0	5.6350085379085645e+17
19259.0	5.633869434148181e+17
19260.0	5.632780120970579e+17
19261.0	5.6317684024169805e+17
19262.0	5.63065026388514e+17
19263.0	5.629567259639806e+17
19264.0	5.628023676775081e+17
19265.0	5.6272797547451725e+17
19266.0	5.6261710135514445e+17
19267.0	5.6253189910254925e+17
19268.0	5.624240871746218e+17
19269.0	5.623162391756798e+17
19270.0	5.6220815335970125e+17
19271.0	5.620677179255466e+17
19272.0	5.619890555715583e+17
19273.0	5.617739271329108e+17
19274.0	5.6169983363426963e+17
19275.0	5.6166832126907725e+17
19276.0	5.615583382994943e+17
19277.0	5.6145067030609914e+17
19278.0	5.6134268319607456e+17
19279.0	5.6123307268068685e+17
19280.0	5.6111869037554336e+17
19281.0	5.6101720240947194e+17
19282.0	5.609105353168211e+17
19283.0	5.6079847847362554e+17
19284.0	5.6069024438900045e+17
19285.0	5.605671991683753e+17
19286.0	5.6047283641603405e+17
19287.0	5.603674781559466e+17
19288.0	5.601630191878143e+17
19289.0	5.599346202509308e+17
19290.0	5.600410227529043e+17
19291.0	5.599083193084586e+17
19292.0	5.598229993357311e+17
19293.0	5.597131263268181e+17
19294.0	5.596036240943785e+17
19295.0	5.5949535163187194e+17
19296.0	5.593856320645802e+17
19297.0	5.59275231552034e+17
19298.0	5.5916426033452365e+17
19299.0	5.5905686944481274e+17
19300.0	5.589467782621866e+17
19301.0	5.5883677292298234e+17
19302.0	5.5872574850771616e+17
19303.0	5.5861009211282765e+17
19304.0	5.5850337594682016e+17
19305.0	5.5839464749356365e+17
19306.0	5.582850730491903e+17
19307.0	5.5817052779533645e+17
19308.0	5.5806172125812045e+17
19309.0	5.5794436735849805e+17
19310.0	5.5782949977238176e+17
19311.0	5.577276552904702e+17
19312.0	5.5761900974462285e+17
19313.0	5.5750845033786003e+17
19314.0	5.570048464781314e+17
19315.0	5.569183906878809e+17
19316.0	5.571724312925524e+17
19317.0	5.570604012229972e+17
19318.0	5.5694771076027725e+17
19319.0	5.568368669097983e+17
19320.0	5.567239638657705e+17
19321.0	5.566110826321236e+17
19322.0	5.564904861160788e+17
19323.0	5.5638137668020896e+17
19324.0	5.562712157323264e+17
19325.0	5.5603524425919136e+17
19326.0	5.559268928039594e+17
19327.0	5.5581099265010323e+17
19328.0	5.5569725116470605e+17
19329.0	5.555828610301951e+17
19330.0	5.554638586292905e+17
19331.0	5.553477516263424e+17
19332.0	5.5523571009235616e+17
19333.0	5.5511917247419725e+17
19334.0	5.550031957742932e+17
19335.0	5.5488561006946976e+17
19336.0	5.547690276421632e+17
19337.0	5.546511028278611e+17
19338.0	5.545138013776553e+17
19339.0	5.544149235269631e+17
19340.0	5.542847411388415e+17
19341.0	5.54173261222161e+17
19342.0	5.5402164601050445e+17
19343.0	5.53937070526737e+17
19344.0	5.5381625912251725e+17
19345.0	5.535069288529915e+17
19346.0	5.5348854277188256e+17
19347.0	5.534453501788158e+17
19348.0	5.5333014306379085e+17
19349.0	5.5320401041599136e+17
19350.0	5.530807387029503e+17
19351.0	5.529551907411285e+17
19352.0	5.528261143210667e+17
19353.0	5.5270813533033805e+17
19354.0	5.5258203679621114e+17
19355.0	5.524458814395733e+17
19356.0	5.5232700829313696e+17
19357.0	5.521986574876671e+17
19358.0	5.5206841917549216e+17
19359.0	5.5193213043998714e+17
19360.0	5.518037035078996e+17
19361.0	5.5163054886748154e+17
19362.0	5.513842503188479e+17
19363.0	5.512495930277888e+17
19364.0	5.511138325648724e+17
19365.0	5.509772953867604e+17
19366.0	5.508394611201364e+17
19367.0	5.5070055604770125e+17
19368.0	5.505604872656211e+17
19369.0	5.504133621962069e+17
19370.0	5.5026414088355834e+17
19371.0	5.5012720391837005e+17
19372.0	5.499864948058794e+17
19373.0	5.4983743797985274e+17
19374.0	5.4969095261170336e+17
19375.0	5.495405524899156e+17
19376.0	5.492271013167104e+17
19377.0	5.4902394663731194e+17
19378.0	5.488671115444223e+17
19379.0	5.4870857160676685e+17
19380.0	5.485472489581225e+17
19381.0	5.4838320189931514e+17
19382.0	5.4821124752889165e+17
19383.0	5.4803932314774176e+17
19384.0	5.477560215404543e+17
19385.0	5.4743942212266656e+17
19386.0	5.472609171581609e+17
19387.0	5.4707904857156256e+17
19388.0	5.4689412184801274e+17
19389.0	5.467059914451626e+17
19390.0	5.462248828261715e+17
19391.0	5.4569370043897114e+17
19392.0	5.4577850681917434e+17
19393.0	5.455761447234218e+17
19394.0	5.4504549165738656e+17
19395.0	5.447455493586943e+17
19396.0	5.445170503177556e+17
19397.0	5.4397790742118445e+17
19398.0	5.435667397301587e+17
19399.0	5.432031148944037e+17
19400.0	5.4249473840250874e+17
19401.0	5.4221595287224314e+17
19402.0	5.413115223080956e+17
19403.0	5.409023830523904e+17
19404.0	5.4028649285113165e+17
19405.0	5.399322538191529e+17
19406.0	5.3956778718658554e+17
19407.0	5.391907665827155e+17
19408.0	5.387283314944683e+17
19409.0	5.383907367889579e+17
19410.0	5.3797021684858874e+17
19411.0	5.3753104085374285e+17
19412.0	5.37074140848674e+17
19413.0	5.365984788130473e+17
19414.0	5.361001755049983e+17
19415.0	5.355869359308799e+17
19416.0	5.350412736877909e+17
19417.0	5.3449729336060576e+17
19418.0	5.339244190324054e+17
19419.0	5.3332072509822285e+17
19420.0	5.3267736311453e+17
19421.0	5.320279052692138e+17
19422.0	5.313500823945215e+17
19423.0	5.3065785082729805e+17
19424.0	5.299444582973439e+17
19425.0	5.292060985436841e+17
19426.0	5.2844332647273805e+17
19427.0	5.2766100167502496e+17
19428.0	5.2682977325001376e+17
19429.0	5.25944974754884e+17
19430.0	5.2507955639091194e+17
19431.0	5.241242875767467e+17
19432.0	5.232238347507027e+17
19433.0	5.222088900782764e+17
19434.0	5.2107403675566054e+17
19435.0	5.197252550546771e+17
19436.0	5.1793894690870605e+17
19437.0	5.154866743738369e+17
19438.0	5.110258494778022e+17
19439.0	5.073948035951275e+17
19440.0	5.048159020165802e+17
19441.0	5.019309152316072e+17
19442.0	4.987315923451905e+17
19443.0	4.954488751609173e+17
19444.0	4.91703828025617e+17
19445.0	4.8639772700180474e+17
19446.0	4.760344126466713e+17
19447.0	4.6722234841388346e+17
19448.0	4.56677714296832e+17
19449.0	4.3606351271690195e+17
19450.0	3.8876671272550374e+17
19451.0	3.70131547909868e+17
19452.0	4.169744599657137e+17
19453.0	4.4793199591424096e+17
19454.0	4.6218124323717037e+17
19455.0	4.708568460689407e+17
19456.0	4.8102714973880314e+17
19457.0	4.88454589076821e+17
19458.0	4.9153246938617325e+17
19459.0	4.9573270916519296e+17
19460.0	4.988116274948776e+17
19461.0	5.0167759737541965e+17
19462.0	5.0421944612290554e+17
19463.0	5.069800084602871e+17
19464.0	5.1145253979859616e+17
19465.0	5.1433520930051405e+17
19466.0	5.161424101135701e+17
19467.0	5.174570503897087e+17
19468.0	5.1851736673594016e+17
19469.0	5.193722993399123e+17
19470.0	5.201337638365865e+17
19471.0	5.2091013950341114e+17
19472.0	5.2157573940729165e+17
19473.0	5.2223908522229754e+17
19474.0	5.2292694821218976e+17
19475.0	5.234487442363731e+17
19476.0	5.2409004276230816e+17
19477.0	5.2464672036618234e+17
19478.0	5.251743187905193e+17
19479.0	5.2567593392100685e+17
19480.0	5.261585786339328e+17
19481.0	5.266192240825683e+17
19482.0	5.2705918497150285e+17
19483.0	5.2748833609045325e+17
19484.0	5.27873215631633e+17
19485.0	5.282308198935209e+17
19486.0	5.285713684376234e+17
19487.0	5.2889582770148685e+17
19488.0	5.2919827931245216e+17
19489.0	5.294697088024575e+17
19490.0	5.2961342460177056e+17
19491.0	5.299828783316991e+17
19492.0	5.302132638307668e+17
19493.0	5.304237848264704e+17
19494.0	5.306183222383957e+17
19495.0	5.307984379554473e+17
19496.0	5.3092843243874976e+17
19497.0	5.311188930570922e+17
19498.0	5.313047663651499e+17
19499.0	5.3126813156638694e+17
19500.0	5.320752106569729e+17
19501.0	5.325258907189247e+17
19502.0	5.327241857378989e+17
19503.0	5.3318327272297805e+17
19504.0	5.332333360054271e+17
19505.0	5.335539428010665e+17
19506.0	5.337504244826111e+17
19507.0	5.337716658361685e+17
19508.0	5.339252232901971e+17
19509.0	5.3417600701781325e+17
19510.0	5.3415956136154426e+17
19511.0	5.3348106432238886e+17
19512.0	5.341267481329666e+17
19513.0	5.3430972869946e+17
19514.0	5.3435416742024506e+17
19515.0	5.343912910651392e+17
19516.0	5.344121940781738e+17
19517.0	5.343825225231017e+17
19518.0	5.344072144606547e+17
19519.0	5.345784402804735e+17
19520.0	5.345397323770538e+17
19521.0	5.3450478697403725e+17
19522.0	5.344615659995135e+17
19523.0	5.344220249675092e+17
19524.0	5.3437741462978554e+17
19525.0	5.343299184011945e+17
19526.0	5.3428298889297914e+17
19527.0	5.3426296451672723e+17
19528.0	5.3437541219915085e+17
19529.0	5.3432120417539405e+17
19530.0	5.342655298229588e+17
19531.0	5.3420789085853e+17
19532.0	5.3414886770387616e+17
19533.0	5.3408852145602554e+17
19534.0	5.340265979401555e+17
19535.0	5.339630269715796e+17
19536.0	5.338962007337642e+17
19537.0	5.338349120258047e+17
19538.0	5.3375758863346336e+17
19539.0	5.336487909042858e+17
19540.0	5.3363050122226336e+17
19541.0	5.3356355936146765e+17
19542.0	5.3349309547369805e+17
19543.0	5.334219309274453e+17
19544.0	5.3339376086330016e+17
19545.0	5.333778050318334e+17
19546.0	5.3326478587549005e+17
19547.0	5.332758276603903e+17
19548.0	5.3320009936186016e+17
19549.0	5.331153086403924e+17
19550.0	5.330471866422613e+17
19551.0	5.329699569227092e+17
19552.0	5.3289178684020045e+17
19553.0	5.328108283843924e+17
19554.0	5.327302609775274e+17
19555.0	5.326528749502464e+17
19556.0	5.3257404440466765e+17
19557.0	5.324928613438804e+17
19558.0	5.324117873349972e+17
19559.0	5.323300393014613e+17
19560.0	5.3224562243229005e+17
19561.0	5.321628742669652e+17
19562.0	5.3208263100989434e+17
19563.0	5.3199923251773434e+17
19564.0	5.319154785583102e+17
19565.0	5.318313355771902e+17
19566.0	5.317439094347092e+17
19567.0	5.3166188471691936e+17
19568.0	5.3157460062153363e+17
19569.0	5.3148971308154874e+17
19570.0	5.3140551319770445e+17
19571.0	5.313189538780501e+17
19572.0	5.312303280947199e+17
19573.0	5.3114419246967456e+17
19574.0	5.310511163200852e+17
19575.0	5.30972133171746e+17
19576.0	5.3088475554338125e+17
19577.0	5.307942935636649e+17
19578.0	5.3070499480425805e+17
19579.0	5.3061831098368e+17
19580.0	5.3052996915473056e+17
19581.0	5.304424277387945e+17
19582.0	5.3035528813718176e+17
19583.0	5.3026631807139834e+17
19584.0	5.301765125002581e+17
19585.0	5.3007762605124256e+17
19586.0	5.299852639819092e+17
19587.0	5.299070132988586e+17
19588.0	5.2977369895403514e+17
19589.0	5.2972656574245536e+17
19590.0	5.2962877407668896e+17
19591.0	5.2954750230637216e+17
19592.0	5.2945749212310176e+17
19593.0	5.293651959043412e+17
19594.0	5.29254640202547e+17
19595.0	5.2918148958344525e+17
19596.0	5.2908011276642976e+17
19597.0	5.2900164544757754e+17
19598.0	5.2887235861326496e+17
19599.0	5.2882019768948045e+17
19600.0	5.2872953011896314e+17
19601.0	5.286315353789781e+17
19602.0	5.2854141320779085e+17
19603.0	5.284127768401236e+17
19604.0	5.2835784208329376e+17
19605.0	5.2824275003200845e+17
19606.0	5.2821646712504314e+17
19607.0	5.2819194603547296e+17
19608.0	5.2809991552587085e+17
19609.0	5.2800423492321274e+17
19610.0	5.279166384919892e+17
19611.0	5.278233334033066e+17
19612.0	5.2773166388346874e+17
19613.0	5.276379815870462e+17
19614.0	5.27542506365474e+17
19615.0	5.274533769161385e+17
19616.0	5.2735782864377165e+17
19617.0	5.2726656401407994e+17
19618.0	5.2711863475677843e+17
19619.0	5.270130778963966e+17
19620.0	5.2692343422539085e+17
19621.0	5.268949940480683e+17
19622.0	5.268021768967508e+17
19623.0	5.267089422723753e+17
19624.0	5.2661476183244794e+17
19625.0	5.26522302734882e+17
19626.0	5.2642892899942394e+17
19627.0	5.2633546466699936e+17
19628.0	5.2623655556874234e+17
19629.0	5.261393634787326e+17
19630.0	5.2604082312970234e+17
19631.0	5.2571111651191456e+17
19632.0	5.2586751861282125e+17
19633.0	5.257706659119103e+17
19634.0	5.25680443007522e+17
19635.0	5.2558332452754765e+17
19636.0	5.25492086252066e+17
19637.0	5.253664850924885e+17
19638.0	5.2530460659548154e+17
19639.0	5.252103409412778e+17
19640.0	5.2510679413118285e+17
19641.0	5.2493063259422726e+17
19642.0	5.249293225732778e+17
19643.0	5.2483505845698554e+17
19644.0	5.247363569767764e+17
19645.0	5.2462159424826003e+17
19646.0	5.2455413627835725e+17
19647.0	5.244605836558335e+17
19648.0	5.243666220886698e+17
19649.0	5.2427236754937165e+17
19650.0	5.241786075185151e+17
19651.0	5.240840207903402e+17
19652.0	5.23990273761826e+17
19653.0	5.2389628954542074e+17
19654.0	5.2380163591809696e+17
19655.0	5.2370720249173325e+17
19656.0	5.2361357122600954e+17
