# Flux units: erg / (cm m2 s)
# Wavelength units: Angstrom
wave	flux
19000.0	4.603692954506581e+17
19001.0	4.6026806019140256e+17
19002.0	4.6020351754239994e+17
19003.0	4.6012005774349645e+17
19004.0	4.600332565523114e+17
19005.0	4.5994989650793805e+17
19006.0	4.5984838204784634e+17
19007.0	4.59789107794193e+17
19008.0	4.5969432064819194e+17
19009.0	4.596075500754261e+17
19010.0	4.5944033456947174e+17
19011.0	4.59450542526737e+17
19012.0	4.593303019672917e+17
19013.0	4.5929096128320845e+17
19014.0	4.5920059919783245e+17
19015.0	4.5911454759867725e+17
19016.0	4.5902916030737043e+17
19017.0	4.5896026690682874e+17
19018.0	4.5887461180921165e+17
19019.0	4.587903102834005e+17
19020.0	4.5871024304728736e+17
19021.0	4.5862956155535354e+17
19022.0	4.5854659297935354e+17
19023.0	4.584564754918058e+17
19024.0	4.583685931488596e+17
19025.0	4.5829773094202016e+17
19026.0	4.582098365054975e+17
19027.0	4.5811156745803085e+17
19028.0	4.580522118348798e+17
19029.0	4.5796650486770336e+17
19030.0	4.578882656490836e+17
19031.0	4.578060402338474e+17
19032.0	4.577221564607145e+17
19033.0	4.5762612367633056e+17
19034.0	4.575571521918292e+17
19035.0	4.5747224654643194e+17
19036.0	4.555728472418975e+17
19037.0	4.5731028503538336e+17
19038.0	4.572255552012288e+17
19039.0	4.571448204416341e+17
19040.0	4.5706409763580576e+17
19041.0	4.5698056282876576e+17
19042.0	4.5661307301177984e+17
19043.0	4.568192096316074e+17
19044.0	4.5673492732968954e+17
19045.0	4.56652547564066e+17
19046.0	4.565604570060116e+17
19047.0	4.564889412567038e+17
19048.0	4.56323763343633e+17
19049.0	4.557564250073764e+17
19050.0	4.5623022812747085e+17
19051.0	4.5588724695695315e+17
19052.0	4.5605214650804896e+17
19053.0	4.559984796893183e+17
19054.0	4.5591603071767885e+17
19055.0	4.557117235134464e+17
19056.0	4.55719040267059e+17
19057.0	4.5566955649761274e+17
19058.0	4.552973780779003e+17
19059.0	4.5539235452682234e+17
19060.0	4.554205446537215e+17
19061.0	4.5534262364296525e+17
19062.0	4.5526037334152525e+17
19063.0	4.5517910975010125e+17
19064.0	4.5507544654807034e+17
19065.0	4.5498882794891936e+17
19066.0	4.548174682608981e+17
19067.0	4.548500772268715e+17
19068.0	4.547708199108607e+17
19069.0	4.5468920392799565e+17
19070.0	4.546022556565504e+17
19071.0	4.545240075599872e+17
19072.0	4.543317714927614e+17
19073.0	4.5436102082123085e+17
19074.0	4.5428099252223994e+17
19075.0	4.5419940331301555e+17
19076.0	4.5409674373802656e+17
19077.0	4.540327868235776e+17
19078.0	4.539451658556755e+17
19079.0	4.5387261502204576e+17
19080.0	4.5378912823978656e+17
19081.0	4.5370121520851616e+17
19082.0	4.5362047192050336e+17
19083.0	4.535344733792937e+17
19084.0	4.534341313669803e+17
19085.0	4.5338079317196806e+17
19086.0	4.5310852069676365e+17
19087.0	4.529433069922983e+17
19088.0	4.529913893049682e+17
19089.0	4.530103607711061e+17
19090.0	4.5297367256487245e+17
19091.0	4.5286878567464966e+17
19092.0	4.52584639334537e+17
19093.0	4.5273382793161376e+17
19094.0	4.526521834973866e+17
19095.0	4.525712617417385e+17
19096.0	4.5248680397810336e+17
19097.0	4.524084909397332e+17
19098.0	4.5220957537348256e+17
19099.0	4.521068194693121e+17
19100.0	4.521571555912362e+17
19101.0	4.520815482284713e+17
19102.0	4.519758014360233e+17
19103.0	4.519207525242197e+17
19104.0	4.5184094624372045e+17
19105.0	4.515069773043035e+17
19106.0	4.5166864968799565e+17
19107.0	4.5153223687099725e+17
19108.0	4.5142407919261e+17
19109.0	4.5133926428398906e+17
19110.0	4.5135426192670714e+17
19111.0	4.512029348637352e+17
19112.0	4.510980599272787e+17
19113.0	4.5111009639137274e+17
19114.0	4.509842902002345e+17
19115.0	4.509195862802431e+17
19116.0	4.5086059206628685e+17
19117.0	4.507849634523818e+17
19118.0	4.5068331826981536e+17
19119.0	4.4805982907268717e+17
19120.0	4.505270897431892e+17
19121.0	4.504545784059219e+17
19122.0	4.5038436065389216e+17
19123.0	4.5030377814753274e+17
19124.0	4.5021634543397536e+17
19125.0	4.501416464176468e+17
19126.0	4.500618697768959e+17
19127.0	4.4963651960613523e+17
19128.0	4.498975932896596e+17
19129.0	4.498072132386815e+17
19130.0	4.4973681233537696e+17
19131.0	4.496578013648212e+17
19132.0	4.4957681697423354e+17
19133.0	4.4948851058715315e+17
19134.0	4.4941547608036685e+17
19135.0	4.493347334914046e+17
19136.0	4.492552379389268e+17
19137.0	4.491442226812245e+17
19138.0	4.4909253732160845e+17
19139.0	4.4901452431578445e+17
19140.0	4.489341647366826e+17
19141.0	4.48853480308736e+17
19142.0	4.4876848930925216e+17
19143.0	4.486810391194282e+17
19144.0	4.4860683160562336e+17
19145.0	4.4853162535813126e+17
19146.0	4.483469934941526e+17
19147.0	4.4833785193867936e+17
19148.0	4.4819354746880006e+17
19149.0	4.480988860121088e+17
19150.0	4.481290332012542e+17
19151.0	4.4804963922083834e+17
19152.0	4.479682732883968e+17
19153.0	4.476923673575421e+17
19154.0	4.4776486128844794e+17
19155.0	4.4772923570913274e+17
19156.0	4.4764917986754554e+17
19157.0	4.475013284145835e+17
19158.0	4.472904490855083e+17
19159.0	4.4739865898298016e+17
19160.0	4.473263719011668e+17
19161.0	4.4724848738085536e+17
19162.0	4.4702219978670086e+17
19163.0	4.47087945711616e+17
19164.0	4.470071849473364e+17
19165.0	4.4670946038688384e+17
19166.0	4.4681785616192845e+17
19167.0	4.46745171530001e+17
19168.0	4.46688623014707e+17
19169.0	4.466045597952681e+17
19170.0	4.4652906428061e+17
19171.0	4.4643745907343354e+17
19172.0	4.4636865550090234e+17
19173.0	4.46288556457984e+17
19174.0	4.4619772041625594e+17
19175.0	4.46128767107072e+17
19176.0	4.4604936627595936e+17
19177.0	4.4594373867165005e+17
19178.0	4.458763456435541e+17
19179.0	4.457806645515605e+17
19180.0	4.45729473700386e+17
19181.0	4.456153436127231e+17
19182.0	4.4556452892071245e+17
19183.0	4.4549154900978336e+17
19184.0	4.454071305327957e+17
19185.0	4.45330108920627e+17
19186.0	4.452524430633642e+17
19187.0	4.4516338016365216e+17
19188.0	4.4509010497372154e+17
19189.0	4.450138124014932e+17
19190.0	4.4493438074224614e+17
19191.0	4.4484557593204045e+17
19192.0	4.447750454946474e+17
19193.0	4.446706580761259e+17
19194.0	4.445752069018965e+17
19195.0	4.445362041389055e+17
19196.0	4.444538773613225e+17
19197.0	4.443765167095808e+17
19198.0	4.4429884022674765e+17
19199.0	4.432431871776082e+17
19200.0	4.435122728206339e+17
19201.0	4.440580126583466e+17
19202.0	4.439813373558783e+17
19203.0	4.438988404992681e+17
19204.0	4.4381715565991245e+17
19205.0	4.4374171194490874e+17
19206.0	4.4366076278647456e+17
19207.0	4.435666126853461e+17
19208.0	4.4345282562184506e+17
19209.0	4.4342391281636685e+17
19210.0	4.4334430366815565e+17
19211.0	4.432667869184e+17
19212.0	4.4318814399802016e+17
19213.0	4.4308849558377805e+17
19214.0	4.430013249443157e+17
19215.0	4.429479036321791e+17
19216.0	4.428722426522281e+17
19217.0	4.427923123601408e+17
19218.0	4.425657026434386e+17
19219.0	4.426135849577129e+17
19220.0	4.425512978655914e+17
19221.0	4.4241715332819616e+17
19222.0	4.42397596127505e+17
19223.0	4.423154548080638e+17
19224.0	4.422330914701312e+17
19225.0	4.421323111530495e+17
19226.0	4.420782039323989e+17
19227.0	4.419999926059008e+17
19228.0	4.419243689552555e+17
19229.0	4.418454445970773e+17
19230.0	4.417650571957589e+17
19231.0	4.4168572508132685e+17
19232.0	4.4160777953389216e+17
19233.0	4.415187654279168e+17
19234.0	4.4144650169439565e+17
19235.0	4.4136747080089594e+17
19236.0	4.41293828329745e+17
19237.0	4.4121141787579725e+17
19238.0	4.411175950002859e+17
19239.0	4.4105762603007994e+17
19240.0	4.409782107985236e+17
19241.0	4.408968613636778e+17
19242.0	4.408190046655829e+17
19243.0	4.407187185074174e+17
19244.0	4.406639179683157e+17
19245.0	4.405829925776042e+17
19246.0	4.4050403054059526e+17
19247.0	4.4042706974583456e+17
19248.0	4.4034968854200314e+17
19249.0	4.402662838981973e+17
19250.0	4.4015203518163616e+17
19251.0	4.400590585069566e+17
19252.0	4.399930168137045e+17
19253.0	4.399519785549824e+17
19254.0	4.3987877872271354e+17
19255.0	4.3977040461823974e+17
19256.0	4.3971496332929696e+17
19257.0	4.3964339102679034e+17
19258.0	4.395652863055187e+17
19259.0	4.394754207558314e+17
19260.0	4.3935729825000083e+17
19261.0	4.393282518559401e+17
19262.0	4.3924073280962554e+17
19263.0	4.39160709054464e+17
19264.0	4.389863241547774e+17
19265.0	4.3897515647085203e+17
19266.0	4.3885830504884915e+17
19267.0	4.388604418370218e+17
19268.0	4.3878129427196576e+17
19269.0	4.3870368615628794e+17
19270.0	4.386260723782995e+17
19271.0	4.384794409085613e+17
19272.0	4.3846324474347514e+17
19273.0	4.383367153145173e+17
19274.0	4.3824395891070266e+17
19275.0	4.3823544132785485e+17
19276.0	4.381539279656276e+17
19277.0	4.380770425285291e+17
19278.0	4.3799575139450874e+17
19279.0	4.3791843268580685e+17
19280.0	4.378275986014207e+17
19281.0	4.377639594054997e+17
19282.0	4.3768932421249696e+17
19283.0	4.375983396225023e+17
19284.0	4.375283109636778e+17
19285.0	4.374249002587476e+17
19286.0	4.3737142071569056e+17
19287.0	4.3729940192952314e+17
19288.0	4.367671581037905e+17
19289.0	4.358872809952573e+17
19290.0	4.3706610544366925e+17
19291.0	4.369481584694613e+17
19292.0	4.369104809667242e+17
19293.0	4.3683125615656954e+17
19294.0	4.3675188412634445e+17
19295.0	4.3667707200361805e+17
19296.0	4.3648235025203226e+17
19297.0	4.3649465263499955e+17
19298.0	4.364387790531242e+17
19299.0	4.362323405133141e+17
19300.0	4.362821500403712e+17
19301.0	4.3620927086264314e+17
19302.0	4.361306460476757e+17
19303.0	4.360410944416426e+17
19304.0	4.359719891588436e+17
19305.0	4.3589668658216954e+17
19306.0	4.3582081651616416e+17
19307.0	4.3573371717986976e+17
19308.0	4.356619106254847e+17
19309.0	4.355511668790612e+17
19310.0	4.354655416309076e+17
19311.0	4.3542570874525e+17
19312.0	4.353535467935061e+17
19313.0	4.352743276456617e+17
19314.0	4.29531601043455e+17
19315.0	4.297436381402536e+17
19316.0	4.3488583198528877e+17
19317.0	4.3496536696422394e+17
19318.0	4.348897496050346e+17
19319.0	4.348150061290836e+17
19320.0	4.346879187877887e+17
19321.0	4.345568055437994e+17
19322.0	4.345713694954836e+17
19323.0	4.3449072183760205e+17
19324.0	4.344277665928532e+17
19325.0	4.3431566004715514e+17
19326.0	4.342748101825877e+17
19327.0	4.341923375131306e+17
19328.0	4.3389331299805875e+17
19329.0	4.3404349068192416e+17
19330.0	4.3395880495786656e+17
19331.0	4.338813776865962e+17
19332.0	4.3381168848677536e+17
19333.0	4.3373221208828576e+17
19334.0	4.336494695852714e+17
19335.0	4.3312145054214874e+17
19336.0	4.334968340392618e+17
19337.0	4.3342580371073696e+17
19338.0	4.333131810559316e+17
19339.0	4.3327118335016954e+17
19340.0	4.3312998490221216e+17
19341.0	4.329429201321986e+17
19342.0	4.3291785280443725e+17
19343.0	4.3296397099444896e+17
19344.0	4.3272166556303386e+17
19345.0	4.323076140782926e+17
19346.0	4.3257992290413216e+17
19347.0	4.324355098017792e+17
19348.0	4.325796310504789e+17
19349.0	4.324971946617514e+17
19350.0	4.3234577888925005e+17
19351.0	4.3233969407262714e+17
19352.0	4.320338547223207e+17
19353.0	4.3219492186794656e+17
19354.0	4.321195219135146e+17
19355.0	4.320263893505366e+17
19356.0	4.319653894204074e+17
19357.0	4.3188922183843834e+17
19358.0	4.318117891145728e+17
19359.0	4.3167427850840736e+17
19360.0	4.314798363071827e+17
19361.0	4.315749125805397e+17
19362.0	4.315060274987007e+17
19363.0	4.3142924349385376e+17
19364.0	4.3135248122948256e+17
19365.0	4.31275136586001e+17
19366.0	4.311993929083562e+17
19367.0	4.3112280358911994e+17
19368.0	4.310465479267668e+17
19369.0	4.3096145297844896e+17
19370.0	4.3088740331028486e+17
19371.0	4.30808189964561e+17
19372.0	4.3073994115863885e+17
19373.0	4.306606670654123e+17
19374.0	4.3058682284823885e+17
19375.0	4.3051056292167674e+17
19376.0	4.3043497506242554e+17
19377.0	4.303567229812736e+17
19378.0	4.302810717880319e+17
19379.0	4.302052442243072e+17
19380.0	4.3012839422907725e+17
19381.0	4.300513601039017e+17
19382.0	4.299651606555306e+17
19383.0	4.298809188985515e+17
19384.0	4.2982017111599776e+17
19385.0	4.2974719260317e+17
19386.0	4.296717175706965e+17
19387.0	4.295956758877523e+17
19388.0	4.2951610183188474e+17
19389.0	4.294299701914281e+17
19390.0	4.293535064216916e+17
19391.0	4.275732232536038e+17
19392.0	4.291919693043027e+17
19393.0	4.2912339236399776e+17
19394.0	4.290449337133738e+17
19395.0	4.289014443365718e+17
19396.0	4.288735027920896e+17
19397.0	4.288172627678548e+17
19398.0	4.286783840496298e+17
19399.0	4.2842826211327974e+17
19400.0	4.2853072455598086e+17
19401.0	4.2850899128046925e+17
19402.0	4.2843347507391136e+17
19403.0	4.2835353436596896e+17
19404.0	4.2827957368695456e+17
19405.0	4.281998422747817e+17
19406.0	4.2812468796675405e+17
19407.0	4.279678489591806e+17
19408.0	4.278068412328623e+17
19409.0	4.278928555726164e+17
19410.0	4.278180288397312e+17
19411.0	4.2774073208122016e+17
19412.0	4.276613539692544e+17
19413.0	4.275013015655765e+17
19414.0	4.275002451602091e+17
19415.0	4.274273169790291e+17
19416.0	4.273194343071743e+17
19417.0	4.272536087603881e+17
19418.0	4.2719543124732576e+17
19419.0	4.2711637288113485e+17
19420.0	4.2703834086113274e+17
19421.0	4.269593828786174e+17
19422.0	4.268724748724906e+17
19423.0	4.267985742419285e+17
19424.0	4.2671920186217805e+17
19425.0	4.2663822606991354e+17
19426.0	4.2655708103748256e+17
19427.0	4.264741437789525e+17
19428.0	4.2639174989250554e+17
19429.0	4.263075610536617e+17
19430.0	4.2620341012398086e+17
19431.0	4.258026993920689e+17
19432.0	4.260472118662485e+17
19433.0	4.259549945703081e+17
19434.0	4.2586037344884045e+17
19435.0	4.2572706951987194e+17
19436.0	4.254877118453074e+17
19437.0	4.255473356941994e+17
19438.0	4.216356054499335e+17
19439.0	4.2521072951623686e+17
19440.0	4.2515831889155405e+17
19441.0	4.2500801656695456e+17
19442.0	4.2481777936520525e+17
19443.0	4.2458058609131514e+17
19444.0	4.242713770371755e+17
19445.0	4.238349539038549e+17
19446.0	4.231615389630464e+17
19447.0	4.2199873179265696e+17
19448.0	4.1958410719068166e+17
19449.0	4.120773399325349e+17
19450.0	3.687078970086728e+17
19451.0	3.337807131749032e+17
19452.0	3.84670845230559e+17
19453.0	4.149517161769649e+17
19454.0	4.1995295456406163e+17
19455.0	4.2175452270646605e+17
19456.0	4.225915391311872e+17
19457.0	4.230298059407359e+17
19458.0	4.033226058236249e+17
19459.0	4.2294848320963066e+17
19460.0	4.23496424427793e+17
19461.0	4.235355766478164e+17
19462.0	4.235372194168831e+17
19463.0	4.235253352759295e+17
19464.0	4.2349504492120736e+17
19465.0	4.234610851796309e+17
19466.0	4.234077455865172e+17
19467.0	4.233668846070442e+17
19468.0	4.233133769621504e+17
19469.0	4.230350043611132e+17
19470.0	4.2319438749368314e+17
19471.0	4.2313476252631034e+17
19472.0	4.2306094291572045e+17
19473.0	4.2299191354982394e+17
19474.0	4.2277018362620563e+17
19475.0	4.226762983254695e+17
19476.0	4.2278780613427194e+17
19477.0	4.227264945673555e+17
19478.0	4.226633080766463e+17
19479.0	4.224313396472487e+17
19480.0	4.2251757460739405e+17
19481.0	4.22433208209681e+17
19482.0	4.223758209034923e+17
19483.0	4.223093831281321e+17
19484.0	4.222349345117523e+17
19485.0	4.22152506511633e+17
19486.0	4.219132203499523e+17
19487.0	4.220173561801385e+17
19488.0	4.219480643906218e+17
19489.0	4.2186414727277216e+17
19490.0	4.214850833438031e+17
19491.0	4.2172304200826874e+17
19492.0	4.2165629790890656e+17
19493.0	4.2158313016306336e+17
19494.0	4.215086453358591e+17
19495.0	4.214338201408853e+17
19496.0	4.2126241179893734e+17
19497.0	4.2127985528012806e+17
19498.0	4.21068918279373e+17
19499.0	4.183963239186413e+17
19500.0	4.21060843615027e+17
19501.0	4.2100394620354554e+17
19502.0	4.209359837986814e+17
19503.0	4.2086350433812474e+17
19504.0	4.207894627090431e+17
19505.0	4.207122731149994e+17
19506.0	4.2064198601714336e+17
19507.0	4.2056159463123616e+17
19508.0	4.204928343299413e+17
19509.0	4.204175792887125e+17
19510.0	4.20278895256098e+17
19511.0	4.1115242795280256e+17
19512.0	4.19815329383491e+17
19513.0	4.1929170890697235e+17
19514.0	4.194942742167544e+17
19515.0	4.1986644382842906e+17
19516.0	4.1987795887063034e+17
19517.0	4.198067193162411e+17
19518.0	4.197068304285694e+17
19519.0	4.1962951591417165e+17
19520.0	4.19445410575155e+17
19521.0	4.195299249618943e+17
19522.0	4.1943034442547194e+17
19523.0	4.193411394786645e+17
19524.0	4.191923720596141e+17
19525.0	4.192299516952576e+17
19526.0	4.191610738835454e+17
19527.0	4.190832945703594e+17
19528.0	4.19000931721762e+17
19529.0	4.189200637930155e+17
19530.0	4.188655721644032e+17
19531.0	4.187917015930197e+17
19532.0	4.1871771330150394e+17
19533.0	4.186437189282474e+17
19534.0	4.1856973441160525e+17
19535.0	4.1849340164396365e+17
19536.0	4.1841557220884474e+17
19537.0	4.183469509487274e+17
19538.0	4.1811227509609837e+17
19539.0	4.1808175510323245e+17
19540.0	4.1812235750386336e+17
19541.0	4.180225044075861e+17
19542.0	4.1796529438064634e+17
19543.0	4.1774975608859296e+17
19544.0	4.178223151710208e+17
19545.0	4.176733841741137e+17
19546.0	4.1749432674986675e+17
19547.0	4.176119026679806e+17
19548.0	4.17538019234065e+17
19549.0	4.1744899771815245e+17
19550.0	4.173903283530411e+17
19551.0	4.1731758192503456e+17
19552.0	4.1724349269060256e+17
19553.0	4.171662166239914e+17
19554.0	4.1708703697250976e+17
19555.0	4.170044270095018e+17
19556.0	4.169380877303808e+17
19557.0	4.1687416772580685e+17
19558.0	4.16801982845201e+17
19559.0	4.167293925152084e+17
19560.0	4.165980968889001e+17
19561.0	4.165781403205632e+17
19562.0	4.1645416969666554e+17
19563.0	4.164361260804778e+17
19564.0	4.163625255523668e+17
19565.0	4.1628904148609696e+17
19566.0	4.162104186284714e+17
19567.0	4.161428792191659e+17
19568.0	4.1606645844104525e+17
19569.0	4.1599227238809594e+17
19570.0	4.1592186246703763e+17
19571.0	4.158480615910057e+17
19572.0	4.1577126038951245e+17
19573.0	4.1568276672675834e+17
19574.0	4.1560965064075936e+17
19575.0	4.155566031110143e+17
19576.0	4.1547452680328525e+17
19577.0	4.15382725792017e+17
19578.0	4.1532877732577274e+17
19579.0	4.152587277653333e+17
19580.0	4.151872088702975e+17
19581.0	4.151145561150806e+17
19582.0	4.150452053256874e+17
19583.0	4.1497226337320954e+17
19584.0	4.148980149649406e+17
19585.0	4.1480721939824634e+17
19586.0	4.147300742638251e+17
19587.0	4.1467368876714656e+17
19588.0	4.14513855795473e+17
19589.0	4.145307747090432e+17
19590.0	4.144312187092991e+17
19591.0	4.1438674629427194e+17
19592.0	4.14313955196928e+17
19593.0	4.142258072147284e+17
19594.0	4.1411481076148883e+17
19595.0	4.140913801909589e+17
19596.0	4.140136849735679e+17
19597.0	4.139488532671146e+17
19598.0	4.1374621225014586e+17
19599.0	4.138041273395882e+17
19600.0	4.13732493590528e+17
19601.0	4.1364797081518074e+17
19602.0	4.135799066984447e+17
19603.0	4.134183716782078e+17
19604.0	4.134351194641749e+17
19605.0	4.1331676697067526e+17
19606.0	4.132947190524586e+17
19607.0	4.132233884117674e+17
19608.0	4.1314798754856954e+17
19609.0	4.1306861803492685e+17
19610.0	4.1292811332485126e+17
19611.0	4.128209049572693e+17
19612.0	4.1286063752915635e+17
19613.0	4.1278630656300365e+17
19614.0	4.127093663203328e+17
19615.0	4.126425043610282e+17
19616.0	4.12478722731759e+17
19617.0	4.123818918412289e+17
19618.0	4.1230873884535456e+17
19619.0	4.1218411467898854e+17
19620.0	4.120986432219816e+17
19621.0	4.1205193132823885e+17
19622.0	4.1213528801716896e+17
19623.0	4.1205613458008736e+17
19624.0	4.119694632725161e+17
19625.0	4.119181724570964e+17
19626.0	4.1184445427875834e+17
19627.0	4.1177361003752096e+17
19628.0	4.1167565675124045e+17
19629.0	4.112279369591463e+17
19630.0	4.1153627192033286e+17
19631.0	4.104858386126161e+17
19632.0	4.1141081099031885e+17
19633.0	4.113283195163989e+17
19634.0	4.1126683801026554e+17
19635.0	4.111677453413033e+17
19636.0	4.109422501909842e+17
19637.0	4.1082925452274323e+17
19638.0	4.1095936309111456e+17
19639.0	4.109042824424106e+17
19640.0	4.108172567860566e+17
19641.0	4.104112572465162e+17
19642.0	4.106773173283498e+17
19643.0	4.1060434923137696e+17
19644.0	4.105346166205097e+17
19645.0	4.1041716939762323e+17
19646.0	4.102076911058941e+17
19647.0	4.1032458090577914e+17
19648.0	4.10257033527296e+17
19649.0	4.1018397895775565e+17
19650.0	4.1011336561295354e+17
19651.0	4.100408258243242e+17
19652.0	4.0996853720459936e+17
19653.0	4.098965732939093e+17
19654.0	4.0982468446126074e+17
19655.0	4.0975120570777594e+17
