# Flux units: erg / (cm m2 s)
# Wavelength units: Angstrom
wave	flux
19000.0	6.564764297024852e+17
19001.0	6.563493866810026e+17
19002.0	6.562264173772799e+17
19003.0	6.561013913965908e+17
19004.0	6.559763694004904e+17
19005.0	6.558514822512639e+17
19006.0	6.557265428829523e+17
19007.0	6.556007692675754e+17
19008.0	6.554744953416361e+17
19009.0	6.553511964355241e+17
19010.0	6.552173364816553e+17
19011.0	6.551015704057172e+17
19012.0	6.549750442622976e+17
19013.0	6.548521984109225e+17
19014.0	6.547261110616063e+17
19015.0	6.546019514144084e+17
19016.0	6.544770853066068e+17
19017.0	6.543324485080404e+17
19018.0	6.542283572073812e+17
19019.0	6.541037309438633e+17
19020.0	6.539769693601791e+17
19021.0	6.538535441356116e+17
19022.0	6.537302590007978e+17
19023.0	6.536046405746687e+17
19024.0	6.53480477991458e+17
19025.0	6.533559851068074e+17
19026.0	6.532313441632255e+17
19027.0	6.53107102097954e+17
19028.0	6.529827847449257e+17
19029.0	6.528582285262847e+17
19030.0	6.527341699618131e+17
19031.0	6.526097500580521e+17
19032.0	6.524853639184383e+17
19033.0	6.523591595480404e+17
19034.0	6.522360821011795e+17
19035.0	6.521115355993428e+17
19036.0	6.519307663398228e+17
19037.0	6.518634704098644e+17
19038.0	6.517389698356564e+17
19039.0	6.516152804398419e+17
19040.0	6.514910748650154e+17
19041.0	6.513668929880064e+17
19042.0	6.512408293365076e+17
19043.0	6.511185999080106e+17
19044.0	6.509943738509993e+17
19045.0	6.508703960967849e+17
19046.0	6.507452431684948e+17
19047.0	6.506222675733161e+17
19048.0	6.504941352910847e+17
19049.0	6.503728555229183e+17
19050.0	6.502494459570857e+17
19051.0	6.501202820158804e+17
19052.0	6.500021689472339e+17
19053.0	6.49878303879987e+17
19054.0	6.497546785172137e+17
19055.0	6.496255923803476e+17
19056.0	6.495065370613076e+17
19057.0	6.493829961438548e+17
19058.0	6.492588556506452e+17
19059.0	6.491356726471338e+17
19060.0	6.490114343567359e+17
19061.0	6.488881924232534e+17
19062.0	6.487644718497791e+17
19063.0	6.486408689265321e+17
19064.0	6.485146775584768e+17
19065.0	6.483897671308627e+17
19066.0	6.482686626146985e+17
19067.0	6.481465235035476e+17
19068.0	6.480229778325504e+17
19069.0	6.47899495076113e+17
19070.0	6.47775448605218e+17
19071.0	6.476525632574804e+17
19072.0	6.475291301336404e+17
19073.0	6.474056124246697e+17
19074.0	6.472823414106793e+17
19075.0	6.471589821065897e+17
19076.0	6.470351689788074e+17
19077.0	6.469121813599572e+17
19078.0	6.467852611616767e+17
19079.0	6.466657868316672e+17
19080.0	6.465422621321898e+17
19081.0	6.464182496351571e+17
19082.0	6.462934681823914e+17
19083.0	6.461704469392041e+17
19084.0	6.460445521783465e+17
19085.0	6.459267845106346e+17
19086.0	6.457953806712832e+17
19087.0	6.456796337493332e+17
19088.0	6.455562110413482e+17
19089.0	6.454300805606057e+17
19090.0	6.453109138827944e+17
19091.0	6.451876488806397e+17
19092.0	6.450643866047827e+17
19093.0	6.449428244900522e+17
19094.0	6.448141958119424e+17
19095.0	6.446899076093267e+17
19096.0	6.445735292349098e+17
19097.0	6.444513998405631e+17
19098.0	6.443286740161875e+17
19099.0	6.442053664418473e+17
19100.0	6.440830780833791e+17
19101.0	6.439604909506559e+17
19102.0	6.438361692635135e+17
19103.0	6.437151614260563e+17
19104.0	6.435925332590591e+17
19105.0	6.434699289995946e+17
19106.0	6.433471594845523e+17
19107.0	6.432244975534079e+17
19108.0	6.431022709910185e+17
19109.0	6.429732358149459e+17
19110.0	6.428572692512767e+17
19111.0	6.427348445080233e+17
19112.0	6.42612420813346e+17
19113.0	6.424900198378153e+17
19114.0	6.423676475932671e+17
19115.0	6.42244423066146e+17
19116.0	6.421224664072191e+17
19117.0	6.420003279252137e+17
19118.0	6.4187573731328e+17
19119.0	6.417150151491583e+17
19120.0	6.416333702955008e+17
19121.0	6.415115335237631e+17
19122.0	6.413895523980627e+17
19123.0	6.412657243105961e+17
19124.0	6.411450290885972e+17
19125.0	6.410230386655231e+17
19126.0	6.40900378202385e+17
19127.0	6.407462413751636e+17
19128.0	6.40651740909841e+17
19129.0	6.405330401492991e+17
19130.0	6.404127476503891e+17
19131.0	6.402910613143552e+17
19132.0	6.40169085571345e+17
19133.0	6.400284221068628e+17
19134.0	6.399224407130111e+17
19135.0	6.39803452363025e+17
19136.0	6.396817560305664e+17
19137.0	6.395567601090559e+17
19138.0	6.394360304238591e+17
19139.0	6.393164199886847e+17
19140.0	6.391947038031871e+17
19141.0	6.390730197041151e+17
19142.0	6.389508344556201e+17
19143.0	6.388285263839231e+17
19144.0	6.387072394155348e+17
19145.0	6.385864592588799e+17
19146.0	6.384533723152383e+17
19147.0	6.383416423481343e+17
19148.0	6.382217708175359e+17
19149.0	6.381002586849279e+17
19150.0	6.379783665483775e+17
19151.0	6.378573818494975e+17
19152.0	6.377336622546943e+17
19153.0	6.376140899876863e+17
19154.0	6.374906038059008e+17
19155.0	6.373718070657023e+17
19156.0	6.372504251662336e+17
19157.0	6.371290982121472e+17
19158.0	6.370031835982505e+17
19159.0	6.368862315828563e+17
19160.0	6.367628024436054e+17
19161.0	6.366433415353684e+17
19162.0	6.36512645554722e+17
19163.0	6.364017964613631e+17
19164.0	6.362806957899775e+17
19165.0	6.361594478985215e+17
19166.0	6.360365216563199e+17
19167.0	6.359164694211242e+17
19168.0	6.35791325930018e+17
19169.0	6.356727966466047e+17
19170.0	6.355543267824979e+17
19171.0	6.35433031635217e+17
19172.0	6.353124258217983e+17
19173.0	6.351914922934272e+17
19174.0	6.350695024295935e+17
19175.0	6.349497198881449e+17
19176.0	6.348288463383209e+17
19177.0	6.347049828788906e+17
19178.0	6.345870816925012e+17
19179.0	6.344659190153215e+17
19180.0	6.343419585276585e+17
19181.0	6.342229920579583e+17
19182.0	6.340935896705705e+17
19183.0	6.339830545208659e+17
19184.0	6.338582441274028e+17
19185.0	6.337418223419391e+17
19186.0	6.33621455184418e+17
19187.0	6.334990718249642e+17
19188.0	6.333802162946047e+17
19189.0	6.332595054138708e+17
19190.0	6.331388620614314e+17
19191.0	6.330178921125204e+17
19192.0	6.328975685058559e+17
19193.0	6.327711927282346e+17
19194.0	6.326542327436628e+17
19195.0	6.325361820303359e+17
19196.0	6.324161293757097e+17
19197.0	6.322957446021119e+17
19198.0	6.321755592676692e+17
19199.0	6.319922434364756e+17
19200.0	6.318944025575423e+17
19201.0	6.318145753754281e+17
19202.0	6.316943376820906e+17
19203.0	6.315740600729599e+17
19204.0	6.314533118629204e+17
19205.0	6.313332815080106e+17
19206.0	6.312131429400576e+17
19207.0	6.310916001191252e+17
19208.0	6.309680979989843e+17
19209.0	6.308525715576148e+17
19210.0	6.307325148484948e+17
19211.0	6.306116238224041e+17
19212.0	6.304925283778559e+17
19213.0	6.303704759489875e+17
19214.0	6.30250125848303e+17
19215.0	6.301321503528276e+17
19216.0	6.300078615909716e+17
19217.0	6.298920806951593e+17
19218.0	6.297561316982781e+17
19219.0	6.296488836945236e+17
19220.0	6.295319055346346e+17
19221.0	6.294059936470358e+17
19222.0	6.292925981917183e+17
19223.0	6.29172386992401e+17
19224.0	6.290442618404863e+17
19225.0	6.289272958440787e+17
19226.0	6.288113586405375e+17
19227.0	6.286914042724351e+17
19228.0	6.285723105755136e+17
19229.0	6.284525034274815e+17
19230.0	6.283324746104831e+17
19231.0	6.282116492951551e+17
19232.0	6.280868539312809e+17
19233.0	6.279718998026922e+17
19234.0	6.278531800279722e+17
19235.0	6.277335085656746e+17
19236.0	6.276142426925737e+17
19237.0	6.274942851787433e+17
19238.0	6.27373057909282e+17
19239.0	6.272553273611603e+17
19240.0	6.271257325950291e+17
19241.0	6.270128268946089e+17
19242.0	6.268944576937983e+17
19243.0	6.267726395168084e+17
19244.0	6.266568328959318e+17
19245.0	6.26537486492194e+17
19246.0	6.264177068168532e+17
19247.0	6.262973639862953e+17
19248.0	6.261789371837098e+17
19249.0	6.260593538017961e+17
19250.0	6.259393927927124e+17
19251.0	6.258184986907988e+17
19252.0	6.256913064219988e+17
19253.0	6.25580806574353e+17
19254.0	6.254602520013482e+17
19255.0	6.253378110401193e+17
19256.0	6.252224364325545e+17
19257.0	6.251032208911018e+17
19258.0	6.249833218878121e+17
19259.0	6.248625927618559e+17
19260.0	6.247442030788605e+17
19261.0	6.246252855427072e+17
19262.0	6.245045959830185e+17
19263.0	6.243854307033087e+17
19264.0	6.242559052830036e+17
19265.0	6.241438039102804e+17
19266.0	6.240255931842559e+17
19267.0	6.239085602187945e+17
19268.0	6.23789097493026e+17
19269.0	6.236696284758015e+17
19270.0	6.235500600535721e+17
19271.0	6.234242969938601e+17
19272.0	6.233104874209279e+17
19273.0	6.229408383063377e+17
19274.0	6.229536271586643e+17
19275.0	6.229523523698687e+17
19276.0	6.228317336939178e+17
19277.0	6.227122776091306e+17
19278.0	6.225928549389652e+17
19279.0	6.224704465534975e+17
19280.0	6.223522417694035e+17
19281.0	6.222341006688255e+17
19282.0	6.221149221071529e+17
19283.0	6.219942184266409e+17
19284.0	6.218730445646505e+17
19285.0	6.217509538278057e+17
19286.0	6.216357604840787e+17
19287.0	6.215168373555199e+17
19288.0	6.213839767644842e+17
19289.0	6.212374244971859e+17
19290.0	6.211577789284351e+17
19291.0	6.210324448062121e+17
19292.0	6.209182269876906e+17
19293.0	6.207983053351593e+17
19294.0	6.206783998306985e+17
19295.0	6.205588086893225e+17
19296.0	6.204389339430912e+17
19297.0	6.203187402200403e+17
19298.0	6.201984603040426e+17
19299.0	6.200790741942271e+17
19300.0	6.199590255940948e+17
19301.0	6.198387886697129e+17
19302.0	6.197186463967913e+17
19303.0	6.19596263526673e+17
19304.0	6.194766299529215e+17
19305.0	6.19357723042338e+17
19306.0	6.192375536462506e+17
19307.0	6.191160308880724e+17
19308.0	6.189963053192531e+17
19309.0	6.188746887484756e+17
19310.0	6.187528248535721e+17
19311.0	6.186345124156756e+17
19312.0	6.185129286303744e+17
19313.0	6.183790972676778e+17
19314.0	6.182613394565801e+17
19315.0	6.181413850884778e+17
19316.0	6.180300498053801e+17
19317.0	6.17907794092578e+17
19318.0	6.177864514797565e+17
19319.0	6.176656282615808e+17
19320.0	6.175406531018752e+17
19321.0	6.174228036452351e+17
19322.0	6.172973866855082e+17
19323.0	6.171785380058452e+17
19324.0	6.170577618337791e+17
19325.0	6.169349597429759e+17
19326.0	6.168137969958911e+17
19327.0	6.166912853606399e+17
19328.0	6.165693111555412e+17
19329.0	6.164468536967165e+17
19330.0	6.163233826843305e+17
19331.0	6.162005806634324e+17
19332.0	6.160783264186368e+17
19333.0	6.159552920332969e+17
19334.0	6.158274697800361e+17
19335.0	6.157085878954665e+17
19336.0	6.155847059810985e+17
19337.0	6.154602913901225e+17
19338.0	6.15332305698816e+17
19339.0	6.152122101224788e+17
19340.0	6.150869220676948e+17
19341.0	6.149629276760746e+17
19342.0	6.148280199151616e+17
19343.0	6.1471260685981e+17
19344.0	6.145870054206121e+17
19345.0	6.144202041720831e+17
19346.0	6.143244921121449e+17
19347.0	6.142070073502378e+17
19348.0	6.140819317369514e+17
19349.0	6.139542313282218e+17
19350.0	6.138267372792489e+17
19351.0	6.136987912940202e+17
19352.0	6.135695506669568e+17
19353.0	6.134424322179071e+17
19354.0	6.133129412608e+17
19355.0	6.131817193144319e+17
19356.0	6.13053586542865e+17
19357.0	6.129228017128788e+17
19358.0	6.127897085476863e+17
19359.0	6.126462630712659e+17
19360.0	6.125272280246954e+17
19361.0	6.123929317933055e+17
19362.0	6.122617478053887e+17
19363.0	6.121274633879551e+17
19364.0	6.119921878564863e+17
19365.0	6.118567899212457e+17
19366.0	6.117206034568532e+17
19367.0	6.115833665290239e+17
19368.0	6.114452537606144e+17
19369.0	6.113014434496512e+17
19370.0	6.111347235706195e+17
19371.0	6.110239220127059e+17
19372.0	6.108829531329876e+17
19373.0	6.107392212555092e+17
19374.0	6.105951454451027e+17
19375.0	6.104492094608724e+17
19376.0	6.103020248323412e+17
19377.0	6.10153521095202e+17
19378.0	6.100034648364372e+17
19379.0	6.098516845090132e+17
19380.0	6.096982600843264e+17
19381.0	6.095429689846441e+17
19382.0	6.093837369169238e+17
19383.0	6.092241120526335e+17
19384.0	6.090649477229225e+17
19385.0	6.089010313865897e+17
19386.0	6.087348012624553e+17
19387.0	6.085658221914793e+17
19388.0	6.083940054641322e+17
19389.0	6.082191619173033e+17
19390.0	6.08040852197649e+17
19391.0	6.078080546242557e+17
19392.0	6.076741216195924e+17
19393.0	6.07484989477137e+17
19394.0	6.072912819781631e+17
19395.0	6.070931780097364e+17
19396.0	6.068900303907498e+17
19397.0	6.066816667353087e+17
19398.0	6.064669084439892e+17
19399.0	6.062334647380648e+17
19400.0	6.060191448214186e+17
19401.0	6.057860762959871e+17
19402.0	6.055441946989907e+17
19403.0	6.052934276786858e+17
19404.0	6.050333608378367e+17
19405.0	6.047632232633683e+17
19406.0	6.044831835663018e+17
19407.0	6.041914493108223e+17
19408.0	6.0387252778653e+17
19409.0	6.03564603937041e+17
19410.0	6.03233467830545e+17
19411.0	6.028827625695914e+17
19412.0	6.02513587970594e+17
19413.0	6.021247081818793e+17
19414.0	6.017129304293375e+17
19415.0	6.012755421167615e+17
19416.0	6.008074795308372e+17
19417.0	6.003184773016234e+17
19418.0	5.997923162652672e+17
19419.0	5.992320707067904e+17
19420.0	5.986327187161087e+17
19421.0	5.97988360655121e+17
19422.0	5.972954806484991e+17
19423.0	5.965486904137043e+17
19424.0	5.957353954344959e+17
19425.0	5.948604299258538e+17
19426.0	5.939076483339603e+17
19427.0	5.92868795359778e+17
19428.0	5.917468821640532e+17
19429.0	5.905109006767443e+17
19430.0	5.89157210591505e+17
19431.0	5.876660496760832e+17
19432.0	5.860524268279123e+17
19433.0	5.842309149797036e+17
19434.0	5.82242366792226e+17
19435.0	5.800383232344061e+17
19436.0	5.775997264374442e+17
19437.0	5.748665152962558e+17
19438.0	5.7174150750754106e+17
19439.0	5.685348524883968e+17
19440.0	5.648568067730089e+17
19441.0	5.606032153072978e+17
19442.0	5.5578819919435104e+17
19443.0	5.5083839667568634e+17
19444.0	5.451099302177448e+17
19445.0	5.3824123823281536e+17
19446.0	5.3096471267901434e+17
19447.0	5.223019226770086e+17
19448.0	5.121453798894255e+17
19449.0	4.974025533729453e+17
19450.0	4.616333730425491e+17
19451.0	4.484936875289254e+17
19452.0	4.821687097535152e+17
19453.0	5.058943439776432e+17
19454.0	5.169826966274043e+17
19455.0	5.2628328298141e+17
19456.0	5.337840871975597e+17
19457.0	5.4076139271181606e+17
19458.0	5.4680001473850016e+17
19459.0	5.5186506897162246e+17
19460.0	5.564956158197758e+17
19461.0	5.608543390531583e+17
19462.0	5.6456421499207686e+17
19463.0	5.67787779347797e+17
19464.0	5.707244777766911e+17
19465.0	5.7339542132927155e+17
19466.0	5.757348425498622e+17
19467.0	5.778229441505961e+17
19468.0	5.796746472281428e+17
19469.0	5.813046419827369e+17
19470.0	5.828333496085161e+17
19471.0	5.841513498716842e+17
19472.0	5.853279219089405e+17
19473.0	5.863879584950953e+17
19474.0	5.873330713613652e+17
19475.0	5.881663281517908e+17
19476.0	5.889359897165824e+17
19477.0	5.896153122646697e+17
19478.0	5.902238075584512e+17
19479.0	5.90771880337954e+17
19480.0	5.912563316075178e+17
19481.0	5.916913123196927e+17
19482.0	5.920803126247424e+17
19483.0	5.924276421001215e+17
19484.0	5.927373695702355e+17
19485.0	5.930141274341376e+17
19486.0	5.932590983457449e+17
19487.0	5.934802915382612e+17
19488.0	5.936738221774163e+17
19489.0	5.93842320581154e+17
19490.0	5.93964121072162e+17
19491.0	5.941187588390911e+17
19492.0	5.942313992497833e+17
19493.0	5.943272997038762e+17
19494.0	5.944092783542271e+17
19495.0	5.94471627661858e+17
19496.0	5.945237792183636e+17
19497.0	5.945782856668499e+17
19498.0	5.946112472339796e+17
19499.0	5.945521476730877e+17
19500.0	5.946574442070016e+17
19501.0	5.946663550058495e+17
19502.0	5.946677337434794e+17
19503.0	5.946624474524329e+17
19504.0	5.946488675543721e+17
19505.0	5.946334243367593e+17
19506.0	5.946105908953087e+17
19507.0	5.945822945826134e+17
19508.0	5.945503104281257e+17
19509.0	5.945136447313236e+17
19510.0	5.944689148559359e+17
19511.0	5.943795706582356e+17
19512.0	5.943697325686783e+17
19513.0	5.942987981499049e+17
19514.0	5.942579589808127e+17
19515.0	5.942063953958228e+17
19516.0	5.94155994681617e+17
19517.0	5.94092341924113e+17
19518.0	5.940284992345428e+17
19519.0	5.939612335734783e+17
19520.0	5.938913413693439e+17
19521.0	5.938206644808362e+17
19522.0	5.937466478777684e+17
19523.0	5.936728331605332e+17
19524.0	5.935963750531072e+17
19525.0	5.935166158187178e+17
19526.0	5.934386049799507e+17
19527.0	5.933579420128596e+17
19528.0	5.932758882145619e+17
19529.0	5.931926669317462e+17
19530.0	5.931083847696383e+17
19531.0	5.930229405756073e+17
19532.0	5.929363432275967e+17
19533.0	5.928488942261588e+17
19534.0	5.927604180396713e+17
19535.0	5.926708142844586e+17
19536.0	5.925801727885311e+17
19537.0	5.924900918613331e+17
19538.0	5.923977671213056e+17
19539.0	5.922948789567488e+17
19540.0	5.922123474272255e+17
19541.0	5.92119232340514e+17
19542.0	5.920247936013652e+17
19543.0	5.919299807302995e+17
19544.0	5.918345834528768e+17
19545.0	5.917322217433769e+17
19546.0	5.916237810193748e+17
19547.0	5.915434695349588e+17
19548.0	5.91447161114897e+17
19549.0	5.913474475491327e+17
19550.0	5.912519637292372e+17
19551.0	5.9115343722141e+17
19552.0	5.910544409515348e+17
19553.0	5.909547463999487e+17
19554.0	5.908546973597695e+17
19555.0	5.907551547817983e+17
19556.0	5.906551472652288e+17
19557.0	5.905544459408726e+17
19558.0	5.904535799900842e+17
19559.0	5.903512969237843e+17
19560.0	5.902504101412863e+17
19561.0	5.901487300061865e+17
19562.0	5.90047305933346e+17
19563.0	5.899443052915369e+17
19564.0	5.898428848537599e+17
19565.0	5.897404103873875e+17
19566.0	5.896370571444223e+17
19567.0	5.895340323154601e+17
19568.0	5.894309369522857e+17
19569.0	5.893280678019072e+17
19570.0	5.892248387802452e+17
19571.0	5.891211728519168e+17
19572.0	5.890167211207337e+17
19573.0	5.889131738912084e+17
19574.0	5.88807019831842e+17
19575.0	5.88704811983394e+17
19576.0	5.886008515450196e+17
19577.0	5.884914315908436e+17
19578.0	5.883909120895658e+17
19579.0	5.882864923049983e+17
19580.0	5.881818128930131e+17
19581.0	5.880771162843818e+17
19582.0	5.879724553273343e+17
19583.0	5.878673573937151e+17
19584.0	5.877621523655337e+17
19585.0	5.87654551970338e+17
19586.0	5.875476191685289e+17
19587.0	5.874439627472896e+17
19588.0	5.873302563542356e+17
19589.0	5.872325406752767e+17
19590.0	5.871277017399295e+17
19591.0	5.870235674476543e+17
19592.0	5.869177527074815e+17
19593.0	5.868114635216212e+17
19594.0	5.867009334749865e+17
19595.0	5.865995431662932e+17
19596.0	5.864778952081407e+17
19597.0	5.863875271109289e+17
19598.0	5.862770095773012e+17
19599.0	5.861756723265535e+17
19600.0	5.86069406978321e+17
19601.0	5.859618233603412e+17
19602.0	5.858560672705193e+17
19603.0	5.857422465826815e+17
19604.0	5.856430175988394e+17
19605.0	5.855315866157055e+17
19606.0	5.854302244787542e+17
19607.0	5.853248591582548e+17
19608.0	5.852181891295914e+17
19609.0	5.851106903064573e+17
19610.0	5.850052678735187e+17
19611.0	5.848985814171648e+17
19612.0	5.847920742673065e+17
19613.0	5.846849578947924e+17
19614.0	5.845778865411412e+17
19615.0	5.844721152120148e+17
19616.0	5.843649979307348e+17
19617.0	5.842586549878781e+17
19618.0	5.841426005535402e+17
19619.0	5.840321283183956e+17
19620.0	5.839262846375252e+17
19621.0	5.838317211178324e+17
19622.0	5.837249418275497e+17
19623.0	5.8361814974464e+17
19624.0	5.83511128023586e+17
19625.0	5.834045152471721e+17
19626.0	5.832977124687871e+17
19627.0	5.831908838954324e+17
19628.0	5.830827123059369e+17
19629.0	5.829754512998399e+17
19630.0	5.828695416984916e+17
19631.0	5.82699458896418e+17
19632.0	5.826566183452672e+17
19633.0	5.825490003339945e+17
19634.0	5.824428325033299e+17
19635.0	5.823351466841428e+17
19636.0	5.822292063245652e+17
19637.0	5.821136525503146e+17
19638.0	5.820152682293929e+17
19639.0	5.819081077467818e+17
19640.0	5.818003440533504e+17
19641.0	5.816848320823295e+17
19642.0	5.815877232492543e+17
19643.0	5.81480351863057e+17
19644.0	5.813730621958825e+17
19645.0	5.812624296684202e+17
19646.0	5.811606429979988e+17
19647.0	5.810538092516692e+17
19648.0	5.809469763442003e+17
19649.0	5.808400832484694e+17
19650.0	5.807333328289791e+17
19651.0	5.806265176074922e+17
19652.0	5.80519713640721e+17
19653.0	5.80412872134929e+17
19654.0	5.803061235329705e+17
19655.0	5.80199260426513e+17
19656.0	5.80092411510784e+17
19657.0	5.79985736868386e+17
19658.0	5.798790454487722e+17
19659.0	5.797722670672554e+17
19660.0	5.796655639734954e+17
19661.0	5.795588371819177e+17
19662.0	5.794521231829674e+17
19663.0	5.793446005222057e+17
19664.0	5.792384800871763e+17
19665.0	5.791320454987775e+17
