# Flux units: erg / (cm m2 s)
# Wavelength units: Angstrom
wave	flux
19000.0	5.09528009412881e+17
19001.0	5.094092847448062e+17
19002.0	5.093454885421055e+17
19003.0	5.0925407913902074e+17
19004.0	5.0915276579580576e+17
19005.0	5.090508040131924e+17
19006.0	5.0896522350428154e+17
19007.0	5.088891505737727e+17
19008.0	5.0879372526441805e+17
19009.0	5.0866278678309536e+17
19010.0	5.085780653375487e+17
19011.0	5.084956158765738e+17
19012.0	5.082685841429844e+17
19013.0	5.083473640073897e+17
19014.0	5.0824608736433485e+17
19015.0	5.0815380205076474e+17
19016.0	5.080715270029311e+17
19017.0	5.079879737409535e+17
19018.0	5.078925900251134e+17
19019.0	5.078077544944981e+17
19020.0	5.0771395636538016e+17
19021.0	5.0762610659819514e+17
19022.0	5.0753773331196576e+17
19023.0	5.0741368649154554e+17
19024.0	5.0729737816200525e+17
19025.0	5.072380255447721e+17
19026.0	5.0712194839128736e+17
19027.0	5.069675459947178e+17
19028.0	5.0696415056581965e+17
19029.0	5.068783066546175e+17
19030.0	5.067876617333417e+17
19031.0	5.06702266962193e+17
19032.0	5.066019491370324e+17
19033.0	5.064636393062398e+17
19034.0	5.06304013533184e+17
19035.0	5.056043304353791e+17
19036.0	4.992681784639486e+17
19037.0	5.055740512654676e+17
19038.0	5.0594959358689274e+17
19039.0	5.059365321747114e+17
19040.0	5.058655960083114e+17
19041.0	5.057877250495828e+17
19042.0	5.038919664009191e+17
19043.0	5.056302486476117e+17
19044.0	5.055431061798911e+17
19045.0	5.054342305065641e+17
19046.0	5.053528410161151e+17
19047.0	5.052570060630698e+17
19048.0	5.048981521782099e+17
19049.0	5.012765164262694e+17
19050.0	5.048614931922941e+17
19051.0	5.0384936660282e+17
19052.0	5.04216989868578e+17
19053.0	5.0465132284040525e+17
19054.0	5.046151463392596e+17
19055.0	5.039707255734272e+17
19056.0	5.0429591891039514e+17
19057.0	5.0438000624708256e+17
19058.0	5.0236497186870304e+17
19059.0	5.0344633068857965e+17
19060.0	5.0411233743994874e+17
19061.0	5.040169296767657e+17
19062.0	5.039273369665536e+17
19063.0	5.038470430283093e+17
19064.0	5.037482368303102e+17
19065.0	5.0364941895816525e+17
19066.0	5.028642424531635e+17
19067.0	5.034715225172649e+17
19068.0	5.034026178620074e+17
19069.0	5.033115544890025e+17
19070.0	5.03210302312721e+17
19071.0	5.03118668234752e+17
19072.0	5.023066643322188e+17
19073.0	5.029571640426494e+17
19074.0	5.0285459059070285e+17
19075.0	5.0277478109457056e+17
19076.0	5.026811719188479e+17
19077.0	5.025897826484223e+17
19078.0	5.024957453041662e+17
19079.0	5.0241024238987936e+17
19080.0	5.0232272634948256e+17
19081.0	5.022262837815978e+17
19082.0	5.0214637061625165e+17
19083.0	5.020397084868607e+17
19084.0	5.0193478531590816e+17
19085.0	5.018557054888617e+17
19086.0	5.0071290745541926e+17
19087.0	5.0000340598128435e+17
19088.0	5.005557626830832e+17
19089.0	5.014301896430934e+17
19090.0	5.0138901241309856e+17
19091.0	5.0119472952552186e+17
19092.0	4.997271386412415e+17
19093.0	5.0114905264619514e+17
19094.0	5.010697254950228e+17
19095.0	5.009783850183338e+17
19096.0	5.008961380024319e+17
19097.0	5.008074274242559e+17
19098.0	4.999401287537998e+17
19099.0	4.996840112695988e+17
19100.0	5.0052323068258976e+17
19101.0	5.004394672160766e+17
19102.0	5.0034831128876365e+17
19103.0	5.002654493878953e+17
19104.0	5.001843454596436e+17
19105.0	4.9837482526638586e+17
19106.0	4.9996916151637325e+17
19107.0	4.994710140267171e+17
19108.0	4.991068894396419e+17
19109.0	4.9952129366534816e+17
19110.0	4.9953473095707296e+17
19111.0	4.9903454175013466e+17
19112.0	4.9886646725072115e+17
19113.0	4.993774911837525e+17
19114.0	4.989461577684303e+17
19115.0	4.991217907531774e+17
19116.0	4.9910278601222816e+17
19117.0	4.9900972684957005e+17
19118.0	4.98863112856098e+17
19119.0	4.975571594029722e+17
19120.0	4.986601583149055e+17
19121.0	4.9860117241965216e+17
19122.0	4.9858286700898976e+17
19123.0	4.9850357453073056e+17
19124.0	4.983571894763518e+17
19125.0	4.9832032336172365e+17
19126.0	4.982141432277675e+17
19127.0	4.9799051111738016e+17
19128.0	4.980197654091092e+17
19129.0	4.979601379950592e+17
19130.0	4.9788507875792205e+17
19131.0	4.9779791098456736e+17
19132.0	4.977032215658495e+17
19133.0	4.9761460263321594e+17
19134.0	4.9752620012666874e+17
19135.0	4.974435014541311e+17
19136.0	4.973531582431232e+17
19137.0	4.9724725724009805e+17
19138.0	4.9717666850187936e+17
19139.0	4.9709346210884256e+17
19140.0	4.970069061446314e+17
19141.0	4.9691496008034976e+17
19142.0	4.968213395101012e+17
19143.0	4.9673264340227405e+17
19144.0	4.966411100575061e+17
19145.0	4.965589809714515e+17
19146.0	4.963945049751552e+17
19147.0	4.9637675957398176e+17
19148.0	4.9567191818130874e+17
19149.0	4.954660697800705e+17
19150.0	4.9612165822982816e+17
19151.0	4.9602815635838285e+17
19152.0	4.959314062082047e+17
19153.0	4.945269813324437e+17
19154.0	4.9564320984814944e+17
19155.0	4.9566284806881274e+17
19156.0	4.9556343306758816e+17
19157.0	4.95021698370766e+17
19158.0	4.943645740367887e+17
19159.0	4.952520134754303e+17
19160.0	4.9517824811117216e+17
19161.0	4.950418871637332e+17
19162.0	4.9471142620037114e+17
19163.0	4.947892023678293e+17
19164.0	4.948219071037438e+17
19165.0	4.933341449726612e+17
19166.0	4.946579779048789e+17
19167.0	4.9457544406848845e+17
19168.0	4.945037097260371e+17
19169.0	4.9442616396567885e+17
19170.0	4.943429392575146e+17
19171.0	4.942442021257216e+17
19172.0	4.9415875443643725e+17
19173.0	4.94087461474577e+17
19174.0	4.939975166525439e+17
19175.0	4.9391177969609376e+17
19176.0	4.9382756520209056e+17
19177.0	4.9371200646458016e+17
19178.0	4.936177933090815e+17
19179.0	4.935339934919338e+17
19180.0	4.9346580634228045e+17
19181.0	4.9337236927283194e+17
19182.0	4.932775967369898e+17
19183.0	4.9321011066525005e+17
19184.0	4.931275219533823e+17
19185.0	4.930298938654719e+17
19186.0	4.929476873945087e+17
19187.0	4.9284828371790496e+17
19188.0	4.92768232280337e+17
19189.0	4.926717284756138e+17
19190.0	4.9257768637781325e+17
19191.0	4.924780839611049e+17
19192.0	4.923796433666047e+17
19193.0	4.921035420510893e+17
19194.0	4.9188621237179757e+17
19195.0	4.920203544625152e+17
19196.0	4.918320274167125e+17
19197.0	4.9152309588568736e+17
19198.0	4.907897683181566e+17
19199.0	4.884755817780563e+17
19200.0	4.886446264199852e+17
19201.0	4.90602808685363e+17
19202.0	4.9111967381585914e+17
19203.0	4.91214461870626e+17
19204.0	4.9124350127418016e+17
19205.0	4.9120733798509216e+17
19206.0	4.9114922296715936e+17
19207.0	4.9105175719881376e+17
19208.0	4.909841688559615e+17
19209.0	4.9092467293334176e+17
19210.0	4.9083513509860685e+17
19211.0	4.9076099909768525e+17
19212.0	4.90670447080243e+17
19213.0	4.9055601206667936e+17
19214.0	4.90458566570803e+17
19215.0	4.904026868372821e+17
19216.0	4.903323621305003e+17
19217.0	4.902458480394238e+17
19218.0	4.900993407210836e+17
19219.0	4.900478371146409e+17
19220.0	4.899879074310826e+17
19221.0	4.898917432251732e+17
19222.0	4.898104805425151e+17
19223.0	4.8973770971764045e+17
19224.0	4.8964446922123936e+17
19225.0	4.895615219662846e+17
19226.0	4.89484689936657e+17
19227.0	4.8939759626267296e+17
19228.0	4.893150775257771e+17
19229.0	4.8921519262269434e+17
19230.0	4.891394569841321e+17
19231.0	4.890584526706005e+17
19232.0	4.889707046152875e+17
19233.0	4.888742547772755e+17
19234.0	4.88791179526144e+17
19235.0	4.887059282001919e+17
19236.0	4.886238474884436e+17
19237.0	4.885288921508522e+17
19238.0	4.884369493022036e+17
19239.0	4.883637627518975e+17
19240.0	4.882750935575209e+17
19241.0	4.881903968583678e+17
19242.0	4.8809569171101005e+17
19243.0	4.8800386008132256e+17
19244.0	4.8793161759894176e+17
19245.0	4.878488174941524e+17
19246.0	4.877635526066174e+17
19247.0	4.8767721558507514e+17
19248.0	4.8758714793983994e+17
19249.0	4.874574994866175e+17
19250.0	4.871395554448726e+17
19251.0	4.870484186016422e+17
19252.0	4.872118766403583e+17
19253.0	4.871544525641044e+17
19254.0	4.8707267971426976e+17
19255.0	4.869630222925823e+17
19256.0	4.868927890216277e+17
19257.0	4.8681090229643936e+17
19258.0	4.867208339521536e+17
19259.0	4.866143386162516e+17
19260.0	4.8628185725665254e+17
19261.0	4.8645260303837856e+17
19262.0	4.8635151157384525e+17
19263.0	4.8625724808669856e+17
19264.0	4.861546456940543e+17
19265.0	4.860912640983039e+17
19266.0	4.8599555958811296e+17
19267.0	4.859515762988372e+17
19268.0	4.858610068750336e+17
19269.0	4.85777878426146e+17
19270.0	4.856875905100458e+17
19271.0	4.855736562963798e+17
19272.0	4.8551660593261216e+17
19273.0	4.8541561834700794e+17
19274.0	4.853035636708692e+17
19275.0	4.8526629741963936e+17
19276.0	4.851780387078143e+17
19277.0	4.850945406009343e+17
19278.0	4.849724113463977e+17
19279.0	4.8491075913209165e+17
19280.0	4.8482610563426976e+17
19281.0	4.8473680107274234e+17
19282.0	4.846480702920021e+17
19283.0	4.8454653290304845e+17
19284.0	4.84447337124113e+17
19285.0	4.843551881953279e+17
19286.0	4.8423495693325645e+17
19287.0	4.8400761761737376e+17
19288.0	4.812414799314929e+17
19289.0	4.794963393686156e+17
19290.0	4.837108716579498e+17
19291.0	4.8377636214975155e+17
19292.0	4.837681452985002e+17
19293.0	4.836988312092671e+17
19294.0	4.8361214452258125e+17
19295.0	4.835398855426047e+17
19296.0	4.826138149563075e+17
19297.0	4.8323307234481555e+17
19298.0	4.832832757170175e+17
19299.0	4.822565322577247e+17
19300.0	4.831100302699179e+17
19301.0	4.8303379956367354e+17
19302.0	4.829463430124885e+17
19303.0	4.8284519835019936e+17
19304.0	4.827689176618324e+17
19305.0	4.8267650686866765e+17
19306.0	4.8258664055002445e+17
19307.0	4.8247497769178445e+17
19308.0	4.8237546076897274e+17
19309.0	4.8218711352060576e+17
19310.0	4.820620306371924e+17
19311.0	4.82024081133841e+17
19312.0	4.8188704602193914e+17
19313.0	4.814337819191979e+17
19314.0	4.6060148338197146e+17
19315.0	4.6190558029634515e+17
19316.0	4.8010290395436563e+17
19317.0	4.814755843801087e+17
19318.0	4.8148800734931616e+17
19319.0	4.8143636980476576e+17
19320.0	4.810505438188876e+17
19321.0	4.8054220892405766e+17
19322.0	4.8119996925433165e+17
19323.0	4.811082891089236e+17
19324.0	4.81016462582306e+17
19325.0	4.8091436371585696e+17
19326.0	4.8086148773314554e+17
19327.0	4.807972374271317e+17
19328.0	4.7918400136369664e+17
19329.0	4.8064914703865165e+17
19330.0	4.8056619775645005e+17
19331.0	4.8048049959731194e+17
19332.0	4.803980307027285e+17
19333.0	4.8031371610466976e+17
19334.0	4.801919642675886e+17
19335.0	4.770102901735464e+17
19336.0	4.800362573026647e+17
19337.0	4.7997745462859085e+17
19338.0	4.7986722202801466e+17
19339.0	4.7979983445251405e+17
19340.0	4.796866829658794e+17
19341.0	4.784762805114224e+17
19342.0	4.791898659094541e+17
19343.0	4.794597938386261e+17
19344.0	4.7822361284225894e+17
19345.0	4.786159781675021e+17
19346.0	4.7906455667343354e+17
19347.0	4.7766703380452685e+17
19348.0	4.790410006932138e+17
19349.0	4.7895186977587194e+17
19350.0	4.783155582074881e+17
19351.0	4.787711407816704e+17
19352.0	4.7714452418942035e+17
19353.0	4.78617493709346e+17
19354.0	4.785383958467924e+17
19355.0	4.784415829218645e+17
19356.0	4.783650052767743e+17
19357.0	4.782829320448681e+17
19358.0	4.781930653067947e+17
19359.0	4.777762711666674e+17
19360.0	4.768058773427537e+17
19361.0	4.779368419164159e+17
19362.0	4.7785565927505914e+17
19363.0	4.777717587247103e+17
19364.0	4.776876156037802e+17
19365.0	4.7759796613065376e+17
19366.0	4.7750802892827296e+17
19367.0	4.774252122559829e+17
19368.0	4.773453000693076e+17
19369.0	4.7725094668424525e+17
19370.0	4.7717031042088954e+17
19371.0	4.770792176877566e+17
19372.0	4.7699819380080634e+17
19373.0	4.769057218407082e+17
19374.0	4.7682515492317856e+17
19375.0	4.767450678340266e+17
19376.0	4.7666118937367885e+17
19377.0	4.765750531194879e+17
19378.0	4.7648932077677216e+17
19379.0	4.7640295299700045e+17
19380.0	4.76300178288367e+17
19381.0	4.7622004988532045e+17
19382.0	4.7612827103395834e+17
19383.0	4.76039826444561e+17
19384.0	4.75944727801583e+17
19385.0	4.758723994757802e+17
19386.0	4.757785648562176e+17
19387.0	4.756783519585621e+17
19388.0	4.755694214796628e+17
19389.0	4.75429345567266e+17
19390.0	4.7505368881124685e+17
19391.0	4.6916706486626554e+17
19392.0	4.73982891947895e+17
19393.0	4.750036678912682e+17
19394.0	4.750184079338153e+17
19395.0	4.745069589080758e+17
19396.0	4.747815629269679e+17
19397.0	4.748048099267925e+17
19398.0	4.743152042770435e+17
19399.0	4.7403866759277216e+17
19400.0	4.741805602679472e+17
19401.0	4.744523001364479e+17
19402.0	4.743672301442389e+17
19403.0	4.742769162933589e+17
19404.0	4.741779115649706e+17
19405.0	4.740805065441279e+17
19406.0	4.739923264755027e+17
19407.0	4.7334630984690246e+17
19408.0	4.737332299169792e+17
19409.0	4.7367926376475296e+17
19410.0	4.7360046104139085e+17
19411.0	4.735029854863359e+17
19412.0	4.733969651553622e+17
19413.0	4.7272874492996275e+17
19414.0	4.731887612329983e+17
19415.0	4.7307062467624954e+17
19416.0	4.729118774001663e+17
19417.0	4.728086780182527e+17
19418.0	4.727363173264042e+17
19419.0	4.7262861745629856e+17
19420.0	4.725125189118634e+17
19421.0	4.7238948005259936e+17
19422.0	4.7224884406080845e+17
19423.0	4.7212271763455994e+17
19424.0	4.7198244410053965e+17
19425.0	4.718225254252543e+17
19426.0	4.7166664523557536e+17
19427.0	4.714936641694377e+17
19428.0	4.7128171438407674e+17
19429.0	4.710256740750676e+17
19430.0	4.703280932323328e+17
19431.0	4.6957057935059635e+17
19432.0	4.702457273079124e+17
19433.0	4.7007507764565325e+17
19434.0	4.6973904371056634e+17
19435.0	4.690133283154601e+17
19436.0	4.683190941777919e+17
19437.0	4.677628847281491e+17
19438.0	4.5586060900215674e+17
19439.0	4.644657696866296e+17
19440.0	4.6658963856424954e+17
19441.0	4.6606491897036794e+17
19442.0	4.651907456259413e+17
19443.0	4.6404987403632634e+17
19444.0	4.6258762858277536e+17
19445.0	4.607152227003051e+17
19446.0	4.583011831338325e+17
19447.0	4.549864016838654e+17
19448.0	4.502702850222764e+17
19449.0	4.427990142287872e+17
19450.0	4.2719121667085523e+17
19451.0	4.1369427718963354e+17
19452.0	4.367691265605629e+17
19453.0	4.4679701117009946e+17
19454.0	4.523729096103249e+17
19455.0	4.560028168093696e+17
19456.0	4.584250198895275e+17
19457.0	4.5925322757679795e+17
19458.0	4.104256492317851e+17
19459.0	4.5454562318528416e+17
19460.0	4.634658877385385e+17
19461.0	4.647126965420031e+17
19462.0	4.6542915384989e+17
19463.0	4.659421845476692e+17
19464.0	4.6631767933364896e+17
19465.0	4.6661530455900154e+17
19466.0	4.668700987402923e+17
19467.0	4.6707534931339936e+17
19468.0	4.672344990329514e+17
19469.0	4.6624960319323974e+17
19470.0	4.6744229429029536e+17
19471.0	4.6751607048983885e+17
19472.0	4.6756469212009805e+17
19473.0	4.675905200149843e+17
19474.0	4.664746847851844e+17
19475.0	4.6752605551984634e+17
19476.0	4.67599087579955e+17
19477.0	4.67598718481203e+17
19478.0	4.6758413495610016e+17
19479.0	4.66467166145739e+17
19480.0	4.6751730319578445e+17
19481.0	4.6746975747440634e+17
19482.0	4.674324438974464e+17
19483.0	4.6739095845601274e+17
19484.0	4.673346549579776e+17
19485.0	4.672805831092906e+17
19486.0	4.660762592499062e+17
19487.0	4.6716302711412045e+17
19488.0	4.6710307778723834e+17
19489.0	4.6699302519220896e+17
19490.0	4.6684487167945376e+17
19491.0	4.6689261355444896e+17
19492.0	4.66836929974545e+17
19493.0	4.667599648456704e+17
19494.0	4.6667881897437856e+17
19495.0	4.6657537219843405e+17
19496.0	4.663882780682921e+17
19497.0	4.661582973195604e+17
19498.0	4.6344481674362797e+17
19499.0	4.569028978103629e+17
19500.0	4.656876115460095e+17
19501.0	4.6604102115437216e+17
19502.0	4.660519216611328e+17
19503.0	4.6601092373763405e+17
19504.0	4.659442707245738e+17
19505.0	4.658421760524287e+17
19506.0	4.6578637810783565e+17
19507.0	4.656872674732713e+17
19508.0	4.655562595762176e+17
19509.0	4.653216183965013e+17
19510.0	4.6420270510680704e+17
19511.0	4.3195075961813395e+17
19512.0	4.6149103681972845e+17
19513.0	4.6176549389816966e+17
19514.0	4.623325664553626e+17
19515.0	4.6482333850664954e+17
19516.0	4.6479252141724986e+17
19517.0	4.649039976988671e+17
19518.0	4.645422736517796e+17
19519.0	4.644601240835407e+17
19520.0	4.636269814480881e+17
19521.0	4.6467287232457376e+17
19522.0	4.6442645325960486e+17
19523.0	4.6424447778816083e+17
19524.0	4.635919351720641e+17
19525.0	4.6434386363897165e+17
19526.0	4.6428717356591776e+17
19527.0	4.64212765774097e+17
19528.0	4.640483937266344e+17
19529.0	4.6392432649393517e+17
19530.0	4.6397709705980576e+17
19531.0	4.638971516682239e+17
19532.0	4.638170034820436e+17
19533.0	4.6373317304647674e+17
19534.0	4.6366085660453536e+17
19535.0	4.6358054169477114e+17
19536.0	4.634957700573866e+17
19537.0	4.634058121631061e+17
19538.0	4.622780018458637e+17
19539.0	4.632174474384726e+17
19540.0	4.6317520904956576e+17
19541.0	4.6285665110152525e+17
19542.0	4.6291786962479776e+17
19543.0	4.6182928723476544e+17
19544.0	4.6278625676929696e+17
19545.0	4.626976635617279e+17
19546.0	4.6261866608285005e+17
19547.0	4.626196123178325e+17
19548.0	4.625434502583636e+17
19549.0	4.6244932504343885e+17
19550.0	4.623777024092842e+17
19551.0	4.6230814609899514e+17
19552.0	4.62221925609199e+17
19553.0	4.621434672381951e+17
19554.0	4.620556162826239e+17
19555.0	4.6185352884387866e+17
19556.0	4.618075935954259e+17
19557.0	4.618099610703189e+17
19558.0	4.617417776256341e+17
19559.0	4.616647167967232e+17
19560.0	4.611859943172772e+17
19561.0	4.6150073055532365e+17
19562.0	4.610352766167718e+17
19563.0	4.6134743783178234e+17
19564.0	4.612541518271827e+17
19565.0	4.6118172423618554e+17
19566.0	4.6109506984564045e+17
19567.0	4.610257234602665e+17
19568.0	4.609427863415466e+17
19569.0	4.608637349658623e+17
19570.0	4.607754301166932e+17
19571.0	4.6069786590139725e+17
19572.0	4.6062110860028576e+17
19573.0	4.604109514604542e+17
19574.0	4.604065486995454e+17
19575.0	4.603866728016553e+17
19576.0	4.6023918646285645e+17
19577.0	4.60032436006639e+17
19578.0	4.601423637512192e+17
19579.0	4.6006471362259616e+17
19580.0	4.599797773587796e+17
19581.0	4.598966970744831e+17
19582.0	4.5982618397354656e+17
19583.0	4.597484375856467e+17
19584.0	4.596577109453482e+17
19585.0	4.595704576081918e+17
19586.0	4.594821863134549e+17
19587.0	4.594089851529898e+17
19588.0	4.5929887558533114e+17
19589.0	4.5925794484060154e+17
19590.0	4.591633957912576e+17
19591.0	4.591036007448575e+17
19592.0	4.590261043374762e+17
19593.0	4.588433179672574e+17
19594.0	4.587436385850707e+17
19595.0	4.587856608275114e+17
19596.0	4.586831473541119e+17
19597.0	4.5862486910784845e+17
19598.0	4.584713468160681e+17
19599.0	4.584622570602495e+17
19600.0	4.583814063281492e+17
19601.0	4.582975304542889e+17
19602.0	4.5820400886961485e+17
19603.0	4.5807558941736954e+17
19604.0	4.5803739811239245e+17
19605.0	4.579502066412203e+17
19606.0	4.5790209937244154e+17
19607.0	4.578297279851178e+17
19608.0	4.577381488525311e+17
19609.0	4.5766490616845645e+17
19610.0	4.57066135158785e+17
19611.0	4.56730257811047e+17
19612.0	4.574317490733056e+17
19613.0	4.573423615344638e+17
19614.0	4.57263925043746e+17
19615.0	4.5717997681814176e+17
19616.0	4.565406508034741e+17
19617.0	4.562394017693702e+17
19618.0	4.568282282939732e+17
19619.0	4.566561490031958e+17
19620.0	4.5644645414556896e+17
19621.0	4.555702684439887e+17
19622.0	4.566234697826304e+17
19623.0	4.56487042425378e+17
19624.0	4.562980470172332e+17
19625.0	4.563689162844842e+17
19626.0	4.5626661406419616e+17
19627.0	4.561479922264746e+17
19628.0	4.55956698619358e+17
19629.0	4.530666291068913e+17
19630.0	4.546121933608275e+17
19631.0	4.5327071652959584e+17
19632.0	4.552876878375594e+17
19633.0	4.555461101617154e+17
19634.0	4.555965446400682e+17
19635.0	4.5543445967667117e+17
19636.0	4.542232001860937e+17
19637.0	4.5416191301604563e+17
19638.0	4.552662443884537e+17
19639.0	4.55269792420113e+17
19640.0	4.55162997051665e+17
19641.0	4.5496199656680134e+17
19642.0	4.549583865293483e+17
19643.0	4.548824227206484e+17
19644.0	4.5487921512666445e+17
19645.0	4.5479212627613005e+17
19646.0	4.5338372401179104e+17
19647.0	4.546299087028221e+17
19648.0	4.5457913490527565e+17
19649.0	4.544972135071744e+17
19650.0	4.54419956175121e+17
19651.0	4.5434171024561485e+17
19652.0	4.5426436308555085e+17
19653.0	4.5417764123661645e+17
19654.0	4.541073698674003e+17
19655.0	4.5402361569826125e+17
19656.0	4.539506054485332e+17
