# Flux units: erg / (cm m2 s)
# Wavelength units: Angstrom
wave	flux
19000.0	4.7583212339199994e+17
19001.0	4.7572704475217914e+17
19002.0	4.7565763699015674e+17
19003.0	4.755687917748223e+17
19004.0	4.7548097024928416e+17
19005.0	4.753917924955477e+17
19006.0	4.7530614320005114e+17
19007.0	4.7521705436555936e+17
19008.0	4.751215581724671e+17
19009.0	4.750276700755285e+17
19010.0	4.748652565583187e+17
19011.0	4.748624649693865e+17
19012.0	4.747004099952638e+17
19013.0	4.7469524869447674e+17
19014.0	4.7460035158780576e+17
19015.0	4.7451216222180685e+17
19016.0	4.7442189632580256e+17
19017.0	4.743463251039572e+17
19018.0	4.742548662779902e+17
19019.0	4.741711746039807e+17
19020.0	4.7408272372312736e+17
19021.0	4.7399828846892365e+17
19022.0	4.7391035083106976e+17
19023.0	4.738163761217534e+17
19024.0	4.737277353088341e+17
19025.0	4.73644163661824e+17
19026.0	4.7355119831176525e+17
19027.0	4.7342136712669843e+17
19028.0	4.7338823450187085e+17
19029.0	4.7329808688523936e+17
19030.0	4.732154881769472e+17
19031.0	4.7312962685938336e+17
19032.0	4.7304087699456e+17
19033.0	4.729394322298196e+17
19034.0	4.728653592832682e+17
19035.0	4.727699456480596e+17
19036.0	4.684330578214902e+17
19037.0	4.726013518938111e+17
19038.0	4.725162550580564e+17
19039.0	4.724330962004649e+17
19040.0	4.7234692953757005e+17
19041.0	4.72258892075281e+17
19042.0	4.719939040575485e+17
19043.0	4.720882495433385e+17
19044.0	4.71998983779123e+17
19045.0	4.719118055200085e+17
19046.0	4.7181628171441485e+17
19047.0	4.717384663302143e+17
19048.0	4.7158593235626656e+17
19049.0	4.712227798690471e+17
19050.0	4.71467095560465e+17
19051.0	4.7082091961821766e+17
19052.0	4.7121804463964154e+17
19053.0	4.712205728262825e+17
19054.0	4.7113482098005325e+17
19055.0	4.7095944881111046e+17
19056.0	4.7093929126570656e+17
19057.0	4.708749844763989e+17
19058.0	4.706129308636497e+17
19059.0	4.7063442681146016e+17
19060.0	4.7061215981076474e+17
19061.0	4.705301688571221e+17
19062.0	4.704429798326272e+17
19063.0	4.703571302591146e+17
19064.0	4.702491778919083e+17
19065.0	4.7015753752248314e+17
19066.0	4.700188030883157e+17
19067.0	4.699947609183572e+17
19068.0	4.699107641786366e+17
19069.0	4.6982462205242016e+17
19070.0	4.6973325571085645e+17
19071.0	4.6964929720920736e+17
19072.0	4.6949870191247354e+17
19073.0	4.6947870850416634e+17
19074.0	4.693940427729578e+17
19075.0	4.693079323137364e+17
19076.0	4.692181637922814e+17
19077.0	4.691324249483945e+17
19078.0	4.690411053733204e+17
19079.0	4.6896299750632096e+17
19080.0	4.688748509921279e+17
19081.0	4.687834561992021e+17
19082.0	4.686979672659284e+17
19083.0	4.6860552571453434e+17
19084.0	4.68500361580817e+17
19085.0	4.6844415699845114e+17
19086.0	4.682168824146602e+17
19087.0	4.68039133962786e+17
19088.0	4.6809026882000186e+17
19089.0	4.680275115464021e+17
19090.0	4.680132471379285e+17
19091.0	4.679103454117889e+17
19092.0	4.676898471455405e+17
19093.0	4.677607733155157e+17
19094.0	4.676748013382315e+17
19095.0	4.6758945955512314e+17
19096.0	4.675006656501076e+17
19097.0	4.674175735518549e+17
19098.0	4.672593842580139e+17
19099.0	4.6716160971898874e+17
19100.0	4.671510381155667e+17
19101.0	4.6707191040354976e+17
19102.0	4.6696502583623674e+17
19103.0	4.6690293349963085e+17
19104.0	4.6681854878679034e+17
19105.0	4.6657838951082694e+17
19106.0	4.6662814122639354e+17
19107.0	4.665189583202987e+17
19108.0	4.664192790779221e+17
19109.0	4.661480248399185e+17
19110.0	4.6629899147236685e+17
19111.0	4.661746857235795e+17
19112.0	4.6608275643651405e+17
19113.0	4.6604758663823354e+17
19114.0	4.659344506006185e+17
19115.0	4.6585535245844474e+17
19116.0	4.657895513085268e+17
19117.0	4.657035529071274e+17
19118.0	4.655931194692949e+17
19119.0	4.634762884939745e+17
19120.0	4.6541764985268896e+17
19121.0	4.6534334006777165e+17
19122.0	4.652811416152745e+17
19123.0	4.651960124833792e+17
19124.0	4.650949808575828e+17
19125.0	4.650234792290985e+17
19126.0	4.649391981854719e+17
19127.0	4.645245880194387e+17
19128.0	4.6474573794071885e+17
19129.0	4.646723346847061e+17
19130.0	4.645970235097087e+17
19131.0	4.645140365486762e+17
19132.0	4.6442869574423885e+17
19133.0	4.6433124703272954e+17
19134.0	4.642485040403797e+17
19135.0	4.641726208322217e+17
19136.0	4.6408958885232634e+17
19137.0	4.6397501731416736e+17
19138.0	4.6391667734173005e+17
19139.0	4.638347208512854e+17
19140.0	4.637500114993151e+17
19141.0	4.636649460509353e+17
19142.0	4.635748796639913e+17
19143.0	4.6348399482852685e+17
19144.0	4.6340429389496314e+17
19145.0	4.6332498876388685e+17
19146.0	4.631362694807552e+17
19147.0	4.6313719292668576e+17
19148.0	4.630115696771071e+17
19149.0	4.629184322207743e+17
19150.0	4.6290004669890554e+17
19151.0	4.6281607044136954e+17
19152.0	4.627279367897087e+17
19153.0	4.625301562720254e+17
19154.0	4.625243626100051e+17
19155.0	4.624770262543017e+17
19156.0	4.623929626853375e+17
19157.0	4.622628296501932e+17
19158.0	4.6198553603386016e+17
19159.0	4.621348180241066e+17
19160.0	4.620500904968191e+17
19161.0	4.619671329658196e+17
19162.0	4.61509618215595e+17
19163.0	4.61791985471761e+17
19164.0	4.6171477511591245e+17
19165.0	4.6149485650247654e+17
19166.0	4.615128516045481e+17
19167.0	4.6142786123421005e+17
19168.0	4.6137736272281594e+17
19169.0	4.6128594514083834e+17
19170.0	4.612101539277481e+17
19171.0	4.6110072208971085e+17
19172.0	4.610389627808426e+17
19173.0	4.609557912005289e+17
19174.0	4.608619780418219e+17
19175.0	4.607882534322174e+17
19176.0	4.607041216359081e+17
19177.0	4.6059392853169485e+17
19178.0	4.605263976508074e+17
19179.0	4.604165918206634e+17
19180.0	4.6036518496283296e+17
19181.0	4.6025445533723296e+17
19182.0	4.60194104615458e+17
19183.0	4.601149929816063e+17
19184.0	4.6003023085131104e+17
19185.0	4.599444032978944e+17
19186.0	4.598625739647658e+17
19187.0	4.597682151271082e+17
19188.0	4.596935456806229e+17
19189.0	4.596097607532543e+17
19190.0	4.595243826195114e+17
19191.0	4.594336533927253e+17
19192.0	4.5935818430218234e+17
19193.0	4.592576579502079e+17
19194.0	4.591646850504021e+17
19195.0	4.5910545532627616e+17
19196.0	4.5901811922152096e+17
19197.0	4.5893441042077005e+17
19198.0	4.5884457583902714e+17
19199.0	4.5658841253150656e+17
19200.0	4.5720895882963706e+17
19201.0	4.5859322476189005e+17
19202.0	4.585170190117546e+17
19203.0	4.584275456993962e+17
19204.0	4.583455407647402e+17
19205.0	4.5826643423395834e+17
19206.0	4.5818113418417485e+17
19207.0	4.5808109283355296e+17
19208.0	4.5797038921263776e+17
19209.0	4.5793116568944634e+17
19210.0	4.5784757922256205e+17
19211.0	4.5776654974320634e+17
19212.0	4.576823066580308e+17
19213.0	4.5756696637385376e+17
19214.0	4.574713186265771e+17
19215.0	4.5742347119493114e+17
19216.0	4.573483068904787e+17
19217.0	4.5726353504337914e+17
19218.0	4.5703477329919974e+17
19219.0	4.570747800387583e+17
19220.0	4.570086649451862e+17
19221.0	4.5687332698849274e+17
19222.0	4.5684585541577376e+17
19223.0	4.567600132521983e+17
19224.0	4.5667323687731194e+17
19225.0	4.565706834182144e+17
19226.0	4.5650977820945056e+17
19227.0	4.564269853747882e+17
19228.0	4.563471449107114e+17
19229.0	4.562636705715541e+17
19230.0	4.5617886139514874e+17
19231.0	4.560949657381545e+17
19232.0	4.560120031040853e+17
19233.0	4.5591860322413216e+17
19234.0	4.5584227374202874e+17
19235.0	4.5575809965315405e+17
19236.0	4.556803398434814e+17
19237.0	4.5559393683155616e+17
19238.0	4.5549426311167994e+17
19239.0	4.55431027827234e+17
19240.0	4.553463797820074e+17
19241.0	4.552607041323007e+17
19242.0	4.5517886731933005e+17
19243.0	4.5507336729176723e+17
19244.0	4.5501535650228896e+17
19245.0	4.5493134214649165e+17
19246.0	4.548460577554431e+17
19247.0	4.5476460877578234e+17
19248.0	4.546822743086421e+17
19249.0	4.5459468731460256e+17
19250.0	4.544903321922218e+17
19251.0	4.543908217705812e+17
19252.0	4.543083249139711e+17
19253.0	4.542628173447168e+17
19254.0	4.541844655090346e+17
19255.0	4.540734331245907e+17
19256.0	4.540131441289898e+17
19257.0	4.539358043788628e+17
19258.0	4.5385306173603834e+17
19259.0	4.537591667884031e+17
19260.0	4.535884244320254e+17
19261.0	4.536022475997183e+17
19262.0	4.535107891931817e+17
19263.0	4.534257837233492e+17
19264.0	4.5325137750261734e+17
19265.0	4.532339711410175e+17
19266.0	4.5312261970984954e+17
19267.0	4.531075332177919e+17
19268.0	4.5302362805370874e+17
19269.0	4.5294150840483834e+17
19270.0	4.528589861027839e+17
19271.0	4.5271182943627955e+17
19272.0	4.526871495923028e+17
19273.0	4.525305223970815e+17
19274.0	4.5244787992821734e+17
19275.0	4.52445797945617e+17
19276.0	4.523596845503828e+17
19277.0	4.5227813434818554e+17
19278.0	4.521932586920618e+17
19279.0	4.5210979399980365e+17
19280.0	4.5201557063816525e+17
19281.0	4.5194653637891405e+17
19282.0	4.5186664453461325e+17
19283.0	4.5175190969821856e+17
19284.0	4.5169117331019085e+17
19285.0	4.515907128786944e+17
19286.0	4.515302060589055e+17
19287.0	4.514524324080297e+17
19288.0	4.5019912704709843e+17
19289.0	4.4847342058208794e+17
19290.0	4.512047480613547e+17
19291.0	4.5108298308212064e+17
19292.0	4.5104127569210016e+17
19293.0	4.5095789153047885e+17
19294.0	4.508741112168447e+17
19295.0	4.507943103190357e+17
19296.0	4.50641098895087e+17
19297.0	4.506075159418197e+17
19298.0	4.5054176826927776e+17
19299.0	4.503826687415638e+17
19300.0	4.503765751169023e+17
19301.0	4.5029824411293005e+17
19302.0	4.50213954261265e+17
19303.0	4.501201087365119e+17
19304.0	4.5004603481128954e+17
19305.0	4.4995710591959034e+17
19306.0	4.4986632356495354e+17
19307.0	4.4977512219934714e+17
19308.0	4.496976275395925e+17
19309.0	4.495350675712681e+17
19310.0	4.494276679434238e+17
19311.0	4.494418554563242e+17
19312.0	4.4937181337572685e+17
19313.0	4.492893056838314e+17
19314.0	4.398222936812261e+17
19315.0	4.404547362138899e+17
19316.0	4.489397986656256e+17
19317.0	4.4895937173476685e+17
19318.0	4.4887764753885843e+17
19319.0	4.487978502761129e+17
19320.0	4.4868329894051834e+17
19321.0	4.4857044503975245e+17
19322.0	4.4853514731519994e+17
19323.0	4.484329454086826e+17
19324.0	4.483824043251029e+17
19325.0	4.482221309515093e+17
19326.0	4.4822011419033594e+17
19327.0	4.4813330621835936e+17
19328.0	4.479192880818859e+17
19329.0	4.4797420955675296e+17
19330.0	4.478846953499306e+17
19331.0	4.4780129846558714e+17
19332.0	4.4772519365836794e+17
19333.0	4.476398831927295e+17
19334.0	4.4755382677012474e+17
19335.0	4.4720354457463494e+17
19336.0	4.473890136216917e+17
19337.0	4.4731238047197856e+17
19338.0	4.471947050090495e+17
19339.0	4.4714626324452685e+17
19340.0	4.4701696969932794e+17
19341.0	4.4687211353866234e+17
19342.0	4.4679288795955194e+17
19343.0	4.468156786191017e+17
19344.0	4.466341074785622e+17
19345.0	4.4621580856197056e+17
19346.0	4.4640253401279123e+17
19347.0	4.463452724658175e+17
19348.0	4.4639133172585805e+17
19349.0	4.4630137292281165e+17
19350.0	4.461723243249663e+17
19351.0	4.46132746522897e+17
19352.0	4.459079674800808e+17
19353.0	4.4597382427443194e+17
19354.0	4.458919243371861e+17
19355.0	4.457922687926272e+17
19356.0	4.4572468946752845e+17
19357.0	4.456411313121962e+17
19358.0	4.4555567865965216e+17
19359.0	4.454300908519422e+17
19360.0	4.4528009030751565e+17
19361.0	4.452987130871806e+17
19362.0	4.452222542807039e+17
19363.0	4.4513788082257914e+17
19364.0	4.4505326136852474e+17
19365.0	4.449681172070399e+17
19366.0	4.4488441756385274e+17
19367.0	4.4479917993929376e+17
19368.0	4.4471524331793056e+17
19369.0	4.44619971170577e+17
19370.0	4.445199361114111e+17
19371.0	4.444285919297536e+17
19372.0	4.443514173652992e+17
19373.0	4.442621460086783e+17
19374.0	4.4417937260762445e+17
19375.0	4.440930673928874e+17
19376.0	4.440079246994089e+17
19377.0	4.4391948416450554e+17
19378.0	4.4383327206331725e+17
19379.0	4.437466854107819e+17
19380.0	4.4365895385306445e+17
19381.0	4.4357082740162554e+17
19382.0	4.434721974342996e+17
19383.0	4.4337606405652474e+17
19384.0	4.4330337830611616e+17
19385.0	4.4321668295120205e+17
19386.0	4.4312780320276474e+17
19387.0	4.430371983370921e+17
19388.0	4.4294627239744845e+17
19389.0	4.42855132897826e+17
19390.0	4.42760981258786e+17
19391.0	4.387110619097712e+17
19392.0	4.425211617214459e+17
19393.0	4.4247040826627405e+17
19394.0	4.423541861296811e+17
19395.0	4.422167074701311e+17
19396.0	4.421481825391957e+17
19397.0	4.420698439854761e+17
19398.0	4.419284028271274e+17
19399.0	4.4167990856034976e+17
19400.0	4.4173122370273274e+17
19401.0	4.416599836590079e+17
19402.0	4.415401232433151e+17
19403.0	4.4139458131394554e+17
19404.0	4.412915464885587e+17
19405.0	4.411811886181034e+17
19406.0	4.410729676756309e+17
19407.0	4.4091449365845325e+17
19408.0	4.406444811441496e+17
19409.0	4.406675587639978e+17
19410.0	4.4055143064971936e+17
19411.0	4.4041703948724896e+17
19412.0	4.402227487703038e+17
19413.0	4.4004570915580576e+17
19414.0	4.399054592496981e+17
19415.0	4.3972126813716474e+17
19416.0	4.394870822491477e+17
19417.0	4.392648069261993e+17
19418.0	4.3903940167379616e+17
19419.0	4.3877324812888736e+17
19420.0	4.3847867523836576e+17
19421.0	4.3818281148088326e+17
19422.0	4.3797497658736634e+17
19423.0	4.377829514936319e+17
19424.0	4.375766924001279e+17
19425.0	4.3735926464402765e+17
19426.0	4.370907567663787e+17
19427.0	4.3680458793287674e+17
19428.0	4.365503768996521e+17
19429.0	4.3618100055463245e+17
19430.0	4.3579887205744666e+17
19431.0	4.3471025758098874e+17
19432.0	4.348801175956138e+17
19433.0	4.342210266923008e+17
19434.0	4.332572253356032e+17
19435.0	4.318098356174836e+17
19436.0	4.293758699612836e+17
19437.0	4.281427293459796e+17
19438.0	4.1965626306068666e+17
19439.0	4.258108517908484e+17
19440.0	4.248248420139006e+17
19441.0	4.234880867106814e+17
19442.0	4.220226061205504e+17
19443.0	4.202300649592142e+17
19444.0	4.167726235560608e+17
19445.0	4.094755405998779e+17
19446.0	4.0434060513771514e+17
19447.0	3.990745444078931e+17
19448.0	3.935564703902379e+17
19449.0	3.78321568198382e+17
19450.0	3.3941959254999334e+17
19451.0	3.1853340727268685e+17
19452.0	3.640264194610516e+17
19453.0	3.879826200286552e+17
19454.0	3.960405140788565e+17
19455.0	4.012620589826047e+17
19456.0	4.0619361117579955e+17
19457.0	4.123899800671562e+17
19458.0	3.913954087316513e+17
19459.0	4.1900186858947437e+17
19460.0	4.214379931937448e+17
19461.0	4.226853384486911e+17
19462.0	4.238120318227798e+17
19463.0	4.247974557952681e+17
19464.0	4.25680125960738e+17
19465.0	4.2659902316871654e+17
19466.0	4.286265002994348e+17
19467.0	4.30194163502284e+17
19468.0	4.311517580580178e+17
19469.0	4.316072673017854e+17
19470.0	4.3219322149710515e+17
19471.0	4.324919673705813e+17
19472.0	4.327148134683989e+17
19473.0	4.3291509770594963e+17
19474.0	4.329692985294846e+17
19475.0	4.3298245669027814e+17
19476.0	4.3329620579887776e+17
19477.0	4.333732833350997e+17
19478.0	4.3343113921495034e+17
19479.0	4.3337773894423866e+17
19480.0	4.3350282560252576e+17
19481.0	4.3357322440867834e+17
19482.0	4.337017863274496e+17
19483.0	4.338733283278846e+17
19484.0	4.339691072869716e+17
19485.0	4.3399761247600634e+17
19486.0	4.340016980077229e+17
19487.0	4.340937138372606e+17
19488.0	4.341581184936618e+17
19489.0	4.3412324816868685e+17
19490.0	4.338280572474705e+17
19491.0	4.34145719431987e+17
19492.0	4.341138471955114e+17
19493.0	4.340725332312063e+17
19494.0	4.3405116122507936e+17
19495.0	4.340395539780948e+17
19496.0	4.338999289533779e+17
19497.0	4.339342182274389e+17
19498.0	4.334766882379096e+17
19499.0	4.275897107830068e+17
19500.0	4.3380854429668685e+17
19501.0	4.33765593784866e+17
19502.0	4.337058074066944e+17
19503.0	4.336679178119849e+17
19504.0	4.3360902461085005e+17
19505.0	4.3354549859123194e+17
19506.0	4.3348633276033696e+17
19507.0	4.3341803089646925e+17
19508.0	4.33358843814434e+17
19509.0	4.3329281757020154e+17
19510.0	4.331923261008553e+17
19511.0	4.174632730318079e+17
19512.0	4.321571097979544e+17
19513.0	4.312702719623139e+17
19514.0	4.316931870599832e+17
19515.0	4.3279929283269984e+17
19516.0	4.328386308603902e+17
19517.0	4.327691336198825e+17
19518.0	4.326878172501332e+17
19519.0	4.326131907952638e+17
19520.0	4.3247532737822714e+17
19521.0	4.325047034445823e+17
19522.0	4.3241570262056954e+17
19523.0	4.323349765292032e+17
19524.0	4.3222095255743155e+17
19525.0	4.322154905949525e+17
19526.0	4.321478461882367e+17
19527.0	4.320725924752042e+17
19528.0	4.3199444385355085e+17
19529.0	4.319167236101461e+17
19530.0	4.3185686348212896e+17
19531.0	4.317839339028479e+17
19532.0	4.3171042236388685e+17
19533.0	4.3163729998643194e+17
19534.0	4.315630803790506e+17
19535.0	4.314868507213822e+17
19536.0	4.314088724583764e+17
19537.0	4.3134098590050976e+17
19538.0	4.3115748307326304e+17
19539.0	4.3108580346647917e+17
19540.0	4.311295288759638e+17
19541.0	4.3104525447331834e+17
19542.0	4.309805523009536e+17
19543.0	4.3081905419059194e+17
19544.0	4.308335295725567e+17
19545.0	4.3067363760100666e+17
19546.0	4.305183763507882e+17
19547.0	4.3061628727459834e+17
19548.0	4.3054097637922125e+17
19549.0	4.3045033781930656e+17
19550.0	4.3039053794945696e+17
19551.0	4.303157332366676e+17
19552.0	4.302399938232318e+17
19553.0	4.3016037887290016e+17
19554.0	4.3008070590136314e+17
19555.0	4.30000545341986e+17
19556.0	4.299306164376916e+17
19557.0	4.2986094785986554e+17
19558.0	4.297860668107434e+17
19559.0	4.297110116281002e+17
19560.0	4.2959757157335034e+17
19561.0	4.295551809312085e+17
19562.0	4.294490826560852e+17
19563.0	4.294084959840938e+17
19564.0	4.293323447599102e+17
19565.0	4.292564084239019e+17
19566.0	4.2917549645496314e+17
19567.0	4.2910495343465805e+17
19568.0	4.290338355849898e+17
19569.0	4.289587135731029e+17
19570.0	4.288854257303551e+17
19571.0	4.2880901376027296e+17
19572.0	4.2872929150566394e+17
19573.0	4.286438176019796e+17
19574.0	4.285643764356436e+17
19575.0	4.2850611510640634e+17
19576.0	4.284241463126698e+17
19577.0	4.283342792250709e+17
19578.0	4.2826995426044576e+17
19579.0	4.281978698334207e+17
19580.0	4.2812186030680736e+17
19581.0	4.2804693137271456e+17
19582.0	4.27974134403345e+17
19583.0	4.278980600747349e+17
19584.0	4.278197589202261e+17
19585.0	4.277270933230933e+17
19586.0	4.276457956879018e+17
19587.0	4.2757888829030394e+17
19588.0	4.274292583126358e+17
19589.0	4.2743756897648634e+17
19590.0	4.273377592213504e+17
19591.0	4.272870851084287e+17
19592.0	4.2721190822106445e+17
19593.0	4.2712468305565005e+17
19594.0	4.270114750158164e+17
19595.0	4.269775867172181e+17
19596.0	4.268617097718442e+17
19597.0	4.268290534801408e+17
19598.0	4.266431608782846e+17
19599.0	4.266787790476628e+17
19600.0	4.2660394525436576e+17
19601.0	4.265165075076436e+17
19602.0	4.2644338394180256e+17
19603.0	4.262622113300478e+17
19604.0	4.262891652557481e+17
19605.0	4.2617212760664736e+17
19606.0	4.2614631334324896e+17
19607.0	4.260713606414336e+17
19608.0	4.259926580920319e+17
19609.0	4.259099447394304e+17
19610.0	4.257945281888256e+17
19611.0	4.2569853063659514e+17
19612.0	4.256915515244543e+17
19613.0	4.2561386462576634e+17
19614.0	4.2553325387775994e+17
19615.0	4.254623225348096e+17
19616.0	4.253037573614251e+17
19617.0	4.252402465811114e+17
19618.0	4.251196167203497e+17
19619.0	4.250105325901137e+17
19620.0	4.2492452405247974e+17
19621.0	4.249134794713769e+17
19622.0	4.2493142794676896e+17
19623.0	4.2485120370387616e+17
19624.0	4.2476538425944736e+17
19625.0	4.2470371638640634e+17
19626.0	4.246262957561172e+17
19627.0	4.24551147180305e+17
19628.0	4.2441487941632006e+17
19629.0	4.2414682815856614e+17
19630.0	4.2419665208606726e+17
19631.0	4.2172967662824096e+17
19632.0	4.2416691293279565e+17
19633.0	4.2407987825868806e+17
19634.0	4.2402066726911994e+17
19635.0	4.239234822395221e+17
19636.0	4.2376099902696096e+17
19637.0	4.236396291511636e+17
19638.0	4.2370299117349536e+17
19639.0	4.2364008723906554e+17
19640.0	4.235440327142059e+17
19641.0	4.232047844742491e+17
19642.0	4.234066872238079e+17
19643.0	4.233299791358634e+17
19644.0	4.232529740911955e+17
19645.0	4.231356265529343e+17
19646.0	4.229957876187133e+17
19647.0	4.23032931885602e+17
19648.0	4.229611228146346e+17
19649.0	4.2288482311208954e+17
19650.0	4.2281028445798394e+17
19651.0	4.227340993298432e+17
19652.0	4.2265818620231674e+17
19653.0	4.225819482958506e+17
19654.0	4.225070905251157e+17
19655.0	4.224304250792617e+17
