# Flux units: erg / (cm m2 s)
# Wavelength units: Angstrom
wave	flux
19000.0	8.610250926762668e+17
19001.0	8.608531351601148e+17
19002.0	8.607102396967592e+17
19003.0	8.605513278641492e+17
19004.0	8.603924302921725e+17
19005.0	8.602361127763965e+17
19006.0	8.600783343845375e+17
19007.0	8.598265062752256e+17
19008.0	8.59752193274675e+17
19009.0	8.595982354743293e+17
19010.0	8.593813983461372e+17
19011.0	8.592943533959849e+17
19012.0	8.590373300819284e+17
19013.0	8.589820114064723e+17
19014.0	8.588135963994792e+17
19015.0	8.586592734150655e+17
19016.0	8.584995660627965e+17
19017.0	8.583256774890834e+17
19018.0	8.581791122893481e+17
19019.0	8.580266875071144e+17
19020.0	8.57860639765299e+17
19021.0	8.577059355186514e+17
19022.0	8.575501685751808e+17
19023.0	8.573842351980544e+17
19024.0	8.572280133124095e+17
19025.0	8.570597628619433e+17
19026.0	8.568983331886419e+17
19027.0	8.566618221182975e+17
19028.0	8.565924349083647e+17
19029.0	8.564287941378047e+17
19030.0	8.562737537875965e+17
19031.0	8.561146797752317e+17
19032.0	8.559545000045225e+17
19033.0	8.557809223685459e+17
19034.0	8.556302685612713e+17
19035.0	8.554627220548266e+17
19036.0	8.49393981500071e+17
19037.0	8.551467398288723e+17
19038.0	8.549881070572884e+17
19039.0	8.548312908387668e+17
19040.0	8.54671717564416e+17
19041.0	8.545098337878016e+17
19042.0	8.543367411531773e+17
19043.0	8.541903020621824e+17
19044.0	8.540267148389033e+17
19045.0	8.538643800347987e+17
19046.0	8.536980223339177e+17
19047.0	8.535458107621373e+17
19048.0	8.533554226353492e+17
19049.0	8.532138009821183e+17
19050.0	8.530554152550397e+17
19051.0	8.519151081488364e+17
19052.0	8.526419369918465e+17
19053.0	8.525566929360211e+17
19054.0	8.524192646081194e+17
19055.0	8.52220199305216e+17
19056.0	8.520924930943658e+17
19057.0	8.519325410743638e+17
19058.0	8.517494074157737e+17
19059.0	8.516121513339561e+17
19060.0	8.514468445858472e+17
19061.0	8.512900136872617e+17
19062.0	8.511279077523453e+17
19063.0	8.509666926875988e+17
19064.0	8.507854140298579e+17
19065.0	8.506154689407656e+17
19066.0	8.504718754054143e+17
19067.0	8.50318151787042e+17
19068.0	8.501585643918676e+17
19069.0	8.499969909937491e+17
19070.0	8.498303828929194e+17
19071.0	8.496678977929216e+17
19072.0	8.495107755300179e+17
19073.0	8.493482589727401e+17
19074.0	8.491878451598676e+17
19075.0	8.490259083952128e+17
19076.0	8.488606624645117e+17
19077.0	8.486998192947197e+17
19078.0	8.485309079617535e+17
19079.0	8.483773205184511e+17
19080.0	8.482132955496445e+17
19081.0	8.48046288430694e+17
19082.0	8.478826447241215e+17
19083.0	8.477090121427624e+17
19084.0	8.475267367785812e+17
19085.0	8.47400578126097e+17
19086.0	8.471678798178986e+17
19087.0	8.46894703959518e+17
19088.0	8.468788240449535e+17
19089.0	8.466237206036479e+17
19090.0	8.46577214160896e+17
19091.0	8.464216352620544e+17
19092.0	8.462129540978003e+17
19093.0	8.461030282406569e+17
19094.0	8.459401249685503e+17
19095.0	8.457769838794068e+17
19096.0	8.456126960675497e+17
19097.0	8.454542647623676e+17
19098.0	8.452923376446122e+17
19099.0	8.451295527916884e+17
19100.0	8.449574174370472e+17
19101.0	8.448019372441599e+17
19102.0	8.446312027870548e+17
19103.0	8.444799580023466e+17
19104.0	8.44317619143748e+17
19105.0	8.441532963793577e+17
19106.0	8.439561003379369e+17
19107.0	8.438233640381097e+17
19108.0	8.436607097678505e+17
19109.0	8.427900386672628e+17
19110.0	8.433126214030675e+17
19111.0	8.431736986446504e+17
19112.0	8.430148498664106e+17
19113.0	8.428525824507903e+17
19114.0	8.426889862796628e+17
19115.0	8.425078429581311e+17
19116.0	8.423599267730772e+17
19117.0	8.42195381850385e+17
19118.0	8.419934247146836e+17
19119.0	8.415990884160847e+17
19120.0	8.416439808906579e+17
19121.0	8.41501014823185e+17
19122.0	8.41372574748945e+17
19123.0	8.412075288865449e+17
19124.0	8.410061418965672e+17
19125.0	8.40877415351364e+17
19126.0	8.407131903142569e+17
19127.0	8.40321580033638e+17
19128.0	8.398406245067424e+17
19129.0	8.402154949006675e+17
19130.0	8.400643745469779e+17
19131.0	8.398833982985553e+17
19132.0	8.397390857196884e+17
19133.0	8.394451230304942e+17
19134.0	8.391467957485572e+17
19135.0	8.392465263711572e+17
19136.0	8.390853403869181e+17
19137.0	8.38895930651443e+17
19138.0	8.387193290620928e+17
19139.0	8.385909087010816e+17
19140.0	8.384311642991273e+17
19141.0	8.382682519393619e+17
19142.0	8.38098404437743e+17
19143.0	8.37932442259729e+17
19144.0	8.377703522631679e+17
19145.0	8.376097202066772e+17
19146.0	8.37344617684446e+17
19147.0	8.372734761369599e+17
19148.0	8.371172690711889e+17
19149.0	8.369534570332157e+17
19150.0	8.367903823538856e+17
19151.0	8.36628440556066e+17
19152.0	8.36456414253329e+17
19153.0	8.362979288416256e+17
19154.0	8.361182468156072e+17
19155.0	8.359689676215636e+17
19156.0	8.358027526668285e+17
19157.0	8.356079649947647e+17
19158.0	8.350158499261092e+17
19159.0	8.352931364820308e+17
19160.0	8.351316645860691e+17
19161.0	8.349173615165439e+17
19162.0	8.337251522751156e+17
19163.0	8.346164783655594e+17
19164.0	8.344877929245353e+17
19165.0	8.343091625503402e+17
19166.0	8.341280021719722e+17
19167.0	8.338918483165181e+17
19168.0	8.338112117036369e+17
19169.0	8.336446589676204e+17
19170.0	8.335002471235583e+17
19171.0	8.332887444510036e+17
19172.0	8.331640542243497e+17
19173.0	8.330059310607016e+17
19174.0	8.328360495852202e+17
19175.0	8.326783585746943e+17
19176.0	8.325123673161727e+17
19177.0	8.323242854973439e+17
19178.0	8.321542477141332e+17
19179.0	8.319425142150484e+17
19180.0	8.317795428554068e+17
19181.0	8.316639844674217e+17
19182.0	8.315076215133523e+17
19183.0	8.313464313348096e+17
19184.0	8.311629667456339e+17
19185.0	8.310207569111721e+17
19186.0	8.308576523124735e+17
19187.0	8.306763922494804e+17
19188.0	8.305176715373224e+17
19189.0	8.303334481985535e+17
19190.0	8.30160661328691e+17
19191.0	8.300070288665258e+17
19192.0	8.298465101960532e+17
19193.0	8.296116727928147e+17
19194.0	8.294831935717373e+17
19195.0	8.293443787467433e+17
19196.0	8.291738070286335e+17
19197.0	8.289889928522408e+17
19198.0	8.287388599407958e+17
19199.0	8.225156905653572e+17
19200.0	8.241532304534208e+17
19201.0	8.282512484728833e+17
19202.0	8.281576286715901e+17
19203.0	8.279947978211327e+17
19204.0	8.278422157524991e+17
19205.0	8.276825131537748e+17
19206.0	8.275105369030655e+17
19207.0	8.273104806259369e+17
19208.0	8.271287366800723e+17
19209.0	8.269814894865066e+17
19210.0	8.268186902331391e+17
19211.0	8.266520488574973e+17
19212.0	8.264828672715433e+17
19213.0	8.26247916482287e+17
19214.0	8.260430617815724e+17
19215.0	8.259507062833148e+17
19216.0	8.258057303053651e+17
19217.0	8.256396992009555e+17
19218.0	8.253563927003133e+17
19219.0	8.252773131528876e+17
19220.0	8.25125750719556e+17
19221.0	8.249110981246975e+17
19222.0	8.247945544947027e+17
19223.0	8.246213101660842e+17
19224.0	8.244424841975123e+17
19225.0	8.242618358038527e+17
19226.0	8.241095450995369e+17
19227.0	8.2393860945565e+17
19228.0	8.237731230515199e+17
19229.0	8.236020299814227e+17
19230.0	8.23406621692177e+17
19231.0	8.232413775790079e+17
19232.0	8.230816400277501e+17
19233.0	8.229038834668886e+17
19234.0	8.227406396172969e+17
19235.0	8.225662561157119e+17
19236.0	8.223996859034281e+17
19237.0	8.222242187334996e+17
19238.0	8.220310815200595e+17
19239.0	8.218795355843241e+17
19240.0	8.216752387260415e+17
19241.0	8.215211183265108e+17
19242.0	8.213571620044799e+17
19243.0	8.211586278402728e+17
19244.0	8.210130113921021e+17
19245.0	8.208376489399636e+17
19246.0	8.206614052645545e+17
19247.0	8.204876332924927e+17
19248.0	8.203125420720127e+17
19249.0	8.201360226910208e+17
19250.0	8.199594222201514e+17
19251.0	8.197709641722536e+17
19252.0	8.195347971746472e+17
19253.0	8.193920155167402e+17
19254.0	8.192128133190995e+17
19255.0	8.190095949561855e+17
19256.0	8.188436983491241e+17
19257.0	8.186840811743913e+17
19258.0	8.185068219181736e+17
19259.0	8.183164487510697e+17
19260.0	8.180648469943633e+17
19261.0	8.179681253654527e+17
19262.0	8.177814271077034e+17
19263.0	8.176033619858772e+17
19264.0	8.173603749101564e+17
19265.0	8.172239390943913e+17
19266.0	8.170518272278527e+17
19267.0	8.168863792715092e+17
19268.0	8.167024921761108e+17
19269.0	8.165210790210217e+17
19270.0	8.163372226838525e+17
19271.0	8.161094581354496e+17
19272.0	8.159651830256979e+17
19273.0	8.149370460088991e+17
19274.0	8.15151512656281e+17
19275.0	8.154155810029567e+17
19276.0	8.152251193360383e+17
19277.0	8.149906156595881e+17
19278.0	8.148041739534335e+17
19279.0	8.145963400385875e+17
19280.0	8.144174680724822e+17
19281.0	8.142389432549373e+17
19282.0	8.140477260540586e+17
19283.0	8.137678868447228e+17
19284.0	8.134363613670057e+17
19285.0	8.134268670006612e+17
19286.0	8.13261930190165e+17
19287.0	8.130746956207443e+17
19288.0	8.114725159523658e+17
19289.0	8.087568176381876e+17
19290.0	8.124936131095209e+17
19291.0	8.122596685337942e+17
19292.0	8.121038095952554e+17
19293.0	8.118468448616447e+17
19294.0	8.116445012907348e+17
19295.0	8.114481037049852e+17
19296.0	8.112479751460179e+17
19297.0	8.11042692206865e+17
19298.0	8.108432723454632e+17
19299.0	8.106462707799379e+17
19300.0	8.104433032364031e+17
19301.0	8.102381290695336e+17
19302.0	8.100328138342399e+17
19303.0	8.098136787866966e+17
19304.0	8.095950569821523e+17
19305.0	8.093319474533715e+17
19306.0	8.09119361671714e+17
19307.0	8.088991713372842e+17
19308.0	8.086908300514642e+17
19309.0	8.082899622428671e+17
19310.0	8.079705348156069e+17
19311.0	8.080351187085992e+17
19312.0	8.078444523596458e+17
19313.0	8.076115430779561e+17
19314.0	8.054955871742614e+17
19315.0	8.053822210091725e+17
19316.0	8.069006806919849e+17
19317.0	8.066980131809961e+17
19318.0	8.064465231325866e+17
19319.0	8.062163105087488e+17
19320.0	8.059868030872233e+17
19321.0	8.057596000163155e+17
19322.0	8.054955059445757e+17
19323.0	8.051956418696535e+17
19324.0	8.050477927934632e+17
19325.0	8.046724516588202e+17
19326.0	8.045777676227923e+17
19327.0	8.043454940577791e+17
19328.0	8.041162145267711e+17
19329.0	8.038745801140905e+17
19330.0	8.0362323588765e+17
19331.0	8.033745849636182e+17
19332.0	8.031280120375978e+17
19333.0	8.028728957337599e+17
19334.0	8.02619707551471e+17
19335.0	8.023510591646377e+17
19336.0	8.020497899978752e+17
19337.0	8.017890228480681e+17
19338.0	8.014954319140178e+17
19339.0	8.012548272029693e+17
19340.0	8.009790385728169e+17
19341.0	8.007104254181373e+17
19342.0	8.003734077789523e+17
19343.0	8.001533224419328e+17
19344.0	7.998686003636905e+17
19345.0	7.993226020869453e+17
19346.0	7.991906232784212e+17
19347.0	7.989155564879872e+17
19348.0	7.986286240115369e+17
19349.0	7.983201495897428e+17
19350.0	7.980165969040724e+17
19351.0	7.97707930103535e+17
19352.0	7.973903741747199e+17
19353.0	7.970837035832659e+17
19354.0	7.967186591853226e+17
19355.0	7.963181530655404e+17
19356.0	7.959922013984084e+17
19357.0	7.956558898003964e+17
19358.0	7.953040985642323e+17
19359.0	7.949245854952105e+17
19360.0	7.945531623997437e+17
19361.0	7.941227398474409e+17
19362.0	7.937659125104637e+17
19363.0	7.933953798657366e+17
19364.0	7.930183803032914e+17
19365.0	7.925251624490326e+17
19366.0	7.920875681961297e+17
19367.0	7.916890206765053e+17
19368.0	7.91286025237299e+17
19369.0	7.906945402929151e+17
19370.0	7.901702960534867e+17
19371.0	7.898303414228308e+17
19372.0	7.893035641034068e+17
19373.0	7.887263740461055e+17
19374.0	7.882771913506815e+17
19375.0	7.87666271679283e+17
19376.0	7.870616666723668e+17
19377.0	7.865615301738496e+17
19378.0	7.859201882368684e+17
19379.0	7.854175733241174e+17
19380.0	7.849042335760384e+17
19381.0	7.843785046928041e+17
19382.0	7.838314280605011e+17
19383.0	7.832809764115795e+17
19384.0	7.82733276226082e+17
19385.0	7.821591861788671e+17
19386.0	7.815380298891261e+17
19387.0	7.80922748560998e+17
19388.0	7.8030543285562e+17
19389.0	7.796725611757567e+17
19390.0	7.790210089047378e+17
19391.0	7.7412458750279e+17
19392.0	7.776120933974011e+17
19393.0	7.76912043927142e+17
19394.0	7.76191789096414e+17
19395.0	7.754470388312745e+17
19396.0	7.746521234320042e+17
19397.0	7.73828133397026e+17
19398.0	7.730257963166378e+17
19399.0	7.721200067280896e+17
19400.0	7.712223937953791e+17
19401.0	7.703495020904445e+17
19402.0	7.693657209569276e+17
19403.0	7.683341388786345e+17
19404.0	7.673092436393983e+17
19405.0	7.661690838930772e+17
19406.0	7.650199768574634e+17
19407.0	7.638226052666706e+17
19408.0	7.623959889575935e+17
19409.0	7.611005411175081e+17
19410.0	7.596238933327871e+17
19411.0	7.580020551013711e+17
19412.0	7.563286446866433e+17
19413.0	7.548499734298624e+17
19414.0	7.534726613041151e+17
19415.0	7.520545095199402e+17
19416.0	7.50535613349888e+17
19417.0	7.489627251627347e+17
19418.0	7.474588180370774e+17
19419.0	7.457684754967209e+17
19420.0	7.440129853489151e+17
19421.0	7.42190516919774e+17
19422.0	7.402353084159314e+17
19423.0	7.381997425000449e+17
19424.0	7.360405371704659e+17
19425.0	7.337362689010348e+17
19426.0	7.312693291646973e+17
19427.0	7.286178235547647e+17
19428.0	7.258411118187862e+17
19429.0	7.228501290298024e+17
19430.0	7.195151190807895e+17
19431.0	7.158084777192118e+17
19432.0	7.132606311170044e+17
19433.0	7.099732297340246e+17
19434.0	7.064909372194815e+17
19435.0	7.027698990492329e+17
19436.0	6.986679129385641e+17
19437.0	6.945696107550036e+17
19438.0	6.87799933285171e+17
19439.0	6.849176358180186e+17
19440.0	6.796326733174099e+17
19441.0	6.741806665782609e+17
19442.0	6.684171237152087e+17
19443.0	6.621824718733311e+17
19444.0	6.555011688082086e+17
19445.0	6.483719216256343e+17
19446.0	6.408283132089684e+17
19447.0	6.328027297699153e+17
19448.0	6.241407887649454e+17
19449.0	6.138071341509289e+17
19450.0	5.947286102911619e+17
19451.0	5.834539474266817e+17
19452.0	6.057559017739604e+17
19453.0	6.190846099587076e+17
19454.0	6.280214741691045e+17
19455.0	6.360946711374505e+17
19456.0	6.436246069619373e+17
19457.0	6.507175030904146e+17
19458.0	6.567404932257119e+17
19459.0	6.635877700031832e+17
19460.0	6.692996832908626e+17
19461.0	6.746286944419839e+17
19462.0	6.797644006075052e+17
19463.0	6.84633938478148e+17
19464.0	6.891690953190057e+17
19465.0	6.933910588664493e+17
19466.0	6.971485933535228e+17
19467.0	7.007487794348031e+17
19468.0	7.040453486575616e+17
19469.0	7.070992518086653e+17
19470.0	7.100622885093375e+17
19471.0	7.128615070203901e+17
19472.0	7.159529761057453e+17
19473.0	7.187339110864211e+17
19474.0	7.213482327932928e+17
19475.0	7.237334872009385e+17
19476.0	7.260313714600617e+17
19477.0	7.281152837200556e+17
19478.0	7.300524168708093e+17
19479.0	7.318841147260927e+17
19480.0	7.335496061550592e+17
19481.0	7.351622144010921e+17
19482.0	7.36647281971473e+17
19483.0	7.380986365651625e+17
19484.0	7.394208212757161e+17
19485.0	7.406681206030335e+17
19486.0	7.418981096183126e+17
19487.0	7.430478843871228e+17
19488.0	7.44148887089971e+17
19489.0	7.452401581686784e+17
19490.0	7.464265215290024e+17
19491.0	7.47897400887432e+17
19492.0	7.491336626241533e+17
19493.0	7.50316904723251e+17
19494.0	7.51319881228834e+17
19495.0	7.522247986817706e+17
19496.0	7.531597287565993e+17
19497.0	7.539568559521788e+17
19498.0	7.545417421378908e+17
19499.0	7.492282188737139e+17
19500.0	7.56218260951313e+17
19501.0	7.568079247289002e+17
19502.0	7.574148624678913e+17
19503.0	7.580277194883071e+17
19504.0	7.58531789684736e+17
19505.0	7.590347745350995e+17
19506.0	7.595809650507775e+17
19507.0	7.600234610469545e+17
19508.0	7.604491742347263e+17
19509.0	7.608530492194815e+17
19510.0	7.612679933919232e+17
19511.0	7.567529225835831e+17
19512.0	7.61106922890851e+17
19513.0	7.604221237701257e+17
19514.0	7.613267439867201e+17
19515.0	7.628511183372289e+17
19516.0	7.633050014493354e+17
19517.0	7.635932871480659e+17
19518.0	7.63864214999313e+17
19519.0	7.641116610396157e+17
19520.0	7.643485385523199e+17
19521.0	7.645783011273386e+17
19522.0	7.647877074867539e+17
19523.0	7.649967741075455e+17
19524.0	7.652520783162024e+17
19525.0	7.655131811501395e+17
19526.0	7.657031499863378e+17
19527.0	7.660975145265832e+17
19528.0	7.66281202532352e+17
19529.0	7.664242828247037e+17
19530.0	7.667677640261632e+17
19531.0	7.669014755016703e+17
19532.0	7.67018945094178e+17
19533.0	7.672269098713087e+17
19534.0	7.674110891698857e+17
19535.0	7.67503740506385e+17
19536.0	7.675904817889279e+17
19537.0	7.677634512508242e+17
19538.0	7.678930039341056e+17
19539.0	7.678985367803223e+17
19540.0	7.680259233852074e+17
19541.0	7.680861800147625e+17
19542.0	7.682207282539178e+17
19543.0	7.682981316176553e+17
19544.0	7.683379055034367e+17
19545.0	7.68325217174596e+17
19546.0	7.682864989951315e+17
19547.0	7.684261651240275e+17
19548.0	7.684976717157714e+17
19549.0	7.685474811729236e+17
19550.0	7.685736042769068e+17
19551.0	7.68580502229265e+17
19552.0	7.685828116130474e+17
19553.0	7.685788210124114e+17
19554.0	7.685707374701226e+17
19555.0	7.68565323182899e+17
19556.0	7.685767435736403e+17
19557.0	7.686051769002664e+17
19558.0	7.685861604851713e+17
19559.0	7.68561442193408e+17
19560.0	7.685344470936233e+17
19561.0	7.685061387572564e+17
19562.0	7.684776404189181e+17
19563.0	7.684438283168425e+17
19564.0	7.684072836257106e+17
19565.0	7.683675260977151e+17
19566.0	7.683207814184957e+17
19567.0	7.682796109692927e+17
19568.0	7.68256987452757e+17
19569.0	7.68226648514014e+17
19570.0	7.681777803984896e+17
19571.0	7.681231435770536e+17
19572.0	7.68061184479505e+17
19573.0	7.680060155407017e+17
19574.0	7.679327945971027e+17
19575.0	7.678849785528319e+17
19576.0	7.678197527915177e+17
19577.0	7.677485986611199e+17
19578.0	7.676804666665641e+17
19579.0	7.676116883297619e+17
19580.0	7.67540716651588e+17
19581.0	7.674691272922451e+17
19582.0	7.673964931317756e+17
19583.0	7.673198718659241e+17
19584.0	7.67238861959987e+17
19585.0	7.671438246237523e+17
19586.0	7.670495130419199e+17
19587.0	7.669677737465174e+17
19588.0	7.66875789024734e+17
19589.0	7.668404304827731e+17
19590.0	7.667886077597012e+17
19591.0	7.667279010813267e+17
19592.0	7.666410157943466e+17
19593.0	7.665475250378067e+17
19594.0	7.664145876910079e+17
19595.0	7.663654009481896e+17
19596.0	7.64969372160274e+17
19597.0	7.661713627982506e+17
19598.0	7.660544422401364e+17
19599.0	7.65989719515682e+17
19600.0	7.659520999642451e+17
19601.0	7.658541770866688e+17
19602.0	7.657576675497299e+17
19603.0	7.655105640442536e+17
19604.0	7.655480896432809e+17
19605.0	7.654177077460992e+17
19606.0	7.653578883028308e+17
19607.0	7.652566439559165e+17
19608.0	7.651489275183101e+17
19609.0	7.650374626312191e+17
19610.0	7.649419135898966e+17
19611.0	7.648341160624125e+17
19612.0	7.647284727294634e+17
19613.0	7.646669369769983e+17
19614.0	7.645595548254205e+17
19615.0	7.644563615252479e+17
19616.0	7.643009491402751e+17
19617.0	7.64235926802705e+17
19618.0	7.640584388171092e+17
19619.0	7.639237897748476e+17
19620.0	7.638157737241254e+17
19621.0	7.637872783218004e+17
19622.0	7.636755497527978e+17
19623.0	7.635616618162857e+17
19624.0	7.634455269911212e+17
19625.0	7.633314426213715e+17
19626.0	7.632143394712233e+17
19627.0	7.630975487967232e+17
19628.0	7.628300103625389e+17
19629.0	7.628423458106024e+17
19630.0	7.624766985513646e+17
19631.0	7.562925507433797e+17
19632.0	7.625486188412927e+17
19633.0	7.624409370765993e+17
19634.0	7.623338176282621e+17
19635.0	7.62209128100659e+17
19636.0	7.620941639057407e+17
19637.0	7.619132862234624e+17
19638.0	7.618556324391594e+17
19639.0	7.61729647570671e+17
19640.0	7.61604287513668e+17
19641.0	7.614262235103235e+17
19642.0	7.613692297696595e+17
19643.0	7.612434739101693e+17
19644.0	7.611173402836991e+17
19645.0	7.609677118439421e+17
19646.0	7.608801038783827e+17
19647.0	7.607565856800764e+17
19648.0	7.606319966759593e+17
19649.0	7.605074500343123e+17
19650.0	7.603841465843711e+17
19651.0	7.602583366183594e+17
19652.0	7.601330226987007e+17
19653.0	7.600064207082836e+17
19654.0	7.598820429572777e+17
19655.0	7.597555328221183e+17
19656.0	7.596304435773441e+17
19657.0	7.595044257136639e+17
19658.0	7.593782957222569e+17
19659.0	7.592522693301587e+17
19660.0	7.591255529750527e+17
19661.0	7.589983806991017e+17
19662.0	7.588709226512384e+17
19663.0	7.58763436201301e+17
19664.0	7.586160577260202e+17
19665.0	7.585180772466687e+17
19666.0	7.583868501972308e+17
