# Flux units: erg / (cm m2 s)
# Wavelength units: Angstrom
wave	flux
19000.0	4.9288207359016954e+17
19001.0	4.927732019014313e+17
19002.0	4.9270772028757325e+17
19003.0	4.926190146027519e+17
19004.0	4.925263712354303e+17
19005.0	4.924316179933866e+17
19006.0	4.9234796078257485e+17
19007.0	4.922682940325887e+17
19008.0	4.9217457189027834e+17
19009.0	4.9205848110530554e+17
19010.0	4.9195529381696845e+17
19011.0	4.919049957234004e+17
19012.0	4.9174030218253626e+17
19013.0	4.9174698916140365e+17
19014.0	4.916508688558762e+17
19015.0	4.9156132920360954e+17
19016.0	4.9147804046240416e+17
19017.0	4.91398089478417e+17
19018.0	4.913083531831978e+17
19019.0	4.912249711187285e+17
19020.0	4.9113593855781536e+17
19021.0	4.9105087821250554e+17
19022.0	4.90964573557009e+17
19023.0	4.9085735330556576e+17
19024.0	4.9075824756435616e+17
19025.0	4.9069283410793805e+17
19026.0	4.905952775329108e+17
19027.0	4.9047276484908365e+17
19028.0	4.9043193029372576e+17
19029.0	4.903443459560787e+17
19030.0	4.902591204950015e+17
19031.0	4.901757290632532e+17
19032.0	4.900857892044798e+17
19033.0	4.899745433299626e+17
19034.0	4.89876030034193e+17
19035.0	4.895960325597865e+17
19036.0	4.860639007386277e+17
19037.0	4.8947317971790496e+17
19038.0	4.8952886567458125e+17
19039.0	4.8946644799979514e+17
19040.0	4.8938384041355936e+17
19041.0	4.8930066275150496e+17
19042.0	4.881483419003547e+17
19043.0	4.89137644904994e+17
19044.0	4.8905143350285645e+17
19045.0	4.8895567754253645e+17
19046.0	4.8886895219834874e+17
19047.0	4.887817343729662e+17
19048.0	4.8853347351920634e+17
19049.0	4.863907009134563e+17
19050.0	4.8848248672092134e+17
19051.0	4.879179505991676e+17
19052.0	4.8811371505472845e+17
19053.0	4.88250368135441e+17
19054.0	4.8817764827136e+17
19055.0	4.877453124173824e+17
19056.0	4.8791305759402624e+17
19057.0	4.8792893499200845e+17
19058.0	4.867132853234328e+17
19059.0	4.873125088985085e+17
19060.0	4.876689451865428e+17
19061.0	4.87579811193378e+17
19062.0	4.874936499830783e+17
19063.0	4.874116738493097e+17
19064.0	4.873141557220692e+17
19065.0	4.872187272669866e+17
19066.0	4.8673092628643885e+17
19067.0	4.870573619063465e+17
19068.0	4.8698287896657914e+17
19069.0	4.868959269901653e+17
19070.0	4.868014201634815e+17
19071.0	4.867170928427007e+17
19072.0	4.862053082726394e+17
19073.0	4.8655255910481894e+17
19074.0	4.8646034684204365e+17
19075.0	4.863794141113002e+17
19076.0	4.862900812382208e+17
19077.0	4.862027177306794e+17
19078.0	4.861122548421972e+17
19079.0	4.8603143472851616e+17
19080.0	4.859465894111913e+17
19081.0	4.858534410496682e+17
19082.0	4.8577423874894496e+17
19083.0	4.8567719136242336e+17
19084.0	4.8557597127256736e+17
19085.0	4.855088237510655e+17
19086.0	4.848023102991016e+17
19087.0	4.84362037843284e+17
19088.0	4.8465856220364704e+17
19089.0	4.851183546706602e+17
19090.0	4.85069626155554e+17
19091.0	4.8492134101155885e+17
19092.0	4.8402931524130374e+17
19093.0	4.84825700045073e+17
19094.0	4.8474398451739296e+17
19095.0	4.846570718276266e+17
19096.0	4.8457317631044256e+17
19097.0	4.84487833129233e+17
19098.0	4.839481646164646e+17
19099.0	4.837661431474864e+17
19100.0	4.8422238758283936e+17
19101.0	4.841386702536704e+17
19102.0	4.84043520090658e+17
19103.0	4.839699382272e+17
19104.0	4.838895536919893e+17
19105.0	4.828032102214344e+17
19106.0	4.836989535431338e+17
19107.0	4.833796734757541e+17
19108.0	4.831441563855532e+17
19109.0	4.833328616876714e+17
19110.0	4.833230200329557e+17
19111.0	4.829950228037626e+17
19112.0	4.828582115977892e+17
19113.0	4.8311607244445e+17
19114.0	4.8283671865589715e+17
19115.0	4.828991739396095e+17
19116.0	4.828540200200874e+17
19117.0	4.8276466841245e+17
19118.0	4.826337880222378e+17
19119.0	4.810296456293014e+17
19120.0	4.8246421902240416e+17
19121.0	4.8240065986778445e+17
19122.0	4.823500055379968e+17
19123.0	4.822686042335913e+17
19124.0	4.8215917470242125e+17
19125.0	4.82093863936546e+17
19126.0	4.819945228948821e+17
19127.0	4.8172517776424954e+17
19128.0	4.818142764553556e+17
19129.0	4.8174437768014496e+17
19130.0	4.8167140755592525e+17
19131.0	4.815877511140692e+17
19132.0	4.814993033090389e+17
19133.0	4.8141151079410336e+17
19134.0	4.81329441546786e+17
19135.0	4.812470812147711e+17
19136.0	4.8116026967763616e+17
19137.0	4.810572743486123e+17
19138.0	4.8098938765093536e+17
19139.0	4.80909211153203e+17
19140.0	4.8082496764859725e+17
19141.0	4.80738606649617e+17
19142.0	4.806492609839103e+17
19143.0	4.8056206392033274e+17
19144.0	4.804762138574847e+17
19145.0	4.803968350464682e+17
19146.0	4.802286702297089e+17
19147.0	4.8021972769396045e+17
19148.0	4.797785731061083e+17
19149.0	4.796250595524608e+17
19150.0	4.7997577914395296e+17
19151.0	4.7988861878053536e+17
19152.0	4.7980076055483725e+17
19153.0	4.7894105350471546e+17
19154.0	4.7955800206868486e+17
19155.0	4.7954536644826445e+17
19156.0	4.794567667395242e+17
19157.0	4.791073669556913e+17
19158.0	4.786795911490227e+17
19159.0	4.791800823458474e+17
19160.0	4.791075295548756e+17
19161.0	4.790047177965566e+17
19162.0	4.787551005747883e+17
19163.0	4.787940883780949e+17
19164.0	4.787678543347711e+17
19165.0	4.7785396191013414e+17
19166.0	4.785890129870847e+17
19167.0	4.7851211825261216e+17
19168.0	4.7843967891756365e+17
19169.0	4.7835866740381e+17
19170.0	4.782769237043881e+17
19171.0	4.7818412193218554e+17
19172.0	4.781031889917268e+17
19173.0	4.780272267209387e+17
19174.0	4.7793779360399354e+17
19175.0	4.7785812028293114e+17
19176.0	4.7777578329920845e+17
19177.0	4.776670444300969e+17
19178.0	4.775878869385215e+17
19179.0	4.775055410069504e+17
19180.0	4.774326284845055e+17
19181.0	4.773347157431637e+17
19182.0	4.7725595824837965e+17
19183.0	4.771839573579092e+17
19184.0	4.7710285755405645e+17
19185.0	4.7701266855362554e+17
19186.0	4.769327113480874e+17
19187.0	4.7684015053864954e+17
19188.0	4.7676341560715936e+17
19189.0	4.766766877463893e+17
19190.0	4.7659114030257485e+17
19191.0	4.76500381995281e+17
19192.0	4.7641672841953274e+17
19193.0	4.7622982652832435e+17
19194.0	4.7608034230272006e+17
19195.0	4.7613831380555085e+17
19196.0	4.760244429957802e+17
19197.0	4.758747883416234e+17
19198.0	4.755516767775401e+17
19199.0	4.740934314317138e+17
19200.0	4.741984870727681e+17
19201.0	4.75330161742097e+17
19202.0	4.754672278918483e+17
19203.0	4.754347639089834e+17
19204.0	4.753850409943039e+17
19205.0	4.753157338256723e+17
19206.0	4.752392878118229e+17
19207.0	4.751367538562387e+17
19208.0	4.7505315040242336e+17
19209.0	4.7499782907057485e+17
19210.0	4.7491110100008954e+17
19211.0	4.7483476683434656e+17
19212.0	4.7474873075411616e+17
19213.0	4.746433966811817e+17
19214.0	4.745526384437931e+17
19215.0	4.7449207912529914e+17
19216.0	4.7441661283095885e+17
19217.0	4.7432881856839674e+17
19218.0	4.741690933204308e+17
19219.0	4.7413814683675296e+17
19220.0	4.7407954954376525e+17
19221.0	4.7397445510539936e+17
19222.0	4.7390787486351354e+17
19223.0	4.738333410328575e+17
19224.0	4.737443170003625e+17
19225.0	4.736583774590292e+17
19226.0	4.735868596125696e+17
19227.0	4.7350360785114445e+17
19228.0	4.7342365994298016e+17
19229.0	4.7333343745802234e+17
19230.0	4.7325487849362765e+17
19231.0	4.731737540831915e+17
19232.0	4.730902719845716e+17
19233.0	4.7299828579478176e+17
19234.0	4.7291975933624314e+17
19235.0	4.7283591261279565e+17
19236.0	4.727571792352596e+17
19237.0	4.7266890381612365e+17
19238.0	4.7257690818914976e+17
19239.0	4.7250822695048525e+17
19240.0	4.72422687965184e+17
19241.0	4.7233953295237114e+17
19242.0	4.722530011054079e+17
19243.0	4.72157229626163e+17
19244.0	4.7209158303634765e+17
19245.0	4.720097845313536e+17
19246.0	4.71926593098001e+17
19247.0	4.718438712868863e+17
19248.0	4.7175982002121376e+17
19249.0	4.7165399507490125e+17
19250.0	4.714359330002262e+17
19251.0	4.713456724869117e+17
19252.0	4.713933867494058e+17
19253.0	4.713421736684203e+17
19254.0	4.712638103683072e+17
19255.0	4.711554783466836e+17
19256.0	4.710932366229504e+17
19257.0	4.710140094360234e+17
19258.0	4.7092948400428365e+17
19259.0	4.7083521807045965e+17
19260.0	4.706352444211198e+17
19261.0	4.706774509333161e+17
19262.0	4.705803670563498e+17
19263.0	4.7048908334257485e+17
19264.0	4.703678392958975e+17
19265.0	4.703186666739028e+17
19266.0	4.702185654146389e+17
19267.0	4.70185493537314e+17
19268.0	4.7010049484827296e+17
19269.0	4.7001967326658554e+17
19270.0	4.699327212901717e+17
19271.0	4.698149816543914e+17
19272.0	4.6976732261690016e+17
19273.0	4.6966537313757856e+17
19274.0	4.6955588425700666e+17
19275.0	4.6952683758332576e+17
19276.0	4.694414066712575e+17
19277.0	4.693609152512e+17
19278.0	4.6926003510968314e+17
19279.0	4.691890475630591e+17
19280.0	4.691040251062955e+17
19281.0	4.690244725811883e+17
19282.0	4.6894196034546336e+17
19283.0	4.6884995681921696e+17
19284.0	4.6876173431821645e+17
19285.0	4.6867599715205114e+17
19286.0	4.6858814256141645e+17
19287.0	4.6846738351609165e+17
19288.0	4.671168954324301e+17
19289.0	4.659705255297e+17
19290.0	4.682104001178282e+17
19291.0	4.681492172461398e+17
19292.0	4.6811292924641274e+17
19293.0	4.680351751689555e+17
19294.0	4.679505214614185e+17
19295.0	4.678745071812607e+17
19296.0	4.67307513756605e+17
19297.0	4.676305772260014e+17
19298.0	4.676246083818836e+17
19299.0	4.670024279130118e+17
19300.0	4.674592805923498e+17
19301.0	4.6738346638049274e+17
19302.0	4.673001979117566e+17
19303.0	4.672057495257087e+17
19304.0	4.671321992593407e+17
19305.0	4.670487296038228e+17
19306.0	4.6696642973969056e+17
19307.0	4.668693304137044e+17
19308.0	4.6678543874129914e+17
19309.0	4.666477588949674e+17
19310.0	4.665462016529749e+17
19311.0	4.66506105295121e+17
19312.0	4.664175141847039e+17
19313.0	4.66226804564514e+17
19314.0	4.54497337868286e+17
19315.0	4.5537428364767296e+17
19316.0	4.6535467838996595e+17
19317.0	4.660112618684415e+17
19318.0	4.659598778695678e+17
19319.0	4.658879401732777e+17
19320.0	4.65626771069337e+17
19321.0	4.652999701255509e+17
19322.0	4.6564144833713485e+17
19323.0	4.655566963430741e+17
19324.0	4.6547475432297805e+17
19325.0	4.6537533121276576e+17
19326.0	4.6531791762227194e+17
19327.0	4.652446589998421e+17
19328.0	4.642699019113823e+17
19329.0	4.650905116868607e+17
19330.0	4.650075305978538e+17
19331.0	4.6492319656618656e+17
19332.0	4.648466113014442e+17
19333.0	4.6476392185637536e+17
19334.0	4.6466168849257837e+17
19335.0	4.6277269777285357e+17
19336.0	4.645068653374123e+17
19337.0	4.6443937793747616e+17
19338.0	4.643298899656702e+17
19339.0	4.6427095510111565e+17
19340.0	4.6415183910447776e+17
19341.0	4.63430436292746e+17
19342.0	4.63802334602855e+17
19343.0	4.639429379489792e+17
19344.0	4.631873744885088e+17
19345.0	4.6326428725848806e+17
19346.0	4.635445948317695e+17
19347.0	4.627696790623573e+17
19348.0	4.635390907165353e+17
19349.0	4.634535181768021e+17
19350.0	4.6305909323857926e+17
19351.0	4.632834556471978e+17
19352.0	4.623059931627505e+17
19353.0	4.6313241009192954e+17
19354.0	4.630541697548288e+17
19355.0	4.6295947537285114e+17
19356.0	4.628888634261504e+17
19357.0	4.6280896214466554e+17
19358.0	4.6272563208956576e+17
19359.0	4.6244823019028397e+17
19360.0	4.61852308231509e+17
19361.0	4.624778491068415e+17
19362.0	4.623999675924479e+17
19363.0	4.623191410475006e+17
19364.0	4.622387135905791e+17
19365.0	4.6215410434266445e+17
19366.0	4.6207022700079776e+17
19367.0	4.6198979618843296e+17
19368.0	4.619112461019819e+17
19369.0	4.618219984431785e+17
19370.0	4.617439264374784e+17
19371.0	4.616570487701504e+17
19372.0	4.615809980694528e+17
19373.0	4.614949525520383e+17
19374.0	4.6141597646411085e+17
19375.0	4.613372736350889e+17
19376.0	4.6125681437136205e+17
19377.0	4.611737455514964e+17
19378.0	4.610923435480405e+17
19379.0	4.6101028136113485e+17
19380.0	4.609199425541461e+17
19381.0	4.6084012327130445e+17
19382.0	4.607510063349759e+17
19383.0	4.606674374142634e+17
19384.0	4.6058548141315405e+17
19385.0	4.605121900052479e+17
19386.0	4.604274581438464e+17
19387.0	4.603404500336639e+17
19388.0	4.602505392553984e+17
19389.0	4.6015301686394874e+17
19390.0	4.5998252176179194e+17
19391.0	4.56705348748353e+17
19392.0	4.59488767595861e+17
19393.0	4.597965150748671e+17
19394.0	4.5974281204531194e+17
19395.0	4.594036679639046e+17
19396.0	4.595276687867907e+17
19397.0	4.5950766258585594e+17
19398.0	4.591914323367254e+17
19399.0	4.589487116692138e+17
19400.0	4.590386764840962e+17
19401.0	4.591693628178432e+17
19402.0	4.590882516893695e+17
19403.0	4.590010802809514e+17
19404.0	4.589134397396308e+17
19405.0	4.5882320040755194e+17
19406.0	4.587395007643647e+17
19407.0	4.5832909881343936e+17
19408.0	4.584731653963776e+17
19409.0	4.5845705046097914e+17
19410.0	4.5838348977875616e+17
19411.0	4.582926298994004e+17
19412.0	4.581987223688532e+17
19413.0	4.5777692484348595e+17
19414.0	4.5801079937433594e+17
19415.0	4.5791090790017696e+17
19416.0	4.577773637074943e+17
19417.0	4.576913212659029e+17
19418.0	4.576135060914175e+17
19419.0	4.5751309473327776e+17
19420.0	4.5741003194586445e+17
19421.0	4.573015408203093e+17
19422.0	4.5718372638610765e+17
19423.0	4.570757211706708e+17
19424.0	4.5695840732665165e+17
19425.0	4.568294794548564e+17
19426.0	4.567017899513172e+17
19427.0	4.5656497552971085e+17
19428.0	4.564109467757226e+17
19429.0	4.5623897269207034e+17
19430.0	4.5586109505208326e+17
19431.0	4.5534054746248557e+17
19432.0	4.556680260659881e+17
19433.0	4.554859236469418e+17
19434.0	4.55231965040913e+17
19435.0	4.547844590185129e+17
19436.0	4.543118774894592e+17
19437.0	4.540194315304959e+17
19438.0	4.470456065196042e+17
19439.0	4.5226203444237626e+17
19440.0	4.5277448779421005e+17
19441.0	4.521895660967253e+17
19442.0	4.513948069352789e+17
19443.0	4.503625943831892e+17
19444.0	4.4899897519199565e+17
19445.0	4.472590478693717e+17
19446.0	4.449204101447679e+17
19447.0	4.416856262355624e+17
19448.0	4.3685929493899955e+17
19449.0	4.2881511933870086e+17
19450.0	4.1004433967240595e+17
19451.0	3.930484242732397e+17
19452.0	4.2186634229186694e+17
19453.0	4.332374595381934e+17
19454.0	4.391358880022525e+17
19455.0	4.4279445585919994e+17
19456.0	4.4530055166033914e+17
19457.0	4.467924122555732e+17
19458.0	4.153119623610834e+17
19459.0	4.4653439517109664e+17
19460.0	4.5017059983796896e+17
19461.0	4.5091633261882016e+17
19462.0	4.5141345956440736e+17
19463.0	4.5177255853643085e+17
19464.0	4.5203757521524045e+17
19465.0	4.5226659805484365e+17
19466.0	4.5244787475524256e+17
19467.0	4.5258587015304525e+17
19468.0	4.526843849867264e+17
19469.0	4.520852394956107e+17
19470.0	4.527893821871445e+17
19471.0	4.528217668277589e+17
19472.0	4.528288340901887e+17
19473.0	4.5282348013103763e+17
19474.0	4.521524710430026e+17
19475.0	4.526830500795732e+17
19476.0	4.527566874476542e+17
19477.0	4.527347972352682e+17
19478.0	4.5270397630109005e+17
19479.0	4.520253869872458e+17
19480.0	4.526092389274965e+17
19481.0	4.525495228738218e+17
19482.0	4.525064843515221e+17
19483.0	4.5245460402667514e+17
19484.0	4.523955292820821e+17
19485.0	4.523333157999957e+17
19486.0	4.516024189015399e+17
19487.0	4.522106935050239e+17
19488.0	4.5214854202873165e+17
19489.0	4.5203514433645216e+17
19490.0	4.5184673871735443e+17
19491.0	4.5193488991518714e+17
19492.0	4.518788459746644e+17
19493.0	4.5180701397483514e+17
19494.0	4.5173182373560314e+17
19495.0	4.516489862316032e+17
19496.0	4.514968125483689e+17
19497.0	4.514213491201364e+17
19498.0	4.503095704813565e+17
19499.0	4.462243472561482e+17
19500.0	4.5113055557713914e+17
19501.0	4.511875549801129e+17
19502.0	4.5113730050730656e+17
19503.0	4.510746788495359e+17
19504.0	4.5100254451029325e+17
19505.0	4.509129782241962e+17
19506.0	4.5085253243153056e+17
19507.0	4.5076728236386976e+17
19508.0	4.506775972391593e+17
19509.0	4.5055409274224634e+17
19510.0	4.50112621204821e+17
19511.0	4.3195635796540077e+17
19512.0	4.488472395339086e+17
19513.0	4.48589022800553e+17
19514.0	4.488610937394506e+17
19515.0	4.5004388998403405e+17
19516.0	4.499828523750739e+17
19517.0	4.4999515545709216e+17
19518.0	4.497565127715494e+17
19519.0	4.496757250239143e+17
19520.0	4.491611046150135e+17
19521.0	4.4972789615383885e+17
19522.0	4.4955485734611603e+17
19523.0	4.49419020896393e+17
19524.0	4.490100160681314e+17
19525.0	4.4940986808620365e+17
19526.0	4.4934584636975776e+17
19527.0	4.492692137792853e+17
19528.0	4.491457408794623e+17
19529.0	4.490436178258604e+17
19530.0	4.490408730034176e+17
19531.0	4.4896326740432205e+17
19532.0	4.4888561860389536e+17
19533.0	4.488062335014229e+17
19534.0	4.487323630698495e+17
19535.0	4.486535797101908e+17
19536.0	4.4857237770513056e+17
19537.0	4.4849169831034874e+17
19538.0	4.477993267232775e+17
19539.0	4.482868258537472e+17
19540.0	4.4826243891199994e+17
19541.0	4.4805484176561485e+17
19542.0	4.4805577192243194e+17
19543.0	4.473974826904239e+17
19544.0	4.47915836449314e+17
19545.0	4.47795986309666e+17
19546.0	4.476999086462293e+17
19547.0	4.4772478296610125e+17
19548.0	4.4765097090525856e+17
19549.0	4.475598980251647e+17
19550.0	4.47492815655185e+17
19551.0	4.4742174163599354e+17
19552.0	4.473405887042902e+17
19553.0	4.472629559820287e+17
19554.0	4.471799011431765e+17
19555.0	4.4703670334040755e+17
19556.0	4.469795165918548e+17
19557.0	4.4694846664867834e+17
19558.0	4.4687755026541216e+17
19559.0	4.4680203231122765e+17
19560.0	4.464968555910482e+17
19561.0	4.466433452234068e+17
19562.0	4.463478279853394e+17
19563.0	4.464945645223936e+17
19564.0	4.464102806825643e+17
19565.0	4.4633725225751885e+17
19566.0	4.4625446347735034e+17
19567.0	4.461842475428523e+17
19568.0	4.461048276276565e+17
19569.0	4.4602800957904205e+17
19570.0	4.459476370675028e+17
19571.0	4.4587211023537485e+17
19572.0	4.45793939034385e+17
19573.0	4.456457135194111e+17
19574.0	4.4560598514182803e+17
19575.0	4.455680476621481e+17
19576.0	4.454534466939562e+17
19577.0	4.453046267762005e+17
19578.0	4.45331703734818e+17
19579.0	4.452568454747476e+17
19580.0	4.451769250392747e+17
19581.0	4.450987536285696e+17
19582.0	4.4502792183043405e+17
19583.0	4.4495258849553056e+17
19584.0	4.448699365195775e+17
19585.0	4.447815674975572e+17
19586.0	4.4469762710132045e+17
19587.0	4.4463140183736314e+17
19588.0	4.445099784841899e+17
19589.0	4.4448122471273805e+17
19590.0	4.443895999321428e+17
19591.0	4.4433233300247885e+17
19592.0	4.4425676988962125e+17
19593.0	4.441214176722942e+17
19594.0	4.4401800528964243e+17
19595.0	4.4402424487608314e+17
19596.0	4.439373213510314e+17
19597.0	4.438701792122196e+17
19598.0	4.4370847669944314e+17
19599.0	4.43715412889873e+17
19600.0	4.4363894995899725e+17
19601.0	4.435556823291219e+17
19602.0	4.434706308617557e+17
19603.0	4.433467374130516e+17
19604.0	4.433163393346218e+17
19605.0	4.4321928160215046e+17
19606.0	4.431770715247957e+17
19607.0	4.431048720340309e+17
19608.0	4.4302115813021005e+17
19609.0	4.429449715340628e+17
19610.0	4.4257101514888595e+17
19611.0	4.423463226485421e+17
19612.0	4.427216247062527e+17
19613.0	4.4263968709017594e+17
19614.0	4.425621148357972e+17
19615.0	4.424872594418346e+17
19616.0	4.420862488870917e+17
19617.0	4.4187768488372934e+17
19618.0	4.421484748821844e+17
19619.0	4.4200984313856e+17
19620.0	4.4186569259963654e+17
19621.0	4.413710723099303e+17
19622.0	4.4195118817389216e+17
19623.0	4.418448730532521e+17
19624.0	4.417085405571755e+17
19625.0	4.4171830363859635e+17
19626.0	4.41633065874227e+17
19627.0	4.4154528384505165e+17
19628.0	4.4141742663925766e+17
19629.0	4.3975683520593837e+17
19630.0	4.407357467525118e+17
19631.0	4.3975519348544864e+17
19632.0	4.410083826641578e+17
19633.0	4.410429788913664e+17
19634.0	4.4101325889208326e+17
19635.0	4.40876523952537e+17
19636.0	4.401386196303864e+17
19637.0	4.400528749843789e+17
19638.0	4.4067820222982784e+17
19639.0	4.40649365061632e+17
19640.0	4.4054547774395725e+17
19641.0	4.4029790692311085e+17
19642.0	4.403764946184874e+17
19643.0	4.403016943796223e+17
19644.0	4.402625848715946e+17
19645.0	4.401699807909204e+17
19646.0	4.393390854635508e+17
19647.0	4.400331312070654e+17
19648.0	4.3997302074900474e+17
19649.0	4.398945532204372e+17
19650.0	4.3981982358568954e+17
19651.0	4.39744053973265e+17
19652.0	4.3966848051445766e+17
19653.0	4.395889671361876e+17
19654.0	4.3951653500136096e+17
19655.0	4.3943756702242125e+17
19656.0	4.393649191605589e+17
