# Flux units: erg / (cm m2 s)
# Wavelength units: Angstrom
wave	flux
19000.0	6.988907203089748e+17
19001.0	6.987536870845097e+17
19002.0	6.986336829439997e+17
19003.0	6.985036332356948e+17
19004.0	6.983738523123711e+17
19005.0	6.982469046413993e+17
19006.0	6.981186946946387e+17
19007.0	6.979744270647293e+17
19008.0	6.97855842066978e+17
19009.0	6.977248322824874e+17
19010.0	6.975635095639378e+17
19011.0	6.974666803511293e+17
19012.0	6.972391367027369e+17
19013.0	6.972143644442623e+17
19014.0	6.970805892153341e+17
19015.0	6.969554760630272e+17
19016.0	6.968400036582739e+17
19017.0	6.967141012078591e+17
19018.0	6.96579474395409e+17
19019.0	6.964552358253908e+17
19020.0	6.963246566561108e+17
19021.0	6.961969994487124e+17
19022.0	6.960678157243731e+17
19023.0	6.959344827148969e+17
19024.0	6.958062587871232e+17
19025.0	6.956676730410324e+17
19026.0	6.955341749157887e+17
19027.0	6.953182675249833e+17
19028.0	6.952883231304361e+17
19029.0	6.951580707673428e+17
19030.0	6.950306805972991e+17
19031.0	6.949006705950719e+17
19032.0	6.947698537485652e+17
19033.0	6.946308292782762e+17
19034.0	6.945021004961108e+17
19035.0	6.943247751796051e+17
19036.0	6.880066977224e+17
19037.0	6.940802382386516e+17
19038.0	6.940279345687208e+17
19039.0	6.939662922809343e+17
19040.0	6.938379371413503e+17
19041.0	6.937079383239338e+17
19042.0	6.935596198352212e+17
19043.0	6.934495271845887e+17
19044.0	6.933182089789439e+17
19045.0	6.931854512881663e+17
19046.0	6.930551519488681e+17
19047.0	6.929274977473876e+17
19048.0	6.927785868132351e+17
19049.0	6.926377671808339e+17
19050.0	6.925273675770537e+17
19051.0	6.913875465207791e+17
19052.0	6.920833772901716e+17
19053.0	6.921397086104234e+17
19054.0	6.920170421354495e+17
19055.0	6.918627901745834e+17
19056.0	6.917543286887764e+17
19057.0	6.916270005944317e+17
19058.0	6.914810448270676e+17
19059.0	6.913632580752723e+17
19060.0	6.912347490047316e+17
19061.0	6.91107380015923e+17
19062.0	6.909767305920511e+17
19063.0	6.908465813389311e+17
19064.0	6.907063034008916e+17
19065.0	6.905708313662803e+17
19066.0	6.904464998225236e+17
19067.0	6.903256464752639e+17
19068.0	6.901953472058707e+17
19069.0	6.900650991069866e+17
19070.0	6.899326926192639e+17
19071.0	6.898001194079572e+17
19072.0	6.896688260885161e+17
19073.0	6.895433209085951e+17
19074.0	6.89413380112384e+17
19075.0	6.892829875896319e+17
19076.0	6.891509003583487e+17
19077.0	6.890209970312532e+17
19078.0	6.88888940348484e+17
19079.0	6.887611836661759e+17
19080.0	6.886294958025385e+17
19081.0	6.88496409767663e+17
19082.0	6.883660538052607e+17
19083.0	6.882292372865023e+17
19084.0	6.880875027365887e+17
19085.0	6.879753633355092e+17
19086.0	6.877923514515456e+17
19087.0	6.87544699261201e+17
19088.0	6.875381251091113e+17
19089.0	6.873486460977151e+17
19090.0	6.873087791682899e+17
19091.0	6.87185363800337e+17
19092.0	6.870103667419817e+17
19093.0	6.869311292091049e+17
19094.0	6.868035126165503e+17
19095.0	6.866736749303124e+17
19096.0	6.865422494902953e+17
19097.0	6.864131508404223e+17
19098.0	6.862778260957866e+17
19099.0	6.861464930702676e+17
19100.0	6.860110283756884e+17
19101.0	6.858874856407039e+17
19102.0	6.857526465964713e+17
19103.0	6.856304145814867e+17
19104.0	6.854994288443391e+17
19105.0	6.853553317128874e+17
19106.0	6.852060237179561e+17
19107.0	6.850984586947241e+17
19108.0	6.849610430196393e+17
19109.0	6.84343704595114e+17
19110.0	6.846657594043049e+17
19111.0	6.845758425442984e+17
19112.0	6.844503254106111e+17
19113.0	6.843182875323049e+17
19114.0	6.840890225415508e+17
19115.0	6.839421201197738e+17
19116.0	6.838285500415999e+17
19117.0	6.836957583070548e+17
19118.0	6.835341219943764e+17
19119.0	6.830915604272463e+17
19120.0	6.832493688083795e+17
19121.0	6.83136344269346e+17
19122.0	6.830482053049001e+17
19123.0	6.82918111556403e+17
19124.0	6.82749976519202e+17
19125.0	6.826543392576851e+17
19126.0	6.825248239736148e+17
19127.0	6.822524530720765e+17
19128.0	6.821688345187667e+17
19129.0	6.821277747292842e+17
19130.0	6.820034473798314e+17
19131.0	6.818712253715795e+17
19132.0	6.817435120304127e+17
19133.0	6.815942635945983e+17
19134.0	6.814376733791572e+17
19135.0	6.813499823663786e+17
19136.0	6.812215241867263e+17
19137.0	6.810778202013696e+17
19138.0	6.809576569569279e+17
19139.0	6.808298361017684e+17
19140.0	6.806996664363689e+17
19141.0	6.805691517894655e+17
19142.0	6.804343302914047e+17
19143.0	6.803033909712211e+17
19144.0	6.801740819770025e+17
19145.0	6.800461343839572e+17
19146.0	6.798623630513494e+17
19147.0	6.797778547463508e+17
19148.0	6.79647469703441e+17
19149.0	6.795163289168553e+17
19150.0	6.793924941884074e+17
19151.0	6.792622754496511e+17
19152.0	6.791241608637097e+17
19153.0	6.789907155866964e+17
19154.0	6.788576479368531e+17
19155.0	6.787344684985001e+17
19156.0	6.78601399939891e+17
19157.0	6.784361596715007e+17
19158.0	6.780300969377788e+17
19159.0	6.781909245886463e+17
19160.0	6.780678984521044e+17
19161.0	6.77924979151121e+17
19162.0	6.770458819035141e+17
19163.0	6.776165792481279e+17
19164.0	6.775518446398121e+17
19165.0	6.774038795212116e+17
19166.0	6.772687757464916e+17
19167.0	6.770914983848617e+17
19168.0	6.770277948063743e+17
19169.0	6.768924053995519e+17
19170.0	6.767715543591594e+17
19171.0	6.766032548353364e+17
19172.0	6.765031110038868e+17
19173.0	6.763796020330495e+17
19174.0	6.762481513573033e+17
19175.0	6.76121891971618e+17
19176.0	6.759904443716947e+17
19177.0	6.758443995452755e+17
19178.0	6.757004987072511e+17
19179.0	6.755386034662058e+17
19180.0	6.754585340630355e+17
19181.0	6.753243587674111e+17
19182.0	6.752007601083732e+17
19183.0	6.750725009484457e+17
19184.0	6.749396061039274e+17
19185.0	6.748100841089705e+17
19186.0	6.746789248674474e+17
19187.0	6.745391104699049e+17
19188.0	6.744135190970365e+17
19189.0	6.74279453762082e+17
19190.0	6.74143090577681e+17
19191.0	6.740072639845716e+17
19192.0	6.738856487419903e+17
19193.0	6.737488161450666e+17
19194.0	6.735921161087657e+17
19195.0	6.734213160807082e+17
19196.0	6.732757649937748e+17
19197.0	6.731126063584595e+17
19198.0	6.72846928028194e+17
19199.0	6.682349179764726e+17
19200.0	6.692490144208225e+17
19201.0	6.724727528401578e+17
19202.0	6.724585504374783e+17
19203.0	6.723428627950249e+17
19204.0	6.722321942664531e+17
19205.0	6.721098247482025e+17
19206.0	6.719813223885481e+17
19207.0	6.718432712764074e+17
19208.0	6.71703992771106e+17
19209.0	6.715893736275967e+17
19210.0	6.714580877879978e+17
19211.0	6.713266708064936e+17
19212.0	6.711928504188927e+17
19213.0	6.710149527197012e+17
19214.0	6.708610805530624e+17
19215.0	6.707751895258452e+17
19216.0	6.706642505345705e+17
19217.0	6.7053193016989e+17
19218.0	6.703322872414205e+17
19219.0	6.70253621462084e+17
19220.0	6.701313837847892e+17
19221.0	6.699765546177876e+17
19222.0	6.698064411972948e+17
19223.0	6.696018045304831e+17
19224.0	6.694666590923433e+17
19225.0	6.693257271924052e+17
19226.0	6.692026171697834e+17
19227.0	6.690692767503699e+17
19228.0	6.689384820637695e+17
19229.0	6.688050362974208e+17
19230.0	6.686678801099433e+17
19231.0	6.6853444007581e+17
19232.0	6.684029868135763e+17
19233.0	6.682634680445609e+17
19234.0	6.681349905711103e+17
19235.0	6.68000312098816e+17
19236.0	6.678688768021843e+17
19237.0	6.677333403151017e+17
19238.0	6.675855717695487e+17
19239.0	6.674660280238079e+17
19240.0	6.673303504683007e+17
19241.0	6.671949927284736e+17
19242.0	6.670613759044266e+17
19243.0	6.669136509097299e+17
19244.0	6.667932718683475e+17
19245.0	6.666577152486057e+17
19246.0	6.665216551026687e+17
19247.0	6.663877619438932e+17
19248.0	6.662510333657087e+17
19249.0	6.661141110106794e+17
19250.0	6.659774935116457e+17
19251.0	6.658343722549247e+17
19252.0	6.656842360247636e+17
19253.0	6.655713466821289e+17
19254.0	6.654364204662783e+17
19255.0	6.652841103283539e+17
19256.0	6.651593561385641e+17
19257.0	6.650272935837696e+17
19258.0	6.648904432309588e+17
19259.0	6.646122681117353e+17
19260.0	6.643218392634706e+17
19261.0	6.643044346494975e+17
19262.0	6.641635186180096e+17
19263.0	6.640254700224511e+17
19264.0	6.638494902386687e+17
19265.0	6.637390379963732e+17
19266.0	6.636011538175316e+17
19267.0	6.634788135195988e+17
19268.0	6.633402368611668e+17
19269.0	6.632013729628159e+17
19270.0	6.630616892877482e+17
19271.0	6.62895852519424e+17
19272.0	6.627801426471593e+17
19273.0	6.625795048297811e+17
19274.0	6.624476260554067e+17
19275.0	6.623634386146644e+17
19276.0	6.62221601514018e+17
19277.0	6.62081358598417e+17
19278.0	6.619406801742505e+17
19279.0	6.617120633432746e+17
19280.0	6.615078665191423e+17
19281.0	6.612034838506153e+17
19282.0	6.6105843398301e+17
19283.0	6.608615692217002e+17
19284.0	6.60737177489681e+17
19285.0	6.606188052130474e+17
19286.0	6.604850308229802e+17
19287.0	6.603359551225855e+17
19288.0	6.585114992923974e+17
19289.0	6.559686957116006e+17
19290.0	6.599006515888127e+17
19291.0	6.597456789067094e+17
19292.0	6.596250609298089e+17
19293.0	6.594783971639295e+17
19294.0	6.593318523065684e+17
19295.0	6.590016053226154e+17
19296.0	6.587645310970538e+17
19297.0	6.58617764221201e+17
19298.0	6.584735652380671e+17
19299.0	6.583217816251049e+17
19300.0	6.581794236618068e+17
19301.0	6.580307240506708e+17
19302.0	6.578808199752361e+17
19303.0	6.577239837638655e+17
19304.0	6.575790734966784e+17
19305.0	6.574289860602537e+17
19306.0	6.571593311802708e+17
19307.0	6.569527606596948e+17
19308.0	6.567077140409001e+17
19309.0	6.563548687761407e+17
19310.0	6.561377213393576e+17
19311.0	6.561807370027007e+17
19312.0	6.560533674546516e+17
19313.0	6.558938027786239e+17
19314.0	6.505711998249636e+17
19315.0	6.508170926445985e+17
19316.0	6.553937775689727e+17
19317.0	6.552708697817087e+17
19318.0	6.551155893075967e+17
19319.0	6.549590890599764e+17
19320.0	6.547968209453055e+17
19321.0	6.54632768573713e+17
19322.0	6.544537862275071e+17
19323.0	6.542463009292288e+17
19324.0	6.540722540904445e+17
19325.0	6.536557360054272e+17
19326.0	6.536131410307753e+17
19327.0	6.534574028182868e+17
19328.0	6.532832623067133e+17
19329.0	6.531247839554217e+17
19330.0	6.529520414053716e+17
19331.0	6.527803613424298e+17
19332.0	6.526103649430185e+17
19333.0	6.524356937820842e+17
19334.0	6.522648618773162e+17
19335.0	6.519214152089597e+17
19336.0	6.516486920557908e+17
19337.0	6.514714322403327e+17
19338.0	6.51273333444881e+17
19339.0	6.511065382081875e+17
19340.0	6.509174011024724e+17
19341.0	6.50731097039394e+17
19342.0	6.505152334091604e+17
19343.0	6.501368518235479e+17
19344.0	6.498318117677738e+17
19345.0	6.494865961517052e+17
19346.0	6.493833226005161e+17
19347.0	6.492386059004585e+17
19348.0	6.490550015011497e+17
19349.0	6.486237001023488e+17
19350.0	6.482180764423508e+17
19351.0	6.480126446054057e+17
19352.0	6.477877783210665e+17
19353.0	6.475895426514943e+17
19354.0	6.47038700442965e+17
19355.0	6.466212182272682e+17
19356.0	6.463985106812927e+17
19357.0	6.461669611230547e+17
19358.0	6.455399950232233e+17
19359.0	6.450558039403178e+17
19360.0	6.447995023960745e+17
19361.0	6.444648190268754e+17
19362.0	6.439245646397439e+17
19363.0	6.436502538726057e+17
19364.0	6.433718330370729e+17
19365.0	6.430901286207487e+17
19366.0	6.428050922493268e+17
19367.0	6.425157483276969e+17
19368.0	6.422252042758826e+17
19369.0	6.419231441332905e+17
19370.0	6.416236854378495e+17
19371.0	6.413264665007444e+17
19372.0	6.410263977437865e+17
19373.0	6.407166166564863e+17
19374.0	6.404087625722537e+17
19375.0	6.400944406615379e+17
19376.0	6.397792306069503e+17
19377.0	6.394594691033769e+17
19378.0	6.391382458848595e+17
19379.0	6.388147859139241e+17
19380.0	6.38484809252864e+17
19381.0	6.381381979821396e+17
19382.0	6.37779519349282e+17
19383.0	6.374193120324265e+17
19384.0	6.370636324667392e+17
19385.0	6.366951896339796e+17
19386.0	6.363214121358676e+17
19387.0	6.359410017654099e+17
19388.0	6.355565491344726e+17
19389.0	6.351645642326015e+17
19390.0	6.347543102007977e+17
19391.0	6.2944782288158e+17
19392.0	6.338479867472549e+17
19393.0	6.335493072835926e+17
19394.0	6.331191772140884e+17
19395.0	6.326866700926976e+17
19396.0	6.322576585042602e+17
19397.0	6.318328248620372e+17
19398.0	6.313833250073257e+17
19399.0	6.308860992159741e+17
19400.0	6.304756614736553e+17
19401.0	6.300213091587412e+17
19402.0	6.295544867586047e+17
19403.0	6.29079758864384e+17
19404.0	6.285996115099647e+17
19405.0	6.280884139327487e+17
19406.0	6.275699054739455e+17
19407.0	6.270580033235626e+17
19408.0	6.264887071561044e+17
19409.0	6.260099917370708e+17
19410.0	6.2547202946717e+17
19411.0	6.248399346423124e+17
19412.0	6.242683603386368e+17
19413.0	6.236847379666259e+17
19414.0	6.230029772696233e+17
19415.0	6.223439785011881e+17
19416.0	6.216576339192488e+17
19417.0	6.207947068320424e+17
19418.0	6.201980668084224e+17
19419.0	6.19220989640704e+17
19420.0	6.183553643577338e+17
19421.0	6.173292529800534e+17
19422.0	6.160355783518892e+17
19423.0	6.146774941040635e+17
19424.0	6.130616963694598e+17
19425.0	6.1114271882281e+17
19426.0	6.087312215638003e+17
19427.0	6.064247044483754e+17
19428.0	6.048323611219284e+17
19429.0	6.033678931066879e+17
19430.0	6.017385562286765e+17
19431.0	5.994179986806113e+17
19432.0	5.985855103565821e+17
19433.0	5.968858854719487e+17
19434.0	5.950011446307497e+17
19435.0	5.929102753486161e+17
19436.0	5.904460112287057e+17
19437.0	5.883321386358102e+17
19438.0	5.788872452953439e+17
19439.0	5.81868656193263e+17
19440.0	5.781258583233874e+17
19441.0	5.73389846749729e+17
19442.0	5.677885342526125e+17
19443.0	5.619226122736977e+17
19444.0	5.563574755786748e+17
19445.0	5.4961454679326726e+17
19446.0	5.411902604356265e+17
19447.0	5.3042548806341914e+17
19448.0	5.1621046045900864e+17
19449.0	4.961846110978047e+17
19450.0	4.6378858588405645e+17
19451.0	4.4695060965840326e+17
19452.0	4.819675275853835e+17
19453.0	5.071677262834355e+17
19454.0	5.2352162914631597e+17
19455.0	5.355750431216981e+17
19456.0	5.448064209431212e+17
19457.0	5.521141987453606e+17
19458.0	5.4933557265914624e+17
19459.0	5.6309349655511264e+17
19460.0	5.689784722784241e+17
19461.0	5.739373084890455e+17
19462.0	5.780034263100074e+17
19463.0	5.814645721923581e+17
19464.0	5.843318806151169e+17
19465.0	5.867513506168831e+17
19466.0	5.888076300331688e+17
19467.0	5.906903841024682e+17
19468.0	5.92407303360785e+17
19469.0	5.939341805223933e+17
19470.0	5.954070323221844e+17
19471.0	5.968195001952937e+17
19472.0	5.981374982914045e+17
19473.0	5.9940055547904e+17
19474.0	6.005875728711679e+17
19475.0	6.023499615305728e+17
19476.0	6.046355243226451e+17
19477.0	6.064528809437864e+17
19478.0	6.079863579126442e+17
19479.0	6.092410987741181e+17
19480.0	6.102808857498963e+17
19481.0	6.111462024019967e+17
19482.0	6.119609098829824e+17
19483.0	6.126019505291264e+17
19484.0	6.131700550948179e+17
19485.0	6.136772647277907e+17
19486.0	6.141881852712276e+17
19487.0	6.145810822245033e+17
19488.0	6.150666698009257e+17
19489.0	6.154279895870122e+17
19490.0	6.156786713930408e+17
19491.0	6.161405372443305e+17
19492.0	6.164922514451113e+17
19493.0	6.167904849144489e+17
19494.0	6.170781336382121e+17
19495.0	6.173544235575977e+17
19496.0	6.175907200193875e+17
19497.0	6.179001775161343e+17
19498.0	6.176014531734191e+17
19499.0	6.107798073682554e+17
19500.0	6.186115883073535e+17
19501.0	6.18858255884834e+17
19502.0	6.190802806680233e+17
19503.0	6.193010219242836e+17
19504.0	6.195088287858687e+17
19505.0	6.197116252018003e+17
19506.0	6.199059259850751e+17
19507.0	6.200923681106602e+17
19508.0	6.202761649586176e+17
19509.0	6.204567906331305e+17
19510.0	6.205900728915284e+17
19511.0	6.111595126063039e+17
19512.0	6.197104598144315e+17
19513.0	6.188809161714312e+17
19514.0	6.196078978968212e+17
19515.0	6.212761495273472e+17
19516.0	6.215132553499988e+17
19517.0	6.216431748251645e+17
19518.0	6.217708211972778e+17
19519.0	6.218860725622099e+17
19520.0	6.219959168401407e+17
19521.0	6.221136805232639e+17
19522.0	6.222060852346879e+17
19523.0	6.222911071322111e+17
19524.0	6.223684199688874e+17
19525.0	6.224514704037203e+17
19526.0	6.225274607763455e+17
19527.0	6.225994188849151e+17
19528.0	6.226673724817408e+17
19529.0	6.227333746786304e+17
19530.0	6.227976209301503e+17
19531.0	6.228573473996799e+17
19532.0	6.229138696306687e+17
19533.0	6.229670412419071e+17
19534.0	6.230166430810112e+17
19535.0	6.230622369131177e+17
19536.0	6.23103067623697e+17
19537.0	6.231457673161385e+17
19538.0	6.231673899319296e+17
19539.0	6.23173464752128e+17
19540.0	6.23306075222835e+17
19541.0	6.235985856342697e+17
19542.0	6.236098358061738e+17
19543.0	6.236104475454121e+17
19544.0	6.240322988976809e+17
19545.0	6.241536835933524e+17
19546.0	6.241088092241919e+17
19547.0	6.241636304551933e+17
19548.0	6.244357915017212e+17
19549.0	6.245909302083583e+17
19550.0	6.245696452340393e+17
19551.0	6.245384222758228e+17
19552.0	6.245049465569279e+17
19553.0	6.246868361849516e+17
19554.0	6.248129027025577e+17
19555.0	6.247695130471082e+17
19556.0	6.247252952962388e+17
19557.0	6.246781824270333e+17
19558.0	6.246292727179946e+17
19559.0	6.246418167627776e+17
19560.0	6.248267511059795e+17
19561.0	6.247725367208618e+17
19562.0	6.247138012954623e+17
19563.0	6.24657502760687e+17
19564.0	6.245974666816169e+17
19565.0	6.245361892982783e+17
19566.0	6.244712306442239e+17
19567.0	6.244099688497151e+17
19568.0	6.245668722398547e+17
19569.0	6.245101092558164e+17
19570.0	6.244422049420627e+17
19571.0	6.243717212012543e+17
19572.0	6.24298095017984e+17
19573.0	6.242259479560191e+17
19574.0	6.241469905327443e+17
19575.0	6.240811726755156e+17
19576.0	6.240054686340436e+17
19577.0	6.239266124333055e+17
19578.0	6.238501269230932e+17
19579.0	6.238482847148713e+17
19580.0	6.238666227012948e+17
19581.0	6.237870645837823e+17
19582.0	6.237071283497641e+17
19583.0	6.236250937753599e+17
19584.0	6.235396591583231e+17
19585.0	6.234491020378112e+17
19586.0	6.233586325782528e+17
19587.0	6.232642297004031e+17
19588.0	6.231667924533249e+17
19589.0	6.231162197027498e+17
19590.0	6.230224114373972e+17
19591.0	6.229443917905919e+17
19592.0	6.228578555396096e+17
19593.0	6.227674063525204e+17
19594.0	6.226587266230953e+17
19595.0	6.225899020790441e+17
19596.0	6.22300289232623e+17
19597.0	6.224434947948543e+17
19598.0	6.225258026281641e+17
19599.0	6.224948902581588e+17
19600.0	6.224036178690047e+17
19601.0	6.223052434746026e+17
19602.0	6.22212401996322e+17
19603.0	6.220183972610045e+17
19604.0	6.220137252257791e+17
19605.0	6.219110049032874e+17
19606.0	6.21841252229666e+17
19607.0	6.21747147846451e+17
19608.0	6.216503264630102e+17
19609.0	6.215516769921705e+17
19610.0	6.216537778159613e+17
19611.0	6.215945510977535e+17
19612.0	6.215034896121855e+17
19613.0	6.21405471384098e+17
19614.0	6.213054169612287e+17
19615.0	6.212095035746985e+17
19616.0	6.210597035180031e+17
19617.0	6.210086016559785e+17
19618.0	6.208693103580499e+17
19619.0	6.207658806389417e+17
19620.0	6.206793854921385e+17
19621.0	6.206276957285033e+17
19622.0	6.205357795835903e+17
19623.0	6.204349086695423e+17
19624.0	6.203322314784767e+17
19625.0	6.203109943891286e+17
19626.0	6.203183691639465e+17
19627.0	6.202101243838464e+17
19628.0	6.199920385414486e+17
19629.0	6.199536346551636e+17
19630.0	6.193653715653972e+17
19631.0	6.148994768044032e+17
19632.0	6.19682808795409e+17
19633.0	6.196598003815763e+17
19634.0	6.195769825209001e+17
19635.0	6.194737639849983e+17
19636.0	6.193677866456403e+17
19637.0	6.192355902925482e+17
19638.0	6.191707068563455e+17
19639.0	6.19066600596002e+17
19640.0	6.189581095403519e+17
19641.0	6.187951101487788e+17
19642.0	6.187561126286675e+17
19643.0	6.186504548952745e+17
19644.0	6.185435768990378e+17
19645.0	6.184224862939818e+17
19646.0	6.183312194273279e+17
19647.0	6.182349333069823e+17
19648.0	6.181302216687615e+17
19649.0	6.180248573968383e+17
19650.0	6.179335536203094e+17
19651.0	6.179587892095658e+17
19652.0	6.178535725072383e+17
19653.0	6.177454618749609e+17
19654.0	6.176414650160468e+17
19655.0	6.175352479023101e+17
19656.0	6.174296230942035e+17
19657.0	6.173239821380265e+17
19658.0	6.172172760383487e+17
19659.0	6.171111216993619e+17
19660.0	6.170047108786857e+17
19661.0	6.168980292457812e+17
19662.0	6.167910933681492e+17
19663.0	6.166771156735315e+17
19664.0	6.165570233827327e+17
19665.0	6.164701611644244e+17
