# Flux units: erg / (cm m2 s)
# Wavelength units: Angstrom
wave	flux
19000.0	7.573049786935977e+17
19001.0	7.5716118984349e+17
19002.0	7.570247712243711e+17
19003.0	7.568844909095593e+17
19004.0	7.567441967535446e+17
19005.0	7.566040060570281e+17
19006.0	7.564636484272127e+17
19007.0	7.563082588312915e+17
19008.0	7.561804941798058e+17
19009.0	7.560393769615356e+17
19010.0	7.558853689693526e+17
19011.0	7.557588852583084e+17
19012.0	7.555924096974845e+17
19013.0	7.554799763455999e+17
19014.0	7.553364925612032e+17
19015.0	7.551967861669887e+17
19016.0	7.550556412663123e+17
19017.0	7.549153247406762e+17
19018.0	7.547737012699136e+17
19019.0	7.546350346436608e+17
19020.0	7.544926482290004e+17
19021.0	7.543528408918698e+17
19022.0	7.542124586554708e+17
19023.0	7.540705463369727e+17
19024.0	7.539291813751466e+17
19025.0	7.537866782190249e+17
19026.0	7.536442238566399e+17
19027.0	7.534804955649364e+17
19028.0	7.53365995679471e+17
19029.0	7.532248488214528e+17
19030.0	7.530836692478633e+17
19031.0	7.529424610131968e+17
19032.0	7.528011985321983e+17
19033.0	7.526565374066687e+17
19034.0	7.525184667910143e+17
19035.0	7.523743653254484e+17
19036.0	7.504987628939942e+17
19037.0	7.520936183289172e+17
19038.0	7.519522372889257e+17
19039.0	7.518119249575935e+17
19040.0	7.51670579429376e+17
19041.0	7.515291556074836e+17
19042.0	7.513847227919017e+17
19043.0	7.51246412821299e+17
19044.0	7.511047163696467e+17
19045.0	7.509624520092329e+17
19046.0	7.508200907603968e+17
19047.0	7.506799336183123e+17
19048.0	7.505315719981738e+17
19049.0	7.503948957089791e+17
19050.0	7.502540516797097e+17
19051.0	7.498468919956815e+17
19052.0	7.4992619370141e+17
19053.0	7.49827237487138e+17
19054.0	7.496894801859926e+17
19055.0	7.495383696190122e+17
19056.0	7.494055192341161e+17
19057.0	7.492643821628074e+17
19058.0	7.491194660235945e+17
19059.0	7.489813835240787e+17
19060.0	7.488389016190973e+17
19061.0	7.486981307105279e+17
19062.0	7.485562852212735e+17
19063.0	7.484146775490557e+17
19064.0	7.482687586915668e+17
19065.0	7.481245923540991e+17
19066.0	7.479873164192425e+17
19067.0	7.478479025078271e+17
19068.0	7.477062379328851e+17
19069.0	7.47564555322436e+17
19070.0	7.474224482484221e+17
19071.0	7.472802291864915e+17
19072.0	7.471390553451178e+17
19073.0	7.469974285189119e+17
19074.0	7.468558820835328e+17
19075.0	7.467141305466879e+17
19076.0	7.465715904806913e+17
19077.0	7.46430163582976e+17
19078.0	7.462877652844543e+17
19079.0	7.46147069034496e+17
19080.0	7.460050060006739e+17
19081.0	7.458619799546536e+17
19082.0	7.457200189822292e+17
19083.0	7.455760371941375e+17
19084.0	7.454287624579753e+17
19085.0	7.452960718760617e+17
19086.0	7.45137466647074e+17
19087.0	7.449593637765119e+17
19088.0	7.448634759752361e+17
19089.0	7.446938272836266e+17
19090.0	7.445848940784298e+17
19091.0	7.444437423270569e+17
19092.0	7.442888055761577e+17
19093.0	7.441615516510889e+17
19094.0	7.440189240639487e+17
19095.0	7.438768706770258e+17
19096.0	7.437354787318442e+17
19097.0	7.43594484826112e+17
19098.0	7.434529163007315e+17
19099.0	7.433110919228074e+17
19100.0	7.431665500553216e+17
19101.0	7.430264459012778e+17
19102.0	7.428823785493842e+17
19103.0	7.427438750815574e+17
19104.0	7.426020158909096e+17
19105.0	7.424599469850624e+17
19106.0	7.423084846557866e+17
19107.0	7.421755372426582e+17
19108.0	7.420339298500608e+17
19109.0	7.417236025245693e+17
19110.0	7.417447528617299e+17
19111.0	7.416083798207144e+17
19112.0	7.414672831545343e+17
19113.0	7.413256108900351e+17
19114.0	7.411837863723007e+17
19115.0	7.410373860087126e+17
19116.0	7.408991951563434e+17
19117.0	7.407571115704317e+17
19118.0	7.406042163270996e+17
19119.0	7.403707623451304e+17
19120.0	7.403178559537152e+17
19121.0	7.401800227356671e+17
19122.0	7.400490681761791e+17
19123.0	7.399070997938175e+17
19124.0	7.397556153745407e+17
19125.0	7.396219313018195e+17
19126.0	7.394806542805674e+17
19127.0	7.392775239980372e+17
19128.0	7.391058920996861e+17
19129.0	7.390528503720617e+17
19130.0	7.389138714099711e+17
19131.0	7.3876935554717e+17
19132.0	7.386302864075432e+17
19133.0	7.384660824817663e+17
19134.0	7.383055262023679e+17
19135.0	7.382042102726653e+17
19136.0	7.380628978794496e+17
19137.0	7.379149101116074e+17
19138.0	7.377743227737428e+17
19139.0	7.376368817231187e+17
19140.0	7.374953262000809e+17
19141.0	7.373534540070913e+17
19142.0	7.372106401928532e+17
19143.0	7.370677415138644e+17
19144.0	7.369273426400595e+17
19145.0	7.367850457038849e+17
19146.0	7.366196694701395e+17
19147.0	7.364984613546666e+17
19148.0	7.363588030551382e+17
19149.0	7.362171053451944e+17
19150.0	7.360754596446207e+17
19151.0	7.359338605008212e+17
19152.0	7.357898159379796e+17
19153.0	7.356491406595411e+17
19154.0	7.355031256126804e+17
19155.0	7.353656540834474e+17
19156.0	7.352230768279551e+17
19157.0	7.350763093229565e+17
19158.0	7.348259253125117e+17
19159.0	7.347944852291583e+17
19160.0	7.346522862998868e+17
19161.0	7.345036085690368e+17
19162.0	7.34110100086238e+17
19163.0	7.342200032941396e+17
19164.0	7.340864084202836e+17
19165.0	7.339399848482132e+17
19166.0	7.337927614223702e+17
19167.0	7.336354312617983e+17
19168.0	7.335152458574505e+17
19169.0	7.333705299263487e+17
19170.0	7.332333615054847e+17
19171.0	7.330772230864896e+17
19172.0	7.329474618064893e+17
19173.0	7.328063087968253e+17
19174.0	7.326630091423743e+17
19175.0	7.325227579080701e+17
19176.0	7.323803751284735e+17
19177.0	7.322322042093565e+17
19178.0	7.320885943162195e+17
19179.0	7.31933029817822e+17
19180.0	7.318025925558272e+17
19181.0	7.316640513392639e+17
19182.0	7.31524574093858e+17
19183.0	7.313823218969257e+17
19184.0	7.312376056862035e+17
19185.0	7.310981368294057e+17
19186.0	7.309558082961407e+17
19187.0	7.308107597567316e+17
19188.0	7.306695490054826e+17
19189.0	7.305236238565375e+17
19190.0	7.3037975139997e+17
19191.0	7.302392771685033e+17
19192.0	7.300987203092479e+17
19193.0	7.299512755639636e+17
19194.0	7.29810847469841e+17
19195.0	7.296695704485887e+17
19196.0	7.295259707615913e+17
19197.0	7.29380635471599e+17
19198.0	7.292272441819135e+17
19199.0	7.275605719165606e+17
19200.0	7.27876563929225e+17
19201.0	7.287999616253952e+17
19202.0	7.286662237257727e+17
19203.0	7.285217423960744e+17
19204.0	7.283815572919636e+17
19205.0	7.28240333258752e+17
19206.0	7.280968349341011e+17
19207.0	7.279510712658602e+17
19208.0	7.27803836235776e+17
19209.0	7.276675435855871e+17
19210.0	7.275240849670144e+17
19211.0	7.273804938084351e+17
19212.0	7.272368077187753e+17
19213.0	7.270780804355412e+17
19214.0	7.269268447384918e+17
19215.0	7.267992998685353e+17
19216.0	7.266616941215743e+17
19217.0	7.26518219145216e+17
19218.0	7.26343974335283e+17
19219.0	7.262241279705087e+17
19220.0	7.260845233580713e+17
19221.0	7.25929585488691e+17
19222.0	7.257977058055508e+17
19223.0	7.256535730225151e+17
19224.0	7.255077959325011e+17
19225.0	7.253595181984425e+17
19226.0	7.252203995660287e+17
19227.0	7.250749650108415e+17
19228.0	7.249311989497855e+17
19229.0	7.247864220614655e+17
19230.0	7.246379787922089e+17
19231.0	7.244942897665364e+17
19232.0	7.243509662045523e+17
19233.0	7.242038437216255e+17
19234.0	7.240604923374249e+17
19235.0	7.239152188435114e+17
19236.0	7.237115841260202e+17
19237.0	7.235570621917864e+17
19238.0	7.234063440718505e+17
19239.0	7.232664192942079e+17
19240.0	7.231166144140627e+17
19241.0	7.229725431474858e+17
19242.0	7.228280355334824e+17
19243.0	7.226760528308906e+17
19244.0	7.225364013820585e+17
19245.0	7.223900236677119e+17
19246.0	7.222429438268756e+17
19247.0	7.220968437754538e+17
19248.0	7.21950173298688e+17
19249.0	7.218026018854228e+17
19250.0	7.216560018729642e+17
19251.0	7.2150434185216e+17
19252.0	7.213509881714003e+17
19253.0	7.212140307240275e+17
19254.0	7.210661805293565e+17
19255.0	7.209120841771689e+17
19256.0	7.207672447937194e+17
19257.0	7.206228617505449e+17
19258.0	7.204748716059305e+17
19259.0	7.203237688683177e+17
19260.0	7.201502421232296e+17
19261.0	7.200291928320681e+17
19262.0	7.198784480083968e+17
19263.0	7.197290249497258e+17
19264.0	7.1956315518621e+17
19265.0	7.194256350030505e+17
19266.0	7.192772886222164e+17
19267.0	7.191327909347325e+17
19268.0	7.189826705031168e+17
19269.0	7.188323361619965e+17
19270.0	7.186817010892799e+17
19271.0	7.185192540176384e+17
19272.0	7.183785779003391e+17
19273.0	7.181139840073725e+17
19274.0	7.180094929895423e+17
19275.0	7.179253921611775e+17
19276.0	7.177727194955775e+17
19277.0	7.176212187185152e+17
19278.0	7.174686840455168e+17
19279.0	7.173132917932032e+17
19280.0	7.171599304228861e+17
19281.0	7.170091031112361e+17
19282.0	7.168548939322708e+17
19283.0	7.166785577025535e+17
19284.0	7.165140099836586e+17
19285.0	7.163855517341011e+17
19286.0	7.162364319236096e+17
19287.0	7.160821664011603e+17
19288.0	7.154446700817061e+17
19289.0	7.146609631210136e+17
19290.0	7.156142327900842e+17
19291.0	7.154479496080042e+17
19292.0	7.153008610989395e+17
19293.0	7.151431664533504e+17
19294.0	7.149856517434024e+17
19295.0	7.148274272174079e+17
19296.0	7.146687692799999e+17
19297.0	7.145088127860735e+17
19298.0	7.143494626486952e+17
19299.0	7.141901413122047e+17
19300.0	7.140295956583764e+17
19301.0	7.138684355390121e+17
19302.0	7.137066208286035e+17
19303.0	7.135422652088319e+17
19304.0	7.133810455303508e+17
19305.0	7.13184585589282e+17
19306.0	7.129594261230932e+17
19307.0	7.127919450477908e+17
19308.0	7.126278328374612e+17
19309.0	7.124125329216851e+17
19310.0	7.122271767014058e+17
19311.0	7.121248246388051e+17
19312.0	7.119656741502975e+17
19313.0	7.117967060544169e+17
19314.0	7.107146951600814e+17
19315.0	7.105919819885236e+17
19316.0	7.112844311003135e+17
19317.0	7.111190906579625e+17
19318.0	7.109471005660499e+17
19319.0	7.107755543713108e+17
19320.0	7.106022135737e+17
19321.0	7.104284101443583e+17
19322.0	7.102462745903104e+17
19323.0	7.100539309391871e+17
19324.0	7.098989006553087e+17
19325.0	7.096778794292564e+17
19326.0	7.095438883334825e+17
19327.0	7.093657291194365e+17
19328.0	7.091890240705875e+17
19329.0	7.090102236872701e+17
19330.0	7.088244360129194e+17
19331.0	7.085112748758356e+17
19332.0	7.083278350330538e+17
19333.0	7.081411039199232e+17
19334.0	7.079543140865364e+17
19335.0	7.077660454813696e+17
19336.0	7.075753458576041e+17
19337.0	7.073847396270079e+17
19338.0	7.071847252929194e+17
19339.0	7.069984519181651e+17
19340.0	7.068011522774356e+17
19341.0	7.066053214819667e+17
19342.0	7.063923196253523e+17
19343.0	7.062073129304063e+17
19344.0	7.060055323749033e+17
19345.0	7.055778071795025e+17
19346.0	7.053942111688019e+17
19347.0	7.052134858795689e+17
19348.0	7.050065482874879e+17
19349.0	7.047939321670314e+17
19350.0	7.045799761062569e+17
19351.0	7.043646313114281e+17
19352.0	7.041447752630271e+17
19353.0	7.039272554419539e+17
19354.0	7.035764884548266e+17
19355.0	7.03257008808482e+17
19356.0	7.030194083375786e+17
19357.0	7.027770160840704e+17
19358.0	7.025426337628159e+17
19359.0	7.023017887181481e+17
19360.0	7.020672877679956e+17
19361.0	7.016233715804845e+17
19362.0	7.01309645750272e+17
19363.0	7.010602815149395e+17
19364.0	7.008075667297619e+17
19365.0	7.005514684694527e+17
19366.0	7.001391005084329e+17
19367.0	6.996987219367252e+17
19368.0	6.994295916243626e+17
19369.0	6.991532919881727e+17
19370.0	6.987742654584145e+17
19371.0	6.98203404116514e+17
19372.0	6.979156855575891e+17
19373.0	6.976205837653331e+17
19374.0	6.96991080461107e+17
19375.0	6.965584896633513e+17
19376.0	6.962457782954665e+17
19377.0	6.957360696961704e+17
19378.0	6.953377108503209e+17
19379.0	6.950053634288297e+17
19380.0	6.946664993172138e+17
19381.0	6.943209679399593e+17
19382.0	6.939656966198612e+17
19383.0	6.935683762836819e+17
19384.0	6.931888005797203e+17
19385.0	6.928134096726697e+17
19386.0	6.924301115239081e+17
19387.0	6.920382548978346e+17
19388.0	6.916376193837737e+17
19389.0	6.912279501777578e+17
19390.0	6.908095777909417e+17
19391.0	6.889980657926124e+17
19392.0	6.89922174842743e+17
19393.0	6.894482214966612e+17
19394.0	6.889486845039956e+17
19395.0	6.884751463940093e+17
19396.0	6.879910656912041e+17
19397.0	6.874990355939327e+17
19398.0	6.869889985107284e+17
19399.0	6.863582028016297e+17
19400.0	6.857910792836436e+17
19401.0	6.852386809883306e+17
19402.0	6.846674842419199e+17
19403.0	6.839493280311978e+17
19404.0	6.832809929517737e+17
19405.0	6.826538987858602e+17
19406.0	6.81826510036446e+17
19407.0	6.810951261093887e+17
19408.0	6.802573354161495e+17
19409.0	6.79381998641698e+17
19410.0	6.784333522141181e+17
19411.0	6.774831215979177e+17
19412.0	6.762385545101312e+17
19413.0	6.750387115655169e+17
19414.0	6.736565076230144e+17
19415.0	6.72088652600661e+17
19416.0	6.702793589697194e+17
19417.0	6.685016564170753e+17
19418.0	6.67166235951104e+17
19419.0	6.659595792897364e+17
19420.0	6.64706878817348e+17
19421.0	6.633977443341652e+17
19422.0	6.620255397522089e+17
19423.0	6.605886770380797e+17
19424.0	6.590675399912106e+17
19425.0	6.575301408587776e+17
19426.0	6.559483102057812e+17
19427.0	6.542355968557056e+17
19428.0	6.524902806213972e+17
19429.0	6.505353037130409e+17
19430.0	6.484654490124287e+17
19431.0	6.460366591273644e+17
19432.0	6.437688774579539e+17
19433.0	6.40926584982733e+17
19434.0	6.37548254584286e+17
19435.0	6.333025964348762e+17
19436.0	6.286130774627667e+17
19437.0	6.251887486216874e+17
19438.0	6.202346319118337e+17
19439.0	6.174856861887148e+17
19440.0	6.130733732418902e+17
19441.0	6.080479254020092e+17
19442.0	6.022311471742979e+17
19443.0	5.951664843740499e+17
19444.0	5.868115555166884e+17
19445.0	5.786296001757188e+17
19446.0	5.689429958066175e+17
19447.0	5.571444358512634e+17
19448.0	5.4295107189691795e+17
19449.0	5.2542213728501754e+17
19450.0	5.015865471445629e+17
19451.0	4.939265783889921e+17
19452.0	5.1377838657372134e+17
19453.0	5.347154463817736e+17
19454.0	5.499755828346873e+17
19455.0	5.627447187166547e+17
19456.0	5.7317524763224794e+17
19457.0	5.816951676862459e+17
19458.0	5.887983089614862e+17
19459.0	5.972971480940545e+17
19460.0	6.03426460899737e+17
19461.0	6.085866227236863e+17
19462.0	6.130548445544448e+17
19463.0	6.170217408714067e+17
19464.0	6.206143184153257e+17
19465.0	6.238629280088064e+17
19466.0	6.276151354501802e+17
19467.0	6.320127951066449e+17
19468.0	6.355353386090502e+17
19469.0	6.38292956894549e+17
19470.0	6.407406816154962e+17
19471.0	6.428225734792532e+17
19472.0	6.447331565458771e+17
19473.0	6.464548334731264e+17
19474.0	6.480298295077546e+17
19475.0	6.49505632629555e+17
19476.0	6.509006461861887e+17
19477.0	6.522014942625791e+17
19478.0	6.534870866766505e+17
19479.0	6.547031099179008e+17
19480.0	6.558527922722132e+17
19481.0	6.569332817526783e+17
19482.0	6.579572641715539e+17
19483.0	6.589286508571305e+17
19484.0	6.598599767665321e+17
19485.0	6.612042654591663e+17
19486.0	6.628055441910444e+17
19487.0	6.641686988630692e+17
19488.0	6.653847014124201e+17
19489.0	6.664757900389038e+17
19490.0	6.6730844997987e+17
19491.0	6.680720781781673e+17
19492.0	6.689304844348074e+17
19493.0	6.694330602706258e+17
19494.0	6.701468392357887e+17
19495.0	6.705645158574762e+17
19496.0	6.711253233827836e+17
19497.0	6.715695115709098e+17
19498.0	6.717618538239318e+17
19499.0	6.702735505577292e+17
19500.0	6.727625870759252e+17
19501.0	6.730625569871187e+17
19502.0	6.733456114799955e+17
19503.0	6.737125433147392e+17
19504.0	6.739965720046249e+17
19505.0	6.742368738170195e+17
19506.0	6.744630083889833e+17
19507.0	6.746764434472959e+17
19508.0	6.748785406727507e+17
19509.0	6.751331678508374e+17
19510.0	6.753267832149334e+17
19511.0	6.735054124351478e+17
19512.0	6.753075867243855e+17
19513.0	6.752000337947296e+17
19514.0	6.754945224496463e+17
19515.0	6.760457285140479e+17
19516.0	6.762058362825385e+17
19517.0	6.763198488597843e+17
19518.0	6.764290415525887e+17
19519.0	6.76540360757521e+17
19520.0	6.766692328450729e+17
19521.0	6.767546657144831e+17
19522.0	6.768319178036564e+17
19523.0	6.769040901712553e+17
19524.0	6.769690268751187e+17
19525.0	6.77172779103027e+17
19526.0	6.773283963797503e+17
19527.0	6.773742903842132e+17
19528.0	6.776274459208358e+17
19529.0	6.778776481781076e+17
19530.0	6.779053301650772e+17
19531.0	6.779282346300756e+17
19532.0	6.782731762881878e+17
19533.0	6.78322712346624e+17
19534.0	6.783296174992042e+17
19535.0	6.783325531624787e+17
19536.0	6.784972553715711e+17
19537.0	6.786322002520746e+17
19538.0	6.786188517397844e+17
19539.0	6.785909719214762e+17
19540.0	6.785914500022272e+17
19541.0	6.785792377268904e+17
19542.0	6.788018250361514e+17
19543.0	6.787750326610602e+17
19544.0	6.787454582041257e+17
19545.0	6.786972325161641e+17
19546.0	6.786484120758954e+17
19547.0	6.786409764137641e+17
19548.0	6.786012313987753e+17
19549.0	6.787318588025514e+17
19550.0	6.787384797910356e+17
19551.0	6.786913836291412e+17
19552.0	6.786419277518164e+17
19553.0	6.785895141212159e+17
19554.0	6.785355100804436e+17
19555.0	6.784812885650089e+17
19556.0	6.784239512409427e+17
19557.0	6.783646608392191e+17
19558.0	6.78303857971473e+17
19559.0	6.783487841402879e+17
19560.0	6.783330016034815e+17
19561.0	6.782678764355583e+17
19562.0	6.782001642908328e+17
19563.0	6.781309375130281e+17
19564.0	6.780603742202538e+17
19565.0	6.779884052763987e+17
19566.0	6.779144013261481e+17
19567.0	6.778404412063743e+17
19568.0	6.777635779990868e+17
19569.0	6.776873354089812e+17
19570.0	6.776093899314516e+17
19571.0	6.775298461444778e+17
19572.0	6.774484152702291e+17
19573.0	6.773671670579199e+17
19574.0	6.772819234914303e+17
19575.0	6.772871575633919e+17
19576.0	6.772348097134591e+17
19577.0	6.771483737762473e+17
19578.0	6.770609530863615e+17
19579.0	6.769740558456148e+17
19580.0	6.768858126527146e+17
19581.0	6.767969721909247e+17
19582.0	6.767075805975891e+17
19583.0	6.766168074005161e+17
19584.0	6.765243795505151e+17
19585.0	6.764288015684948e+17
19586.0	6.763334920219306e+17
19587.0	6.76236794859793e+17
19588.0	6.761348258769577e+17
19589.0	6.760546155451731e+17
19590.0	6.75957518246434e+17
19591.0	6.758644929877332e+17
19592.0	6.757676249077076e+17
19593.0	6.756693083947007e+17
19594.0	6.755616962554537e+17
19595.0	6.754716053318314e+17
19596.0	6.751667430446422e+17
19597.0	6.752680460419071e+17
19598.0	6.751641508249599e+17
19599.0	6.750730299899903e+17
19600.0	6.749717088174079e+17
19601.0	6.748673659284138e+17
19602.0	6.747657039686314e+17
19603.0	6.746267938630313e+17
19604.0	6.745566966273366e+17
19605.0	6.744470552139091e+17
19606.0	6.743537497757012e+17
19607.0	6.743241871327232e+17
19608.0	6.742278026559487e+17
19609.0	6.741209567461375e+17
19610.0	6.740168796362068e+17
19611.0	6.739106050605055e+17
19612.0	6.738043971742378e+17
19613.0	6.736976279502847e+17
19614.0	6.735889273891498e+17
19615.0	6.73482641908258e+17
19616.0	6.733623171132073e+17
19617.0	6.732671967297535e+17
19618.0	6.731393683248467e+17
19619.0	6.730261481914367e+17
19620.0	6.729179924004863e+17
19621.0	6.728318478974975e+17
19622.0	6.727223098037587e+17
19623.0	6.726124939771903e+17
19624.0	6.725023912602281e+17
19625.0	6.723918861697023e+17
19626.0	6.722812931386025e+17
19627.0	6.721700468446548e+17
19628.0	6.720225474336084e+17
19629.0	6.719431519851859e+17
19630.0	6.717369241392468e+17
19631.0	6.70091109798161e+17
19632.0	6.716091594178559e+17
19633.0	6.714981044540755e+17
19634.0	6.713881344868351e+17
19635.0	6.712742131357012e+17
19636.0	6.711631269243561e+17
19637.0	6.710353391342934e+17
19638.0	6.709368280754857e+17
19639.0	6.708231443316735e+17
19640.0	6.70706933309986e+17
19641.0	6.705746811027455e+17
19642.0	6.704828502420138e+17
19643.0	6.703686005467816e+17
19644.0	6.70252370371106e+17
19645.0	6.701307794554877e+17
19646.0	6.700259266090323e+17
19647.0	6.699113280176127e+17
19648.0	6.697965727689385e+17
19649.0	6.696815723631955e+17
19650.0	6.695666476646399e+17
19651.0	6.694514826324649e+17
19652.0	6.693361864583849e+17
19653.0	6.69220049396258e+17
19654.0	6.691052557697023e+17
19655.0	6.689894399213567e+17
19656.0	6.688735895399081e+17
19657.0	6.68757956633122e+17
19658.0	6.686419616180905e+17
19659.0	6.685257998794751e+17
19660.0	6.684096519820627e+17
19661.0	6.682933354736297e+17
19662.0	6.681769057189887e+17
19663.0	6.68058062561826e+17
19664.0	6.679376078831615e+17
19665.0	6.678270704265897e+17
