# Flux units: erg / (cm m2 s)
# Wavelength units: Angstrom
wave	flux
19000.0	3.3637241140019194e+17
19001.0	3.3631866275758074e+17
19002.0	3.3626407832999245e+17
19003.0	3.362095044930218e+17
19004.0	3.3612933260902394e+17
19005.0	3.3608578835851936e+17
19006.0	3.3603092714181965e+17
19007.0	3.359811908053674e+17
19008.0	3.3592449269323085e+17
19009.0	3.358694937985024e+17
19010.0	3.3579944486720845e+17
19011.0	3.3574453153628154e+17
19012.0	3.3566428188289696e+17
19013.0	3.356469982396416e+17
19014.0	3.355729318292138e+17
19015.0	3.3551184385365325e+17
19016.0	3.3546285364893005e+17
19017.0	3.354207969782442e+17
19018.0	3.3535981476904954e+17
19019.0	3.3530516459574605e+17
19020.0	3.3524673699730765e+17
19021.0	3.351909633447253e+17
19022.0	3.351405042248362e+17
19023.0	3.350686130154154e+17
19024.0	3.3502021011810976e+17
19025.0	3.3496505271364256e+17
19026.0	3.349100492051797e+17
19027.0	3.3485375584337914e+17
19028.0	3.3479043191930874e+17
19029.0	3.347277251171669e+17
19030.0	3.34664686965009e+17
19031.0	3.346257104513706e+17
19032.0	3.345764366068394e+17
19033.0	3.34503635652881e+17
19034.0	3.3445662659269965e+17
19035.0	3.3440704796207776e+17
19036.0	3.342039122968574e+17
19037.0	3.3428721054515194e+17
19038.0	3.342319593630378e+17
19039.0	3.341755409061205e+17
19040.0	3.3411462199596365e+17
19041.0	3.340626577151317e+17
19042.0	3.333561484924236e+17
19043.0	3.3395304415887354e+17
19044.0	3.3390594883583994e+17
19045.0	3.3384181845196794e+17
19046.0	3.337836868315818e+17
19047.0	3.337240574601898e+17
19048.0	3.3360016537463456e+17
19049.0	3.322607357482308e+17
19050.0	3.3356240391591245e+17
19051.0	3.3348524340237645e+17
19052.0	3.3344747554734074e+17
19053.0	3.3339528956258976e+17
19054.0	3.3332719730906445e+17
19055.0	3.330698644204202e+17
19056.0	3.331686848091474e+17
19057.0	3.3317438651105274e+17
19058.0	3.3242017151931616e+17
19059.0	3.3275490626874003e+17
19060.0	3.33006846820352e+17
19061.0	3.3294002295930874e+17
19062.0	3.3287449083904e+17
19063.0	3.3283921527439354e+17
19064.0	3.327820324055722e+17
19065.0	3.3272385345945594e+17
19066.0	3.324009939031384e+17
19067.0	3.3258733868591776e+17
19068.0	3.325626218971136e+17
19069.0	3.3250310454859085e+17
19070.0	3.3243088894470816e+17
19071.0	3.3238328002914976e+17
19072.0	3.320547498437287e+17
19073.0	3.322864423228757e+17
19074.0	3.3220980302151674e+17
19075.0	3.3217074038483616e+17
19076.0	3.3210885266036045e+17
19077.0	3.320554980726101e+17
19078.0	3.3199791929644365e+17
19079.0	3.3193624607566496e+17
19080.0	3.318895574603093e+17
19081.0	3.3183573894758394e+17
19082.0	3.317848099957418e+17
19083.0	3.317209375615658e+17
19084.0	3.31666993778961e+17
19085.0	3.316098422975146e+17
19086.0	3.312346079079081e+17
19087.0	3.309598371654307e+17
19088.0	3.311366378094587e+17
19089.0	3.3138708567818234e+17
19090.0	3.3133629014015994e+17
19091.0	3.3124068867003757e+17
19092.0	3.3071668651185645e+17
19093.0	3.311645842822485e+17
19094.0	3.3111287802101754e+17
19095.0	3.310485030393173e+17
19096.0	3.3100133571406496e+17
19097.0	3.3094259064176634e+17
19098.0	3.306307860824061e+17
19099.0	3.305134359576579e+17
19100.0	3.307811369560746e+17
19101.0	3.3071789080139085e+17
19102.0	3.3066633029222394e+17
19103.0	3.3060361538109434e+17
19104.0	3.3056320941370016e+17
19105.0	3.299219113071975e+17
19106.0	3.3044417702352205e+17
19107.0	3.302590756072103e+17
19108.0	3.301236447117312e+17
19109.0	3.302729205852842e+17
19110.0	3.3022151292354554e+17
19111.0	3.299976643171666e+17
19112.0	3.299190143014225e+17
19113.0	3.300599740934827e+17
19114.0	3.299008079462398e+17
19115.0	3.2993227711010125e+17
19116.0	3.298813392453632e+17
19117.0	3.298329245690538e+17
19118.0	3.2977981164311885e+17
19119.0	3.290462734865738e+17
19120.0	3.296709240509781e+17
19121.0	3.2960741309590176e+17
19122.0	3.2956845958103034e+17
19123.0	3.2951673220846925e+17
19124.0	3.2945790489285965e+17
19125.0	3.294011768264021e+17
19126.0	3.293438185657685e+17
19127.0	3.2924443862193485e+17
19128.0	3.292282280564052e+17
19129.0	3.2918177624446285e+17
19130.0	3.29129261601041e+17
19131.0	3.290716311300778e+17
19132.0	3.290106895706794e+17
19133.0	3.289613886728874e+17
19134.0	3.289044226845354e+17
19135.0	3.288548558678698e+17
19136.0	3.287919466556074e+17
19137.0	3.2872307157019296e+17
19138.0	3.286832848218794e+17
19139.0	3.286358420007594e+17
19140.0	3.2858114191523834e+17
19141.0	3.285245028029781e+17
19142.0	3.284658518928042e+17
19143.0	3.28407014510865e+17
19144.0	3.283474581203626e+17
19145.0	3.2829691039580154e+17
19146.0	3.282378399853226e+17
19147.0	3.2818653270725965e+17
19148.0	3.279091514998787e+17
19149.0	3.278019870676309e+17
19150.0	3.2803018827803296e+17
19151.0	3.2797016457215994e+17
19152.0	3.2792103127176525e+17
19153.0	3.2737333017750106e+17
19154.0	3.277678164923734e+17
19155.0	3.2775739186435405e+17
19156.0	3.276977751807317e+17
19157.0	3.274904695384751e+17
19158.0	3.272397645938693e+17
19159.0	3.2751913841022285e+17
19160.0	3.274709530225322e+17
19161.0	3.2742122053085856e+17
19162.0	3.273577520081578e+17
19163.0	3.273134873859413e+17
19164.0	3.272554859986943e+17
19165.0	3.266700454308513e+17
19166.0	3.271338257722026e+17
19167.0	3.2709638115819514e+17
19168.0	3.2703821689214285e+17
19169.0	3.2698361855344634e+17
19170.0	3.2693092481324365e+17
19171.0	3.268713003002538e+17
19172.0	3.2681973189181434e+17
19173.0	3.267721409418581e+17
19174.0	3.2671087540742816e+17
19175.0	3.266546106018474e+17
19176.0	3.2660556716441594e+17
19177.0	3.265473781519701e+17
19178.0	3.2649197618462714e+17
19179.0	3.264375464219989e+17
19180.0	3.263868958321322e+17
19181.0	3.2632679592973645e+17
19182.0	3.262667732025344e+17
19183.0	3.2621941108681376e+17
19184.0	3.26169101668625e+17
19185.0	3.261094005746346e+17
19186.0	3.260565201529514e+17
19187.0	3.2600626365289805e+17
19188.0	3.259526453482837e+17
19189.0	3.258990398362965e+17
19190.0	3.258420982098602e+17
19191.0	3.2578924459677005e+17
19192.0	3.2573580011110394e+17
19193.0	3.2562878524074675e+17
19194.0	3.255487889932288e+17
19195.0	3.2557403496338765e+17
19196.0	3.2551711193169914e+17
19197.0	3.254501261355689e+17
19198.0	3.253921208685909e+17
19199.0	3.25291212345617e+17
19200.0	3.2525788559441914e+17
19201.0	3.2524253384758605e+17
19202.0	3.2519416806987085e+17
19203.0	3.251350854959104e+17
19204.0	3.250881426008746e+17
19205.0	3.250309680507562e+17
19206.0	3.2497426993861965e+17
19207.0	3.2489169842339834e+17
19208.0	3.24857552245009e+17
19209.0	3.2481036136174925e+17
19210.0	3.2474661126143994e+17
19211.0	3.2470127824513696e+17
19212.0	3.2464762736476154e+17
19213.0	3.2459407934969165e+17
19214.0	3.245384756013738e+17
19215.0	3.2448586613172896e+17
19216.0	3.244312730708651e+17
19217.0	3.243840414329514e+17
19218.0	3.2430533643687245e+17
19219.0	3.2426221549649914e+17
19220.0	3.2421871252493645e+17
19221.0	3.2415500415795194e+17
19222.0	3.240968904682154e+17
19223.0	3.2405043977475405e+17
19224.0	3.239934676347562e+17
19225.0	3.2394415072870394e+17
19226.0	3.2389631196528634e+17
19227.0	3.238383637058901e+17
19228.0	3.23785530609937e+17
19229.0	3.2370573268309325e+17
19230.0	3.2367023254842016e+17
19231.0	3.2362939138703354e+17
19232.0	3.2357376100488525e+17
19233.0	3.2351302591010125e+17
19234.0	3.2345774194251085e+17
19235.0	3.23406029459729e+17
19236.0	3.2335409625169914e+17
19237.0	3.2328887234286925e+17
19238.0	3.232354442848938e+17
19239.0	3.231914414221994e+17
19240.0	3.2312902420179616e+17
19241.0	3.2308722243993594e+17
19242.0	3.2301014574257485e+17
19243.0	3.229736101391018e+17
19244.0	3.229183798236501e+17
19245.0	3.2286969905370445e+17
19246.0	3.2281745595651405e+17
19247.0	3.227657352948394e+17
19248.0	3.227063160580778e+17
19249.0	3.226351369366186e+17
19250.0	3.225143417154218e+17
19251.0	3.2246903652133536e+17
19252.0	3.224933916912298e+17
19253.0	3.224358565008725e+17
19254.0	3.2238586868094285e+17
19255.0	3.2232505536238925e+17
19256.0	3.2226871366123514e+17
19257.0	3.2222167352825165e+17
19258.0	3.221642203015851e+17
19259.0	3.2212107646730234e+17
19260.0	3.220543137032874e+17
19261.0	3.2200959504766285e+17
19262.0	3.219543078644394e+17
19263.0	3.218923275507029e+17
19264.0	3.2183345259479034e+17
19265.0	3.2178173686142285e+17
19266.0	3.217251282976768e+17
19267.0	3.216878407953066e+17
19268.0	3.216197262770176e+17
19269.0	3.21576476676369e+17
19270.0	3.215254795670869e+17
19271.0	3.214537027223552e+17
19272.0	3.2141923924486816e+17
19273.0	3.213666240779605e+17
19274.0	3.213095794464085e+17
19275.0	3.2126175295133005e+17
19276.0	3.212073788331349e+17
19277.0	3.211563118537386e+17
19278.0	3.210974748562773e+17
19279.0	3.2104810262036474e+17
19280.0	3.2099672386437114e+17
19281.0	3.2094176485048314e+17
19282.0	3.2088844979404794e+17
19283.0	3.208298857409194e+17
19284.0	3.2078229384724474e+17
19285.0	3.207215062537557e+17
19286.0	3.206652665440938e+17
19287.0	3.2060404676253005e+17
19288.0	3.2053878807592954e+17
19289.0	3.2040909991662906e+17
19290.0	3.204602876220757e+17
19291.0	3.2040164967929165e+17
19292.0	3.2035103788673696e+17
19293.0	3.202928538025984e+17
19294.0	3.2024780533486925e+17
19295.0	3.2018546609356794e+17
19296.0	3.198752642127197e+17
19297.0	3.200431273192108e+17
19298.0	3.200277531678036e+17
19299.0	3.1968852956938266e+17
19300.0	3.199268191644331e+17
19301.0	3.1987260159863456e+17
19302.0	3.198206227775487e+17
19303.0	3.1975502421251405e+17
19304.0	3.197079452123136e+17
19305.0	3.1965442868947616e+17
19306.0	3.1960678062708045e+17
19307.0	3.195509407394474e+17
19308.0	3.194984315136682e+17
19309.0	3.1943852426963616e+17
19310.0	3.193838708107946e+17
19311.0	3.193313041929557e+17
19312.0	3.192769500676095e+17
19313.0	3.1923491034890234e+17
19314.0	3.178810286888253e+17
19315.0	3.1791710854622125e+17
19316.0	3.1874194600536806e+17
19317.0	3.1902819505493325e+17
19318.0	3.1897008555950074e+17
19319.0	3.189042799356586e+17
19320.0	3.187652717882023e+17
19321.0	3.185773533375146e+17
19322.0	3.187569167695872e+17
19323.0	3.187091394876757e+17
19324.0	3.18651436699921e+17
19325.0	3.1860152913100794e+17
19326.0	3.185446138937344e+17
19327.0	3.1849673161441274e+17
19328.0	3.179049541522779e+17
19329.0	3.1838929231544314e+17
19330.0	3.183393638099626e+17
19331.0	3.182875418208938e+17
19332.0	3.1823071906802336e+17
19333.0	3.18184735969553e+17
19334.0	3.181023008391168e+17
19335.0	3.169812996248931e+17
19336.0	3.180103439395499e+17
19337.0	3.179662235314858e+17
19338.0	3.179067764026026e+17
19339.0	3.1784824950401696e+17
19340.0	3.177742658262356e+17
19341.0	3.173742693143902e+17
19342.0	3.175924743099737e+17
19343.0	3.1765142060400634e+17
19344.0	3.172004436552369e+17
19345.0	3.173225319454041e+17
19346.0	3.174684580031147e+17
19347.0	3.169634233614336e+17
19348.0	3.1738985891321165e+17
19349.0	3.1733416809813325e+17
19350.0	3.171244178756949e+17
19351.0	3.172265658504533e+17
19352.0	3.166624380791458e+17
19353.0	3.171203646401194e+17
19354.0	3.1707420789746336e+17
19355.0	3.170197259157504e+17
19356.0	3.1696113620746234e+17
19357.0	3.16914645598208e+17
19358.0	3.1686098842637645e+17
19359.0	3.1670174859919315e+17
19360.0	3.163501012626089e+17
19361.0	3.1670319909437434e+17
19362.0	3.1664980410149536e+17
19363.0	3.165963884516693e+17
19364.0	3.1654815531881805e+17
19365.0	3.1649254433532576e+17
19366.0	3.164174440988671e+17
19367.0	3.163852237351594e+17
19368.0	3.1633532822487034e+17
19369.0	3.1628768788698445e+17
19370.0	3.162368026957141e+17
19371.0	3.1617310523391994e+17
19372.0	3.161277209422506e+17
19373.0	3.160662356961962e+17
19374.0	3.1601144480399354e+17
19375.0	3.1596800778786125e+17
19376.0	3.1591822402082125e+17
19377.0	3.158671663387989e+17
19378.0	3.1581581631378765e+17
19379.0	3.1576297413017594e+17
19380.0	3.156890054120789e+17
19381.0	3.1564081834666656e+17
19382.0	3.1559949033144314e+17
19383.0	3.1554459699336525e+17
19384.0	3.154746480962218e+17
19385.0	3.1544813873179296e+17
19386.0	3.153903481432746e+17
19387.0	3.153340072110762e+17
19388.0	3.1528028114780154e+17
19389.0	3.15234757710097e+17
19390.0	3.151805971518804e+17
19391.0	3.149816848362152e+17
19392.0	3.1507774533795834e+17
19393.0	3.1502263064548685e+17
19394.0	3.1497419898224634e+17
19395.0	3.147581707255812e+17
19396.0	3.148321084407809e+17
19397.0	3.1480646970900474e+17
19398.0	3.146421042675712e+17
19399.0	3.144972700221439e+17
19400.0	3.145634736504833e+17
19401.0	3.1460183695687674e+17
19402.0	3.1455845191516154e+17
19403.0	3.145070609607338e+17
19404.0	3.144396409492821e+17
19405.0	3.143842636234752e+17
19406.0	3.143469270127957e+17
19407.0	3.140901666815996e+17
19408.0	3.142262241012395e+17
19409.0	3.141889404086954e+17
19410.0	3.1413888949944314e+17
19411.0	3.1408306051700045e+17
19412.0	3.140268258055509e+17
19413.0	3.137737804043606e+17
19414.0	3.139330851034453e+17
19415.0	3.1387695196405754e+17
19416.0	3.1381258533601274e+17
19417.0	3.1377412220518394e+17
19418.0	3.1372003375404365e+17
19419.0	3.13666900136209e+17
19420.0	3.13615671361536e+17
19421.0	3.135612810603178e+17
19422.0	3.135027221801642e+17
19423.0	3.134601273453226e+17
19424.0	3.134075126327978e+17
19425.0	3.13349105586449e+17
19426.0	3.133042787527338e+17
19427.0	3.132512644978005e+17
19428.0	3.1318329146736634e+17
19429.0	3.131466347883178e+17
19430.0	3.1308571626263885e+17
19431.0	3.130042126871211e+17
19432.0	3.1297549988003834e+17
19433.0	3.1291885119078394e+17
19434.0	3.1287317574451194e+17
19435.0	3.1280856427397114e+17
19436.0	3.127349763287722e+17
19437.0	3.127017458018986e+17
19438.0	3.123291687135913e+17
19439.0	3.125957191095637e+17
19440.0	3.125322850151083e+17
19441.0	3.1246903127572474e+17
19442.0	3.124019454803968e+17
19443.0	3.123265016605354e+17
19444.0	3.122371594900821e+17
19445.0	3.121357586257237e+17
19446.0	3.1199223163999565e+17
19447.0	3.1177317499098445e+17
19448.0	3.113247486334293e+17
19449.0	3.0996445818170016e+17
19450.0	3.0085043779010496e+17
19451.0	2.9010126574714886e+17
19452.0	3.0461607553269786e+17
19453.0	3.1033491204341766e+17
19454.0	3.111670679688533e+17
19455.0	3.114228355082922e+17
19456.0	3.1150784391413754e+17
19457.0	3.1152880746495994e+17
19458.0	3.0649912502081786e+17
19459.0	3.1141757417335526e+17
19460.0	3.114603157039786e+17
19461.0	3.1144100918285645e+17
19462.0	3.1140026945372154e+17
19463.0	3.113572088763733e+17
19464.0	3.1130629844937376e+17
19465.0	3.1126273686241274e+17
19466.0	3.1121881002147834e+17
19467.0	3.1116803964927994e+17
19468.0	3.111231734939648e+17
19469.0	3.106808378949625e+17
19470.0	3.1102462905548794e+17
19471.0	3.1097110250127354e+17
19472.0	3.109249581667669e+17
19473.0	3.1087464770000205e+17
19474.0	3.104145349629262e+17
19475.0	3.107394570332842e+17
19476.0	3.1072264315207674e+17
19477.0	3.1066658788693325e+17
19478.0	3.106233069338624e+17
19479.0	3.101864134443e+17
19480.0	3.1052098709749754e+17
19481.0	3.1045319204536314e+17
19482.0	3.104017990636885e+17
19483.0	3.1036587415087776e+17
19484.0	3.1030299345988256e+17
19485.0	3.102644982076757e+17
19486.0	3.0979788311101555e+17
19487.0	3.1015307998221645e+17
19488.0	3.1011222955840845e+17
19489.0	3.1006375630165325e+17
19490.0	3.09968081990451e+17
19491.0	3.0995072337401165e+17
19492.0	3.099047624354474e+17
19493.0	3.098476626487978e+17
19494.0	3.0979586935575885e+17
19495.0	3.0975722981949434e+17
19496.0	3.096870584145236e+17
19497.0	3.0965752205585056e+17
19498.0	3.0960485337661434e+17
19499.0	3.093212090597373e+17
19500.0	3.0950065407262714e+17
19501.0	3.0945554003394554e+17
19502.0	3.0939867502346234e+17
19503.0	3.0934959247414605e+17
19504.0	3.0929545432050336e+17
19505.0	3.0923408571105274e+17
19506.0	3.091948479621802e+17
19507.0	3.0914684002850125e+17
19508.0	3.0909373524650656e+17
19509.0	3.090441396639061e+17
19510.0	3.089562941259775e+17
19511.0	3.070524556399933e+17
19512.0	3.088626367157588e+17
19513.0	3.087469690312019e+17
19514.0	3.0871992985627296e+17
19515.0	3.0872778571776e+17
19516.0	3.0864485901489485e+17
19517.0	3.0862666929711776e+17
19518.0	3.084892715177299e+17
19519.0	3.084351070797823e+17
19520.0	3.0815506612442406e+17
19521.0	3.0843563528246605e+17
19522.0	3.083410435560788e+17
19523.0	3.0826665400948077e+17
19524.0	3.080217870816604e+17
19525.0	3.082284248159573e+17
19526.0	3.0816984678181536e+17
19527.0	3.081274184957952e+17
19528.0	3.0805087667705165e+17
19529.0	3.07991923462417e+17
19530.0	3.079741406270805e+17
19531.0	3.0791862279208954e+17
19532.0	3.0786480644642125e+17
19533.0	3.078007278272511e+17
19534.0	3.077708649769642e+17
19535.0	3.077240110011733e+17
19536.0	3.076681726514517e+17
19537.0	3.076195693712725e+17
19538.0	3.0725290709046656e+17
19539.0	3.075087919655595e+17
19540.0	3.0747128118640634e+17
19541.0	3.0735818045085005e+17
19542.0	3.073383521583104e+17
19543.0	3.069793225321132e+17
19544.0	3.0723979055813965e+17
19545.0	3.07207063872034e+17
19546.0	3.071390558541141e+17
19547.0	3.071177955562837e+17
19548.0	3.0706554015580154e+17
19549.0	3.070088417290922e+17
19550.0	3.069453018333184e+17
19551.0	3.069130082790058e+17
19552.0	3.0685045733021005e+17
19553.0	3.0681115656191994e+17
19554.0	3.067478165596842e+17
19555.0	3.066680949691733e+17
19556.0	3.0662781269879456e+17
19557.0	3.0660534510551034e+17
19558.0	3.065542800135509e+17
19559.0	3.06504919416832e+17
19560.0	3.0634116679816506e+17
19561.0	3.0640418016897696e+17
19562.0	3.062501279268862e+17
19563.0	3.063057184631466e+17
19564.0	3.0622366557361485e+17
19565.0	3.061944218375509e+17
19566.0	3.06133385347072e+17
19567.0	3.0610295679003296e+17
19568.0	3.0605179494946125e+17
19569.0	3.060041921855487e+17
19570.0	3.0595233136421536e+17
19571.0	3.058987357437952e+17
19572.0	3.05848634048512e+17
19573.0	3.0576946614108154e+17
19574.0	3.0573782581466445e+17
19575.0	3.0570105623893325e+17
19576.0	3.056394982217045e+17
19577.0	3.0556455698432e+17
19578.0	3.055489154809856e+17
19579.0	3.0550264685527034e+17
19580.0	3.054402122634581e+17
19581.0	3.0537691818885114e+17
19582.0	3.053468266441386e+17
19583.0	3.053024919071402e+17
19584.0	3.0523895620567034e+17
19585.0	3.0519902541796685e+17
19586.0	3.0514900107263994e+17
19587.0	3.051019675107328e+17
19588.0	3.0503584126730234e+17
19589.0	3.050012084098389e+17
19590.0	3.0494490145150285e+17
19591.0	3.048968796067157e+17
19592.0	3.048448326281898e+17
19593.0	3.0477435091462816e+17
19594.0	3.0472259771214496e+17
19595.0	3.0469598775432525e+17
19596.0	3.0463153308084896e+17
19597.0	3.0459815327170554e+17
19598.0	3.045009798113962e+17
19599.0	3.0449493693781325e+17
19600.0	3.044382036983808e+17
19601.0	3.0439218337546234e+17
19602.0	3.04339692884241e+17
19603.0	3.0428209320645965e+17
19604.0	3.042455185959594e+17
19605.0	3.041820518208853e+17
19606.0	3.0413516638781434e+17
19607.0	3.040952686302549e+17
19608.0	3.040204976466602e+17
19609.0	3.0399068268134394e+17
19610.0	3.03779069279164e+17
19611.0	3.036355288716631e+17
19612.0	3.0384566947894605e+17
19613.0	3.037777303524693e+17
19614.0	3.0374199781840205e+17
19615.0	3.0369811365451085e+17
19616.0	3.034824264297134e+17
19617.0	3.033458862806359e+17
19618.0	3.0351549393797114e+17
19619.0	3.034493528746666e+17
19620.0	3.033419574760784e+17
19621.0	3.030063972876286e+17
19622.0	3.0334522480394234e+17
19623.0	3.0328770607622816e+17
19624.0	3.032170188068181e+17
19625.0	3.0319716776017914e+17
19626.0	3.031377106348714e+17
19627.0	3.030971886949717e+17
19628.0	3.0304531560529914e+17
19629.0	3.0212640553478765e+17
19630.0	3.029471595943253e+17
19631.0	3.0281946533724154e+17
19632.0	3.028485151566506e+17
19633.0	3.027991609562453e+17
19634.0	3.027467170917034e+17
19635.0	3.0265614480179174e+17
19636.0	3.02211668674696e+17
19637.0	3.021721019525797e+17
19638.0	3.0251614962974694e+17
19639.0	3.0248924519683405e+17
19640.0	3.024454267786581e+17
19641.0	3.0233058537198957e+17
19642.0	3.023344699266389e+17
19643.0	3.0228365789102074e+17
19644.0	3.02249334083857e+17
19645.0	3.0219941260383565e+17
19646.0	3.016977026121721e+17
19647.0	3.020733814232404e+17
19648.0	3.020539746233003e+17
19649.0	3.019980675568981e+17
19650.0	3.019495641011541e+17
19651.0	3.0190281239647565e+17
19652.0	3.01855968661777e+17
19653.0	3.017991289918805e+17
19654.0	3.0175880712028154e+17
