# Flux units: erg / (cm m2 s)
# Wavelength units: Angstrom
wave	flux
19000.0	7.340107143752361e+17
19001.0	7.338717888206164e+17
19002.0	7.33744204943633e+17
19003.0	7.336106634772479e+17
19004.0	7.334770929303552e+17
19005.0	7.333436645703679e+17
19006.0	7.332099757441023e+17
19007.0	7.330727817379839e+17
19008.0	7.3293889549981e+17
19009.0	7.328038361148074e+17
19010.0	7.326485804569939e+17
19011.0	7.325381709965993e+17
19012.0	7.323922919849983e+17
19013.0	7.322720282869757e+17
19014.0	7.321335508238335e+17
19015.0	7.320007004389375e+17
19016.0	7.318656417529855e+17
19017.0	7.317333763336874e+17
19018.0	7.315982550127956e+17
19019.0	7.314642177796777e+17
19020.0	7.313282991215956e+17
19021.0	7.311953923932157e+17
19022.0	7.310610109475497e+17
19023.0	7.309235771670527e+17
19024.0	7.307895785215316e+17
19025.0	7.306551632418131e+17
19026.0	7.305183333012819e+17
19027.0	7.303753436058964e+17
19028.0	7.302509075540649e+17
19029.0	7.301147617045161e+17
19030.0	7.299804785453736e+17
19031.0	7.298451761703594e+17
19032.0	7.29709798437683e+17
19033.0	7.29569168597538e+17
19034.0	7.294387367881385e+17
19035.0	7.292996972882602e+17
19036.0	7.28475248116804e+17
19037.0	7.290311046856704e+17
19038.0	7.288950702647978e+17
19039.0	7.287609979393364e+17
19040.0	7.286253219916458e+17
19041.0	7.284895604801535e+17
19042.0	7.283491168671059e+17
19043.0	7.282180044619773e+17
19044.0	7.280819977235113e+17
19045.0	7.279461977642323e+17
19046.0	7.278074122993663e+17
19047.0	7.276733993932118e+17
19048.0	7.275267654068905e+17
19049.0	7.273983924415145e+17
19050.0	7.272634018430975e+17
19051.0	7.270188556047699e+17
19052.0	7.2697503575354e+17
19053.0	7.268565715517437e+17
19054.0	7.267212739302739e+17
19055.0	7.265703431591254e+17
19056.0	7.264475196773716e+17
19057.0	7.26311919087343e+17
19058.0	7.261748339933183e+17
19059.0	7.260396482199552e+17
19060.0	7.259019647385597e+17
19061.0	7.257668681640617e+17
19062.0	7.256301184745471e+17
19063.0	7.254937160734036e+17
19064.0	7.253507645461844e+17
19065.0	7.252104076154196e+17
19066.0	7.250805884540244e+17
19067.0	7.249474710317736e+17
19068.0	7.248228946105683e+17
19069.0	7.246975200133119e+17
19070.0	7.245593557248681e+17
19071.0	7.244239838642173e+17
19072.0	7.242871649686868e+17
19073.0	7.241500335975084e+17
19074.0	7.240134709739519e+17
19075.0	7.2387657741981e+17
19076.0	7.237384717118121e+17
19077.0	7.236020009435136e+17
19078.0	7.234642731423059e+17
19079.0	7.233288018766505e+17
19080.0	7.231913966174207e+17
19081.0	7.230524210107731e+17
19082.0	7.22915125502498e+17
19083.0	7.227738578485245e+17
19084.0	7.226295187057322e+17
19085.0	7.225062643291476e+17
19086.0	7.223466432397311e+17
19087.0	7.222121816828585e+17
19088.0	7.220884439826432e+17
19089.0	7.219363989247316e+17
19090.0	7.218179045239466e+17
19091.0	7.216813188317183e+17
19092.0	7.21538528785203e+17
19093.0	7.214085645008896e+17
19094.0	7.212705868589738e+17
19095.0	7.211331182657535e+17
19096.0	7.20995874906658e+17
19097.0	7.208593722616489e+17
19098.0	7.207221880422399e+17
19099.0	7.20584784880162e+17
19100.0	7.204463074170195e+17
19101.0	7.203098353904297e+17
19102.0	7.201672497463293e+17
19103.0	7.200350483600723e+17
19104.0	7.198975397811539e+17
19105.0	7.197598898541908e+17
19106.0	7.196187794866175e+17
19107.0	7.194838381013672e+17
19108.0	7.193468272465236e+17
19109.0	7.191483860560552e+17
19110.0	7.190689406255101e+17
19111.0	7.189344097228116e+17
19112.0	7.18796934418705e+17
19113.0	7.186593198637055e+17
19114.0	7.185216423941459e+17
19115.0	7.18381279870976e+17
19116.0	7.182448532826794e+17
19117.0	7.181070782256466e+17
19118.0	7.179629153834326e+17
19119.0	7.176458624914769e+17
19120.0	7.176890428511572e+17
19121.0	7.175528579945811e+17
19122.0	7.174195042932051e+17
19123.0	7.172815850919251e+17
19124.0	7.171398859838804e+17
19125.0	7.170053398418772e+17
19126.0	7.168673380128083e+17
19127.0	7.166333749821439e+17
19128.0	7.165728069954217e+17
19129.0	7.164490631435604e+17
19130.0	7.163155187411625e+17
19131.0	7.161778442076157e+17
19132.0	7.160396185425236e+17
19133.0	7.158907801698301e+17
19134.0	7.157544462756522e+17
19135.0	7.156254108898644e+17
19136.0	7.154874400986451e+17
19137.0	7.153402323315369e+17
19138.0	7.152097137000445e+17
19139.0	7.150727597479254e+17
19140.0	7.149346513835347e+17
19141.0	7.147963777635667e+17
19142.0	7.146566471821994e+17
19143.0	7.145168138403839e+17
19144.0	7.143798909261139e+17
19145.0	7.142428371495594e+17
19146.0	7.140708196548607e+17
19147.0	7.139610120770899e+17
19148.0	7.138272765542399e+17
19149.0	7.136888688563539e+17
19150.0	7.135501033843369e+17
19151.0	7.134120397591892e+17
19152.0	7.132731319604564e+17
19153.0	7.131336071796051e+17
19154.0	7.129889218669225e+17
19155.0	7.128573025102505e+17
19156.0	7.127181967403689e+17
19157.0	7.125771696996351e+17
19158.0	7.124009263038463e+17
19159.0	7.122999022977024e+17
19160.0	7.121620685204138e+17
19161.0	7.12021650632431e+17
19162.0	7.117903660843008e+17
19163.0	7.117418848234153e+17
19164.0	7.116072388569769e+17
19165.0	7.114666478840489e+17
19166.0	7.113212548524714e+17
19167.0	7.111812073215316e+17
19168.0	7.110491583283199e+17
19169.0	7.109093639935316e+17
19170.0	7.107724384228692e+17
19171.0	7.106282156021076e+17
19172.0	7.104936640075092e+17
19173.0	7.103545446760447e+17
19174.0	7.102122620005034e+17
19175.0	7.10075973824239e+17
19176.0	7.099364463869951e+17
19177.0	7.097881411103402e+17
19178.0	7.096543546966015e+17
19179.0	7.09510287204898e+17
19180.0	7.093763195972265e+17
19181.0	7.092319938762067e+17
19182.0	7.090969509887999e+17
19183.0	7.089582162750122e+17
19184.0	7.088170129337002e+17
19185.0	7.086780493507241e+17
19186.0	7.085382343240361e+17
19187.0	7.083945206917802e+17
19188.0	7.082578211941034e+17
19189.0	7.081170477689513e+17
19190.0	7.079761395668308e+17
19191.0	7.078350861019816e+17
19192.0	7.076964993073151e+17
19193.0	7.075551948832768e+17
19194.0	7.074142492120404e+17
19195.0	7.072743235955368e+17
19196.0	7.071323851325437e+17
19197.0	7.069901066513065e+17
19198.0	7.068426557543764e+17
19199.0	7.061405087126866e+17
19200.0	7.061632990227116e+17
19201.0	7.064209057644544e+17
19202.0	7.062859524953428e+17
19203.0	7.06144864637201e+17
19204.0	7.060041483943935e+17
19205.0	7.058644482916352e+17
19206.0	7.057223911298387e+17
19207.0	7.055761371474602e+17
19208.0	7.054288568188927e+17
19209.0	7.052984865259519e+17
19210.0	7.051566695579647e+17
19211.0	7.050147007561727e+17
19212.0	7.048726015115263e+17
19213.0	7.047222315188224e+17
19214.0	7.045767662054058e+17
19215.0	7.044435184801108e+17
19216.0	7.04303284302643e+17
19217.0	7.041608254663338e+17
19218.0	7.039725947497129e+17
19219.0	7.038661722548905e+17
19220.0	7.037312005308415e+17
19221.0	7.035717303664639e+17
19222.0	7.034459949891583e+17
19223.0	7.03303063314978e+17
19224.0	7.031569877303293e+17
19225.0	7.030082269522601e+17
19226.0	7.028716725075967e+17
19227.0	7.027276768783017e+17
19228.0	7.025850896962899e+17
19229.0	7.02441000534016e+17
19230.0	7.022958084795049e+17
19231.0	7.021516543055187e+17
19232.0	7.020072988049407e+17
19233.0	7.01859189891618e+17
19234.0	7.017171794963113e+17
19235.0	7.015722499353257e+17
19236.0	7.0142841599645e+17
19237.0	7.012822380707839e+17
19238.0	7.011318079597226e+17
19239.0	7.009921379161427e+17
19240.0	7.008434517966847e+17
19241.0	7.006981011974825e+17
19242.0	7.005532049812138e+17
19243.0	7.003980994095785e+17
19244.0	7.002616187846655e+17
19245.0	7.001149825613823e+17
19246.0	6.999672717574143e+17
19247.0	6.998210595782655e+17
19248.0	6.996739070361597e+17
19249.0	6.995263065423871e+17
19250.0	6.993776165082452e+17
19251.0	6.992238958957908e+17
19252.0	6.990663049893203e+17
19253.0	6.989331448550739e+17
19254.0	6.987854827749375e+17
19255.0	6.986263670991529e+17
19256.0	6.984859715807913e+17
19257.0	6.983388168716287e+17
19258.0	6.981892279981396e+17
19259.0	6.980352301421908e+17
19260.0	6.978772611192147e+17
19261.0	6.977390040667476e+17
19262.0	6.975855681776297e+17
19263.0	6.974340842476884e+17
19264.0	6.972571050311679e+17
19265.0	6.971242289911124e+17
19266.0	6.969737982509055e+17
19267.0	6.968309738810025e+17
19268.0	6.966785646875988e+17
19269.0	6.965258184119636e+17
19270.0	6.963725658838355e+17
19271.0	6.962011142007465e+17
19272.0	6.960633995416916e+17
19273.0	6.95821762192998e+17
19274.0	6.956981438207316e+17
19275.0	6.956020811868841e+17
19276.0	6.954458971897855e+17
19277.0	6.95290574143488e+17
19278.0	6.951355196724563e+17
19279.0	6.949781602216617e+17
19280.0	6.948181052314966e+17
19281.0	6.946640037762388e+17
19282.0	6.945071575684436e+17
19283.0	6.943415279288319e+17
19284.0	6.941828839724372e+17
19285.0	6.940210246625962e+17
19286.0	6.938705152791892e+17
19287.0	6.93712853279266e+17
19288.0	6.933630088992082e+17
19289.0	6.929476164255735e+17
19290.0	6.932310495242921e+17
19291.0	6.930548192007508e+17
19292.0	6.929077011917482e+17
19293.0	6.927446103643476e+17
19294.0	6.925818198491135e+17
19295.0	6.924180276641791e+17
19296.0	6.922536438027604e+17
19297.0	6.920885466999465e+17
19298.0	6.919220502375081e+17
19299.0	6.917568832296276e+17
19300.0	6.915899422408704e+17
19301.0	6.914221509967872e+17
19302.0	6.912534560899071e+17
19303.0	6.910726425804799e+17
19304.0	6.908866273651369e+17
19305.0	6.907174030671871e+17
19306.0	6.905474779010387e+17
19307.0	6.903722042982399e+17
19308.0	6.902007516364799e+17
19309.0	6.900104711634941e+17
19310.0	6.898283311355222e+17
19311.0	6.896766025378473e+17
19312.0	6.895044931878911e+17
19313.0	6.893283083725481e+17
19314.0	6.887011654828032e+17
19315.0	6.885510395286874e+17
19316.0	6.887919013505705e+17
19317.0	6.88614169256482e+17
19318.0	6.884321988182015e+17
19319.0	6.882514221487443e+17
19320.0	6.88068984185378e+17
19321.0	6.878858015233364e+17
19322.0	6.876955323050666e+17
19323.0	6.875077004667561e+17
19324.0	6.873288526178986e+17
19325.0	6.871255215680169e+17
19326.0	6.869528136209748e+17
19327.0	6.867631019655167e+17
19328.0	6.865731597631487e+17
19329.0	6.863811680141311e+17
19330.0	6.861857254014975e+17
19331.0	6.859907800935081e+17
19332.0	6.857972438619476e+17
19333.0	6.856003419111424e+17
19334.0	6.854017299425961e+17
19335.0	6.852020891112787e+17
19336.0	6.850007044980735e+17
19337.0	6.847977883347625e+17
19338.0	6.84582260318754e+17
19339.0	6.843883788959743e+17
19340.0	6.84177745772544e+17
19341.0	6.839710624950953e+17
19342.0	6.837404997866836e+17
19343.0	6.835497762553855e+17
19344.0	6.833361373538985e+17
19345.0	6.830173296350546e+17
19346.0	6.828579757927081e+17
19347.0	6.826789348660563e+17
19348.0	6.82460378772275e+17
19349.0	6.822347910676479e+17
19350.0	6.820089346479444e+17
19351.0	6.817593898478249e+17
19352.0	6.814948125223594e+17
19353.0	6.812679092043775e+17
19354.0	6.810352227800404e+17
19355.0	6.807960486761812e+17
19356.0	6.80564221944354e+17
19357.0	6.803261832385876e+17
19358.0	6.800856041127935e+17
19359.0	6.798398615890602e+17
19360.0	6.795989418857812e+17
19361.0	6.793537951629311e+17
19362.0	6.791085324675753e+17
19363.0	6.788590486246739e+17
19364.0	6.786074491748351e+17
19365.0	6.783537780184404e+17
19366.0	6.780979182742185e+17
19367.0	6.77839428981009e+17
19368.0	6.774936005072212e+17
19369.0	6.772098940796927e+17
19370.0	6.769315765638484e+17
19371.0	6.766629585158143e+17
19372.0	6.763875985435305e+17
19373.0	6.761050068221951e+17
19374.0	6.758211080858282e+17
19375.0	6.755324546864467e+17
19376.0	6.752404346590547e+17
19377.0	6.748375261817513e+17
19378.0	6.745021424336895e+17
19379.0	6.741970029030058e+17
19380.0	6.738874898317311e+17
19381.0	6.735734399915348e+17
19382.0	6.732502861348861e+17
19383.0	6.728040623112192e+17
19384.0	6.724001403502591e+17
19385.0	6.720631118757887e+17
19386.0	6.717202113058132e+17
19387.0	6.713271950944934e+17
19388.0	6.707477677954388e+17
19389.0	6.703808644120575e+17
19390.0	6.700063357840042e+17
19391.0	6.688125885612026e+17
19392.0	6.688798685528061e+17
19393.0	6.684860986949631e+17
19394.0	6.676815291962711e+17
19395.0	6.672185288556543e+17
19396.0	6.664713862294189e+17
19397.0	6.657958574292991e+17
19398.0	6.649524462288899e+17
19399.0	6.641799359627261e+17
19400.0	6.630602760869201e+17
19401.0	6.621207283630075e+17
19402.0	6.610155184237222e+17
19403.0	6.599783131119615e+17
19404.0	6.593382653973844e+17
19405.0	6.586701359786665e+17
19406.0	6.579865136398335e+17
19407.0	6.572862480231082e+17
19408.0	6.565357858149716e+17
19409.0	6.558373489846954e+17
19410.0	6.550920022895274e+17
19411.0	6.543198235830953e+17
19412.0	6.5351639891968e+17
19413.0	6.527233815827795e+17
19414.0	6.518896971131561e+17
19415.0	6.510259971555327e+17
19416.0	6.501289312299689e+17
19417.0	6.491494998693203e+17
19418.0	6.482023236151978e+17
19419.0	6.472348744024063e+17
19420.0	6.461533214561619e+17
19421.0	6.450740707633833e+17
19422.0	6.439136950310227e+17
19423.0	6.426925415268351e+17
19424.0	6.413072689616215e+17
19425.0	6.398380469125117e+17
19426.0	6.381621712956072e+17
19427.0	6.362497685301933e+17
19428.0	6.339811297547611e+17
19429.0	6.313794447867905e+17
19430.0	6.282680864516776e+17
19431.0	6.248664805321381e+17
19432.0	6.226371890817705e+17
19433.0	6.20358147174127e+17
19434.0	6.179605124393642e+17
19435.0	6.153574117539837e+17
19436.0	6.125797523150166e+17
19437.0	6.096346601750525e+17
19438.0	6.0575006050659e+17
19439.0	6.026531167360342e+17
19440.0	5.982743746489005e+17
19441.0	5.928775413923832e+17
19442.0	5.862682682982395e+17
19443.0	5.794333607329793e+17
19444.0	5.72824083654246e+17
19445.0	5.649710794670082e+17
19446.0	5.553336283561982e+17
19447.0	5.4330702010777555e+17
19448.0	5.2822153524237715e+17
19449.0	5.085662118150145e+17
19450.0	4.808120751270562e+17
19451.0	4.7071069897140896e+17
19452.0	4.9531446917857363e+17
19453.0	5.1914454066353555e+17
19454.0	5.358712963902117e+17
19455.0	5.4906296198321485e+17
19456.0	5.596270037041155e+17
19457.0	5.67975188470169e+17
19458.0	5.7437361544014586e+17
19459.0	5.811525708502356e+17
19460.0	5.879884057761105e+17
19461.0	5.937297118374573e+17
19462.0	5.983057035132928e+17
19463.0	6.021131645485055e+17
19464.0	6.053017714076329e+17
19465.0	6.081693042955606e+17
19466.0	6.107958907764733e+17
19467.0	6.132435801953619e+17
19468.0	6.154860500789932e+17
19469.0	6.175719526061395e+17
19470.0	6.195772977228457e+17
19471.0	6.221099207491579e+17
19472.0	6.252496885732676e+17
19473.0	6.278686358984023e+17
19474.0	6.299616221156695e+17
19475.0	6.31753811444804e+17
19476.0	6.333391435726847e+17
19477.0	6.3469264058013e+17
19478.0	6.3584142926807e+17
19479.0	6.368315626050902e+17
19480.0	6.378540480768682e+17
19481.0	6.386609719782057e+17
19482.0	6.395415075225599e+17
19483.0	6.402937049142612e+17
19484.0	6.409996285771775e+17
19485.0	6.417298466275328e+17
19486.0	6.424091303084032e+17
19487.0	6.430382794735615e+17
19488.0	6.436400747162281e+17
19489.0	6.441952664180052e+17
19490.0	6.446780870120788e+17
19491.0	6.452869840502783e+17
19492.0	6.45791601463569e+17
19493.0	6.462793269466452e+17
19494.0	6.467514922609321e+17
19495.0	6.472070762332159e+17
19496.0	6.476294060157609e+17
19497.0	6.48067582927394e+17
19498.0	6.484104665104383e+17
19499.0	6.482076250057382e+17
19500.0	6.497540511192396e+17
19501.0	6.50726444367872e+17
19502.0	6.514549670106444e+17
19503.0	6.519470433850708e+17
19504.0	6.527152922383706e+17
19505.0	6.529819883165012e+17
19506.0	6.536293185312078e+17
19507.0	6.538633418200404e+17
19508.0	6.542509865959421e+17
19509.0	6.545939681159849e+17
19510.0	6.547295572415828e+17
19511.0	6.541927795829413e+17
19512.0	6.551851632339622e+17
19513.0	6.55181522368375e+17
19514.0	6.554261185888253e+17
19515.0	6.558744106937002e+17
19516.0	6.559968624203092e+17
19517.0	6.560810208504489e+17
19518.0	6.561647316784468e+17
19519.0	6.563720138326015e+17
19520.0	6.564941253312511e+17
19521.0	6.565576377193812e+17
19522.0	6.566136609680041e+17
19523.0	6.566685864973652e+17
19524.0	6.567174290276351e+17
19525.0	6.568190096878248e+17
19526.0	6.56934754722338e+17
19527.0	6.569707098341375e+17
19528.0	6.570023842392746e+17
19529.0	6.570313103966208e+17
19530.0	6.570568432222208e+17
19531.0	6.570787527983103e+17
19532.0	6.570974488384852e+17
19533.0	6.571130368993961e+17
19534.0	6.571251732578304e+17
19535.0	6.572114462463315e+17
19536.0	6.572185861401257e+17
19537.0	6.572206687518719e+17
19538.0	6.572129640950442e+17
19539.0	6.57185371656465e+17
19540.0	6.572054078466729e+17
19541.0	6.571980597755904e+17
19542.0	6.571870186198355e+17
19543.0	6.571746872961705e+17
19544.0	6.571598377123839e+17
19545.0	6.571184899140265e+17
19546.0	6.570780812203348e+17
19547.0	6.571045560866132e+17
19548.0	6.570824476306089e+17
19549.0	6.570531729965055e+17
19550.0	6.570329979049299e+17
19551.0	6.570057199692457e+17
19552.0	6.569862696534015e+17
19553.0	6.569942679115092e+17
19554.0	6.569608184769193e+17
19555.0	6.569276097953791e+17
19556.0	6.568913692611924e+17
19557.0	6.568514742998355e+17
19558.0	6.568101570499924e+17
19559.0	6.567669640374953e+17
19560.0	6.567207795774804e+17
19561.0	6.566750791401471e+17
19562.0	6.566280274378751e+17
19563.0	6.565784604114943e+17
19564.0	6.565274104889343e+17
19565.0	6.564748579569664e+17
19566.0	6.564197683604138e+17
19567.0	6.563653643228499e+17
19568.0	6.563070423859199e+17
19569.0	6.562499876181331e+17
19570.0	6.561910040996522e+17
19571.0	6.561300533826899e+17
19572.0	6.560665940525056e+17
19573.0	6.560039198960297e+17
19574.0	6.559354640313002e+17
19575.0	6.558751519670271e+17
19576.0	6.558084880487764e+17
19577.0	6.557400534351872e+17
19578.0	6.556695334136489e+17
19579.0	6.556003425670483e+17
19580.0	6.555294306577065e+17
19581.0	6.55457828016401e+17
19582.0	6.553856991996585e+17
19583.0	6.553119847262889e+17
19584.0	6.552373768661674e+17
19585.0	6.551562206489257e+17
19586.0	6.550780605628415e+17
19587.0	6.550057817997311e+17
19588.0	6.549061540773887e+17
19589.0	6.54851209044514e+17
19590.0	6.547683744066218e+17
19591.0	6.546923456561152e+17
19592.0	6.5461101803165e+17
19593.0	6.545278722463059e+17
19594.0	6.544332221142356e+17
19595.0	6.543606678552573e+17
19596.0	6.542314514153471e+17
19597.0	6.541916334194687e+17
19598.0	6.540907500623188e+17
19599.0	6.54021627093538e+17
19600.0	6.539346378577236e+17
19601.0	6.538431526076415e+17
19602.0	6.537558076249428e+17
19603.0	6.536397020900008e+17
19604.0	6.535762749161471e+17
19605.0	6.534734842691583e+17
19606.0	6.533993845489664e+17
19607.0	6.533083884246358e+17
19608.0	6.532160628457471e+17
19609.0	6.531212817115817e+17
19610.0	6.530314613904723e+17
19611.0	6.529378129281023e+17
19612.0	6.528443142023849e+17
19613.0	6.527499810897919e+17
19614.0	6.526527670495914e+17
19615.0	6.525753293624659e+17
19616.0	6.524820623720445e+17
19617.0	6.523910271008765e+17
19618.0	6.522641657626623e+17
19619.0	6.52159967367441e+17
19620.0	6.520644899089065e+17
19621.0	6.52002743882001e+17
19622.0	6.519047255840084e+17
19623.0	6.518062508758356e+17
19624.0	6.51707370578466e+17
19625.0	6.516080691030697e+17
19626.0	6.515084055893331e+17
19627.0	6.514081250934783e+17
19628.0	6.512943095087104e+17
19629.0	6.512010952966143e+17
19630.0	6.510632444624895e+17
19631.0	6.503938949207382e+17
19632.0	6.509006215097002e+17
19633.0	6.50798446936064e+17
19634.0	6.5069914273437e+17
19635.0	6.505944691944105e+17
19636.0	6.504940679725055e+17
19637.0	6.503688042446847e+17
19638.0	6.502871530995711e+17
19639.0	6.501829967871997e+17
19640.0	6.500748010105514e+17
19641.0	6.499377861711188e+17
19642.0	6.498713648234495e+17
19643.0	6.497664806595242e+17
19644.0	6.496580966285311e+17
19645.0	6.495415683077459e+17
19646.0	6.494511068872704e+17
19647.0	6.493454936834047e+17
19648.0	6.492396281921533e+17
19649.0	6.491333973071188e+17
19650.0	6.490272502382591e+17
19651.0	6.489207458146986e+17
19652.0	6.488140364294826e+17
19653.0	6.487070151977642e+17
19654.0	6.486000226970282e+17
19655.0	6.484924684391763e+17
19656.0	6.483848637797716e+17
19657.0	6.482775858566484e+17
19658.0	6.481697478541311e+17
19659.0	6.480616435133097e+17
19660.0	6.479535830029651e+17
19661.0	6.478452987964074e+17
19662.0	6.47736843182626e+17
19663.0	6.476255968886783e+17
19664.0	6.475172479500287e+17
19665.0	6.474105798787071e+17
