# Flux units: erg / (cm m2 s)
# Wavelength units: Angstrom
wave	flux
19000.0	6.895555372384255e+17
19001.0	6.894105739831978e+17
19002.0	6.892967582586196e+17
19003.0	6.891659369381887e+17
19004.0	6.890354143920127e+17
19005.0	6.889065347547136e+17
19006.0	6.887770939195391e+17
19007.0	6.88585274556416e+17
19008.0	6.8850748503709e+17
19009.0	6.883842959518378e+17
19010.0	6.881825526557352e+17
19011.0	6.881245242501801e+17
19012.0	6.879183834360488e+17
19013.0	6.878686624787114e+17
19014.0	6.87730137899554e+17
19015.0	6.876045437304831e+17
19016.0	6.874735122754217e+17
19017.0	6.873300582705833e+17
19018.0	6.872140442413737e+17
19019.0	6.870902966146387e+17
19020.0	6.869529604216148e+17
19021.0	6.86827773239842e+17
19022.0	6.867032150638591e+17
19023.0	6.865676002831017e+17
19024.0	6.864409688626515e+17
19025.0	6.86307480244497e+17
19026.0	6.861745899438079e+17
19027.0	6.859973895476563e+17
19028.0	6.859266628168361e+17
19029.0	6.857940753448959e+17
19030.0	6.856695572944212e+17
19031.0	6.855412503194282e+17
19032.0	6.854113234343252e+17
19033.0	6.852679122812927e+17
19034.0	6.851501167913642e+17
19035.0	6.850176667527849e+17
19036.0	6.80543667058548e+17
19037.0	6.847627017235113e+17
19038.0	6.846324337016831e+17
19039.0	6.845061639001428e+17
19040.0	6.843779670256297e+17
19041.0	6.842472788044457e+17
19042.0	6.841050096904873e+17
19043.0	6.839903317568169e+17
19044.0	6.838593590919167e+17
19045.0	6.837299045553491e+17
19046.0	6.835930929998505e+17
19047.0	6.834741200988842e+17
19048.0	6.833117585910441e+17
19049.0	6.832050882128553e+17
19050.0	6.830794445509972e+17
19051.0	6.82282090653285e+17
19052.0	6.827853906356908e+17
19053.0	6.826849718676138e+17
19054.0	6.825702259862185e+17
19055.0	6.824029464472234e+17
19056.0	6.823094779903999e+17
19057.0	6.821826824328532e+17
19058.0	6.820379915277652e+17
19059.0	6.819265046904831e+17
19060.0	6.81794175517764e+17
19061.0	6.816698502654633e+17
19062.0	6.81540269899776e+17
19063.0	6.814121686553939e+17
19064.0	6.812627044925439e+17
19065.0	6.811263345972563e+17
19066.0	6.810164745906857e+17
19067.0	6.808953651112617e+17
19068.0	6.807685557125119e+17
19069.0	6.806403326235987e+17
19070.0	6.805069465561769e+17
19071.0	6.803794402738175e+17
19072.0	6.802542291146068e+17
19073.0	6.80125009109538e+17
19074.0	6.799980177478995e+17
19075.0	6.798695348917587e+17
19076.0	6.797374859684521e+17
19077.0	6.796107907246761e+17
19078.0	6.794745687485097e+17
19079.0	6.793554212246867e+17
19080.0	6.792252152785578e+17
19081.0	6.790912814350333e+17
19082.0	6.789608025795242e+17
19083.0	6.788244624637951e+17
19084.0	6.786757999023443e+17
19085.0	6.785834222441812e+17
19086.0	6.783923413581823e+17
19087.0	6.781949381880492e+17
19088.0	6.781876438739625e+17
19089.0	6.779728832757759e+17
19090.0	6.779386685904212e+17
19091.0	6.778120635940864e+17
19092.0	6.776466129114451e+17
19093.0	6.775593960647338e+17
19094.0	6.774309372559359e+17
19095.0	6.773030738984959e+17
19096.0	6.771666214453247e+17
19097.0	6.770469576725844e+17
19098.0	6.769193828832595e+17
19099.0	6.767909105128787e+17
19100.0	6.766562994989738e+17
19101.0	6.765337349455871e+17
19102.0	6.763940217705811e+17
19103.0	6.762794274433706e+17
19104.0	6.761528796293802e+17
19105.0	6.760241560201897e+17
19106.0	6.758718876155903e+17
19107.0	6.757661857721001e+17
19108.0	6.756412972946772e+17
19109.0	6.750521378821453e+17
19110.0	6.753833297029802e+17
19111.0	6.752566587162623e+17
19112.0	6.751307504637268e+17
19113.0	6.750028944463187e+17
19114.0	6.74874802709026e+17
19115.0	6.747320209113088e+17
19116.0	6.74616700969506e+17
19117.0	6.744896011152042e+17
19118.0	6.743296640548863e+17
19119.0	6.738153974355278e+17
19120.0	6.740711964322472e+17
19121.0	6.739599268599126e+17
19122.0	6.738552129847295e+17
19123.0	6.73725694415121e+17
19124.0	6.735758182318079e+17
19125.0	6.734679018657107e+17
19126.0	6.733325411199657e+17
19127.0	6.729606710515025e+17
19128.0	6.72711214611387e+17
19129.0	6.729489253225811e+17
19130.0	6.728340308929193e+17
19131.0	6.726954076777129e+17
19132.0	6.725811347040937e+17
19133.0	6.723324624590167e+17
19134.0	6.721386530384557e+17
19135.0	6.721953018675199e+17
19136.0	6.720704864408916e+17
19137.0	6.719181278587562e+17
19138.0	6.717712306798591e+17
19139.0	6.71688349065762e+17
19140.0	6.715620905189375e+17
19141.0	6.714351373953706e+17
19142.0	6.713023186774697e+17
19143.0	6.711710859657215e+17
19144.0	6.71047146938914e+17
19145.0	6.7092474232832e+17
19146.0	6.70697240133632e+17
19147.0	6.706593888468991e+17
19148.0	6.705428200510803e+17
19149.0	6.704164319002623e+17
19150.0	6.702893906963113e+17
19151.0	6.701647846353578e+17
19152.0	6.700314354079059e+17
19153.0	6.699084364644352e+17
19154.0	6.697656374001661e+17
19155.0	6.696570355449855e+17
19156.0	6.695310875164671e+17
19157.0	6.693991540064255e+17
19158.0	6.689580800890191e+17
19159.0	6.691472460655273e+17
19160.0	6.69013709632307e+17
19161.0	6.68859578187776e+17
19162.0	6.680630230253574e+17
19163.0	6.686404358701055e+17
19164.0	6.685182485943636e+17
19165.0	6.683788934032042e+17
19166.0	6.682346861013673e+17
19167.0	6.680709470442835e+17
19168.0	6.679903032311807e+17
19169.0	6.67863736263202e+17
19170.0	6.677586086898346e+17
19171.0	6.675937397571584e+17
19172.0	6.675023090330282e+17
19173.0	6.673781901404842e+17
19174.0	6.672445935889066e+17
19175.0	6.67126630326818e+17
19176.0	6.669999533282644e+17
19177.0	6.668513105499476e+17
19178.0	6.667398028809558e+17
19179.0	6.665640563004758e+17
19180.0	6.66417185825314e+17
19181.0	6.663515981654697e+17
19182.0	6.662288575911252e+17
19183.0	6.661076963819519e+17
19184.0	6.659655080782504e+17
19185.0	6.658612573940394e+17
19186.0	6.65737732624657e+17
19187.0	6.655975941472255e+17
19188.0	6.654802221421908e+17
19189.0	6.653427359328937e+17
19190.0	6.652128939824467e+17
19191.0	6.650932752984745e+17
19192.0	6.649764152082431e+17
19193.0	6.648023975198719e+17
19194.0	6.647025202364415e+17
19195.0	6.645952234389503e+17
19196.0	6.644729447273812e+17
19197.0	6.643471000185514e+17
19198.0	6.642171876737023e+17
19199.0	6.600663458207052e+17
19200.0	6.613846102551228e+17
19201.0	6.638401765769213e+17
19202.0	6.637190301876223e+17
19203.0	6.635849171075072e+17
19204.0	6.634626357395455e+17
19205.0	6.633407779962879e+17
19206.0	6.632141031647913e+17
19207.0	6.630775473919316e+17
19208.0	6.629315714919082e+17
19209.0	6.628333027939668e+17
19210.0	6.62711223661363e+17
19211.0	6.625870259159039e+17
19212.0	6.624614906068991e+17
19213.0	6.622851612278783e+17
19214.0	6.621379549986816e+17
19215.0	6.62068986520098e+17
19216.0	6.619534721723049e+17
19217.0	6.61831039320064e+17
19218.0	6.615817726722044e+17
19219.0	6.615559747665919e+17
19220.0	6.614483677304148e+17
19221.0	6.612741926158335e+17
19222.0	6.612032684731049e+17
19223.0	6.610738762219519e+17
19224.0	6.609375883952127e+17
19225.0	6.608013810991101e+17
19226.0	6.606960502418089e+17
19227.0	6.605702302793727e+17
19228.0	6.604487281431892e+17
19229.0	6.603229708156927e+17
19230.0	6.601809107178836e+17
19231.0	6.600583455353513e+17
19232.0	6.599381873939796e+17
19233.0	6.598078874255359e+17
19234.0	6.596899570887337e+17
19235.0	6.595625330846377e+17
19236.0	6.594429243970899e+17
19237.0	6.593141209563133e+17
19238.0	6.591684933233322e+17
19239.0	6.590572841489748e+17
19240.0	6.588907921604605e+17
19241.0	6.587919477243904e+17
19242.0	6.58676458262801e+17
19243.0	6.585265656517971e+17
19244.0	6.584289168719871e+17
19245.0	6.583025568929108e+17
19246.0	6.581750709529258e+17
19247.0	6.580494242152448e+17
19248.0	6.579253466365951e+17
19249.0	6.577985794605055e+17
19250.0	6.576712715687251e+17
19251.0	6.575344745534803e+17
19252.0	6.573700242822484e+17
19253.0	6.572931670867967e+17
19254.0	6.571644591363412e+17
19255.0	6.570123842988713e+17
19256.0	6.568880062682452e+17
19257.0	6.567714869652137e+17
19258.0	6.566460159688703e+17
19259.0	6.565080337831252e+17
19260.0	6.563291957908819e+17
19261.0	6.562663045092691e+17
19262.0	6.561329237546324e+17
19263.0	6.560086359015423e+17
19264.0	6.558110406322856e+17
19265.0	6.557345870686889e+17
19266.0	6.556151654470996e+17
19267.0	6.555117790691327e+17
19268.0	6.553838504203604e+17
19269.0	6.552581037883391e+17
19270.0	6.551313738017449e+17
19271.0	6.54955399540463e+17
19272.0	6.548742247284735e+17
19273.0	6.536693851794075e+17
19274.0	6.540958115386701e+17
19275.0	6.545007346100905e+17
19276.0	6.54371163681587e+17
19277.0	6.542441225475412e+17
19278.0	6.541183610956457e+17
19279.0	6.539753281290237e+17
19280.0	6.538519626732884e+17
19281.0	6.537378822881279e+17
19282.0	6.536130755996329e+17
19283.0	6.534181630771199e+17
19284.0	6.532233351397373e+17
19285.0	6.531969785528319e+17
19286.0	6.531000353248596e+17
19287.0	6.529784348322474e+17
19288.0	6.518712397987836e+17
19289.0	6.496899173449665e+17
19290.0	6.525965628167508e+17
19291.0	6.52428000170257e+17
19292.0	6.523413220119892e+17
19293.0	6.52212656144384e+17
19294.0	6.52084329386257e+17
19295.0	6.51958380728593e+17
19296.0	6.51829390221858e+17
19297.0	6.516960172965887e+17
19298.0	6.515692038433449e+17
19299.0	6.51445696200704e+17
19300.0	6.51317354832418e+17
19301.0	6.511873279830697e+17
19302.0	6.510579957803689e+17
19303.0	6.509148850793129e+17
19304.0	6.507928520141481e+17
19305.0	6.506702971076607e+17
19306.0	6.505390895617363e+17
19307.0	6.50400538698274e+17
19308.0	6.502767386427391e+17
19309.0	6.500173816179369e+17
19310.0	6.498211219548838e+17
19311.0	6.498804986194601e+17
19312.0	6.497621823367849e+17
19313.0	6.49621313351407e+17
19314.0	6.47468513143463e+17
19315.0	6.475011160277036e+17
19316.0	6.492361334980608e+17
19317.0	6.491128273917268e+17
19318.0	6.489727572814506e+17
19319.0	6.488431848150355e+17
19320.0	6.487081113092095e+17
19321.0	6.485796954221225e+17
19322.0	6.484230076192084e+17
19323.0	6.482424443699201e+17
19324.0	6.481792935307946e+17
19325.0	6.479313122273962e+17
19326.0	6.479147313048233e+17
19327.0	6.477796141083305e+17
19328.0	6.476495136489471e+17
19329.0	6.475154650912084e+17
19330.0	6.473740519647913e+17
19331.0	6.472393657330346e+17
19332.0	6.471093324524202e+17
19333.0	6.469582194387625e+17
19334.0	6.46807203033907e+17
19335.0	6.466756565183145e+17
19336.0	6.465369148839251e+17
19337.0	6.464007323342164e+17
19338.0	6.462321599010132e+17
19339.0	6.461249809634644e+17
19340.0	6.459775311850153e+17
19341.0	6.458472554037247e+17
19342.0	6.456412959233363e+17
19343.0	6.455682496025939e+17
19344.0	6.454236922161833e+17
19345.0	6.449531629600759e+17
19346.0	6.450512902400684e+17
19347.0	6.449795073835007e+17
19348.0	6.448464004470099e+17
19349.0	6.44677781037602e+17
19350.0	6.44533744443938e+17
19351.0	6.443880099960147e+17
19352.0	6.442373911412736e+17
19353.0	6.441020838729044e+17
19354.0	6.439535930682025e+17
19355.0	6.437897550954495e+17
19356.0	6.436545395425279e+17
19357.0	6.434725306564605e+17
19358.0	6.433068954943487e+17
19359.0	6.430961339553108e+17
19360.0	6.429911471008425e+17
19361.0	6.428346146968916e+17
19362.0	6.42686808891938e+17
19363.0	6.425285676586323e+17
19364.0	6.42368297570577e+17
19365.0	6.422078367814996e+17
19366.0	6.420469030846463e+17
19367.0	6.418826684006399e+17
19368.0	6.417142792585215e+17
19369.0	6.414994704957437e+17
19370.0	6.411993858703359e+17
19371.0	6.411524904058879e+17
19372.0	6.409886009131008e+17
19373.0	6.408090997314902e+17
19374.0	6.406359838184787e+17
19375.0	6.404567320581459e+17
19376.0	6.402752923391316e+17
19377.0	6.400638712457897e+17
19378.0	6.398497609744383e+17
19379.0	6.396594321970516e+17
19380.0	6.394673431401812e+17
19381.0	6.392700808287572e+17
19382.0	6.390581820740948e+17
19383.0	6.387986265189033e+17
19384.0	6.385960298217471e+17
19385.0	6.383852494083411e+17
19386.0	6.381706451877888e+17
19387.0	6.378868972366506e+17
19388.0	6.376164090882729e+17
19389.0	6.373876860015956e+17
19390.0	6.371483513257983e+17
19391.0	6.329993324571245e+17
19392.0	6.365663154492755e+17
19393.0	6.363129264996351e+17
19394.0	6.360067300043434e+17
19395.0	6.35733664735778e+17
19396.0	6.354585656492031e+17
19397.0	6.351892386239827e+17
19398.0	6.348815405678591e+17
19399.0	6.344473584511656e+17
19400.0	6.342334704080211e+17
19401.0	6.339174804226047e+17
19402.0	6.335878304279209e+17
19403.0	6.332429950255104e+17
19404.0	6.328867434266623e+17
19405.0	6.32455397638144e+17
19406.0	6.320729222021119e+17
19407.0	6.316761223790591e+17
19408.0	6.311527843889155e+17
19409.0	6.30730374774784e+17
19410.0	6.302896016588799e+17
19411.0	6.298054130925568e+17
19412.0	6.292143760998399e+17
19413.0	6.286869389464916e+17
19414.0	6.280183343131306e+17
19415.0	6.274169244570964e+17
19416.0	6.266243826843645e+17
19417.0	6.258635259423404e+17
19418.0	6.251274806056276e+17
19419.0	6.241984771522559e+17
19420.0	6.232003727501992e+17
19421.0	6.220747435409408e+17
19422.0	6.209006499179177e+17
19423.0	6.198712847390036e+17
19424.0	6.188900616415913e+17
19425.0	6.178519398744063e+17
19426.0	6.167284392744276e+17
19427.0	6.154740036184746e+17
19428.0	6.142420600575316e+17
19429.0	6.12805305905971e+17
19430.0	6.112256797092522e+17
19431.0	6.088780231824742e+17
19432.0	6.078134250110975e+17
19433.0	6.057500014368082e+17
19434.0	6.033566895614637e+17
19435.0	6.005063340261381e+17
19436.0	5.967915761969832e+17
19437.0	5.938016426131455e+17
19438.0	5.864520143951188e+17
19439.0	5.875464163120471e+17
19440.0	5.838796458644822e+17
19441.0	5.797245372159313e+17
19442.0	5.747993042310486e+17
19443.0	5.685667377272142e+17
19444.0	5.616189964637523e+17
19445.0	5.547645107262807e+17
19446.0	5.464200110058154e+17
19447.0	5.359120127361013e+17
19448.0	5.239475317069146e+17
19449.0	5.076802521967275e+17
19450.0	4.7609019115765606e+17
19451.0	4.646190222147576e+17
19452.0	4.9382648237260845e+17
19453.0	5.166193998561286e+17
19454.0	5.2984496045861485e+17
19455.0	5.407938278937937e+17
19456.0	5.499743144771587e+17
19457.0	5.572666825463122e+17
19458.0	5.611064002259672e+17
19459.0	5.703840288473092e+17
19460.0	5.7560927648262803e+17
19461.0	5.798992194218664e+17
19462.0	5.835689680349866e+17
19463.0	5.868002730486441e+17
19464.0	5.896724475630931e+17
19465.0	5.924410498220036e+17
19466.0	5.956334128201724e+17
19467.0	5.98623290270242e+17
19468.0	6.00940653436382e+17
19469.0	6.027975962482004e+17
19470.0	6.046402104786941e+17
19471.0	6.06138746867985e+17
19472.0	6.074899035237033e+17
19473.0	6.086941557303978e+17
19474.0	6.098033960463018e+17
19475.0	6.107018127474685e+17
19476.0	6.117420787127636e+17
19477.0	6.125809490897577e+17
19478.0	6.133497824892244e+17
19479.0	6.140772362835284e+17
19480.0	6.149643749905748e+17
19481.0	6.159016633827325e+17
19482.0	6.167037144115882e+17
19483.0	6.174134771209556e+17
19484.0	6.180134184812541e+17
19485.0	6.18600366097476e+17
19486.0	6.190453977601363e+17
19487.0	6.194889237375657e+17
19488.0	6.19884416475682e+17
19489.0	6.202382329315328e+17
19490.0	6.203420634163878e+17
19491.0	6.208528282812415e+17
19492.0	6.21082429235746e+17
19493.0	6.213112482321748e+17
19494.0	6.215495535558655e+17
19495.0	6.217091269700265e+17
19496.0	6.218101676135763e+17
19497.0	6.22008922677794e+17
19498.0	6.220219107595611e+17
19499.0	6.161971803411731e+17
19500.0	6.223908543223124e+17
19501.0	6.224740789605716e+17
19502.0	6.225478734053376e+17
19503.0	6.226188089425919e+17
19504.0	6.227019058642943e+17
19505.0	6.227685620230825e+17
19506.0	6.228072015593471e+17
19507.0	6.228356030092627e+17
19508.0	6.228627804214612e+17
19509.0	6.229290802741247e+17
19510.0	6.229122926422697e+17
19511.0	6.177498123468759e+17
19512.0	6.222756200841181e+17
19513.0	6.212659607240672e+17
19514.0	6.218353472088731e+17
19515.0	6.2288725236777e+17
19516.0	6.230527391913299e+17
19517.0	6.230415476697769e+17
19518.0	6.230224789656916e+17
19519.0	6.229867827822592e+17
19520.0	6.229965622913705e+17
19521.0	6.229729829628585e+17
19522.0	6.229223470181034e+17
19523.0	6.228828884041727e+17
19524.0	6.228327529097898e+17
19525.0	6.2277240239773e+17
19526.0	6.22755630354705e+17
19527.0	6.227157454596778e+17
19528.0	6.22656719229201e+17
19529.0	6.225941500002303e+17
19530.0	6.22531251937826e+17
19531.0	6.224659677358761e+17
19532.0	6.223974393096874e+17
19533.0	6.223278422447444e+17
19534.0	6.222563189456895e+17
19535.0	6.2220690011805e+17
19536.0	6.221444502170282e+17
19537.0	6.220785913954303e+17
19538.0	6.219960056195754e+17
19539.0	6.218345483337732e+17
19540.0	6.218370199672148e+17
19541.0	6.217598761609898e+17
19542.0	6.216760542538409e+17
19543.0	6.215917860727466e+17
19544.0	6.215074826594985e+17
19545.0	6.213702755112273e+17
19546.0	6.211905905491968e+17
19547.0	6.212473949869398e+17
19548.0	6.21170202386978e+17
19549.0	6.210640447624532e+17
19550.0	6.210133643580756e+17
19551.0	6.209304481409706e+17
19552.0	6.208382209884159e+17
19553.0	6.207427118628863e+17
19554.0	6.206454278477139e+17
19555.0	6.205557642537641e+17
19556.0	6.204626451824637e+17
19557.0	6.203669410217983e+17
19558.0	6.202709285797887e+17
19559.0	6.201710297655978e+17
19560.0	6.200737342859945e+17
19561.0	6.19976009519377e+17
19562.0	6.198812314610345e+17
19563.0	6.197833106107049e+17
19564.0	6.19684680503569e+17
19565.0	6.195844032932521e+17
19566.0	6.194806834681172e+17
19567.0	6.193918142054399e+17
19568.0	6.192893611300179e+17
19569.0	6.19189425475857e+17
19570.0	6.190916368859135e+17
19571.0	6.189934743737684e+17
19572.0	6.188989648906921e+17
19573.0	6.188004922097663e+17
19574.0	6.186836267368445e+17
19575.0	6.185962691013289e+17
19576.0	6.184927208232276e+17
19577.0	6.183767069338282e+17
19578.0	6.182795251897683e+17
19579.0	6.181773658554367e+17
19580.0	6.18073746903313e+17
19581.0	6.179705738057044e+17
19582.0	6.178684692070399e+17
19583.0	6.17763387421491e+17
19584.0	6.176562862183764e+17
19585.0	6.175394693294761e+17
19586.0	6.174399577893548e+17
19587.0	6.17328455782673e+17
19588.0	6.17182849470737e+17
19589.0	6.171300798835369e+17
19590.0	6.170303212989097e+17
19591.0	6.169375705574057e+17
19592.0	6.168316438992211e+17
19593.0	6.167209344761855e+17
19594.0	6.165716691233449e+17
19595.0	6.165071171070634e+17
19596.0	6.155372161837743e+17
19597.0	6.162909940591274e+17
19598.0	6.161457013413203e+17
19599.0	6.160801252158121e+17
19600.0	6.159733939503103e+17
19601.0	6.158554547355647e+17
19602.0	6.157510886380884e+17
19603.0	6.155213585689256e+17
19604.0	6.155313268916223e+17
19605.0	6.153853438612822e+17
19606.0	6.153217621273257e+17
19607.0	6.152147042653524e+17
19608.0	6.151040890743465e+17
19609.0	6.149878245752831e+17
19610.0	6.148896500394665e+17
19611.0	6.147791226492244e+17
19612.0	6.146721620951039e+17
19613.0	6.145608372977663e+17
19614.0	6.144474463862783e+17
19615.0	6.143443759792127e+17
19616.0	6.142005090451455e+17
19617.0	6.141253886410752e+17
19618.0	6.139413977366527e+17
19619.0	6.138032572858364e+17
19620.0	6.137007556263933e+17
19621.0	6.136868760453119e+17
19622.0	6.135785621291007e+17
19623.0	6.134692238939475e+17
19624.0	6.133587294988969e+17
19625.0	6.132565847747241e+17
19626.0	6.131458757711187e+17
19627.0	6.13037514948608e+17
19628.0	6.128283515092995e+17
19629.0	6.128034195177471e+17
19630.0	6.126496926138369e+17
19631.0	6.083388691010879e+17
19632.0	6.12485002498321e+17
19633.0	6.123681010941951e+17
19634.0	6.12267892600559e+17
19635.0	6.121515939878228e+17
19636.0	6.120456267846996e+17
19637.0	6.118757929145686e+17
19638.0	6.118256765741738e+17
19639.0	6.117129499705343e+17
19640.0	6.115973179026089e+17
19641.0	6.114017808482308e+17
19642.0	6.113848582296915e+17
19643.0	6.112708307626666e+17
19644.0	6.111566971797501e+17
19645.0	6.110158563661139e+17
19646.0	6.109455139034451e+17
19647.0	6.10835149881344e+17
19648.0	6.10724036546833e+17
19649.0	6.106131789250559e+17
19650.0	6.105038071354708e+17
19651.0	6.10392387686673e+17
19652.0	6.10281719996962e+17
19653.0	6.101705766731775e+17
19654.0	6.100603066034857e+17
19655.0	6.099489114816511e+17
19656.0	6.098393647895892e+17
19657.0	6.097292350892713e+17
19658.0	6.096190145123668e+17
19659.0	6.095090701303807e+17
19660.0	6.093992201202346e+17
19661.0	6.092879729874259e+17
19662.0	6.091781772935167e+17
19663.0	6.090599189621418e+17
19664.0	6.089363695162708e+17
19665.0	6.088465921867776e+17
