# Flux units: erg / (cm m2 s)
# Wavelength units: Angstrom
wave	flux
19000.0	7.020447679905791e+17
19001.0	7.01907018518801e+17
19002.0	7.017859944633684e+17
19003.0	7.016550747865087e+17
19004.0	7.015245333659647e+17
19005.0	7.013964621108563e+17
19006.0	7.012672535702185e+17
19007.0	7.0112690321053e+17
19008.0	7.01014974013986e+17
19009.0	7.008814552667476e+17
19010.0	7.007244390498301e+17
19011.0	7.006223617141417e+17
19012.0	7.004027528500563e+17
19013.0	7.00369921516066e+17
19014.0	7.002357813127849e+17
19015.0	7.001076611940351e+17
19016.0	6.999772932079615e+17
19017.0	6.998503170157226e+17
19018.0	6.997162356725076e+17
19019.0	6.995903090349395e+17
19020.0	6.994593753770665e+17
19021.0	6.993311160074239e+17
19022.0	6.992013161398271e+17
19023.0	6.990674145225385e+17
19024.0	6.98938172776994e+17
19025.0	6.98799406326306e+17
19026.0	6.986639880486911e+17
19027.0	6.984547810585257e+17
19028.0	6.984174325989375e+17
19029.0	6.982869549318143e+17
19030.0	6.981597179936768e+17
19031.0	6.98028926312994e+17
19032.0	6.978969709925716e+17
19033.0	6.97755981980194e+17
19034.0	6.976213504141993e+17
19035.0	6.973998298562559e+17
19036.0	6.914644316083525e+17
19037.0	6.971668261328211e+17
19038.0	6.971014701383679e+17
19039.0	6.969829739899562e+17
19040.0	6.968559859837609e+17
19041.0	6.967265006190591e+17
19042.0	6.965736211043668e+17
19043.0	6.964682155884541e+17
19044.0	6.963368880155306e+17
19045.0	6.962038476985684e+17
19046.0	6.960735874362025e+17
19047.0	6.959446471912105e+17
19048.0	6.957965171665578e+17
19049.0	6.95643630940979e+17
19050.0	6.95537462551074e+17
19051.0	6.944884813114015e+17
19052.0	6.950551544310442e+17
19053.0	6.951532491352746e+17
19054.0	6.95033050239249e+17
19055.0	6.948788679737344e+17
19056.0	6.94771231227904e+17
19057.0	6.946445942849533e+17
19058.0	6.944945517974867e+17
19059.0	6.943789462934867e+17
19060.0	6.942526436365652e+17
19061.0	6.941250601091071e+17
19062.0	6.939944773746687e+17
19063.0	6.938642828230655e+17
19064.0	6.937243017718442e+17
19065.0	6.935889483661311e+17
19066.0	6.934627112801619e+17
19067.0	6.933430788248915e+17
19068.0	6.932134179984723e+17
19069.0	6.930832635024724e+17
19070.0	6.929510629550761e+17
19071.0	6.928184649973759e+17
19072.0	6.926855386256724e+17
19073.0	6.925619526893567e+17
19074.0	6.924320829865983e+17
19075.0	6.923018068557823e+17
19076.0	6.921700506249897e+17
19077.0	6.920399927377919e+17
19078.0	6.919083374499156e+17
19079.0	6.917805553221632e+17
19080.0	6.916490424309076e+17
19081.0	6.915159851969194e+17
19082.0	6.913861243721044e+17
19083.0	6.912488954134527e+17
19084.0	6.911072580315817e+17
19085.0	6.909938379696808e+17
19086.0	6.908053557346304e+17
19087.0	6.905898334508374e+17
19088.0	6.905455323032233e+17
19089.0	6.903830864199679e+17
19090.0	6.903247075104084e+17
19091.0	6.902035526625962e+17
19092.0	6.900350028087295e+17
19093.0	6.899518179464531e+17
19094.0	6.898258924972713e+17
19095.0	6.896967961542655e+17
19096.0	6.895659507864916e+17
19097.0	6.894370267594751e+17
19098.0	6.892999263562409e+17
19099.0	6.891685459350868e+17
19100.0	6.890361903382527e+17
19101.0	6.889126917832704e+17
19102.0	6.887787852726271e+17
19103.0	6.886562803482623e+17
19104.0	6.885253805943465e+17
19105.0	6.883758598083923e+17
19106.0	6.882378031737514e+17
19107.0	6.881214808631977e+17
19108.0	6.879780006439593e+17
19109.0	6.874477306576892e+17
19110.0	6.876707264222548e+17
19111.0	6.875999409711785e+17
19112.0	6.874771910994601e+17
19113.0	6.873547357377876e+17
19114.0	6.872213391147007e+17
19115.0	6.870769119614292e+17
19116.0	6.86962819342882e+17
19117.0	6.868296411731284e+17
19118.0	6.866739939071316e+17
19119.0	6.862354349643086e+17
19120.0	6.863882189886803e+17
19121.0	6.862736907217578e+17
19122.0	6.861855318343679e+17
19123.0	6.860563803362644e+17
19124.0	6.858887646937087e+17
19125.0	6.857940468935336e+17
19126.0	6.856634594055508e+17
19127.0	6.854014510213801e+17
19128.0	6.853351472540329e+17
19129.0	6.852693509974697e+17
19130.0	6.851458180491946e+17
19131.0	6.850150296540499e+17
19132.0	6.848870380208127e+17
19133.0	6.847434623811583e+17
19134.0	6.845946381292884e+17
19135.0	6.844957550357161e+17
19136.0	6.84367346209041e+17
19137.0	6.842255964897279e+17
19138.0	6.841055843800404e+17
19139.0	6.839778509761194e+17
19140.0	6.838483212916051e+17
19141.0	6.837184740982783e+17
19142.0	6.83584424911394e+17
19143.0	6.834544819481257e+17
19144.0	6.833253189156863e+17
19145.0	6.831983581025619e+17
19146.0	6.830164737873238e+17
19147.0	6.829319921161555e+17
19148.0	6.828003754158761e+17
19149.0	6.826694841204735e+17
19150.0	6.825481464010067e+17
19151.0	6.824184962001577e+17
19152.0	6.822811164562772e+17
19153.0	6.821446227591165e+17
19154.0	6.820158856582484e+17
19155.0	6.818919543209983e+17
19156.0	6.817574860532393e+17
19157.0	6.815833796553386e+17
19158.0	6.812490825815379e+17
19159.0	6.81342188860211e+17
19160.0	6.812258220201299e+17
19161.0	6.8107648892928e+17
19162.0	6.803228809931437e+17
19163.0	6.807453423370239e+17
19164.0	6.807117760910676e+17
19165.0	6.805675018201769e+17
19166.0	6.804387254326612e+17
19167.0	6.802703622253226e+17
19168.0	6.80194286288896e+17
19169.0	6.800658009161727e+17
19170.0	6.799424193123668e+17
19171.0	6.797855145241257e+17
19172.0	6.796761606302378e+17
19173.0	6.795551005736959e+17
19174.0	6.794251846636884e+17
19175.0	6.792996662018047e+17
19176.0	6.791691288357546e+17
19177.0	6.790235672630612e+17
19178.0	6.78882050117905e+17
19179.0	6.787323830905514e+17
19180.0	6.786418372946602e+17
19181.0	6.785091701309439e+17
19182.0	6.783863826502996e+17
19183.0	6.782506412714665e+17
19184.0	6.781121865274708e+17
19185.0	6.779831342246569e+17
19186.0	6.778530102771711e+17
19187.0	6.777035830941012e+17
19188.0	6.775769729946963e+17
19189.0	6.774446158599508e+17
19190.0	6.773089928303956e+17
19191.0	6.771740615114751e+17
19192.0	6.770512060132009e+17
19193.0	6.769144650618196e+17
19194.0	6.767766068177578e+17
19195.0	6.766395152924672e+17
19196.0	6.764857354704212e+17
19197.0	6.763004104977066e+17
19198.0	6.759450574585855e+17
19199.0	6.719004451624269e+17
19200.0	6.726042569233759e+17
19201.0	6.755889588819284e+17
19202.0	6.756567998616916e+17
19203.0	6.755647746648746e+17
19204.0	6.754648421564415e+17
19205.0	6.753484800699049e+17
19206.0	6.752244269580287e+17
19207.0	6.750892083991891e+17
19208.0	6.749543204214099e+17
19209.0	6.748409749482153e+17
19210.0	6.747119383740415e+17
19211.0	6.745734119773524e+17
19212.0	6.744399453792937e+17
19213.0	6.742702592884735e+17
19214.0	6.741203382261075e+17
19215.0	6.740300104641193e+17
19216.0	6.739198581145599e+17
19217.0	6.73789584080896e+17
19218.0	6.735979247304703e+17
19219.0	6.735156203225087e+17
19220.0	6.733963959730175e+17
19221.0	6.732465148264447e+17
19222.0	6.731370902585343e+17
19223.0	6.730071073095677e+17
19224.0	6.728739385070932e+17
19225.0	6.727362759273129e+17
19226.0	6.726142862731945e+17
19227.0	6.724832279046825e+17
19228.0	6.723546129279657e+17
19229.0	6.722233533726719e+17
19230.0	6.720894521049087e+17
19231.0	6.719579579482111e+17
19232.0	6.718281198425428e+17
19233.0	6.716910214665555e+17
19234.0	6.715649987794259e+17
19235.0	6.714325102930601e+17
19236.0	6.713034226881876e+17
19237.0	6.711703565762559e+17
19238.0	6.71026357801233e+17
19239.0	6.709078590663338e+17
19240.0	6.707756478933673e+17
19241.0	6.706425099889322e+17
19242.0	6.705113583670612e+17
19243.0	6.703665412833279e+17
19244.0	6.702486783350099e+17
19245.0	6.701158869499903e+17
19246.0	6.699827998665385e+17
19247.0	6.69851575193873e+17
19248.0	6.697177959803562e+17
19249.0	6.695832225753769e+17
19250.0	6.694493903738195e+17
19251.0	6.693098933452799e+17
19252.0	6.691630409755306e+17
19253.0	6.690534062729897e+17
19254.0	6.689217212055551e+17
19255.0	6.687725333075284e+17
19256.0	6.686520889049087e+17
19257.0	6.685224098332671e+17
19258.0	6.683888193634303e+17
19259.0	6.682473220014079e+17
19260.0	6.680022621705554e+17
19261.0	6.67985396175121e+17
19262.0	6.678480599121919e+17
19263.0	6.677025318939306e+17
19264.0	6.675175159715155e+17
19265.0	6.674089631197865e+17
19266.0	6.672748280894804e+17
19267.0	6.671558110085119e+17
19268.0	6.670211071606783e+17
19269.0	6.668860928644435e+17
19270.0	6.667498431359658e+17
19271.0	6.665900591677439e+17
19272.0	6.664767936659455e+17
19273.0	6.662976465534973e+17
19274.0	6.661605205650089e+17
19275.0	6.660726222138026e+17
19276.0	6.659351771785897e+17
19277.0	6.657992594991785e+17
19278.0	6.656622773753172e+17
19279.0	6.655204913053695e+17
19280.0	6.653827753181183e+17
19281.0	6.652491515734697e+17
19282.0	6.651073996870996e+17
19283.0	6.649297846839978e+17
19284.0	6.648029378860372e+17
19285.0	6.646839052861437e+17
19286.0	6.645512195975849e+17
19287.0	6.64398275350801e+17
19288.0	6.625764039109276e+17
19289.0	6.602707888504772e+17
19290.0	6.639762657334612e+17
19291.0	6.638391492520618e+17
19292.0	6.637268548714496e+17
19293.0	6.635886867382271e+17
19294.0	6.634136657723391e+17
19295.0	6.63270202679842e+17
19296.0	6.631217633951743e+17
19297.0	6.629829764623017e+17
19298.0	6.628452042014719e+17
19299.0	6.626966109159423e+17
19300.0	6.625631441780733e+17
19301.0	6.624207685287935e+17
19302.0	6.622770200139091e+17
19303.0	6.621266738588329e+17
19304.0	6.619882910471508e+17
19305.0	6.618442810873172e+17
19306.0	6.61696538616354e+17
19307.0	6.615444110005588e+17
19308.0	6.613939601276927e+17
19309.0	6.611120970967721e+17
19310.0	6.609067642454013e+17
19311.0	6.609290977957204e+17
19312.0	6.607573067934377e+17
19313.0	6.605997351108607e+17
19314.0	6.552755008525637e+17
19315.0	6.555532364786424e+17
19316.0	6.601201256759295e+17
19317.0	6.600159225271636e+17
19318.0	6.598718191741609e+17
19319.0	6.597248397869055e+17
19320.0	6.595704627658751e+17
19321.0	6.5941334392832e+17
19322.0	6.592435222915754e+17
19323.0	6.590477353964884e+17
19324.0	6.58858459738931e+17
19325.0	6.586160890860884e+17
19326.0	6.585540912611327e+17
19327.0	6.584135584492201e+17
19328.0	6.58225518223906e+17
19329.0	6.580798991193428e+17
19330.0	6.579193128506707e+17
19331.0	6.577590964497065e+17
19332.0	6.575319828572841e+17
19333.0	6.573343363476137e+17
19334.0	6.571755982290943e+17
19335.0	6.569853081092095e+17
19336.0	6.568460687507455e+17
19337.0	6.566841126922921e+17
19338.0	6.565013183528959e+17
19339.0	6.562600512214356e+17
19340.0	6.560426909936297e+17
19341.0	6.558676032684032e+17
19342.0	6.556723608638804e+17
19343.0	6.55539490066705e+17
19344.0	6.553563568275455e+17
19345.0	6.549399357707602e+17
19346.0	6.547828170031101e+17
19347.0	6.546600914583551e+17
19348.0	6.545025892614143e+17
19349.0	6.543189911535615e+17
19350.0	6.541045482739027e+17
19351.0	6.538587118676649e+17
19352.0	6.536577462654292e+17
19353.0	6.534414453790036e+17
19354.0	6.532543024551252e+17
19355.0	6.530575285004969e+17
19356.0	6.528740941802153e+17
19357.0	6.526825323473577e+17
19358.0	6.524856099143679e+17
19359.0	6.522848907274921e+17
19360.0	6.520791457158483e+17
19361.0	6.518893507335508e+17
19362.0	6.516906845885779e+17
19363.0	6.514857196475732e+17
19364.0	6.512786968412159e+17
19365.0	6.51009905079091e+17
19366.0	6.507680092913664e+17
19367.0	6.505525871116288e+17
19368.0	6.503367065643689e+17
19369.0	6.501097635403092e+17
19370.0	6.498870872418986e+17
19371.0	6.496641112604671e+17
19372.0	6.494396416873811e+17
19373.0	6.490923099051346e+17
19374.0	6.488311847714813e+17
19375.0	6.485898513001129e+17
19376.0	6.483466777875796e+17
19377.0	6.480974961442815e+17
19378.0	6.478452140714665e+17
19379.0	6.474760708598441e+17
19380.0	6.471265585987583e+17
19381.0	6.468575228679507e+17
19382.0	6.465793734737919e+17
19383.0	6.463016172257279e+17
19384.0	6.457816355176447e+17
19385.0	6.454575259189247e+17
19386.0	6.451610577622356e+17
19387.0	6.44788672074001e+17
19388.0	6.44196274868497e+17
19389.0	6.438697151670954e+17
19390.0	6.43475656111991e+17
19391.0	6.378770403426237e+17
19392.0	6.422165282182481e+17
19393.0	6.418605617621674e+17
19394.0	6.411698074288127e+17
19395.0	6.407837276875434e+17
19396.0	6.397840300791122e+17
19397.0	6.39370010960418e+17
19398.0	6.383164402434038e+17
19399.0	6.377005768157865e+17
19400.0	6.369155431967405e+17
19401.0	6.364428043113812e+17
19402.0	6.359838565072895e+17
19403.0	6.355160544575487e+17
19404.0	6.350423118053375e+17
19405.0	6.345255066533887e+17
19406.0	6.339921209982976e+17
19407.0	6.334828346256041e+17
19408.0	6.3290718828189e+17
19409.0	6.324131552646484e+17
19410.0	6.317316644012031e+17
19411.0	6.311541429938857e+17
19412.0	6.305643173860692e+17
19413.0	6.297885019384488e+17
19414.0	6.291217945985023e+17
19415.0	6.283747850016084e+17
19416.0	6.274755627144532e+17
19417.0	6.266072077784403e+17
19418.0	6.256955559510015e+17
19419.0	6.246027724761766e+17
19420.0	6.235229208794446e+17
19421.0	6.221598168186879e+17
19422.0	6.206255677483681e+17
19423.0	6.190295099463002e+17
19424.0	6.171725897138172e+17
19425.0	6.150314849031502e+17
19426.0	6.12974260510174e+17
19427.0	6.11413420740881e+17
19428.0	6.10059085222161e+17
19429.0	6.086218538986153e+17
19430.0	6.069811795372717e+17
19431.0	6.047346794867379e+17
19432.0	6.038727493855913e+17
19433.0	6.021304819908608e+17
19434.0	6.001622505925289e+17
19435.0	5.979865632560466e+17
19436.0	5.954702274811218e+17
19437.0	5.933663513826644e+17
19438.0	5.842589795571037e+17
19439.0	5.871237340681559e+17
19440.0	5.837976324713129e+17
19441.0	5.796682885234687e+17
19442.0	5.750768733432496e+17
19443.0	5.697336126035283e+17
19444.0	5.636384110936061e+17
19445.0	5.565602896805891e+17
19446.0	5.48163800862993e+17
19447.0	5.377385425098064e+17
19448.0	5.242589145290075e+17
19449.0	5.055865361006591e+17
19450.0	4.757934498818714e+17
19451.0	4.5758399755496275e+17
19452.0	4.9278265649179296e+17
19453.0	5.157473487596209e+17
19454.0	5.3112355202006976e+17
19455.0	5.4264311099774285e+17
19456.0	5.517360757385902e+17
19457.0	5.591062995970729e+17
19458.0	5.565320526474053e+17
19459.0	5.707498921831103e+17
19460.0	5.7569041767028006e+17
19461.0	5.798303577582252e+17
19462.0	5.83508315393229e+17
19463.0	5.866588987894441e+17
19464.0	5.893900040404991e+17
19465.0	5.918035977524566e+17
19466.0	5.938445367115773e+17
19467.0	5.95797739708962e+17
19468.0	5.975739491592874e+17
19469.0	5.991774913473193e+17
19470.0	6.006588506636287e+17
19471.0	6.02051270812194e+17
19472.0	6.033679600757418e+17
19473.0	6.045981569886889e+17
19474.0	6.057550689249962e+17
19475.0	6.068088787872422e+17
19476.0	6.084942040312494e+17
19477.0	6.104429963684522e+17
19478.0	6.12195724567074e+17
19479.0	6.137374381004113e+17
19480.0	6.150245561226579e+17
19481.0	6.161037415940092e+17
19482.0	6.170859629357737e+17
19483.0	6.180625123202388e+17
19484.0	6.187037310844924e+17
19485.0	6.194862596554751e+17
19486.0	6.199789528023041e+17
19487.0	6.20640324428322e+17
19488.0	6.210420544460116e+17
19489.0	6.215509470434644e+17
19490.0	6.218858801834665e+17
19491.0	6.223192976785408e+17
19492.0	6.227209370293588e+17
19493.0	6.230873366768297e+17
19494.0	6.233829216529065e+17
19495.0	6.236579339872937e+17
19496.0	6.238855018228394e+17
19497.0	6.242029934389929e+17
19498.0	6.237280765913773e+17
19499.0	6.172788387741654e+17
19500.0	6.248708138074111e+17
19501.0	6.251316445708287e+17
19502.0	6.255970005723818e+17
19503.0	6.259557692429652e+17
19504.0	6.266689641512959e+17
19505.0	6.270507292120404e+17
19506.0	6.275415040240298e+17
19507.0	6.279571378798591e+17
19508.0	6.281771508651345e+17
19509.0	6.287064741270868e+17
19510.0	6.287588687435092e+17
19511.0	6.193558196671764e+17
19512.0	6.280767468470249e+17
19513.0	6.272685856959114e+17
19514.0	6.27997837168911e+17
19515.0	6.298746031702016e+17
19516.0	6.300345786783059e+17
19517.0	6.300906394659497e+17
19518.0	6.30289532313054e+17
19519.0	6.304386721163946e+17
19520.0	6.304651805371049e+17
19521.0	6.305075016936105e+17
19522.0	6.305271733988009e+17
19523.0	6.306977492413098e+17
19524.0	6.307422669548201e+17
19525.0	6.307580067097258e+17
19526.0	6.307635773046783e+17
19527.0	6.307636363045546e+17
19528.0	6.307586292143443e+17
19529.0	6.308173013756588e+17
19530.0	6.308727414762153e+17
19531.0	6.308581819984553e+17
19532.0	6.308404150665215e+17
19533.0	6.308196711574186e+17
19534.0	6.307959058814292e+17
19535.0	6.307687413317631e+17
19536.0	6.307376354645331e+17
19537.0	6.307480011975337e+17
19538.0	6.307386819433812e+17
19539.0	6.306825036453204e+17
19540.0	6.306819665646932e+17
19541.0	6.3064103204509e+17
19542.0	6.305996508321108e+17
19543.0	6.3054526035613e+17
19544.0	6.305083676775763e+17
19545.0	6.304232487518207e+17
19546.0	6.303440582650537e+17
19547.0	6.303585242098345e+17
19548.0	6.303053519694505e+17
19549.0	6.302417029868201e+17
19550.0	6.302193531486208e+17
19551.0	6.301811783412393e+17
19552.0	6.302078267118932e+17
19553.0	6.301487539945472e+17
19554.0	6.300836721677652e+17
19555.0	6.300184729004713e+17
19556.0	6.29953246789632e+17
19557.0	6.299598890991616e+17
19558.0	6.299688787509247e+17
19559.0	6.29898726220322e+17
19560.0	6.298207822807039e+17
19561.0	6.297523592014505e+17
19562.0	6.296772740994388e+17
19563.0	6.29640388551202e+17
19564.0	6.296527212729684e+17
19565.0	6.295762582721875e+17
19566.0	6.294964343756116e+17
19567.0	6.294202930779475e+17
19568.0	6.293387265878697e+17
19569.0	6.292590807394986e+17
19570.0	6.291868504205994e+17
19571.0	6.291913649597097e+17
19572.0	6.291059557881171e+17
19573.0	6.290220435636223e+17
19574.0	6.289318828747433e+17
19575.0	6.288553514369023e+17
19576.0	6.287684963489108e+17
19577.0	6.286857360900095e+17
19578.0	6.286145803517951e+17
19579.0	6.285406091870207e+17
19580.0	6.28508300812834e+17
19581.0	6.284199283654655e+17
19582.0	6.283310519724714e+17
19583.0	6.282402737422336e+17
19584.0	6.281462094845267e+17
19585.0	6.280468222356137e+17
19586.0	6.279469793454762e+17
19587.0	6.278495420284927e+17
19588.0	6.277411330413908e+17
19589.0	6.276811475036842e+17
19590.0	6.275798941390163e+17
19591.0	6.274942337286143e+17
19592.0	6.274223914527401e+17
19593.0	6.273517388911956e+17
19594.0	6.272358522290173e+17
19595.0	6.271598441704105e+17
19596.0	6.2691479126016e+17
19597.0	6.269652958532948e+17
19598.0	6.268420329482921e+17
19599.0	6.267713823440896e+17
19600.0	6.266737810298198e+17
19601.0	6.265691275526143e+17
19602.0	6.264684393005055e+17
19603.0	6.262816556187645e+17
19604.0	6.262555651604479e+17
19605.0	6.26151086236194e+17
19606.0	6.260753412303529e+17
19607.0	6.25975720288802e+17
19608.0	6.258733969571839e+17
19609.0	6.257693824821929e+17
19610.0	6.256667326240084e+17
19611.0	6.255829122547712e+17
19612.0	6.255170678336169e+17
19613.0	6.254137475159379e+17
19614.0	6.253084436419924e+17
19615.0	6.252065902122324e+17
19616.0	6.25053864488687e+17
19617.0	6.249936588199252e+17
19618.0	6.248524407985491e+17
19619.0	6.247358195040253e+17
19620.0	6.246363772398249e+17
19621.0	6.245746275079508e+17
19622.0	6.244815875691859e+17
19623.0	6.243757835943935e+17
19624.0	6.24267815358737e+17
19625.0	6.24164039819264e+17
19626.0	6.240554334901588e+17
19627.0	6.239371888601769e+17
19628.0	6.237247024835245e+17
19629.0	6.236389465128959e+17
19630.0	6.228413657732434e+17
19631.0	6.191424612947288e+17
19632.0	6.2328953910941e+17
19633.0	6.232778508424532e+17
19634.0	6.232013477161642e+17
19635.0	6.230980338297514e+17
19636.0	6.229872675039913e+17
19637.0	6.228531651892563e+17
19638.0	6.227884312799913e+17
19639.0	6.226823232880639e+17
19640.0	6.225695863384746e+17
19641.0	6.224064841864534e+17
19642.0	6.223620818862077e+17
19643.0	6.222536180236287e+17
19644.0	6.221438059719337e+17
19645.0	6.220215592768852e+17
19646.0	6.219222131321514e+17
19647.0	6.218309810782207e+17
19648.0	6.217410563888468e+17
19649.0	6.216330120964777e+17
19650.0	6.215252370784255e+17
19651.0	6.214166032766291e+17
19652.0	6.213088036519936e+17
19653.0	6.211982249514324e+17
19654.0	6.210916226607786e+17
19655.0	6.209829546754047e+17
19656.0	6.208749132491433e+17
19657.0	6.207668552553812e+17
19658.0	6.206577776962218e+17
19659.0	6.20549313274402e+17
19660.0	6.204405942583296e+17
19661.0	6.203316308541439e+17
19662.0	6.202223154080425e+17
19663.0	6.20105729974818e+17
19664.0	6.199869489632596e+17
19665.0	6.198948765106173e+17
