# Flux units: erg / (cm m2 s)
# Wavelength units: Angstrom
wave	flux
19000.0	7.726284483679572e+17
19001.0	7.724477002896723e+17
19002.0	7.723483235265194e+17
19003.0	7.722053360680957e+17
19004.0	7.720639957128531e+17
19005.0	7.719226810826752e+17
19006.0	7.717810845952681e+17
19007.0	7.716066859941888e+17
19008.0	7.714732509233148e+17
19009.0	7.71321517781811e+17
19010.0	7.71034854020437e+17
19011.0	7.710584390112596e+17
19012.0	7.708340206785875e+17
19013.0	7.707876856430592e+17
19014.0	7.706202898519378e+17
19015.0	7.704894897826476e+17
19016.0	7.703439612750506e+17
19017.0	7.702060092183891e+17
19018.0	7.70069903913779e+17
19019.0	7.699308764375722e+17
19020.0	7.697803298646697e+17
19021.0	7.696475293919913e+17
19022.0	7.69507767493154e+17
19023.0	7.693488790088361e+17
19024.0	7.692156839919615e+17
19025.0	7.690727179244884e+17
19026.0	7.68921660764979e+17
19027.0	7.687259493673641e+17
19028.0	7.686521222070272e+17
19029.0	7.685019568963583e+17
19030.0	7.683711252299773e+17
19031.0	7.682308236640255e+17
19032.0	7.680869211482794e+17
19033.0	7.679056427701587e+17
19034.0	7.677925797134333e+17
19035.0	7.676343012207274e+17
19036.0	7.627843359298895e+17
19037.0	7.673603032787625e+17
19038.0	7.672172650692607e+17
19039.0	7.67083017282082e+17
19040.0	7.669422466531328e+17
19041.0	7.667954799869951e+17
19042.0	7.666165576892415e+17
19043.0	7.665112915640317e+17
19044.0	7.663637167953234e+17
19045.0	7.662229854530217e+17
19046.0	7.660558722181802e+17
19047.0	7.659307153053011e+17
19048.0	7.657096371765245e+17
19049.0	7.656189041748648e+17
19050.0	7.654847335628799e+17
19051.0	7.645889230624074e+17
19052.0	7.650751045522772e+17
19053.0	7.650663035043839e+17
19054.0	7.649305345829545e+17
19055.0	7.646813267951617e+17
19056.0	7.646329048137728e+17
19057.0	7.644963974152191e+17
19058.0	7.643416220052138e+17
19059.0	7.642108910021289e+17
19060.0	7.640591180147368e+17
19061.0	7.639255497048063e+17
19062.0	7.637784294588415e+17
19063.0	7.636361674751997e+17
19064.0	7.634365529980928e+17
19065.0	7.632709362909183e+17
19066.0	7.631780651728893e+17
19067.0	7.630538697342975e+17
19068.0	7.629143606121811e+17
19069.0	7.627711139457705e+17
19070.0	7.62614663750178e+17
19071.0	7.624785457228458e+17
19072.0	7.623385274122237e+17
19073.0	7.621911446028287e+17
19074.0	7.620507767668735e+17
19075.0	7.619063937236991e+17
19076.0	7.617533644024488e+17
19077.0	7.61612360290577e+17
19078.0	7.614550768265897e+17
19079.0	7.613265925723475e+17
19080.0	7.611762832572415e+17
19081.0	7.610211144215208e+17
19082.0	7.608750997940906e+17
19083.0	7.606981061771261e+17
19084.0	7.605001418790228e+17
19085.0	7.604533270151165e+17
19086.0	7.601419381112832e+17
19087.0	7.600235836604416e+17
19088.0	7.599741813303977e+17
19089.0	7.597254066743978e+17
19090.0	7.597166892329641e+17
19091.0	7.595766654697471e+17
19092.0	7.593878963443028e+17
19093.0	7.5929926790458e+17
19094.0	7.591559416862038e+17
19095.0	7.590120271467859e+17
19096.0	7.588614306616659e+17
19097.0	7.587226245049e+17
19098.0	7.585768193130493e+17
19099.0	7.58431317369378e+17
19100.0	7.582800226724522e+17
19101.0	7.581406754504701e+17
19102.0	7.579616165582164e+17
19103.0	7.578514038106796e+17
19104.0	7.577094464733183e+17
19105.0	7.575611385402708e+17
19106.0	7.573910871954772e+17
19107.0	7.572640769594708e+17
19108.0	7.5712524465821e+17
19109.0	7.565180429576868e+17
19110.0	7.568137866881704e+17
19111.0	7.566909766281897e+17
19112.0	7.565483918229501e+17
19113.0	7.5640301696669e+17
19114.0	7.56256099025988e+17
19115.0	7.560841802372435e+17
19116.0	7.559579589498195e+17
19117.0	7.558103400011091e+17
19118.0	7.556206931476479e+17
19119.0	7.544032808927214e+17
19120.0	7.553371250622463e+17
19121.0	7.552098921086973e+17
19122.0	7.550966310808233e+17
19123.0	7.549493500532054e+17
19124.0	7.547776514654208e+17
19125.0	7.546547682847402e+17
19126.0	7.545107613308244e+17
19127.0	7.536776056231251e+17
19128.0	7.540016360194044e+17
19129.0	7.540417405561513e+17
19130.0	7.5392383741242e+17
19131.0	7.537786083781288e+17
19132.0	7.536395479067305e+17
19133.0	7.533805717247319e+17
19134.0	7.532494084287148e+17
19135.0	7.532012298567679e+17
19136.0	7.530595294904319e+17
19137.0	7.528482612794706e+17
19138.0	7.527545912863402e+17
19139.0	7.526211595709097e+17
19140.0	7.524771436691455e+17
19141.0	7.52331471856162e+17
19142.0	7.521737028315817e+17
19143.0	7.520161424037204e+17
19144.0	7.51876703466291e+17
19145.0	7.517446012054186e+17
19146.0	7.513532365712042e+17
19147.0	7.514162941569705e+17
19148.0	7.513061142648148e+17
19149.0	7.511592899969021e+17
19150.0	7.510134962694825e+17
19151.0	7.508692214393513e+17
19152.0	7.507179303774888e+17
19153.0	7.505712488557225e+17
19154.0	7.503808967999487e+17
19155.0	7.502847337125203e+17
19156.0	7.501371287448233e+17
19157.0	7.499715346868905e+17
19158.0	7.495407990996988e+17
19159.0	7.4968375244445e+17
19160.0	7.495397190664191e+17
19161.0	7.49380997934831e+17
19162.0	7.485404801051311e+17
19163.0	7.490781356315987e+17
19164.0	7.489667946162857e+17
19165.0	7.488062800003071e+17
19166.0	7.486184901050368e+17
19167.0	7.484604355881642e+17
19168.0	7.483601622226259e+17
19169.0	7.48213046870016e+17
19170.0	7.480874709461676e+17
19171.0	7.479031483422036e+17
19172.0	7.477877589846697e+17
19173.0	7.476473383004842e+17
19174.0	7.474789864876714e+17
19175.0	7.47355970347554e+17
19176.0	7.472069014279506e+17
19177.0	7.469985841894739e+17
19178.0	7.468934409573715e+17
19179.0	7.467135262872915e+17
19180.0	7.46600437785122e+17
19181.0	7.464318253662205e+17
19182.0	7.463120813424637e+17
19183.0	7.461761959591935e+17
19184.0	7.46011441880542e+17
19185.0	7.458770540036092e+17
19186.0	7.457355681060182e+17
19187.0	7.455520385051306e+17
19188.0	7.454365667994281e+17
19189.0	7.452835103550121e+17
19190.0	7.451321526037161e+17
19191.0	7.449759866421247e+17
19192.0	7.448464398308692e+17
19193.0	7.446864342635859e+17
19194.0	7.445374079860736e+17
19195.0	7.443972941851305e+17
19196.0	7.442393557106687e+17
19197.0	7.440834376324436e+17
19198.0	7.438864183110313e+17
19199.0	7.396414487964319e+17
19200.0	7.406453153333261e+17
19201.0	7.434501174416723e+17
19202.0	7.433469740537174e+17
19203.0	7.432100515588777e+17
19204.0	7.430677251227645e+17
19205.0	7.429269786809683e+17
19206.0	7.427762532909055e+17
19207.0	7.425926261025449e+17
19208.0	7.424100272177148e+17
19209.0	7.423306139435007e+17
19210.0	7.421844684537855e+17
19211.0	7.420409217548287e+17
19212.0	7.41889950298931e+17
19213.0	7.416748840058879e+17
19214.0	7.414965637305686e+17
19215.0	7.414241858420733e+17
19216.0	7.412903039380138e+17
19217.0	7.411388994901331e+17
19218.0	7.406595657607843e+17
19219.0	7.407729530372093e+17
19220.0	7.406797301568854e+17
19221.0	7.404077674310314e+17
19222.0	7.403880233041919e+17
19223.0	7.402304343550634e+17
19224.0	7.400669194136234e+17
19225.0	7.398766007724713e+17
19226.0	7.397764907051688e+17
19227.0	7.396078278148096e+17
19228.0	7.394344865977683e+17
19229.0	7.392830987872936e+17
19230.0	7.391203535006377e+17
19231.0	7.389689470954153e+17
19232.0	7.388216381057706e+17
19233.0	7.386452219046569e+17
19234.0	7.385129633360553e+17
19235.0	7.383552842093908e+17
19236.0	7.382190929215488e+17
19237.0	7.380586556205736e+17
19238.0	7.37870856917265e+17
19239.0	7.377612401803264e+17
19240.0	7.375734558774611e+17
19241.0	7.374334502895615e+17
19242.0	7.372924535876264e+17
19243.0	7.370715558139218e+17
19244.0	7.369940871588522e+17
19245.0	7.368377306360489e+17
19246.0	7.366782564870825e+17
19247.0	7.365269124371796e+17
19248.0	7.363762562531327e+17
19249.0	7.362195892120233e+17
19250.0	7.360587756819795e+17
19251.0	7.358557037002751e+17
19252.0	7.356355806145193e+17
19253.0	7.355916359128404e+17
19254.0	7.354400266431145e+17
19255.0	7.35210888180531e+17
19256.0	7.351100424323071e+17
19257.0	7.349744431005693e+17
19258.0	7.348187878653952e+17
19259.0	7.346316499047764e+17
19260.0	7.34418297124727e+17
19261.0	7.343407043182591e+17
19262.0	7.341641726339756e+17
19263.0	7.340065312560468e+17
19264.0	7.336629769338875e+17
19265.0	7.336391987254611e+17
19266.0	7.334959789025962e+17
19267.0	7.333961843867647e+17
19268.0	7.332334035883348e+17
19269.0	7.330738484893012e+17
19270.0	7.329150114551126e+17
19271.0	7.326217564848129e+17
19272.0	7.325770398913875e+17
19273.0	7.314614604442272e+17
19274.0	7.316787026023757e+17
19275.0	7.32108494610978e+17
19276.0	7.319390740895062e+17
19277.0	7.317777050938025e+17
19278.0	7.316157467983871e+17
19279.0	7.314366581265747e+17
19280.0	7.312544442788522e+17
19281.0	7.311214248635049e+17
19282.0	7.309614620781225e+17
19283.0	7.307373355291987e+17
19284.0	7.305431077967187e+17
19285.0	7.303849145881939e+17
19286.0	7.302841675459241e+17
19287.0	7.301334499852288e+17
19288.0	7.286281039336772e+17
19289.0	7.26814309465015e+17
19290.0	7.296314004646569e+17
19291.0	7.293537913667584e+17
19292.0	7.292950185421481e+17
19293.0	7.29123238445056e+17
19294.0	7.289514344404308e+17
19295.0	7.287856858923008e+17
19296.0	7.28611677081873e+17
19297.0	7.284294017176916e+17
19298.0	7.282571307472211e+17
19299.0	7.280965079181994e+17
19300.0	7.279224217927679e+17
19301.0	7.277460183143763e+17
19302.0	7.275126240313343e+17
19303.0	7.272852519299753e+17
19304.0	7.271239180266153e+17
19305.0	7.269550663925757e+17
19306.0	7.267782837491027e+17
19307.0	7.265801488826368e+17
19308.0	7.264075149650602e+17
19309.0	7.260971526870356e+17
19310.0	7.258539117161126e+17
19311.0	7.258508579831807e+17
19312.0	7.256951244543316e+17
19313.0	7.255117127133866e+17
19314.0	7.228636467123555e+17
19315.0	7.227972389961754e+17
19316.0	7.249467185736362e+17
19317.0	7.24772728078336e+17
19318.0	7.245837425268051e+17
19319.0	7.244014530418003e+17
19320.0	7.242115820726953e+17
19321.0	7.240204859473919e+17
19322.0	7.237810750750719e+17
19323.0	7.235672570068992e+17
19324.0	7.234295366156287e+17
19325.0	7.231229971660799e+17
19326.0	7.230401679108778e+17
19327.0	7.2284458989213e+17
19328.0	7.225542987568468e+17
19329.0	7.223361342712488e+17
19330.0	7.221194952540157e+17
19331.0	7.219141326230867e+17
19332.0	7.217251481900371e+17
19333.0	7.21513909199394e+17
19334.0	7.213134579586387e+17
19335.0	7.211061507085651e+17
19336.0	7.208951839282516e+17
19337.0	7.206854344747689e+17
19338.0	7.203901333831677e+17
19339.0	7.202587612108116e+17
19340.0	7.200213334054228e+17
19341.0	7.19818686865954e+17
19342.0	7.193786192319827e+17
19343.0	7.192220815152467e+17
19344.0	7.189943976372906e+17
19345.0	7.180547906338802e+17
19346.0	7.182212880050854e+17
19347.0	7.182920365462868e+17
19348.0	7.180870137937917e+17
19349.0	7.178369843418451e+17
19350.0	7.176035651725994e+17
19351.0	7.173613547421693e+17
19352.0	7.168917264924671e+17
19353.0	7.166752516123306e+17
19354.0	7.164274079520083e+17
19355.0	7.16137717301248e+17
19356.0	7.159231309763923e+17
19357.0	7.156659636578986e+17
19358.0	7.153800572480169e+17
19359.0	7.148187285105322e+17
19360.0	7.145831554263721e+17
19361.0	7.143161588962642e+17
19362.0	7.140584597400233e+17
19363.0	7.137802873470973e+17
19364.0	7.1325409387479e+17
19365.0	7.128667877889363e+17
19366.0	7.125760802990761e+17
19367.0	7.122786157854719e+17
19368.0	7.118028901362349e+17
19369.0	7.112201308820819e+17
19370.0	7.108377761721e+17
19371.0	7.105909170547369e+17
19372.0	7.098400674327206e+17
19373.0	7.094383768414889e+17
19374.0	7.091047487591763e+17
19375.0	7.082518952017917e+17
19376.0	7.078291926854313e+17
19377.0	7.073895131643901e+17
19378.0	7.067584022533459e+17
19379.0	7.063774262110889e+17
19380.0	7.059889882223956e+17
19381.0	7.055903727550463e+17
19382.0	7.051597576841898e+17
19383.0	7.047348464473428e+17
19384.0	7.043561077866493e+17
19385.0	7.039271561767594e+17
19386.0	7.034901396193279e+17
19387.0	7.030416329758035e+17
19388.0	7.025835205372585e+17
19389.0	7.020741493697194e+17
19390.0	7.015849062476457e+17
19391.0	6.974763976447265e+17
19392.0	7.005154447807823e+17
19393.0	7.0007839536797e+17
19394.0	6.995525232492544e+17
19395.0	6.990152055739731e+17
19396.0	6.984741019101866e+17
19397.0	6.978498203047252e+17
19398.0	6.972662092573353e+17
19399.0	6.964602604617724e+17
19400.0	6.9607971370653e+17
19401.0	6.954971329200125e+17
19402.0	6.94748687962385e+17
19403.0	6.940894088746323e+17
19404.0	6.93430887977233e+17
19405.0	6.926392786681855e+17
19406.0	6.918430200430592e+17
19407.0	6.911220206534655e+17
19408.0	6.899126746742788e+17
19409.0	6.893252249299626e+17
19410.0	6.882853001013926e+17
19411.0	6.873600764848812e+17
19412.0	6.860874996252671e+17
19413.0	6.849098860025172e+17
19414.0	6.835364283722406e+17
19415.0	6.819779869059749e+17
19416.0	6.800954023564626e+17
19417.0	6.78024071820083e+17
19418.0	6.760630442087767e+17
19419.0	6.746191806420308e+17
19420.0	6.732991306224979e+17
19421.0	6.719348164351316e+17
19422.0	6.705174763186857e+17
19423.0	6.690345947496445e+17
19424.0	6.674331180466175e+17
19425.0	6.658179490381823e+17
19426.0	6.641356338364413e+17
19427.0	6.62302653083375e+17
19428.0	6.604768859040425e+17
19429.0	6.584312340152319e+17
19430.0	6.562100645549399e+17
19431.0	6.533617338198707e+17
19432.0	6.513458090606592e+17
19433.0	6.484834713774764e+17
19434.0	6.451990859087872e+17
19435.0	6.413043801347414e+17
19436.0	6.365807865670304e+17
19437.0	6.324159965560831e+17
19438.0	6.253656107472223e+17
19439.0	6.243173468034392e+17
19440.0	6.199077549812393e+17
19441.0	6.147990758621179e+17
19442.0	6.088185690630825e+17
19443.0	6.019536180477948e+17
19444.0	5.940018224125267e+17
19445.0	5.850771469893636e+17
19446.0	5.753556742526292e+17
19447.0	5.6380091234167405e+17
19448.0	5.49969445938791e+17
19449.0	5.3327547932344326e+17
19450.0	5.120602748747734e+17
19451.0	5.039214598378844e+17
19452.0	5.2297153023836154e+17
19453.0	5.41961504651128e+17
19454.0	5.56815794027451e+17
19455.0	5.692164624700756e+17
19456.0	5.795636728649048e+17
19457.0	5.884743370058408e+17
19458.0	5.945439282353528e+17
19459.0	6.03815542993716e+17
19460.0	6.100894797354322e+17
19461.0	6.153611277675177e+17
19462.0	6.199029069250561e+17
19463.0	6.239719481060008e+17
19464.0	6.27716242154018e+17
19465.0	6.313870119403514e+17
19466.0	6.358257246754124e+17
19467.0	6.398034052470106e+17
19468.0	6.430568425542994e+17
19469.0	6.457090096758781e+17
19470.0	6.48321540694562e+17
19471.0	6.50522918981905e+17
19472.0	6.525366048216403e+17
19473.0	6.543403699404799e+17
19474.0	6.560143064607402e+17
19475.0	6.573996510281724e+17
19476.0	6.590677571163476e+17
19477.0	6.604723646540458e+17
19478.0	6.618287716696063e+17
19479.0	6.631158267073875e+17
19480.0	6.642919585524393e+17
19481.0	6.654216595221161e+17
19482.0	6.665070643773439e+17
19483.0	6.675619921614166e+17
19484.0	6.689919888698024e+17
19485.0	6.70943179579938e+17
19486.0	6.725867849908227e+17
19487.0	6.739566497802924e+17
19488.0	6.751108301761193e+17
19489.0	6.762133858200237e+17
19490.0	6.766708581378729e+17
19491.0	6.778586374253225e+17
19492.0	6.786741441309352e+17
19493.0	6.792730898333695e+17
19494.0	6.799379542660438e+17
19495.0	6.80490069725457e+17
19496.0	6.808231664593574e+17
19497.0	6.815477270926675e+17
19498.0	6.815021552107521e+17
19499.0	6.768418394297664e+17
19500.0	6.82788971033395e+17
19501.0	6.832005392804522e+17
19502.0	6.835285933424639e+17
19503.0	6.838493443522557e+17
19504.0	6.841524560068607e+17
19505.0	6.844932599141716e+17
19506.0	6.84818293657873e+17
19507.0	6.850800275947519e+17
19508.0	6.853462920790013e+17
19509.0	6.855933798558378e+17
19510.0	6.857652404835668e+17
19511.0	6.808194654754112e+17
19512.0	6.853315319736991e+17
19513.0	6.848027320909798e+17
19514.0	6.854989736924484e+17
19515.0	6.867010614984707e+17
19516.0	6.870783287274153e+17
19517.0	6.872293126963199e+17
19518.0	6.874052115300351e+17
19519.0	6.875487766839293e+17
19520.0	6.876788974856873e+17
19521.0	6.878212224537939e+17
19522.0	6.879295743983615e+17
19523.0	6.88060439339554e+17
19524.0	6.882366539344553e+17
19525.0	6.885733073682431e+17
19526.0	6.886721523635539e+17
19527.0	6.890336508269905e+17
19528.0	6.893706801403222e+17
19529.0	6.894378365397673e+17
19530.0	6.897153329506985e+17
19531.0	6.900234414893738e+17
19532.0	6.900888291508223e+17
19533.0	6.901333279899647e+17
19534.0	6.904992516538365e+17
19535.0	6.905781614717609e+17
19536.0	6.905958927521107e+17
19537.0	6.906306124316672e+17
19538.0	6.907589765890049e+17
19539.0	6.907814248535386e+17
19540.0	6.909721571928745e+17
19541.0	6.909854583095296e+17
19542.0	6.909831716448938e+17
19543.0	6.909782668957012e+17
19544.0	6.9121608791709e+17
19545.0	6.91037537724006e+17
19546.0	6.90876747682065e+17
19547.0	6.911846745374719e+17
19548.0	6.911642803634175e+17
19549.0	6.911003467972605e+17
19550.0	6.911162252438185e+17
19551.0	6.91232911200529e+17
19552.0	6.912554780240554e+17
19553.0	6.912124511059967e+17
19554.0	6.911699941938516e+17
19555.0	6.911410955791017e+17
19556.0	6.911047136269652e+17
19557.0	6.910604073063764e+17
19558.0	6.910144087938388e+17
19559.0	6.909653456431786e+17
19560.0	6.909078638253396e+17
19561.0	6.909570569994237e+17
19562.0	6.909610823428778e+17
19563.0	6.909092224303103e+17
19564.0	6.908521223640404e+17
19565.0	6.907940827037695e+17
19566.0	6.907225354971817e+17
19567.0	6.906743451112787e+17
19568.0	6.905993709486079e+17
19569.0	6.90539224769058e+17
19570.0	6.904831065893546e+17
19571.0	6.904158728749055e+17
19572.0	6.903353639785812e+17
19573.0	6.902721435839146e+17
19574.0	6.901731682855592e+17
19575.0	6.901390182623913e+17
19576.0	6.900670777698985e+17
19577.0	6.900777131966463e+17
19578.0	6.900082135793661e+17
19579.0	6.899376003743743e+17
19580.0	6.898612728496125e+17
19581.0	6.897893787041792e+17
19582.0	6.897167031599103e+17
19583.0	6.896364268377428e+17
19584.0	6.895507365079721e+17
19585.0	6.894272651460605e+17
19586.0	6.893289304577366e+17
19587.0	6.89279726588177e+17
19588.0	6.890389810184195e+17
19589.0	6.8912259544733e+17
19590.0	6.890143922607443e+17
19591.0	6.889575596512596e+17
19592.0	6.888724675690493e+17
19593.0	6.88775113019665e+17
19594.0	6.885946946835795e+17
19595.0	6.885856947557716e+17
19596.0	6.880240504668164e+17
19597.0	6.884007120382634e+17
19598.0	6.882133751977299e+17
19599.0	6.882323987431424e+17
19600.0	6.881412953844394e+17
19601.0	6.880196649724585e+17
19602.0	6.879310355540649e+17
19603.0	6.876384526510758e+17
19604.0	6.877289549660159e+17
19605.0	6.875392846244522e+17
19606.0	6.875618689242452e+17
19607.0	6.874653044419241e+17
19608.0	6.874244680690345e+17
19609.0	6.873148771969705e+17
19610.0	6.872387178637993e+17
19611.0	6.871354768883711e+17
19612.0	6.870393106552147e+17
19613.0	6.86933417271842e+17
19614.0	6.868188303545684e+17
19615.0	6.867324457276755e+17
19616.0	6.865958769524735e+17
19617.0	6.865273919373311e+17
19618.0	6.862067805978619e+17
19619.0	6.860561963461285e+17
19620.0	6.8595897888058e+17
19621.0	6.861100629535401e+17
19622.0	6.860079369639252e+17
19623.0	6.85903709278481e+17
19624.0	6.857937681121279e+17
19625.0	6.856916845548884e+17
19626.0	6.855803303974227e+17
19627.0	6.854762619557203e+17
19628.0	6.852635063047511e+17
19629.0	6.852167779833171e+17
19630.0	6.848191376217428e+17
19631.0	6.806462748338862e+17
19632.0	6.849200102135123e+17
19633.0	6.848059440889855e+17
19634.0	6.847213240057855e+17
19635.0	6.845956435039572e+17
19636.0	6.844990184139434e+17
19637.0	6.842250498321066e+17
19638.0	6.84280561864977e+17
19639.0	6.841662861650601e+17
19640.0	6.8402561955485e+17
19641.0	6.837130179379204e+17
19642.0	6.838377605933737e+17
19643.0	6.837228510642175e+17
19644.0	6.835939145241939e+17
19645.0	6.834016773384872e+17
19646.0	6.833959495969449e+17
19647.0	6.832844697501696e+17
19648.0	6.831701266617683e+17
19649.0	6.830563621076991e+17
19650.0	6.829467099987968e+17
19651.0	6.828309841182719e+17
19652.0	6.827163358942548e+17
19653.0	6.826043748210004e+17
19654.0	6.824881106015572e+17
19655.0	6.823727246693716e+17
19656.0	6.822621040257705e+17
19657.0	6.821476799873023e+17
19658.0	6.820358431353514e+17
19659.0	6.819209464687274e+17
19660.0	6.818081157065385e+17
19661.0	6.816913103519743e+17
19662.0	6.815782666589523e+17
19663.0	6.81441452167441e+17
19664.0	6.813267698996563e+17
19665.0	6.81232509837858e+17
19666.0	6.811095439594835e+17
