# Flux units: erg / (cm m2 s)
# Wavelength units: Angstrom
wave	flux
19000.0	5.5732912608597325e+17
19001.0	5.5721456202765645e+17
19002.0	5.571233298339156e+17
19003.0	5.5701986411369805e+17
19004.0	5.5691694742787405e+17
19005.0	5.568132434711892e+17
19006.0	5.567113585841492e+17
19007.0	5.5660674467321165e+17
19008.0	5.56497356665651e+17
19009.0	5.5639107663735456e+17
19010.0	5.562399474057215e+17
19011.0	5.5619156219439776e+17
19012.0	5.5606922196637e+17
19013.0	5.559889952068949e+17
19014.0	5.558800115302398e+17
19015.0	5.5577835110836896e+17
19016.0	5.556732468832937e+17
19017.0	5.5557714286564685e+17
19018.0	5.5547259529461754e+17
19019.0	5.5537056507494394e+17
19020.0	5.5526588062979405e+17
19021.0	5.5516504739457696e+17
19022.0	5.550616106849621e+17
19023.0	5.549549342250324e+17
19024.0	5.5485363213653325e+17
19025.0	5.5475223287999136e+17
19026.0	5.546458727404884e+17
19027.0	5.5453358625914874e+17
19028.0	5.544442366088533e+17
19029.0	5.5433936719489696e+17
19030.0	5.542396924264447e+17
19031.0	5.5413675546815136e+17
19032.0	5.54033062486562e+17
19033.0	5.539201558773758e+17
19034.0	5.53826280083729e+17
19035.0	5.537197264470015e+17
19036.0	5.525378566542674e+17
19037.0	5.5351703887325856e+17
19038.0	5.5341336553499296e+17
19039.0	5.5331285658938016e+17
19040.0	5.53210522702097e+17
19041.0	5.5310664104673274e+17
19042.0	5.529885589460308e+17
19043.0	5.5290197362169165e+17
19044.0	5.527976788972884e+17
19045.0	5.526957103338836e+17
19046.0	5.5258618027922765e+17
19047.0	5.524883664535551e+17
19048.0	5.5235995853564576e+17
19049.0	5.522661422312105e+17
19050.0	5.521760405422079e+17
19051.0	5.519227844121938e+17
19052.0	5.519505509143894e+17
19053.0	5.518737249665023e+17
19054.0	5.5177094110030496e+17
19055.0	5.516369075721558e+17
19056.0	5.515614493868031e+17
19057.0	5.5146186850085536e+17
19058.0	5.5135311886636365e+17
19059.0	5.5125456754223776e+17
19060.0	5.5115168559923194e+17
19061.0	5.5105199754881696e+17
19062.0	5.509486805166761e+17
19063.0	5.508462648404649e+17
19064.0	5.5072852303762765e+17
19065.0	5.506213931734356e+17
19066.0	5.5053005066949965e+17
19067.0	5.504343437126313e+17
19068.0	5.503332093263871e+17
19069.0	5.5023078330422605e+17
19070.0	5.501246353266004e+17
19071.0	5.500245202960383e+17
19072.0	5.49920767545617e+17
19073.0	5.498198979597652e+17
19074.0	5.49717988745762e+17
19075.0	5.496154512250196e+17
19076.0	5.495104341715626e+17
19077.0	5.494084863699626e+17
19078.0	5.493035587250858e+17
19079.0	5.492051845403988e+17
19080.0	5.4910108205492896e+17
19081.0	5.4899547192688634e+17
19082.0	5.488927355961343e+17
19083.0	5.487844509701459e+17
19084.0	5.4866813613943456e+17
19085.0	5.485889762011818e+17
19086.0	5.4844375422730234e+17
19087.0	5.4835393607325e+17
19088.0	5.4827128332834125e+17
19089.0	5.481472198006101e+17
19090.0	5.4807547056837965e+17
19091.0	5.4797271186800634e+17
19092.0	5.4785877318041594e+17
19093.0	5.477717801697279e+17
19094.0	5.4766934701725005e+17
19095.0	5.4756702074961914e+17
19096.0	5.4746291651652256e+17
19097.0	5.473623870887252e+17
19098.0	5.4725794982789114e+17
19099.0	5.47154707943697e+17
19100.0	5.4705296049001805e+17
19101.0	5.46952867549457e+17
19102.0	5.4683716970086394e+17
19103.0	5.467489858573651e+17
19104.0	5.466472195293183e+17
19105.0	5.465397808245418e+17
19106.0	5.464379322881364e+17
19107.0	5.4633701034338976e+17
19108.0	5.462364631597055e+17
19109.0	5.4606374472690336e+17
19110.0	5.460324092914345e+17
19111.0	5.459307345390249e+17
19112.0	5.4582845482816845e+17
19113.0	5.4572777091017376e+17
19114.0	5.456248979849215e+17
19115.0	5.455165811326975e+17
19116.0	5.45419591557666e+17
19117.0	5.453176784988842e+17
19118.0	5.452047080663722e+17
19119.0	5.442582880452595e+17
19120.0	5.4500420236957005e+17
19121.0	5.4490582727611725e+17
19122.0	5.448102286721023e+17
19123.0	5.4470827192265363e+17
19124.0	5.446018044788736e+17
19125.0	5.445038692281002e+17
19126.0	5.4440178455237965e+17
19127.0	5.4408391747611296e+17
19128.0	5.441864494743551e+17
19129.0	5.440878977307988e+17
19130.0	5.439928496990889e+17
19131.0	5.438928275723605e+17
19132.0	5.4379087921152e+17
19133.0	5.4367798602410656e+17
19134.0	5.435818316049066e+17
19135.0	5.4348514786454176e+17
19136.0	5.433842766708735e+17
19137.0	5.4326281305238176e+17
19138.0	5.431787104064851e+17
19139.0	5.430789082710015e+17
19140.0	5.429773418714453e+17
19141.0	5.4287560769972896e+17
19142.0	5.4277094842040314e+17
19143.0	5.42665161642257e+17
19144.0	5.425660322731347e+17
19145.0	5.424688236855294e+17
19146.0	5.4229656963208544e+17
19147.0	5.4225302073289376e+17
19148.0	5.421615451297108e+17
19149.0	5.4205899027251194e+17
19150.0	5.4195958932220576e+17
19151.0	5.418583387537407e+17
19152.0	5.4175588945319245e+17
19153.0	5.416497095289513e+17
19154.0	5.4153845498620576e+17
19155.0	5.414526288308905e+17
19156.0	5.413506994842281e+17
19157.0	5.412468181783894e+17
19158.0	5.410965155741694e+17
19159.0	5.410437626243754e+17
19160.0	5.409427484049407e+17
19161.0	5.40841892590387e+17
19162.0	5.4062843355463686e+17
19163.0	5.4063747857121274e+17
19164.0	5.4053872312429216e+17
19165.0	5.40429760209442e+17
19166.0	5.403178950459391e+17
19167.0	5.4022380499326285e+17
19168.0	5.4013159063333536e+17
19169.0	5.400282928250879e+17
19170.0	5.399299872172713e+17
19171.0	5.3982142003500365e+17
19172.0	5.397266747621375e+17
19173.0	5.396255057728851e+17
19174.0	5.3951745728621216e+17
19175.0	5.3942279429160954e+17
19176.0	5.393212346728447e+17
19177.0	5.392025037832191e+17
19178.0	5.391162092639572e+17
19179.0	5.390072664118613e+17
19180.0	5.389144242345299e+17
19181.0	5.3879844061402445e+17
19182.0	5.3871101929499296e+17
19183.0	5.3861209572638714e+17
19184.0	5.385094301395626e+17
19185.0	5.384080821234345e+17
19186.0	5.383078185446057e+17
19187.0	5.3819926198790816e+17
19188.0	5.381049364949673e+17
19189.0	5.3800377260878496e+17
19190.0	5.379019037300052e+17
19191.0	5.37796934771234e+17
19192.0	5.377000429933908e+17
19193.0	5.375972573096617e+17
19194.0	5.374950217788073e+17
19195.0	5.373958474607273e+17
19196.0	5.372923476268373e+17
19197.0	5.371915994660862e+17
19198.0	5.3708895191476896e+17
19199.0	5.363245053378557e+17
19200.0	5.364370754240514e+17
19201.0	5.3678551471226874e+17
19202.0	5.3668627433390074e+17
19203.0	5.3658353604580685e+17
19204.0	5.3648107793722016e+17
19205.0	5.3638171704251725e+17
19206.0	5.3628004795241805e+17
19207.0	5.361671299487062e+17
19208.0	5.360509754802175e+17
19209.0	5.3597654056523085e+17
19210.0	5.35875075248401e+17
19211.0	5.357752840880128e+17
19212.0	5.356739945125204e+17
19213.0	5.355584348662441e+17
19214.0	5.354522659870037e+17
19215.0	5.353673265774591e+17
19216.0	5.3526842076474016e+17
19217.0	5.3516638383418016e+17
19218.0	5.3496761464913894e+17
19219.0	5.3494768387577165e+17
19220.0	5.3485994553726285e+17
19221.0	5.347225478277803e+17
19222.0	5.3465934756577274e+17
19223.0	5.3455620459724794e+17
19224.0	5.3445200046981114e+17
19225.0	5.343378652790783e+17
19226.0	5.342518400341332e+17
19227.0	5.3415025909432314e+17
19228.0	5.340515697076905e+17
19229.0	5.3394997737335456e+17
19230.0	5.3384745858717005e+17
19231.0	5.337454684930048e+17
19232.0	5.3364438052372474e+17
19233.0	5.33535844868642e+17
19234.0	5.334393355414186e+17
19235.0	5.333372505860777e+17
19236.0	5.332388991205375e+17
19237.0	5.331353748198741e+17
19238.0	5.3302394726208845e+17
19239.0	5.3293408877281274e+17
19240.0	5.3283001096383136e+17
19241.0	5.3272750455084365e+17
19242.0	5.3262691241820154e+17
19243.0	5.3250902633130656e+17
19244.0	5.32425328435746e+17
19245.0	5.323228832595967e+17
19246.0	5.322194836695721e+17
19247.0	5.3211869880866125e+17
19248.0	5.320178327879679e+17
19249.0	5.319150875093674e+17
19250.0	5.318106303255892e+17
19251.0	5.316965567911252e+17
19252.0	5.315790061786453e+17
19253.0	5.315045333751125e+17
19254.0	5.314051276013567e+17
19255.0	5.3128293165738656e+17
19256.0	5.3119664440825165e+17
19257.0	5.310988341477375e+17
19258.0	5.3099643993238176e+17
19259.0	5.308862628364287e+17
19260.0	5.307683218740564e+17
19261.0	5.3068755544746656e+17
19262.0	5.3058006326531405e+17
19263.0	5.304765476328788e+17
19264.0	5.303140863006035e+17
19265.0	5.302539291459583e+17
19266.0	5.3014329801659725e+17
19267.0	5.3007343384439443e+17
19268.0	5.299697703627434e+17
19269.0	5.298672110316203e+17
19270.0	5.2976442940238496e+17
19271.0	5.296199903652522e+17
19272.0	5.295542793928703e+17
19273.0	5.293625323115859e+17
19274.0	5.292789710105257e+17
19275.0	5.2924874447912954e+17
19276.0	5.2914301418427725e+17
19277.0	5.290401903323819e+17
19278.0	5.289369182491988e+17
19279.0	5.288316136062975e+17
19280.0	5.2871947217797114e+17
19281.0	5.2862493557172896e+17
19282.0	5.2852307046782285e+17
19283.0	5.2840898595826336e+17
19284.0	5.2830961954106016e+17
19285.0	5.281896188258985e+17
19286.0	5.281020649668607e+17
19287.0	5.2800161816685216e+17
19288.0	5.275949295031634e+17
19289.0	5.270869457414813e+17
19290.0	5.276876777979904e+17
19291.0	5.2755408558052685e+17
19292.0	5.2747806654682445e+17
19293.0	5.2737203559028045e+17
19294.0	5.272664074966357e+17
19295.0	5.271621811393877e+17
19296.0	5.2705347246926496e+17
19297.0	5.269476589174783e+17
19298.0	5.26841379168802e+17
19299.0	5.267361205933396e+17
19300.0	5.2663173233595725e+17
19301.0	5.2652549487984634e+17
19302.0	5.2641777131192314e+17
19303.0	5.263040607944703e+17
19304.0	5.262017367638015e+17
19305.0	5.2609646679381325e+17
19306.0	5.2599008030010016e+17
19307.0	5.2587740472715936e+17
19308.0	5.257721915200853e+17
19309.0	5.256420404494335e+17
19310.0	5.255251535156564e+17
19311.0	5.254450015546026e+17
19312.0	5.2534142818058234e+17
19313.0	5.252337578104147e+17
19314.0	5.235291049339569e+17
19315.0	5.2353632053493946e+17
19316.0	5.2490031539595936e+17
19317.0	5.24794830328081e+17
19318.0	5.2468434208467616e+17
19319.0	5.2457594183570765e+17
19320.0	5.244639776866302e+17
19321.0	5.2435193300691616e+17
19322.0	5.2423278813948576e+17
19323.0	5.241199172517887e+17
19324.0	5.240174436242772e+17
19325.0	5.2388300157091834e+17
19326.0	5.2379315587426976e+17
19327.0	5.2367825739011405e+17
19328.0	5.235620221113686e+17
19329.0	5.234527345573887e+17
19330.0	5.233336015039145e+17
19331.0	5.2321808932317856e+17
19332.0	5.231076198842366e+17
19333.0	5.229903330235732e+17
19334.0	5.2287558777132365e+17
19335.0	5.227500860167509e+17
19336.0	5.2264092212483405e+17
19337.0	5.2252327042962765e+17
19338.0	5.2238092532886176e+17
19339.0	5.222860622659582e+17
19340.0	5.221481739627178e+17
19341.0	5.2203776142650016e+17
19342.0	5.218782174423721e+17
19343.0	5.218038053164373e+17
19344.0	5.216782386200575e+17
19345.0	5.213135154358949e+17
19346.0	5.213287513849855e+17
19347.0	5.2129895497946445e+17
19348.0	5.211867658758826e+17
19349.0	5.210566072554836e+17
19350.0	5.209289384438443e+17
19351.0	5.208018394284032e+17
19352.0	5.2066434958404256e+17
19353.0	5.2054846096452256e+17
19354.0	5.204183918226089e+17
19355.0	5.2027575193217696e+17
19356.0	5.2015428705539405e+17
19357.0	5.2002104100782074e+17
19358.0	5.198857442951168e+17
19359.0	5.197428073780564e+17
19360.0	5.196050944666281e+17
19361.0	5.1947078767957325e+17
19362.0	5.1933591354299725e+17
19363.0	5.1919488971789645e+17
19364.0	5.1905237069332474e+17
19365.0	5.189087366130346e+17
19366.0	5.1876339733845325e+17
19367.0	5.186166105396563e+17
19368.0	5.184682796078421e+17
19369.0	5.1831197383611725e+17
19370.0	5.1815642779265696e+17
19371.0	5.1800640243193165e+17
19372.0	5.17856805729075e+17
19373.0	5.176971038993066e+17
19374.0	5.175397127815167e+17
19375.0	5.1737891861517645e+17
19376.0	5.1721607490218656e+17
19377.0	5.1704932237748896e+17
19378.0	5.1688197761706656e+17
19379.0	5.167121637397844e+17
19380.0	5.165395965116415e+17
19381.0	5.1636391627106976e+17
19382.0	5.16178482036736e+17
19383.0	5.159930439576233e+17
19384.0	5.158218916779349e+17
19385.0	5.156361486729215e+17
19386.0	5.1544738430102176e+17
19387.0	5.152549989864788e+17
19388.0	5.15059420897826e+17
19389.0	5.1486086730001056e+17
19390.0	5.146594068398079e+17
19391.0	5.1349220173195795e+17
19392.0	5.1423195993647763e+17
19393.0	5.1403585315580576e+17
19394.0	5.138195141012139e+17
19395.0	5.135983295070207e+17
19396.0	5.1337669759030605e+17
19397.0	5.1315207429597856e+17
19398.0	5.1291692448699725e+17
19399.0	5.12594933920563e+17
19400.0	5.12437944127761e+17
19401.0	5.1220294132913485e+17
19402.0	5.1195830777937914e+17
19403.0	5.1170724904523085e+17
19404.0	5.1145609649848314e+17
19405.0	5.111965901564585e+17
19406.0	5.1093582545332896e+17
19407.0	5.106540020585813e+17
19408.0	5.1027579502592006e+17
19409.0	5.100924796141568e+17
19410.0	5.0981383752908794e+17
19411.0	5.095283604062207e+17
19412.0	5.0923507453788154e+17
19413.0	5.0893462500802554e+17
19414.0	5.0862969533235194e+17
19415.0	5.083279171867988e+17
19416.0	5.080023942474409e+17
19417.0	5.077019746369536e+17
19418.0	5.073723110107817e+17
19419.0	5.0702704688059725e+17
19420.0	5.067028228472832e+17
19421.0	5.063653944459262e+17
19422.0	5.0601211115601914e+17
19423.0	5.0556230749388794e+17
19424.0	5.0519648323502074e+17
19425.0	5.0475476017916595e+17
19426.0	5.0427065829512525e+17
19427.0	5.0372518486562125e+17
19428.0	5.0312707830360736e+17
19429.0	5.023800722718716e+17
19430.0	5.014201188395688e+17
19431.0	5.0006153896482144e+17
19432.0	4.9847970761277446e+17
19433.0	4.9595062136340454e+17
19434.0	4.941820889574058e+17
19435.0	4.929348022130004e+17
19436.0	4.9154368055104845e+17
19437.0	4.901344754969258e+17
19438.0	4.868578924822532e+17
19439.0	4.868173272711168e+17
19440.0	4.8511102861967334e+17
19441.0	4.8317370329989094e+17
19442.0	4.807794191149739e+17
19443.0	4.768111143507282e+17
19444.0	4.691857034444793e+17
19445.0	4.6375617558828397e+17
19446.0	4.584538310530389e+17
19447.0	4.522865254028622e+17
19448.0	4.3994525159041606e+17
19449.0	4.226606496568654e+17
19450.0	3.763300376510475e+17
19451.0	3.551920490807296e+17
19452.0	4.0528123205604774e+17
19453.0	4.3147016354310906e+17
19454.0	4.4735133737724346e+17
19455.0	4.5500262581097786e+17
19456.0	4.604552368095233e+17
19457.0	4.653044399953235e+17
19458.0	4.678739603139304e+17
19459.0	4.7769908947189894e+17
19460.0	4.8057113808732154e+17
19461.0	4.82495421358626e+17
19462.0	4.841150555531947e+17
19463.0	4.856745088253951e+17
19464.0	4.8712039502533965e+17
19465.0	4.8846985858034336e+17
19466.0	4.896833138589695e+17
19467.0	4.907839566905343e+17
19468.0	4.918996291813375e+17
19469.0	4.940865675285846e+17
19470.0	4.960798977119568e+17
19471.0	4.9728278341440864e+17
19472.0	4.981699758784513e+17
19473.0	4.98787387773201e+17
19474.0	4.9926904997041485e+17
19475.0	4.995843559347538e+17
19476.0	4.999376453064022e+17
19477.0	5.002855085069653e+17
19478.0	5.004743833288703e+17
19479.0	5.0069205771004576e+17
19480.0	5.0091008860706125e+17
19481.0	5.0106444577505274e+17
19482.0	5.012129002990249e+17
19483.0	5.013481689797972e+17
19484.0	5.0152788553891834e+17
19485.0	5.016496872183124e+17
19486.0	5.0176848116230816e+17
19487.0	5.018938953258324e+17
19488.0	5.0201083993128954e+17
19489.0	5.021112411531946e+17
19490.0	5.020572520022012e+17
19491.0	5.0232797908609696e+17
19492.0	5.0242706937828685e+17
19493.0	5.025167035422036e+17
19494.0	5.026007836087636e+17
19495.0	5.026937291756883e+17
19496.0	5.027305058118313e+17
19497.0	5.028491558911998e+17
19498.0	5.028089819387222e+17
19499.0	5.0143460659472986e+17
19500.0	5.030361220950698e+17
19501.0	5.030909571672745e+17
19502.0	5.031411260063743e+17
19503.0	5.0318914218885114e+17
19504.0	5.0323146963681274e+17
19505.0	5.032693080610132e+17
19506.0	5.033044055075498e+17
19507.0	5.033317422333951e+17
19508.0	5.033610609775956e+17
19509.0	5.033833223159807e+17
19510.0	5.033770770672298e+17
19511.0	5.006976581544605e+17
19512.0	5.031893765106342e+17
19513.0	5.029793163291299e+17
19514.0	5.031260750959952e+17
19515.0	5.033832497545217e+17
19516.0	5.034444984068778e+17
19517.0	5.034356031269546e+17
19518.0	5.0343700961689594e+17
19519.0	5.0342676747605325e+17
19520.0	5.0341009385936205e+17
19521.0	5.034025187366228e+17
19522.0	5.033808654325077e+17
19523.0	5.033647240030889e+17
19524.0	5.033413381018964e+17
19525.0	5.0331793227775994e+17
19526.0	5.0329272353204896e+17
19527.0	5.032631941638826e+17
19528.0	5.032315191995051e+17
19529.0	5.0319828171707725e+17
19530.0	5.031660363273556e+17
19531.0	5.0312977531098445e+17
19532.0	5.0309169522496845e+17
19533.0	5.030518635976021e+17
19534.0	5.0300999500649805e+17
19535.0	5.0296541200165536e+17
19536.0	5.029176794939391e+17
19537.0	5.0287619880605e+17
19538.0	5.0281231899688954e+17
19539.0	5.0271148981616646e+17
19540.0	5.027257194119168e+17
19541.0	5.0267596734682445e+17
19542.0	5.026229515539796e+17
19543.0	5.02566246031906e+17
19544.0	5.025138910516564e+17
19545.0	5.023986822589097e+17
19546.0	5.0229064740372474e+17
19547.0	5.023419570935125e+17
19548.0	5.0228216701037216e+17
19549.0	5.022105821249536e+17
19550.0	5.021601403764735e+17
19551.0	5.0209815338680314e+17
19552.0	5.0203486092001274e+17
19553.0	5.019680129417215e+17
19554.0	5.0190127345609376e+17
19555.0	5.018384508212564e+17
19556.0	5.017740796493823e+17
19557.0	5.0170678770401274e+17
19558.0	5.016389918130175e+17
19559.0	5.0157071273820154e+17
19560.0	5.0149781286857376e+17
19561.0	5.014291469391188e+17
19562.0	5.013605180593492e+17
19563.0	5.012914153630378e+17
19564.0	5.012200280293375e+17
19565.0	5.0114809166124365e+17
19566.0	5.010719729429162e+17
19567.0	5.0100255504465914e+17
19568.0	5.00926401024273e+17
19569.0	5.0085266005688314e+17
19570.0	5.007808952358228e+17
19571.0	5.0070534421654176e+17
19572.0	5.0062694617361056e+17
19573.0	5.005521353091753e+17
19574.0	5.004687737967956e+17
19575.0	5.004026011713535e+17
19576.0	5.003253983652521e+17
19577.0	5.0024542116686496e+17
19578.0	5.001659568619519e+17
19579.0	5.0009002898445645e+17
19580.0	5.000119082549247e+17
19581.0	4.999345237655551e+17
19582.0	4.998599037419519e+17
19583.0	4.9978530573844474e+17
19584.0	4.997052286457172e+17
19585.0	4.9961348111182496e+17
19586.0	4.995300466185557e+17
19587.0	4.99461769011746e+17
19588.0	4.993285562389845e+17
19589.0	4.9930232485205325e+17
19590.0	4.9921011482623994e+17
19591.0	4.9914184001563296e+17
19592.0	4.990610803698346e+17
19593.0	4.9897721833717766e+17
19594.0	4.98869814305314e+17
19595.0	4.9881140044322125e+17
19596.0	4.9870628538286086e+17
19597.0	4.986492515166889e+17
19598.0	4.985123889304915e+17
19599.0	4.984854704466602e+17
19600.0	4.984035751231488e+17
19601.0	4.983125028722005e+17
19602.0	4.9823128765508256e+17
19603.0	4.980940071763966e+17
19604.0	4.980639559669077e+17
19605.0	4.97951719887121e+17
19606.0	4.979019911004159e+17
19607.0	4.9781900078394016e+17
19608.0	4.9773273478594554e+17
19609.0	4.9764438254114125e+17
19610.0	4.975645591339008e+17
19611.0	4.9747811389931514e+17
19612.0	4.973973341208575e+17
19613.0	4.9731143141949446e+17
19614.0	4.972233195083092e+17
19615.0	4.9714273175906976e+17
19616.0	4.970477458729642e+17
19617.0	4.9696908778318496e+17
19618.0	4.968159134788264e+17
19619.0	4.967136792062632e+17
19620.0	4.966326777588393e+17
19621.0	4.9662810533833376e+17
19622.0	4.965459459134804e+17
19623.0	4.964603179390292e+17
19624.0	4.9637351744689485e+17
19625.0	4.96288751751441e+17
19626.0	4.9620233944214176e+17
19627.0	4.961167479581353e+17
19628.0	4.96013571714799e+17
19629.0	4.9592586203736736e+17
19630.0	4.958180194910208e+17
19631.0	4.950224872494421e+17
19632.0	4.956845310126762e+17
19633.0	4.955942271582207e+17
19634.0	4.955132249418409e+17
19635.0	4.9542223203314336e+17
19636.0	4.9533595750673056e+17
19637.0	4.9521156381736954e+17
19638.0	4.9516557313419936e+17
19639.0	4.95078969634543e+17
19640.0	4.949799426763434e+17
19641.0	4.947699063324674e+17
19642.0	4.948189590672725e+17
19643.0	4.947317007668564e+17
19644.0	4.946390129399125e+17
19645.0	4.9452535527069005e+17
19646.0	4.944687297899177e+17
19647.0	4.9438555387549e+17
19648.0	4.942986920067071e+17
19649.0	4.942107440229034e+17
19650.0	4.9412449347392845e+17
19651.0	4.9403666901237754e+17
19652.0	4.939491961733119e+17
19653.0	4.9386234311256736e+17
19654.0	4.9377479904023885e+17
19655.0	4.93687061750306e+17
