# Flux units: erg / (cm m2 s)
# Wavelength units: Angstrom
wave	flux
19000.0	4.532429274480639e+17
19001.0	4.53152430096384e+17
19002.0	4.5307609607045114e+17
19003.0	4.529920311033855e+17
19004.0	4.5290933305999354e+17
19005.0	4.528260809490431e+17
19006.0	4.527430572179455e+17
19007.0	4.5265301145299616e+17
19008.0	4.525712311932245e+17
19009.0	4.5248351326699514e+17
19010.0	4.523738401166676e+17
19011.0	4.523206070588757e+17
19012.0	4.522120207226196e+17
19013.0	4.5215794971279354e+17
19014.0	4.5207079871665485e+17
19015.0	4.519882570508971e+17
19016.0	4.519034177454079e+17
19017.0	4.5182390345837216e+17
19018.0	4.5173906135668045e+17
19019.0	4.51656951005184e+17
19020.0	4.515724260627797e+17
19021.0	4.51490464469265e+17
19022.0	4.5140709337989114e+17
19023.0	4.513215465652223e+17
19024.0	4.512392455127039e+17
19025.0	4.5115530134159354e+17
19026.0	4.5107004547181216e+17
19027.0	4.509688814458196e+17
19028.0	4.5090778336897696e+17
19029.0	4.5082295573763405e+17
19030.0	4.507417912016895e+17
19031.0	4.5065892706385914e+17
19032.0	4.505752510485844e+17
19033.0	4.5048581981907616e+17
19034.0	4.504082889484971e+17
19035.0	4.503168098500607e+17
19036.0	4.485258694448468e+17
19037.0	4.5015760637351245e+17
19038.0	4.500751610369363e+17
19039.0	4.4999372568876365e+17
19040.0	4.499107434113706e+17
19041.0	4.498392707235839e+17
19042.0	4.497861948822868e+17
19043.0	4.497181372667221e+17
19044.0	4.4963413877937485e+17
19045.0	4.495512811427155e+17
19046.0	4.494646539452415e+17
19047.0	4.4938402523163296e+17
19048.0	4.492865987499349e+17
19049.0	4.492104180258132e+17
19050.0	4.4913337292554234e+17
19051.0	4.4882050518002304e+17
19052.0	4.4892063761694714e+17
19053.0	4.4888687004439885e+17
19054.0	4.488051523496618e+17
19055.0	4.48703721705745e+17
19056.0	4.4863754558504954e+17
19057.0	4.485563297387861e+17
19058.0	4.484693586083839e+17
19059.0	4.4838996560663885e+17
19060.0	4.4830678032493216e+17
19061.0	4.482259487468202e+17
19062.0	4.48142839521826e+17
19063.0	4.4806023382302714e+17
19064.0	4.479680798610773e+17
19065.0	4.47882674114833e+17
19066.0	4.4780749995376634e+17
19067.0	4.4772843529611936e+17
19068.0	4.4764685992809805e+17
19069.0	4.4756432280616954e+17
19070.0	4.474795706023936e+17
19071.0	4.473979544797183e+17
19072.0	4.473152329482239e+17
19073.0	4.4723363737763834e+17
19074.0	4.4715140958562976e+17
19075.0	4.470688676402517e+17
19076.0	4.4698484182002336e+17
19077.0	4.4690244863262714e+17
19078.0	4.468184460907861e+17
19079.0	4.4673859528075936e+17
19080.0	4.46655112413184e+17
19081.0	4.4657099662513485e+17
19082.0	4.4648828145500154e+17
19083.0	4.464020952186879e+17
19084.0	4.4631118346977274e+17
19085.0	4.462434145621332e+17
19086.0	4.461349098749951e+17
19087.0	4.46034766532881e+17
19088.0	4.4598869434040314e+17
19089.0	4.4588115616071674e+17
19090.0	4.458304172457983e+17
19091.0	4.4574781161690445e+17
19092.0	4.4565336085408416e+17
19093.0	4.455857611866112e+17
19094.0	4.455033264756053e+17
19095.0	4.4542114642875725e+17
19096.0	4.4533762147833165e+17
19097.0	4.452566251339776e+17
19098.0	4.451734141971114e+17
19099.0	4.450910857418068e+17
19100.0	4.4500724586905594e+17
19101.0	4.4492683840498336e+17
19102.0	4.448375195129173e+17
19103.0	4.4476378022324896e+17
19104.0	4.4468206231879674e+17
19105.0	4.445974673315157e+17
19106.0	4.445098547522218e+17
19107.0	4.4443378454801056e+17
19108.0	4.44352959680785e+17
19109.0	4.441570561840467e+17
19110.0	4.441844662403072e+17
19111.0	4.441067599080106e+17
19112.0	4.440250920555861e+17
19113.0	4.439438199357439e+17
19114.0	4.438613732010666e+17
19115.0	4.437734551366313e+17
19116.0	4.436968287677097e+17
19117.0	4.436147021982378e+17
19118.0	4.435180676011349e+17
19119.0	4.429232913164964e+17
19120.0	4.433576063926272e+17
19121.0	4.4327944225204896e+17
19122.0	4.432074736577193e+17
19123.0	4.4312569899035296e+17
19124.0	4.4303737170165766e+17
19125.0	4.4296091729919994e+17
19126.0	4.4287963042938874e+17
19127.0	4.4266284398237005e+17
19128.0	4.426735414848169e+17
19129.0	4.426300429172734e+17
19130.0	4.4255210198357325e+17
19131.0	4.4247072053220685e+17
19132.0	4.4239009237783885e+17
19133.0	4.4229156642925216e+17
19134.0	4.422082784570026e+17
19135.0	4.421456407210665e+17
19136.0	4.420675540353023e+17
19137.0	4.4197396632043514e+17
19138.0	4.419014266716159e+17
19139.0	4.418228731598164e+17
19140.0	4.4174152218705914e+17
19141.0	4.416599736625834e+17
19142.0	4.41576410194466e+17
19143.0	4.4149287720495776e+17
19144.0	4.414127678160896e+17
19145.0	4.413337637661355e+17
19146.0	4.4120979034603526e+17
19147.0	4.4116204357768525e+17
19148.0	4.4108855342967456e+17
19149.0	4.4100675821021856e+17
19150.0	4.409268105816746e+17
19151.0	4.408455870458538e+17
19152.0	4.40762838950434e+17
19153.0	4.406805327249406e+17
19154.0	4.405923883078997e+17
19155.0	4.405204957003776e+17
19156.0	4.404395459127979e+17
19157.0	4.403561895034879e+17
19158.0	4.40197338767906e+17
19159.0	4.4019463085533856e+17
19160.0	4.401125669907114e+17
19161.0	4.4003031661936634e+17
19162.0	4.3977438305539424e+17
19163.0	4.398632957990228e+17
19164.0	4.3979019425327776e+17
19165.0	4.397031128825855e+17
19166.0	4.396141556094293e+17
19167.0	4.3953026554484045e+17
19168.0	4.394634311980373e+17
19169.0	4.3938035545757005e+17
19170.0	4.3930396131328e+17
19171.0	4.3921153590995616e+17
19172.0	4.391410899178836e+17
19173.0	4.3906038402908154e+17
19174.0	4.389757768084138e+17
19175.0	4.388990154528085e+17
19176.0	4.388180036594346e+17
19177.0	4.3872625214095354e+17
19178.0	4.3865195619723936e+17
19179.0	4.385597967127893e+17
19180.0	4.384908447318015e+17
19181.0	4.384041644763817e+17
19182.0	4.383301233366357e+17
19183.0	4.382517645803519e+17
19184.0	4.381692179513343e+17
19185.0	4.3808995287586125e+17
19186.0	4.380095719058091e+17
19187.0	4.379240958350677e+17
19188.0	4.378472582829398e+17
19189.0	4.377655689696597e+17
19190.0	4.376840849675606e+17
19191.0	4.3760192568251725e+17
19192.0	4.375249633498452e+17
19193.0	4.3744279623543456e+17
19194.0	4.373620544154282e+17
19195.0	4.372829167069866e+17
19196.0	4.3720121425155405e+17
19197.0	4.371210775997098e+17
19198.0	4.370405374558208e+17
19199.0	4.359359928030545e+17
19200.0	4.361621411463171e+17
19201.0	4.3679881454332576e+17
19202.0	4.3671868949572256e+17
19203.0	4.366352127098879e+17
19204.0	4.36555314504226e+17
19205.0	4.364763019957589e+17
19206.0	4.36395290202385e+17
19207.0	4.36307105939456e+17
19208.0	4.362191224438783e+17
19209.0	4.3615434924796576e+17
19210.0	4.3607387803047245e+17
19211.0	4.359943248762197e+17
19212.0	4.359139053884757e+17
19213.0	4.3581923910833485e+17
19214.0	4.357321009747285e+17
19215.0	4.3566847932497914e+17
19216.0	4.355920426085034e+17
19217.0	4.355114531116373e+17
19218.0	4.353693468065791e+17
19219.0	4.353407905868457e+17
19220.0	4.352684540122453e+17
19221.0	4.35166570942737e+17
19222.0	4.3510901789163514e+17
19223.0	4.3502853311255885e+17
19224.0	4.34946227446306e+17
19225.0	4.348582766662997e+17
19226.0	4.3478767212953594e+17
19227.0	4.3470730863575034e+17
19228.0	4.3462866208030726e+17
19229.0	4.345483963837098e+17
19230.0	4.3446642073927674e+17
19231.0	4.3438598713070925e+17
19232.0	4.3430652520256845e+17
19233.0	4.3422236488499194e+17
19234.0	4.341455775247018e+17
19235.0	4.3406498760840525e+17
19236.0	4.339868922544127e+17
19237.0	4.338586011478698e+17
19238.0	4.337107868144981e+17
19239.0	4.336387513210197e+17
19240.0	4.3355495353111885e+17
19241.0	4.334758929279659e+17
19242.0	4.3339694850703354e+17
19243.0	4.333074401023316e+17
19244.0	4.332383610339327e+17
19245.0	4.331579976100521e+17
19246.0	4.330769620489558e+17
19247.0	4.3299752137195514e+17
19248.0	4.3291786336010234e+17
19249.0	4.328371867615231e+17
19250.0	4.32756213415936e+17
19251.0	4.3266771199371936e+17
19252.0	4.3257983510336845e+17
19253.0	4.325161010462719e+17
19254.0	4.324373659211093e+17
19255.0	4.3234608772983456e+17
19256.0	4.322735229151914e+17
19257.0	4.321977491783679e+17
19258.0	4.3211791682327885e+17
19259.0	4.3203327052567885e+17
19260.0	4.319239292846079e+17
19261.0	4.318768338217642e+17
19262.0	4.317938794364927e+17
19263.0	4.317121461529259e+17
19264.0	4.31596582871586e+17
19265.0	4.3154179121042765e+17
19266.0	4.314585096694442e+17
19267.0	4.313980646457343e+17
19268.0	4.3131758196381e+17
19269.0	4.3123778798660256e+17
19270.0	4.3115757793443834e+17
19271.0	4.310523712984406e+17
19272.0	4.3099554868538016e+17
19273.0	4.307925583527934e+17
19274.0	4.3075639492389523e+17
19275.0	4.3075810724850336e+17
19276.0	4.3067665323567776e+17
19277.0	4.305970426893653e+17
19278.0	4.305170825478143e+17
19279.0	4.3043458694949536e+17
19280.0	4.3035108534736205e+17
19281.0	4.30276609118481e+17
19282.0	4.301980023390208e+17
19283.0	4.301012260443477e+17
19284.0	4.30023359070208e+17
19285.0	4.2994475788315296e+17
19286.0	4.298751936735914e+17
19287.0	4.297974960794282e+17
19288.0	4.291883747158691e+17
19289.0	4.285623765914952e+17
19290.0	4.295573236613119e+17
19291.0	4.294595568118442e+17
19292.0	4.293968614042281e+17
19293.0	4.293164251392681e+17
19294.0	4.292361201560234e+17
19295.0	4.291566332018687e+17
19296.0	4.290749155770367e+17
19297.0	4.289939384565759e+17
19298.0	4.289137983793834e+17
19299.0	4.288344827625472e+17
19300.0	4.2875469843223885e+17
19301.0	4.2867456751261e+17
19302.0	4.2858945033448096e+17
19303.0	4.284909264830463e+17
19304.0	4.284136109899776e+17
19305.0	4.2833466698847565e+17
19306.0	4.282542579165865e+17
19307.0	4.2817039141000525e+17
19308.0	4.280914900505941e+17
19309.0	4.279735768405333e+17
19310.0	4.278817954725887e+17
19311.0	4.2784373209388365e+17
19312.0	4.277695911996074e+17
19313.0	4.276890371446102e+17
19314.0	4.252119078360421e+17
19315.0	4.2527097915528685e+17
19316.0	4.274459038973951e+17
19317.0	4.273692996184746e+17
19318.0	4.272881690563925e+17
19319.0	4.272082143674367e+17
19320.0	4.271265298077012e+17
19321.0	4.270452569189034e+17
19322.0	4.269564166668287e+17
19323.0	4.2686716579239245e+17
19324.0	4.268014967630506e+17
19325.0	4.2668364737631565e+17
19326.0	4.266394678635178e+17
19327.0	4.265569196965887e+17
19328.0	4.2647443626175136e+17
19329.0	4.2639494644148896e+17
19330.0	4.263103540406953e+17
19331.0	4.2622800650130765e+17
19332.0	4.2614851710047565e+17
19333.0	4.2606599983158605e+17
19334.0	4.2598473008851616e+17
19335.0	4.2589892784073376e+17
19336.0	4.2581951435680416e+17
19337.0	4.257375791174998e+17
19338.0	4.2566435789428045e+17
19339.0	4.2563365076555085e+17
19340.0	4.2554042823475194e+17
19341.0	4.254622860443647e+17
19342.0	4.253548074237951e+17
19343.0	4.253017324912638e+17
19344.0	4.2521693268213766e+17
19345.0	4.249874772000765e+17
19346.0	4.2497644093767674e+17
19347.0	4.249605234141865e+17
19348.0	4.2488366349243725e+17
19349.0	4.247965086515199e+17
19350.0	4.247117509252436e+17
19351.0	4.24627527553297e+17
19352.0	4.245380185893546e+17
19353.0	4.2446038859339085e+17
19354.0	4.243784208482304e+17
19355.0	4.242869707603968e+17
19356.0	4.2420816293396486e+17
19357.0	4.241078704144383e+17
19358.0	4.240146025152512e+17
19359.0	4.239193097459029e+17
19360.0	4.238318852811434e+17
19361.0	4.2374658802756256e+17
19362.0	4.2366214962763085e+17
19363.0	4.235469474758657e+17
19364.0	4.2344536856330234e+17
19365.0	4.2335708447593805e+17
19366.0	4.232680965843627e+17
19367.0	4.2317874560587085e+17
19368.0	4.230889075987796e+17
19369.0	4.229926877484372e+17
19370.0	4.228943566252714e+17
19371.0	4.2281521514195616e+17
19372.0	4.227269709703849e+17
19373.0	4.2263281618561696e+17
19374.0	4.225419207944874e+17
19375.0	4.224287068826282e+17
19376.0	4.222757541773311e+17
19377.0	4.221790515625983e+17
19378.0	4.2208360849735674e+17
19379.0	4.2198740395622394e+17
19380.0	4.2189022381998074e+17
19381.0	4.2179199238143994e+17
19382.0	4.2168847695871994e+17
19383.0	4.2158538886567245e+17
19384.0	4.214923383712427e+17
19385.0	4.2137707183691085e+17
19386.0	4.21263767048465e+17
19387.0	4.2115981996195834e+17
19388.0	4.2109378665731405e+17
19389.0	4.210307928948736e+17
19390.0	4.209232247958186e+17
19391.0	4.1928380089630534e+17
19392.0	4.206179504182611e+17
19393.0	4.20579665580305e+17
19394.0	4.203412556786346e+17
19395.0	4.201931554335402e+17
19396.0	4.201649726466729e+17
19397.0	4.2005482190493e+17
19398.0	4.1993128797798394e+17
19399.0	4.1975546827680416e+17
19400.0	4.196788477799082e+17
19401.0	4.196583572766719e+17
19402.0	4.194761002276177e+17
19403.0	4.192251208357204e+17
19404.0	4.1912911440554656e+17
19405.0	4.190688262488063e+17
19406.0	4.189303801730389e+17
19407.0	4.187651129212928e+17
19408.0	4.184343042501291e+17
19409.0	4.183407231762432e+17
19410.0	4.181891134171817e+17
19411.0	4.1783723885417805e+17
19412.0	4.1762045093915296e+17
19413.0	4.173900787220479e+17
19414.0	4.1699392538105165e+17
19415.0	4.167544225835692e+17
19416.0	4.1626428264939514e+17
19417.0	4.158418727556438e+17
19418.0	4.1545036250917555e+17
19419.0	4.1506664499991885e+17
19420.0	4.1481923901521914e+17
19421.0	4.145567194852011e+17
19422.0	4.1427926732417696e+17
19423.0	4.1397176758872736e+17
19424.0	4.1359024726562125e+17
19425.0	4.1326740413699405e+17
19426.0	4.129170455352661e+17
19427.0	4.1243674767523846e+17
19428.0	4.1204680812571296e+17
19429.0	4.114891022882133e+17
19430.0	4.1090907233757875e+17
19431.0	4.100492089797294e+17
19432.0	4.0953139677538963e+17
19433.0	4.086576599881043e+17
19434.0	4.073827922695508e+17
19435.0	4.0563975046649126e+17
19436.0	4.0441466634021555e+17
19437.0	4.038438520444243e+17
19438.0	4.005781468872707e+17
19439.0	4.026260996314453e+17
19440.0	4.012790615725389e+17
19441.0	3.981143843362135e+17
19442.0	3.948638440346965e+17
19443.0	3.922773998392658e+17
19444.0	3.878635886171477e+17
19445.0	3.821987785517735e+17
19446.0	3.791972510728193e+17
19447.0	3.7404620738614534e+17
19448.0	3.642234086533806e+17
19449.0	3.483251566619323e+17
19450.0	3.0073629323209286e+17
19451.0	2.8432610777279046e+17
19452.0	3.292841552904191e+17
19453.0	3.575038806938956e+17
19454.0	3.689858274951168e+17
19455.0	3.769798731934384e+17
19456.0	3.7998248573883757e+17
19457.0	3.840107700988581e+17
19458.0	3.832671585872629e+17
19459.0	3.919919402625724e+17
19460.0	3.950875697479687e+17
19461.0	3.98515863254903e+17
19462.0	4.0070492594722074e+17
19463.0	4.014784478795096e+17
19464.0	4.017394485122388e+17
19465.0	4.021350644929877e+17
19466.0	4.028355936518143e+17
19467.0	4.042761702823248e+17
19468.0	4.0559681687169683e+17
19469.0	4.064832809948498e+17
19470.0	4.0716566370713594e+17
19471.0	4.076953313913514e+17
19472.0	4.081510578301611e+17
19473.0	4.085362987805354e+17
19474.0	4.088524259895979e+17
19475.0	4.0907183639319885e+17
19476.0	4.0939156986484045e+17
19477.0	4.0957832984876365e+17
19478.0	4.0975927457000096e+17
19479.0	4.0998105405631136e+17
19480.0	4.1010805443570336e+17
19481.0	4.102236631553365e+17
19482.0	4.103314536923136e+17
19483.0	4.104664912669356e+17
19484.0	4.1067410162537805e+17
19485.0	4.110082125419865e+17
19486.0	4.1119909112272237e+17
19487.0	4.115081664484693e+17
19488.0	4.115582182664875e+17
19489.0	4.118162937217023e+17
19490.0	4.1173817872438605e+17
19491.0	4.119482835752277e+17
19492.0	4.1209771886728525e+17
19493.0	4.120980150550527e+17
19494.0	4.1209483584252576e+17
19495.0	4.1220002360415584e+17
19496.0	4.121825320981844e+17
19497.0	4.121985324591785e+17
19498.0	4.118109810065406e+17
19499.0	4.096600896962554e+17
19500.0	4.120756427773268e+17
19501.0	4.121777100466859e+17
19502.0	4.120709159365291e+17
19503.0	4.120203191386112e+17
19504.0	4.1198868164334925e+17
19505.0	4.1195591154619725e+17
19506.0	4.119214125569364e+17
19507.0	4.118573319804245e+17
19508.0	4.1175694222295034e+17
19509.0	4.1171720468780365e+17
19510.0	4.117661756336811e+17
19511.0	4.076021894610928e+17
19512.0	4.112966174987601e+17
19513.0	4.110107567368866e+17
19514.0	4.1112577447908634e+17
19515.0	4.115565627746986e+17
19516.0	4.115094826909696e+17
19517.0	4.114236745711615e+17
19518.0	4.113771532386304e+17
19519.0	4.113345269465087e+17
19520.0	4.1129213315863885e+17
19521.0	4.112417346813951e+17
19522.0	4.1118413500361376e+17
19523.0	4.111306825138175e+17
19524.0	4.110736568265386e+17
19525.0	4.1101642016576845e+17
19526.0	4.109598399135743e+17
19527.0	4.1090100787937274e+17
19528.0	4.108415580241919e+17
19529.0	4.1078172844468896e+17
19530.0	4.1072298029656736e+17
19531.0	4.1066403564530336e+17
19532.0	4.106227546062848e+17
19533.0	4.105610671598251e+17
19534.0	4.104472812148054e+17
19535.0	4.103681762918399e+17
19536.0	4.104152642748415e+17
19537.0	4.1036205260799994e+17
19538.0	4.1028461694812154e+17
19539.0	4.1019175233126406e+17
19540.0	4.101658829127679e+17
19541.0	4.101023759073279e+17
19542.0	4.1003714937705805e+17
19543.0	4.099704571472554e+17
19544.0	4.099060944338944e+17
19545.0	4.098002378205865e+17
19546.0	4.0970759745918285e+17
19547.0	4.09707736011025e+17
19548.0	4.096403751392597e+17
19549.0	4.0956735657082874e+17
19550.0	4.095065692919125e+17
19551.0	4.0943933739499514e+17
19552.0	4.09371644334353e+17
19553.0	4.0930186118212256e+17
19554.0	4.092328502012585e+17
19555.0	4.0916646443526816e+17
19556.0	4.0909930405123405e+17
19557.0	4.090306341371904e+17
19558.0	4.0896206803217056e+17
19559.0	4.088930649505791e+17
19560.0	4.0882210669417805e+17
19561.0	4.087543201704618e+17
19562.0	4.086898261054806e+17
19563.0	4.086366276506965e+17
19564.0	4.0856721884009805e+17
19565.0	4.084951490232319e+17
19566.0	4.084218298630143e+17
19567.0	4.0835409499914234e+17
19568.0	4.082826155305642e+17
19569.0	4.082128025987754e+17
19570.0	4.081443855313578e+17
19571.0	4.0807363097832096e+17
19572.0	4.080016051317418e+17
19573.0	4.079315042609834e+17
19574.0	4.078570696955221e+17
19575.0	4.077924392457558e+17
19576.0	4.0772175285015885e+17
19577.0	4.0764765781360634e+17
19578.0	4.0757710130162336e+17
19579.0	4.075080696288597e+17
19580.0	4.0743716394106886e+17
19581.0	4.0736716121702394e+17
19582.0	4.0729750200647674e+17
19583.0	4.0722670047723514e+17
19584.0	4.0715428763620685e+17
19585.0	4.07076833661201e+17
19586.0	4.0700300838830074e+17
19587.0	4.069354700275712e+17
19588.0	4.068347297660928e+17
19589.0	4.067977073437354e+17
19590.0	4.067194980444842e+17
19591.0	4.066563729304234e+17
19592.0	4.0658556105523194e+17
19593.0	4.0651279791991456e+17
19594.0	4.064251603146068e+17
19595.0	4.063668535470762e+17
19596.0	4.062147406812501e+17
19597.0	4.0622149106401274e+17
19598.0	4.0612126027066016e+17
19599.0	4.0608406511288314e+17
19600.0	4.060132496725333e+17
19601.0	4.059366378438655e+17
19602.0	4.058650189146795e+17
19603.0	4.0575181073503565e+17
19604.0	4.0572004489407136e+17
19605.0	4.056335707886933e+17
19606.0	4.0558249514106874e+17
19607.0	4.0551239853451936e+17
19608.0	4.054397785647786e+17
19609.0	4.053657189001898e+17
19610.0	4.0529671043590816e+17
19611.0	4.0522388214906874e+17
19612.0	4.0515396680635725e+17
19613.0	4.050813435510783e+17
19614.0	4.0500754288476154e+17
19615.0	4.0493760517242886e+17
19616.0	4.0485262158288205e+17
19617.0	4.047928607899648e+17
19618.0	4.0467717524466336e+17
19619.0	4.045956595056638e+17
19620.0	4.0452756546955936e+17
19621.0	4.0450556243039565e+17
19622.0	4.044353172755797e+17
19623.0	4.043632849977343e+17
19624.0	4.042905505933993e+17
19625.0	4.042193949949951e+17
19626.0	4.041474526150656e+17
19627.0	4.0407523655679994e+17
19628.0	4.039771203218091e+17
19629.0	4.039217720066048e+17
19630.0	4.037553146910035e+17
19631.0	4.02630963486174e+17
19632.0	4.037153124952746e+17
19633.0	4.036392777329322e+17
19634.0	4.035719265779711e+17
19635.0	4.0349722833059834e+17
19636.0	4.0342596899307514e+17
19637.0	4.033308167329109e+17
19638.0	4.032829948166144e+17
19639.0	4.0321096841079443e+17
19640.0	4.03127127699183e+17
19641.0	4.0298850811904006e+17
19642.0	4.0299574839650976e+17
19643.0	4.02923043492113e+17
19644.0	4.028474206104233e+17
19645.0	4.0275968017476256e+17
19646.0	4.0270706696519674e+17
19647.0	4.026367277880661e+17
19648.0	4.02564815327505e+17
19649.0	4.0249249636898125e+17
19650.0	4.024210657640447e+17
19651.0	4.023488713763498e+17
19652.0	4.022770933432319e+17
19653.0	4.022047673942014e+17
19654.0	4.0213303661690874e+17
19655.0	4.0206077519025485e+17
