# Flux units: erg / (cm m2 s)
# Wavelength units: Angstrom
wave	flux
19000.0	5.695094575333374e+17
19001.0	5.6940437644683936e+17
19002.0	5.693016975081471e+17
19003.0	5.69197815013922e+17
19004.0	5.690939667032745e+17
19005.0	5.6899016487949645e+17
19006.0	5.688863437619198e+17
19007.0	5.68782525300736e+17
19008.0	5.686781206156628e+17
19009.0	5.6857341226298003e+17
19010.0	5.68465945666082e+17
19011.0	5.68367084872226e+17
19012.0	5.682622530671955e+17
19013.0	5.681601927883434e+17
19014.0	5.6805654349742074e+17
19015.0	5.6795274321155405e+17
19016.0	5.6784858403307514e+17
19017.0	5.6774559548484256e+17
19018.0	5.676420662908243e+17
19019.0	5.6753852479351456e+17
19020.0	5.674349742784511e+17
19021.0	5.6733144830006605e+17
19022.0	5.67227940147473e+17
19023.0	5.671244294782975e+17
19024.0	5.6702082317899085e+17
19025.0	5.6691743386501114e+17
19026.0	5.668137129913002e+17
19027.0	5.6670977548178765e+17
19028.0	5.66607230341393e+17
19029.0	5.665038719254526e+17
19030.0	5.664005242049876e+17
19031.0	5.6629717319898445e+17
19032.0	5.661938349856084e+17
19033.0	5.660893884274004e+17
19034.0	5.659870187487231e+17
19035.0	5.658823345132884e+17
19036.0	5.657211683121834e+17
19037.0	5.6567627129378125e+17
19038.0	5.655741364262228e+17
19039.0	5.654711146730836e+17
19040.0	5.653680077056681e+17
19041.0	5.6526489213992954e+17
19042.0	5.651583118693716e+17
19043.0	5.6505869141715616e+17
19044.0	5.6495558801489914e+17
19045.0	5.6485252676539725e+17
19046.0	5.647489129862484e+17
19047.0	5.646460218856788e+17
19048.0	5.645411693188436e+17
19049.0	5.64434710962722e+17
19050.0	5.6433676662429e+17
19051.0	5.6422579351934285e+17
19052.0	5.641290140789417e+17
19053.0	5.640286640275455e+17
19054.0	5.6392589742789965e+17
19055.0	5.638193140815189e+17
19056.0	5.637200163110911e+17
19057.0	5.636174406920873e+17
19058.0	5.635120051869014e+17
19059.0	5.6341083375097165e+17
19060.0	5.633088955962708e+17
19061.0	5.6320637653046605e+17
19062.0	5.631036095812949e+17
19063.0	5.630009032398164e+17
19064.0	5.6289713839581856e+17
19065.0	5.6279358221844474e+17
19066.0	5.6269137555838304e+17
19067.0	5.6259040125474125e+17
19068.0	5.6248781556940794e+17
19069.0	5.623852537916074e+17
19070.0	5.622826184037717e+17
19071.0	5.6218017840059725e+17
19072.0	5.62076694225442e+17
19073.0	5.6197514278557005e+17
19074.0	5.618727246626815e+17
19075.0	5.617702757116585e+17
19076.0	5.6166765514369696e+17
19077.0	5.6156521073650336e+17
19078.0	5.6146274221206176e+17
19079.0	5.61360697172514e+17
19080.0	5.612583240684884e+17
19081.0	5.6115556047476045e+17
19082.0	5.6105333256355834e+17
19083.0	5.6095049466074445e+17
19084.0	5.608466622884522e+17
19085.0	5.6074691342062925e+17
19086.0	5.6063910995121485e+17
19087.0	5.60539286774306e+17
19088.0	5.604378717891242e+17
19089.0	5.6033567931979085e+17
19090.0	5.6023587844259834e+17
19091.0	5.6013345605550074e+17
19092.0	5.6002907716539725e+17
19093.0	5.5992976876939936e+17
19094.0	5.5982775959115085e+17
19095.0	5.5972573678141434e+17
19096.0	5.5962357178477216e+17
19097.0	5.595216995505492e+17
19098.0	5.5941869422510074e+17
19099.0	5.5931653572962976e+17
19100.0	5.592157349303636e+17
19101.0	5.591139046391807e+17
19102.0	5.590107864869545e+17
19103.0	5.589102532842836e+17
19104.0	5.5880841467439776e+17
19105.0	5.5870419139297274e+17
19106.0	5.586045773021183e+17
19107.0	5.585021979066367e+17
19108.0	5.584001381171199e+17
19109.0	5.582966012335443e+17
19110.0	5.5819712380709536e+17
19111.0	5.580953579683839e+17
19112.0	5.579935980716031e+17
19113.0	5.578927779086336e+17
19114.0	5.5779065163939834e+17
19115.0	5.57689079996962e+17
19116.0	5.575878642412202e+17
19117.0	5.574859662819328e+17
19118.0	5.573826772817236e+17
19119.0	5.571887999833427e+17
19120.0	5.5718064478836045e+17
19121.0	5.570797638079828e+17
19122.0	5.5697878789652474e+17
19123.0	5.5687737472887456e+17
19124.0	5.567759364653055e+17
19125.0	5.5667444367578445e+17
19126.0	5.565723961895594e+17
19127.0	5.564520198744745e+17
19128.0	5.5636951358068045e+17
19129.0	5.562680821678079e+17
19130.0	5.5616782236385274e+17
19131.0	5.5606658423848954e+17
19132.0	5.559653121392639e+17
19133.0	5.5586397251174394e+17
19134.0	5.557629314487636e+17
19135.0	5.556617320508073e+17
19136.0	5.555604935759189e+17
19137.0	5.55457727116083e+17
19138.0	5.553580239661737e+17
19139.0	5.5525715906396154e+17
19140.0	5.551561073754111e+17
19141.0	5.5505504373309434e+17
19142.0	5.5495396415242234e+17
19143.0	5.548523887351124e+17
19144.0	5.547517767494313e+17
19145.0	5.546509623186772e+17
19146.0	5.5454258884334925e+17
19147.0	5.5444820211357e+17
19148.0	5.5434725682053114e+17
19149.0	5.542462258937855e+17
19150.0	5.541462896803838e+17
19151.0	5.540454759486804e+17
19152.0	5.539446299208362e+17
19153.0	5.538419969097726e+17
19154.0	5.537415306062506e+17
19155.0	5.536421076358485e+17
19156.0	5.5354135360307194e+17
19157.0	5.5343971079727776e+17
19158.0	5.533369867698175e+17
19159.0	5.532388171273555e+17
19160.0	5.531384556814335e+17
19161.0	5.530376074166271e+17
19162.0	5.529326558642175e+17
19163.0	5.528356747476991e+17
19164.0	5.527359558691498e+17
19165.0	5.526334364538196e+17
19166.0	5.525333802134185e+17
19167.0	5.5243392816250874e+17
19168.0	5.5233380103837e+17
19169.0	5.522333018095615e+17
19170.0	5.521329098850302e+17
19171.0	5.520322612690943e+17
19172.0	5.519320125800447e+17
19173.0	5.5183163750263456e+17
19174.0	5.5173044684281165e+17
19175.0	5.516301618031274e+17
19176.0	5.515298416710996e+17
19177.0	5.5142766451097594e+17
19178.0	5.51328948630323e+17
19179.0	5.512285382508543e+17
19180.0	5.51128528007987e+17
19181.0	5.510267360247807e+17
19182.0	5.5092784796794874e+17
19183.0	5.508279098671104e+17
19184.0	5.5072768802160634e+17
19185.0	5.50627486728192e+17
19186.0	5.505273565282302e+17
19187.0	5.5042718047054496e+17
19188.0	5.5032707075276794e+17
19189.0	5.502270226912596e+17
19190.0	5.501269043751594e+17
19191.0	5.500268050732373e+17
19192.0	5.499267940614143e+17
19193.0	5.498264921047039e+17
19194.0	5.497262834712575e+17
19195.0	5.4962655173017594e+17
19196.0	5.495262665506815e+17
19197.0	5.49425829257762e+17
19198.0	5.4932368530254496e+17
19199.0	5.49194142266163e+17
19200.0	5.4909976112878925e+17
19201.0	5.490243992726186e+17
19202.0	5.489265306413738e+17
19203.0	5.488272188899326e+17
19204.0	5.487273346159957e+17
19205.0	5.486278797688831e+17
19206.0	5.4852806609906323e+17
19207.0	5.484274041312595e+17
19208.0	5.4832612525124256e+17
19209.0	5.482290553552894e+17
19210.0	5.4812939715433805e+17
19211.0	5.4802972343446176e+17
19212.0	5.479300355937621e+17
19213.0	5.478292576534526e+17
19214.0	5.4772941441378976e+17
19215.0	5.476309721415679e+17
19216.0	5.475315119117652e+17
19217.0	5.474316194589353e+17
19218.0	5.473239864180736e+17
19219.0	5.472306702144853e+17
19220.0	5.4713325400883194e+17
19221.0	5.470307395567615e+17
19222.0	5.469339182432255e+17
19223.0	5.468348993940138e+17
19224.0	5.4673540211452576e+17
19225.0	5.4663468030798496e+17
19226.0	5.465366579554986e+17
19227.0	5.464373313142782e+17
19228.0	5.463379662951764e+17
19229.0	5.462385854775294e+17
19230.0	5.4613921430678176e+17
19231.0	5.460399328941396e+17
19232.0	5.4594050985383245e+17
19233.0	5.458405116346367e+17
19234.0	5.457418107136681e+17
19235.0	5.456427695647402e+17
19236.0	5.4554350073501005e+17
19237.0	5.454441138356223e+17
19238.0	5.453439656700585e+17
19239.0	5.452458857857024e+17
19240.0	5.451466847638867e+17
19241.0	5.450475355417257e+17
19242.0	5.44948396036369e+17
19243.0	5.448474701769385e+17
19244.0	5.4475014051375776e+17
19245.0	5.4465102945976314e+17
19246.0	5.445518001263957e+17
19247.0	5.444528325175977e+17
19248.0	5.443537967513599e+17
19249.0	5.442547295278421e+17
19250.0	5.441552393087658e+17
19251.0	5.440552505966591e+17
19252.0	5.4395422505260365e+17
19253.0	5.438585357118121e+17
19254.0	5.4375970043330554e+17
19255.0	5.436584486065491e+17
19256.0	5.4356155214506656e+17
19257.0	5.434628429053951e+17
19258.0	5.4336390339843405e+17
19259.0	5.432640909869056e+17
19260.0	5.4316465480444576e+17
19261.0	5.4306714611438925e+17
19262.0	5.429682397424297e+17
19263.0	5.428685663720788e+17
19264.0	5.427644822716415e+17
19265.0	5.426691341374805e+17
19266.0	5.425693890445311e+17
19267.0	5.424740202883753e+17
19268.0	5.4237522974911136e+17
19269.0	5.422764064243711e+17
19270.0	5.421773503157587e+17
19271.0	5.420750545966421e+17
19272.0	5.4197958035374074e+17
19273.0	5.418779675372202e+17
19274.0	5.4177745125157536e+17
19275.0	5.4168376259379194e+17
19276.0	5.4158504706266445e+17
19277.0	5.414863114687828e+17
19278.0	5.4138757230974285e+17
19279.0	5.412887691875668e+17
19280.0	5.4118932503592954e+17
19281.0	5.410912977201834e+17
19282.0	5.4099260896269645e+17
19283.0	5.408936161880745e+17
19284.0	5.407948363442858e+17
19285.0	5.4069513207589536e+17
19286.0	5.405976050707113e+17
19287.0	5.404987307152723e+17
19288.0	5.4038232353996794e+17
19289.0	5.4026233505819296e+17
19290.0	5.4020261467040403e+17
19291.0	5.4010137549646496e+17
19292.0	5.400057326425428e+17
19293.0	5.3990703542654285e+17
19294.0	5.3980842083833165e+17
19295.0	5.397097513047381e+17
19296.0	5.396099065271636e+17
19297.0	5.3951215764329805e+17
19298.0	5.3941368545170765e+17
19299.0	5.3931365689371296e+17
19300.0	5.392162220933118e+17
19301.0	5.391174907636394e+17
19302.0	5.390186376593407e+17
19303.0	5.3891918120441165e+17
19304.0	5.388210157562539e+17
19305.0	5.387225613205503e+17
19306.0	5.3862255541179725e+17
19307.0	5.3852326868637005e+17
19308.0	5.384246085899604e+17
19309.0	5.383247111738709e+17
19310.0	5.382252935861589e+17
19311.0	5.3812747151168845e+17
19312.0	5.3802925643093325e+17
19313.0	5.379299451688276e+17
19314.0	5.3770773094290746e+17
19315.0	5.3762076058146144e+17
19316.0	5.3763153295223456e+17
19317.0	5.37534753092403e+17
19318.0	5.374359178138964e+17
19319.0	5.373369804739923e+17
19320.0	5.372374906044415e+17
19321.0	5.371378358987434e+17
19322.0	5.3703899097333754e+17
19323.0	5.369402592242345e+17
19324.0	5.3684133537600845e+17
19325.0	5.3674148745270605e+17
19326.0	5.366429276001621e+17
19327.0	5.3654365450622285e+17
19328.0	5.3644237478734496e+17
19329.0	5.363451635433471e+17
19330.0	5.362453740606804e+17
19331.0	5.3614566371054925e+17
19332.0	5.3604674692273485e+17
19333.0	5.3594718421210445e+17
19334.0	5.3584747505035936e+17
19335.0	5.3574352859299834e+17
19336.0	5.35647967388194e+17
19337.0	5.355481119850496e+17
19338.0	5.354457413976064e+17
19339.0	5.3534823788052474e+17
19340.0	5.352460161908735e+17
19341.0	5.3514543852858016e+17
19342.0	5.350435885241686e+17
19343.0	5.3494710806773754e+17
19344.0	5.348448408698879e+17
19345.0	5.347230330388479e+17
19346.0	5.346336542381396e+17
19347.0	5.345416779049641e+17
19348.0	5.3444135008337914e+17
19349.0	5.3434042604148045e+17
19350.0	5.3423852116159136e+17
19351.0	5.3413764346675194e+17
19352.0	5.34033608020241e+17
19353.0	5.339349804296873e+17
19354.0	5.3383327359085216e+17
19355.0	5.337303110473044e+17
19356.0	5.336292271325183e+17
19357.0	5.335269616822953e+17
19358.0	5.3342444723022496e+17
19359.0	5.333210010834259e+17
19360.0	5.3321680897966074e+17
19361.0	5.3311533101001376e+17
19362.0	5.330123389665279e+17
19363.0	5.329087158900051e+17
19364.0	5.3280410204897274e+17
19365.0	5.3269657896878074e+17
19366.0	5.325920946618367e+17
19367.0	5.324873056387071e+17
19368.0	5.323821814906879e+17
19369.0	5.322763482955774e+17
19370.0	5.321706410693973e+17
19371.0	5.320642291302399e+17
19372.0	5.319579631528617e+17
19373.0	5.3185088257174176e+17
19374.0	5.317414243794943e+17
19375.0	5.316269575591253e+17
19376.0	5.3151827041976314e+17
19377.0	5.3140916000522234e+17
19378.0	5.3129953998274554e+17
19379.0	5.311892842435924e+17
19380.0	5.310783602819071e+17
19381.0	5.309617828178602e+17
19382.0	5.308449887180115e+17
19383.0	5.3073176026589856e+17
19384.0	5.306188807798783e+17
19385.0	5.305041794979158e+17
19386.0	5.3037895869180576e+17
19387.0	5.3026010462945274e+17
19388.0	5.3014234381243725e+17
19389.0	5.300229036660051e+17
19390.0	5.298950533109077e+17
19391.0	5.2972056621001376e+17
19392.0	5.2964854980061856e+17
19393.0	5.2952497595787936e+17
19394.0	5.2939851230958925e+17
19395.0	5.292708266508287e+17
19396.0	5.2914241621633696e+17
19397.0	5.29011872698641e+17
19398.0	5.2887829404276045e+17
19399.0	5.2873485751418874e+17
19400.0	5.2860440550222496e+17
19401.0	5.284628807374164e+17
19402.0	5.283157976809472e+17
19403.0	5.281696820406954e+17
19404.0	5.280205369245696e+17
19405.0	5.2786783650665805e+17
19406.0	5.277053270097918e+17
19407.0	5.2753831660530336e+17
19408.0	5.2736579530478925e+17
19409.0	5.272048304302762e+17
19410.0	5.270177752372564e+17
19411.0	5.268318892064767e+17
19412.0	5.266421628010494e+17
19413.0	5.2642735012358816e+17
19414.0	5.2622102944372045e+17
19415.0	5.2599305643840845e+17
19416.0	5.257553541158227e+17
19417.0	5.2549490964780365e+17
19418.0	5.2523881397398176e+17
19419.0	5.2492537475454285e+17
19420.0	5.2461459577241574e+17
19421.0	5.242960269890901e+17
19422.0	5.239811979870207e+17
19423.0	5.236703118404265e+17
19424.0	5.2333068716168525e+17
19425.0	5.229820948512767e+17
19426.0	5.225871936498346e+17
19427.0	5.221708378144767e+17
19428.0	5.217021288164009e+17
19429.0	5.2120939631301965e+17
19430.0	5.2062947108017485e+17
19431.0	5.2000554270501536e+17
19432.0	5.1932101167022086e+17
19433.0	5.1852689591500794e+17
19434.0	5.1761117190772045e+17
19435.0	5.165415370762918e+17
19436.0	5.153325148274685e+17
19437.0	5.142235267989503e+17
19438.0	5.1296571060387834e+17
19439.0	5.1172846481353395e+17
19440.0	5.101266994724864e+17
19441.0	5.081928182355283e+17
19442.0	5.0577527978065914e+17
19443.0	5.029888878706687e+17
19444.0	4.995394123595774e+17
19445.0	4.9539135880997594e+17
19446.0	4.9042316510713146e+17
19447.0	4.8404209871093677e+17
19448.0	4.74856206159053e+17
19449.0	4.605491457381716e+17
19450.0	4.3002996537862874e+17
19451.0	4.08150930183514e+17
19452.0	4.488073381412877e+17
19453.0	4.685245820086959e+17
19454.0	4.795318431733071e+17
19455.0	4.868717380195668e+17
19456.0	4.9223938807780717e+17
19457.0	4.965594432536567e+17
19458.0	4.9976332283194086e+17
19459.0	5.030113896125784e+17
19460.0	5.0547892528960826e+17
19461.0	5.07409215643102e+17
19462.0	5.0898145084702726e+17
19463.0	5.102764494072489e+17
19464.0	5.1130255253613216e+17
19465.0	5.122117834812074e+17
19466.0	5.1321262110146534e+17
19467.0	5.1413991369823546e+17
19468.0	5.149531965139626e+17
19469.0	5.1561031840126285e+17
19470.0	5.161696066797567e+17
19471.0	5.166315334183595e+17
19472.0	5.1702382960749216e+17
19473.0	5.173559398410921e+17
19474.0	5.17662040985873e+17
19475.0	5.17890225943347e+17
19476.0	5.181252256661503e+17
19477.0	5.183003873509374e+17
19478.0	5.18450707431424e+17
19479.0	5.185901885915135e+17
19480.0	5.1870288639426554e+17
19481.0	5.1882933361486496e+17
19482.0	5.1896918079788365e+17
19483.0	5.190789172822015e+17
19484.0	5.1916551728660474e+17
19485.0	5.1924625029857274e+17
19486.0	5.1928821347123194e+17
19487.0	5.193457379311615e+17
19488.0	5.193632198601386e+17
19489.0	5.19384436187682e+17
19490.0	5.19379546677794e+17
19491.0	5.19391777198353e+17
19492.0	5.1939162592378874e+17
19493.0	5.1937925426490016e+17
19494.0	5.1935615888916474e+17
19495.0	5.1932841538573645e+17
19496.0	5.1930155240652794e+17
19497.0	5.192719915810815e+17
19498.0	5.1922311158169594e+17
19499.0	5.1910440956286285e+17
19500.0	5.1914591310970874e+17
19501.0	5.19104425431313e+17
19502.0	5.190549703928489e+17
19503.0	5.1900183694977696e+17
19504.0	5.1894644088941216e+17
19505.0	5.188887350957396e+17
19506.0	5.188290042221909e+17
19507.0	5.187673729094996e+17
19508.0	5.1870441871332685e+17
19509.0	5.1864003223224314e+17
19510.0	5.1857361549830816e+17
19511.0	5.183116669528744e+17
19512.0	5.184248445840042e+17
19513.0	5.183493393525417e+17
19514.0	5.182871551606783e+17
19515.0	5.182296035775828e+17
19516.0	5.181647541152427e+17
19517.0	5.1809817058781856e+17
19518.0	5.1802369009472845e+17
19519.0	5.179479370498047e+17
19520.0	5.1787038968162976e+17
19521.0	5.17796812362001e+17
19522.0	5.1772461958212256e+17
19523.0	5.1764585782312954e+17
19524.0	5.17565695795746e+17
19525.0	5.1748696591346336e+17
19526.0	5.174067340509183e+17
19527.0	5.173258931754325e+17
19528.0	5.1724561936984723e+17
19529.0	5.171682732583595e+17
19530.0	5.1708760372019194e+17
19531.0	5.1700496998946125e+17
19532.0	5.169219473768447e+17
19533.0	5.168385484652543e+17
19534.0	5.167548041527294e+17
19535.0	5.1667109633064954e+17
19536.0	5.1658654293688314e+17
19537.0	5.1650226322145274e+17
19538.0	5.164140152051028e+17
19539.0	5.16327204716544e+17
19540.0	5.1625011075263136e+17
19541.0	5.1616450353998496e+17
19542.0	5.1607855714795514e+17
19543.0	5.159928385066325e+17
19544.0	5.1590804785506976e+17
19545.0	5.1581525440157005e+17
19546.0	5.1572465310105594e+17
19547.0	5.156477316628479e+17
19548.0	5.155608137302014e+17
19549.0	5.1547244121292794e+17
19550.0	5.1538616102420474e+17
19551.0	5.1529862282390176e+17
19552.0	5.152109025908053e+17
19553.0	5.151227868348414e+17
19554.0	5.1503466618552314e+17
19555.0	5.1494705451499514e+17
19556.0	5.148588618634581e+17
19557.0	5.147705138129577e+17
19558.0	5.146821259165694e+17
19559.0	5.145950506975232e+17
19560.0	5.145067335450624e+17
19561.0	5.1441860954030074e+17
19562.0	5.143292815605759e+17
19563.0	5.142409971236864e+17
19564.0	5.141520690708479e+17
19565.0	5.1406306796721485e+17
19566.0	5.139737793440426e+17
19567.0	5.138848352829439e+17
19568.0	5.137956628419925e+17
19569.0	5.1370629676400634e+17
19570.0	5.1361709992618656e+17
19571.0	5.135277321704789e+17
19572.0	5.134382894765396e+17
19573.0	5.1334868656018765e+17
19574.0	5.1325859731428685e+17
19575.0	5.1316977432876365e+17
19576.0	5.130801688958291e+17
19577.0	5.129904834914985e+17
19578.0	5.129004011661994e+17
19579.0	5.128108420803241e+17
19580.0	5.127211249390932e+17
19581.0	5.126314381366613e+17
19582.0	5.125418163459412e+17
19583.0	5.124519837215402e+17
19584.0	5.1236210461026976e+17
19585.0	5.1227083739409056e+17
19586.0	5.1218058813549216e+17
19587.0	5.120920204432725e+17
19588.0	5.1199717723340794e+17
19589.0	5.119120311145812e+17
19590.0	5.118210489712638e+17
19591.0	5.1173242612394656e+17
19592.0	5.1164239874402976e+17
19593.0	5.115524040796843e+17
19594.0	5.1145933016705696e+17
19595.0	5.113722069931349e+17
19596.0	5.112817508854442e+17
19597.0	5.111920564633598e+17
19598.0	5.110962365399039e+17
19599.0	5.110118141482326e+17
19600.0	5.109217592257194e+17
19601.0	5.1083118959220045e+17
19602.0	5.1074050873972045e+17
19603.0	5.106465861096788e+17
19604.0	5.105608443996842e+17
19605.0	5.104677550380372e+17
19606.0	5.103809000898559e+17
19607.0	5.10290827481361e+17
19608.0	5.102006323292841e+17
19609.0	5.101102884891306e+17
19610.0	5.1001960190443514e+17
19611.0	5.099290528929108e+17
19612.0	5.098400738093738e+17
19613.0	5.097499187129002e+17
19614.0	5.0965928917073914e+17
19615.0	5.095695523861844e+17
19616.0	5.0947819142731085e+17
19617.0	5.093878291322198e+17
19618.0	5.0929183053141325e+17
19619.0	5.0919985035345914e+17
19620.0	5.091107762689364e+17
19621.0	5.0902695324330656e+17
19622.0	5.0893855723793056e+17
19623.0	5.0884847337471994e+17
19624.0	5.0875836308739405e+17
19625.0	5.086682402870613e+17
19626.0	5.0857810322609485e+17
19627.0	5.084878625658198e+17
19628.0	5.083969504673791e+17
19629.0	5.0830228838154234e+17
19630.0	5.082098956238847e+17
19631.0	5.080951186347349e+17
19632.0	5.0803611009024e+17
19633.0	5.0794729136892576e+17
19634.0	5.0785868152395085e+17
19635.0	5.0776855914304845e+17
19636.0	5.0767703901033805e+17
19637.0	5.0758320564906656e+17
19638.0	5.074985227911168e+17
19639.0	5.07408748257826e+17
19640.0	5.0731767481849165e+17
19641.0	5.07214224687104e+17
19642.0	5.0713879544244896e+17
19643.0	5.070488880196266e+17
19644.0	5.069583935340542e+17
19645.0	5.0686598707500365e+17
19646.0	5.0677723895780685e+17
19647.0	5.066892270108672e+17
19648.0	5.0659938173364896e+17
19649.0	5.065094831188651e+17
19650.0	5.0641964238547616e+17
19651.0	5.063297888594602e+17
19652.0	5.062399454696788e+17
19653.0	5.0615009599815674e+17
19654.0	5.0606029622913696e+17
19655.0	5.0597044102539936e+17
