# Flux units: erg / (cm m2 s)
# Wavelength units: Angstrom
wave	flux
19000.0	5.884497997682003e+17
19001.0	5.883271810383871e+17
19002.0	5.882345025088169e+17
19003.0	5.881251652523347e+17
19004.0	5.880174643336531e+17
19005.0	5.879072446655145e+17
19006.0	5.878007147266047e+17
19007.0	5.876930254121642e+17
19008.0	5.875836570479274e+17
19009.0	5.874588460952234e+17
19010.0	5.873317370833578e+17
19011.0	5.872491718595924e+17
19012.0	5.870288875028477e+17
19013.0	5.870507347935231e+17
19014.0	5.86940550357538e+17
19015.0	5.868345927314089e+17
19016.0	5.867278051224233e+17
19017.0	5.866236147662848e+17
19018.0	5.865136413037908e+17
19019.0	5.864094561905322e+17
19020.0	5.863019026317311e+17
19021.0	5.86196642308642e+17
19022.0	5.860885158778195e+17
19023.0	5.859734137602047e+17
19024.0	5.858593201629866e+17
19025.0	5.857502192555348e+17
19026.0	5.856282964306602e+17
19027.0	5.85437987156787e+17
19028.0	5.854359627759615e+17
19029.0	5.85331343622144e+17
19030.0	5.852273441767423e+17
19031.0	5.851188780072959e+17
19032.0	5.850049790956884e+17
19033.0	5.84876347691281e+17
19034.0	5.847370703743657e+17
19035.0	5.843098707951615e+17
19036.0	5.77234658271777e+17
19037.0	5.841840334263635e+17
19038.0	5.843143787631956e+17
19039.0	5.842453600228692e+17
19040.0	5.841500590047231e+17
19041.0	5.840474663288831e+17
19042.0	5.836384929579002e+17
19043.0	5.838426848187732e+17
19044.0	5.83734187401762e+17
19045.0	5.836219417449812e+17
19046.0	5.835169723667795e+17
19047.0	5.834096594911232e+17
19048.0	5.832401014663849e+17
19049.0	5.825636572594168e+17
19050.0	5.830328729993215e+17
19051.0	5.819171816341498e+17
19052.0	5.824289577456979e+17
19053.0	5.827408286449663e+17
19054.0	5.826617717467817e+17
19055.0	5.824497232554665e+17
19056.0	5.824277686605139e+17
19057.0	5.823536247603199e+17
19058.0	5.819309661443407e+17
19059.0	5.820240241186131e+17
19060.0	5.820342345225555e+17
19061.0	5.819298265519444e+17
19062.0	5.818249040101373e+17
19063.0	5.817185281419945e+17
19064.0	5.816010825269247e+17
19065.0	5.814883338332841e+17
19066.0	5.812819007460694e+17
19067.0	5.812927173667498e+17
19068.0	5.811888272528726e+17
19069.0	5.810824283160575e+17
19070.0	5.809737757097983e+17
19071.0	5.808637826738858e+17
19072.0	5.806470070621522e+17
19073.0	5.806582857553236e+17
19074.0	5.80552593768448e+17
19075.0	5.804464777374378e+17
19076.0	5.803389292817065e+17
19077.0	5.802313926399316e+17
19078.0	5.801231962341376e+17
19079.0	5.800218416469331e+17
19080.0	5.79914350932787e+17
19081.0	5.798036427680426e+17
19082.0	5.796997732062548e+17
19083.0	5.795844789196116e+17
19084.0	5.794638912116052e+17
19085.0	5.793732228022271e+17
19086.0	5.790363260289023e+17
19087.0	5.787860229685244e+17
19088.0	5.788233861081766e+17
19089.0	5.78864826950178e+17
19090.0	5.788192986890239e+17
19091.0	5.787062707246422e+17
19092.0	5.783614441302705e+17
19093.0	5.785298579488767e+17
19094.0	5.784316515363498e+17
19095.0	5.783282705410729e+17
19096.0	5.782224350390954e+17
19097.0	5.781181597483005e+17
19098.0	5.778816650357417e+17
19099.0	5.777493509625174e+17
19100.0	5.777858571359571e+17
19101.0	5.776890075807743e+17
19102.0	5.775791441488554e+17
19103.0	5.774839368734035e+17
19104.0	5.773774913798141e+17
19105.0	5.769795111398066e+17
19106.0	5.771381557952512e+17
19107.0	5.769703554635091e+17
19108.0	5.768001809459882e+17
19109.0	5.765092885572264e+17
19110.0	5.766267214495743e+17
19111.0	5.765359864206675e+17
19112.0	5.764299731501053e+17
19113.0	5.7642807229153274e+17
19114.0	5.762648893292543e+17
19115.0	5.7618667255016096e+17
19116.0	5.761105989905066e+17
19117.0	5.7599947551976096e+17
19118.0	5.7586236386181114e+17
19119.0	5.7502971769214176e+17
19120.0	5.756170955041449e+17
19121.0	5.7553215043229e+17
19122.0	5.754832373678079e+17
19123.0	5.75381307461905e+17
19124.0	5.7522827876980045e+17
19125.0	5.751690091298815e+17
19126.0	5.750566591048361e+17
19127.0	5.7479958678732794e+17
19128.0	5.7482137214211405e+17
19129.0	5.7474283666582176e+17
19130.0	5.7464702680869536e+17
19131.0	5.7454355577569274e+17
19132.0	5.744388333720915e+17
19133.0	5.743272837600597e+17
19134.0	5.742178802335743e+17
19135.0	5.7412328931109536e+17
19136.0	5.7401947322668365e+17
19137.0	5.739020754266794e+17
19138.0	5.738083666362367e+17
19139.0	5.7370649097666554e+17
19140.0	5.736022702817279e+17
19141.0	5.734973870964735e+17
19142.0	5.733880264916992e+17
19143.0	5.7328339014123514e+17
19144.0	5.731787764400126e+17
19145.0	5.730787108323326e+17
19146.0	5.729046027567103e+17
19147.0	5.728618137255935e+17
19148.0	5.726606690964822e+17
19149.0	5.725385689224533e+17
19150.0	5.725548759569749e+17
19151.0	5.724497571916458e+17
19152.0	5.7233516573054285e+17
19153.0	5.720248409915388e+17
19154.0	5.721023272626858e+17
19155.0	5.7201995218070176e+17
19156.0	5.7190747793435296e+17
19157.0	5.7168227002395315e+17
19158.0	5.713816804043435e+17
19159.0	5.7155408601197216e+17
19160.0	5.71469895705122e+17
19161.0	5.7132507072211616e+17
19162.0	5.7076016438312966e+17
19163.0	5.7100967171413325e+17
19164.0	5.710529034540372e+17
19165.0	5.7072968891979034e+17
19166.0	5.7084409296541005e+17
19167.0	5.7071822861325645e+17
19168.0	5.706510870336852e+17
19169.0	5.70556358398225e+17
19170.0	5.704550955963732e+17
19171.0	5.7033456290365434e+17
19172.0	5.7024020462523725e+17
19173.0	5.7014868644986874e+17
19174.0	5.700451937462954e+17
19175.0	5.699456521469952e+17
19176.0	5.6984122851764896e+17
19177.0	5.6971551124575565e+17
19178.0	5.696023577318741e+17
19179.0	5.6948935290606925e+17
19180.0	5.69416333009442e+17
19181.0	5.6930766089966925e+17
19182.0	5.6921175352497485e+17
19183.0	5.6911550095906125e+17
19184.0	5.6901188067874125e+17
19185.0	5.6890591291637754e+17
19186.0	5.688029845564074e+17
19187.0	5.6868830913931936e+17
19188.0	5.6859091467414176e+17
19189.0	5.6848390539618976e+17
19190.0	5.6837294012061005e+17
19191.0	5.682615143803562e+17
19192.0	5.681590650798079e+17
19193.0	5.680165672364715e+17
19194.0	5.678800974468437e+17
19195.0	5.677974695182335e+17
19196.0	5.6763866708705274e+17
19197.0	5.674060210678441e+17
19198.0	5.668226066634068e+17
19199.0	5.6334934805053395e+17
19200.0	5.637476917269849e+17
19201.0	5.665791542995626e+17
19202.0	5.669054889765545e+17
19203.0	5.6690459398198605e+17
19204.0	5.668653924089855e+17
19205.0	5.66791791321634e+17
19206.0	5.6670339559587834e+17
19207.0	5.6659550956858003e+17
19208.0	5.664923686972073e+17
19209.0	5.6641275123029325e+17
19210.0	5.663114586488831e+17
19211.0	5.6621149657060685e+17
19212.0	5.6610424255501645e+17
19213.0	5.659647651698004e+17
19214.0	5.6584545756337485e+17
19215.0	5.657788169235113e+17
19216.0	5.6569684190822394e+17
19217.0	5.6559223806361594e+17
19218.0	5.6542469414365856e+17
19219.0	5.6537117762082106e+17
19220.0	5.652848996690602e+17
19221.0	5.651656343551999e+17
19222.0	5.6508127655581005e+17
19223.0	5.64983333265954e+17
19224.0	5.6487712936427514e+17
19225.0	5.6476871401581216e+17
19226.0	5.6467536237035514e+17
19227.0	5.6457324567811405e+17
19228.0	5.6447336077503136e+17
19229.0	5.6437047268037965e+17
19230.0	5.642662700209492e+17
19231.0	5.641629590705492e+17
19232.0	5.640603659053738e+17
19233.0	5.639505077862399e+17
19234.0	5.638549646169428e+17
19235.0	5.637501401519445e+17
19236.0	5.6365083105689594e+17
19237.0	5.635462862121641e+17
19238.0	5.634310467310932e+17
19239.0	5.633419002249215e+17
19240.0	5.6324021484694176e+17
19241.0	5.6313491209147725e+17
19242.0	5.6303310724573856e+17
19243.0	5.629151822217215e+17
19244.0	5.628300652533077e+17
19245.0	5.6272668803290445e+17
19246.0	5.6262343433475405e+17
19247.0	5.6252089891116365e+17
19248.0	5.6241742494214816e+17
19249.0	5.6230466583265274e+17
19250.0	5.6216468184541856e+17
19251.0	5.620539982872574e+17
19252.0	5.61976738718242e+17
19253.0	5.6190374860117325e+17
19254.0	5.618030207827967e+17
19255.0	5.6167992495090336e+17
19256.0	5.615961238055594e+17
19257.0	5.6149544974417914e+17
19258.0	5.613923056571732e+17
19259.0	5.612747010779817e+17
19260.0	5.6099184001242426e+17
19261.0	5.610780542107647e+17
19262.0	5.6097051120762874e+17
19263.0	5.608640419463168e+17
19264.0	5.6072503767859194e+17
19265.0	5.606525075368617e+17
19266.0	5.605438274579115e+17
19267.0	5.6047010186963616e+17
19268.0	5.6036717770397e+17
19269.0	5.602651539155626e+17
19270.0	5.6015897692733434e+17
19271.0	5.600280811580074e+17
19272.0	5.59952202633489e+17
19273.0	5.5982667298679456e+17
19274.0	5.5970510562918374e+17
19275.0	5.59649329844497e+17
19276.0	5.5954474599273805e+17
19277.0	5.5944262049245856e+17
19278.0	5.5933231001763834e+17
19279.0	5.5923043198129485e+17
19280.0	5.591258143653887e+17
19281.0	5.590252533405011e+17
19282.0	5.5891694396811936e+17
19283.0	5.587896360064341e+17
19284.0	5.586906247768747e+17
19285.0	5.5859004991078394e+17
19286.0	5.584798568764756e+17
19287.0	5.583127259556522e+17
19288.0	5.557591769874413e+17
19289.0	5.534285675102156e+17
19290.0	5.579837064347647e+17
19291.0	5.5794327208591366e+17
19292.0	5.5788971991149216e+17
19293.0	5.577952153217706e+17
19294.0	5.5769289464654496e+17
19295.0	5.5759701362606074e+17
19296.0	5.5735339062394906e+17
19297.0	5.5736227332096e+17
19298.0	5.572886883117737e+17
19299.0	5.570280193086806e+17
19300.0	5.5708366919434234e+17
19301.0	5.569841950534313e+17
19302.0	5.5687985775684256e+17
19303.0	5.567674086763177e+17
19304.0	5.566721591782058e+17
19305.0	5.565678923459241e+17
19306.0	5.5646025371265696e+17
19307.0	5.5634462304283296e+17
19308.0	5.562288243911338e+17
19309.0	5.560003084331689e+17
19310.0	5.5584598426036883e+17
19311.0	5.558748166051156e+17
19312.0	5.557934832484351e+17
19313.0	5.5559822735223456e+17
19314.0	5.432657706658467e+17
19315.0	5.441516307393346e+17
19316.0	5.5508204694186694e+17
19317.0	5.5528245120641696e+17
19318.0	5.552091530177194e+17
19319.0	5.55119334723857e+17
19320.0	5.549621499658238e+17
19321.0	5.547879600313684e+17
19322.0	5.5478750872425805e+17
19323.0	5.546646422508885e+17
19324.0	5.5457000889603405e+17
19325.0	5.5441329991188474e+17
19326.0	5.543751655096319e+17
19327.0	5.542945021231103e+17
19328.0	5.53946197052621e+17
19329.0	5.541012404786517e+17
19330.0	5.539957259807402e+17
19331.0	5.538897150170452e+17
19332.0	5.5378926080709965e+17
19333.0	5.536820963398997e+17
19334.0	5.5357736282139296e+17
19335.0	5.5296294034691475e+17
19336.0	5.5336778680238074e+17
19337.0	5.532716404222634e+17
19338.0	5.5314510693881165e+17
19339.0	5.53060487344947e+17
19340.0	5.529403290637652e+17
19341.0	5.5265406725652506e+17
19342.0	5.526479218322091e+17
19343.0	5.526398914177705e+17
19344.0	5.523431998444888e+17
19345.0	5.521626040893439e+17
19346.0	5.5220991926381216e+17
19347.0	5.519685279110485e+17
19348.0	5.521150301962239e+17
19349.0	5.5200430895923194e+17
19350.0	5.51805820932369e+17
19351.0	5.517911375828309e+17
19352.0	5.5142335584228646e+17
19353.0	5.5158224111097165e+17
19354.0	5.51476304735983e+17
19355.0	5.513585034439339e+17
19356.0	5.512608709520042e+17
19357.0	5.511543289195179e+17
19358.0	5.510429173000874e+17
19359.0	5.508755631723859e+17
19360.0	5.5062381943848934e+17
19361.0	5.5071641254406816e+17
19362.0	5.506117475325268e+17
19363.0	5.505028341104639e+17
19364.0	5.5039154552395085e+17
19365.0	5.5027701522978125e+17
19366.0	5.501673855604051e+17
19367.0	5.500547103369898e+17
19368.0	5.499449922377044e+17
19369.0	5.498236320088064e+17
19370.0	5.4971348637013325e+17
19371.0	5.496018869157887e+17
19372.0	5.4949075051260576e+17
19373.0	5.4936945249921696e+17
19374.0	5.492582763200511e+17
19375.0	5.491421777057108e+17
19376.0	5.490278123874985e+17
19377.0	5.4891010015450445e+17
19378.0	5.487929392627711e+17
19379.0	5.486655907561471e+17
19380.0	5.485447256648361e+17
19381.0	5.484247657043285e+17
19382.0	5.4829338500355405e+17
19383.0	5.48169246188066e+17
19384.0	5.4804596259116365e+17
19385.0	5.4792364934649165e+17
19386.0	5.477963321573375e+17
19387.0	5.476637458737834e+17
19388.0	5.475269955551231e+17
19389.0	5.4737144916213754e+17
19390.0	5.471017650618366e+17
19391.0	5.406060275127569e+17
19392.0	5.4628175863698714e+17
19393.0	5.468007534253396e+17
19394.0	5.467057590108158e+17
19395.0	5.4650372833498464e+17
19396.0	5.4642360804092576e+17
19397.0	5.4631001055996576e+17
19398.0	5.46088774865169e+17
19399.0	5.4586620894685856e+17
19400.0	5.4578190022082566e+17
19401.0	5.4569802490620576e+17
19402.0	5.455398177166676e+17
19403.0	5.453757957537791e+17
19404.0	5.452094688810324e+17
19405.0	5.4502223822629536e+17
19406.0	5.4484402644363936e+17
19407.0	5.445734566461438e+17
19408.0	5.443981891949909e+17
19409.0	5.442514397954047e+17
19410.0	5.440630688492202e+17
19411.0	5.438524341179732e+17
19412.0	5.436211567001599e+17
19413.0	5.433067857160874e+17
19414.0	5.431299809826132e+17
19415.0	5.428797130145791e+17
19416.0	5.4254083687929165e+17
19417.0	5.4225711185701536e+17
19418.0	5.4200017634372256e+17
19419.0	5.416890079204692e+17
19420.0	5.4135841043251194e+17
19421.0	5.410396573095253e+17
19422.0	5.4069542651603616e+17
19423.0	5.4032952710922234e+17
19424.0	5.399605389470378e+17
19425.0	5.395414854751573e+17
19426.0	5.390835673726975e+17
19427.0	5.386070826243413e+17
19428.0	5.380521327940947e+17
19429.0	5.374572745807188e+17
19430.0	5.364254038644054e+17
19431.0	5.3498812067130086e+17
19432.0	5.353413315395584e+17
19433.0	5.345576088502272e+17
19434.0	5.3362538046641485e+17
19435.0	5.3231289983740563e+17
19436.0	5.3088743514439654e+17
19437.0	5.2985173474891085e+17
19438.0	5.170660956089021e+17
19439.0	5.2569439535977786e+17
19440.0	5.255429759522132e+17
19441.0	5.237293842781523e+17
19442.0	5.2147686001868794e+17
19443.0	5.187002225917952e+17
19444.0	5.154932187463678e+17
19445.0	5.115313073597099e+17
19446.0	5.0652956397841056e+17
19447.0	5.001141893638823e+17
19448.0	4.911459709135534e+17
19449.0	4.776348535663274e+17
19450.0	4.5103617311156954e+17
19451.0	4.298028498288666e+17
19452.0	4.672217630987604e+17
19453.0	4.850681211693743e+17
19454.0	4.956311308817746e+17
19455.0	5.0289108145493325e+17
19456.0	5.0827864460055904e+17
19457.0	5.12233866212147e+17
19458.0	4.8510506886326016e+17
19459.0	5.163182776298226e+17
19460.0	5.208625522584233e+17
19461.0	5.229218708673876e+17
19462.0	5.2457634330050566e+17
19463.0	5.25925662012211e+17
19464.0	5.272069425419604e+17
19465.0	5.28308655690001e+17
19466.0	5.29299477172497e+17
19467.0	5.3016806118741325e+17
19468.0	5.3096135996211194e+17
19469.0	5.314151818373799e+17
19470.0	5.321651582053034e+17
19471.0	5.327234060167851e+17
19472.0	5.331677043053909e+17
19473.0	5.335811539075071e+17
19474.0	5.337507907152552e+17
19475.0	5.3415779905481376e+17
19476.0	5.344882060514644e+17
19477.0	5.347506535792639e+17
19478.0	5.3494054097605965e+17
19479.0	5.349337913622524e+17
19480.0	5.3526524714461856e+17
19481.0	5.3539459808187725e+17
19482.0	5.355264376395092e+17
19483.0	5.3565249681708365e+17
19484.0	5.357815872181589e+17
19485.0	5.358644842812757e+17
19486.0	5.357728339154265e+17
19487.0	5.3601884990778016e+17
19488.0	5.3607693423738874e+17
19489.0	5.36088853750306e+17
19490.0	5.360142841981609e+17
19491.0	5.361695717326847e+17
19492.0	5.361797858415957e+17
19493.0	5.361790328242175e+17
19494.0	5.361802400847189e+17
19495.0	5.3615217970162336e+17
19496.0	5.360629674147838e+17
19497.0	5.359842525620906e+17
19498.0	5.341273637868882e+17
19499.0	5.260006490374117e+17
19500.0	5.3577807770419194e+17
19501.0	5.359443422216192e+17
19502.0	5.3594830940405754e+17
19503.0	5.3592660409057274e+17
19504.0	5.3588459939430394e+17
19505.0	5.3582914733998074e+17
19506.0	5.35778780320017e+17
19507.0	5.3571527275533645e+17
19508.0	5.356426747357866e+17
19509.0	5.3553330084904954e+17
19510.0	5.351632404829523e+17
19511.0	5.1437179984935514e+17
19512.0	5.3290182346014566e+17
19513.0	5.321586605293536e+17
19514.0	5.3275996468892794e+17
19515.0	5.350387579442517e+17
19516.0	5.350885237806419e+17
19517.0	5.3506381842131616e+17
19518.0	5.349543242978644e+17
19519.0	5.348835228385279e+17
19520.0	5.346842453038418e+17
19521.0	5.348069815440725e+17
19522.0	5.3470019183793485e+17
19523.0	5.34604982185711e+17
19524.0	5.344440099711661e+17
19525.0	5.345054493245439e+17
19526.0	5.344330638163968e+17
19527.0	5.343523851905705e+17
19528.0	5.3425631556621645e+17
19529.0	5.3416559458822816e+17
19530.0	5.3411176419164154e+17
19531.0	5.340336210924883e+17
19532.0	5.3395061462794234e+17
19533.0	5.338670705934334e+17
19534.0	5.3378277850480634e+17
19535.0	5.3369614284881914e+17
19536.0	5.336089992626175e+17
19537.0	5.335236455956479e+17
19538.0	5.332439213102423e+17
19539.0	5.33311144329216e+17
19540.0	5.3326905015446176e+17
19541.0	5.3314172268926285e+17
19542.0	5.3307977170070176e+17
19543.0	5.3281953079623686e+17
19544.0	5.329087584621908e+17
19545.0	5.327736616080724e+17
19546.0	5.3266443543074125e+17
19547.0	5.326578968603306e+17
19548.0	5.325743619134804e+17
19549.0	5.3247612844769274e+17
19550.0	5.323983299106132e+17
19551.0	5.323096644911102e+17
19552.0	5.322226386250409e+17
19553.0	5.321305801534121e+17
19554.0	5.3203934809948154e+17
19555.0	5.3192885726958925e+17
19556.0	5.318457461571583e+17
19557.0	5.317697033557332e+17
19558.0	5.316821763402411e+17
19559.0	5.3159329337617056e+17
19560.0	5.3143085755924454e+17
19561.0	5.3140904522110285e+17
19562.0	5.312513803550719e+17
19563.0	5.3123037052709536e+17
19564.0	5.311392680072532e+17
19565.0	5.310480093194922e+17
19566.0	5.30953927795234e+17
19567.0	5.308649702424575e+17
19568.0	5.3077119049837216e+17
19569.0	5.306799643164672e+17
19570.0	5.3058792905332045e+17
19571.0	5.304969638969343e+17
19572.0	5.304029589187242e+17
19573.0	5.3028876948165965e+17
19574.0	5.3020395107778554e+17
19575.0	5.301312631603198e+17
19576.0	5.3002540228280314e+17
19577.0	5.299073455576405e+17
19578.0	5.298521594920959e+17
19579.0	5.297607547726506e+17
19580.0	5.296683471951188e+17
19581.0	5.2957794372594336e+17
19582.0	5.2948689580195834e+17
19583.0	5.293942648078335e+17
19584.0	5.29297693614626e+17
19585.0	5.291945468013226e+17
19586.0	5.2909200949029536e+17
19587.0	5.290020683033257e+17
19588.0	5.2888376879786656e+17
19589.0	5.288319153165653e+17
19590.0	5.2872841275637754e+17
19591.0	5.2865156457867936e+17
19592.0	5.285603792912384e+17
19593.0	5.2844673022033914e+17
19594.0	5.283294937612285e+17
19595.0	5.2827969255287443e+17
19596.0	5.281393318472362e+17
19597.0	5.2809406251444896e+17
19598.0	5.279536402923519e+17
19599.0	5.279084327556437e+17
19600.0	5.2781704236673696e+17
19601.0	5.2771621835898874e+17
19602.0	5.2761523301034656e+17
19603.0	5.274478392464724e+17
19604.0	5.274140253967701e+17
19605.0	5.2731913199506765e+17
19606.0	5.272575570957653e+17
19607.0	5.271665832012458e+17
19608.0	5.2707212202257056e+17
19609.0	5.269758593903274e+17
19610.0	5.267969957429249e+17
19611.0	5.2666274089533446e+17
19612.0	5.267015916847103e+17
19613.0	5.266070811530581e+17
19614.0	5.265101333812566e+17
19615.0	5.2641418490238285e+17
19616.0	5.261793351259479e+17
19617.0	5.2609734682869766e+17
19618.0	5.260672196324009e+17
19619.0	5.2594360021155834e+17
19620.0	5.2583911101125946e+17
19621.0	5.2566768029969056e+17
19622.0	5.257642772878677e+17
19623.0	5.25658480513297e+17
19624.0	5.255416130830336e+17
19625.0	5.254752527624874e+17
19626.0	5.25371879666483e+17
19627.0	5.2524759251244365e+17
19628.0	5.250439445129899e+17
19629.0	5.2445124615645843e+17
19630.0	5.236576022604455e+17
19631.0	5.210927111252655e+17
19632.0	5.244708881519957e+17
19633.0	5.246215132282879e+17
19634.0	5.246045920777556e+17
19635.0	5.245072259241299e+17
19636.0	5.2423969559893306e+17
19637.0	5.241247397926228e+17
19638.0	5.242572235953492e+17
19639.0	5.2418097093891405e+17
19640.0	5.240736351343957e+17
19641.0	5.238818077321901e+17
19642.0	5.2389016921702394e+17
19643.0	5.2379687468400634e+17
19644.0	5.237140441006079e+17
19645.0	5.236062024630271e+17
19646.0	5.233129811869692e+17
19647.0	5.234423430993236e+17
19648.0	5.2335337785698976e+17
19649.0	5.232605515481087e+17
19650.0	5.231685947883519e+17
19651.0	5.230752004308992e+17
19652.0	5.229823602808147e+17
19653.0	5.228869962782036e+17
19654.0	5.22796853764642e+17
19655.0	5.227037622359382e+17
19656.0	5.226116565084842e+17
19657.0	5.225187698016255e+17
