# Flux units: erg / (cm m2 s)
# Wavelength units: Angstrom
wave	flux
19000.0	6.048766960336895e+17
19001.0	6.047619688169471e+17
19002.0	6.046486823436287e+17
19003.0	6.045346836774911e+17
19004.0	6.044206910930943e+17
19005.0	6.0430675359389e+17
19006.0	6.041928081255082e+17
19007.0	6.040788726535508e+17
19008.0	6.039644205132458e+17
19009.0	6.038508753911807e+17
19010.0	6.03733615513873e+17
19011.0	6.036230842788522e+17
19012.0	6.035086282238633e+17
19013.0	6.033955954360319e+17
19014.0	6.032813861459283e+17
19015.0	6.031679603518121e+17
19016.0	6.030537543472467e+17
19017.0	6.029384692181673e+17
19018.0	6.02826605802291e+17
19019.0	6.027128878749012e+17
19020.0	6.025987273086292e+17
19021.0	6.024851149378902e+17
19022.0	6.023717628936191e+17
19023.0	6.022580817362944e+17
19024.0	6.021443483598847e+17
19025.0	6.020307852722175e+17
19026.0	6.019169269055487e+17
19027.0	6.018033164222463e+17
19028.0	6.016899791978496e+17
19029.0	6.015764081410047e+17
19030.0	6.014628603625471e+17
19031.0	6.013493289418751e+17
19032.0	6.012358166052864e+17
19033.0	6.011216744939519e+17
19034.0	6.010088206630911e+17
19035.0	6.008951160176639e+17
19036.0	6.007605004599295e+17
19037.0	6.006685197926399e+17
19038.0	6.005551255257088e+17
19039.0	6.004417444708351e+17
19040.0	6.003283810320383e+17
19041.0	6.002150387744767e+17
19042.0	6.001011252527104e+17
19043.0	5.999884106727423e+17
19044.0	5.998751057444863e+17
19045.0	5.997618580684799e+17
19046.0	5.996482557640703e+17
19047.0	5.995353753692842e+17
19048.0	5.994206715008339e+17
19049.0	5.993085177692159e+17
19050.0	5.991955207028735e+17
19051.0	5.990796320833533e+17
19052.0	5.989693994827776e+17
19053.0	5.988564313571327e+17
19054.0	5.987433606807551e+17
19055.0	5.986284516409343e+17
19056.0	5.985172505755645e+17
19057.0	5.98404223729664e+17
19058.0	5.982912193232895e+17
19059.0	5.98178233581568e+17
19060.0	5.980650905534463e+17
19061.0	5.979523256418304e+17
19062.0	5.978393736642559e+17
19063.0	5.977264927801344e+17
19064.0	5.976127903716692e+17
19065.0	5.974994339932842e+17
19066.0	5.973874476843007e+17
19067.0	5.972751031118506e+17
19068.0	5.971622994728276e+17
19069.0	5.970495337922559e+17
19070.0	5.969367028203519e+17
19071.0	5.968240454926335e+17
19072.0	5.967113321709567e+17
19073.0	5.965985999749119e+17
19074.0	5.964859707490303e+17
19075.0	5.963733226487807e+17
19076.0	5.962605269090303e+17
19077.0	5.9614802477056e+17
19078.0	5.960350300110845e+17
19079.0	5.959229408717481e+17
19080.0	5.958103773566292e+17
19081.0	5.956975296774143e+17
19082.0	5.955848262123519e+17
19083.0	5.954721974758057e+17
19084.0	5.95358638023202e+17
19085.0	5.952480024898218e+17
19086.0	5.951327528026111e+17
19087.0	5.950226457515348e+17
19088.0	5.949103499029162e+17
19089.0	5.947969121550335e+17
19090.0	5.946861344347476e+17
19091.0	5.945736407547903e+17
19092.0	5.944610518641321e+17
19093.0	5.943492951233876e+17
19094.0	5.942358631776255e+17
19095.0	5.941231402090496e+17
19096.0	5.940124468641791e+17
19097.0	5.939004483218089e+17
19098.0	5.937883087110143e+17
19099.0	5.9367612757661e+17
19100.0	5.93564056682496e+17
19101.0	5.934519775395839e+17
19102.0	5.933392761716735e+17
19103.0	5.932278650415786e+17
19104.0	5.931158411935743e+17
19105.0	5.93003842511394e+17
19106.0	5.928917581955071e+17
19107.0	5.927797967727274e+17
19108.0	5.926679660025172e+17
19109.0	5.925538624088746e+17
19110.0	5.924441450086399e+17
19111.0	5.923322916590934e+17
19112.0	5.922204435524266e+17
19113.0	5.921086069800959e+17
19114.0	5.919968050107731e+17
19115.0	5.918848342207146e+17
19116.0	5.917732532912127e+17
19117.0	5.916614074914131e+17
19118.0	5.915490742435839e+17
19119.0	5.914191989484202e+17
19120.0	5.913262756812115e+17
19121.0	5.912146647624362e+17
19122.0	5.911031356325887e+17
19123.0	5.909913699439956e+17
19124.0	5.908799144241834e+17
19125.0	5.90768345588258e+17
19126.0	5.906566863650815e+17
19127.0	5.905333513180499e+17
19128.0	5.904328747384832e+17
19129.0	5.903216284445354e+17
19130.0	5.90210837652002e+17
19131.0	5.900993944354815e+17
19132.0	5.899879656893098e+17
19133.0	5.898717163596458e+17
19134.0	5.89764977824017e+17
19135.0	5.896538690333354e+17
19136.0	5.895425457739092e+17
19137.0	5.894300900524031e+17
19138.0	5.893195280591529e+17
19139.0	5.892086719752873e+17
19140.0	5.890974335806121e+17
19141.0	5.889862107048618e+17
19142.0	5.888749944001876e+17
19143.0	5.887634140998314e+17
19144.0	5.886526439292927e+17
19145.0	5.885415195497812e+17
19146.0	5.884262845426346e+17
19147.0	5.883186909282301e+17
19148.0	5.882082122618195e+17
19149.0	5.880971614224383e+17
19150.0	5.879860457810601e+17
19151.0	5.878751207707988e+17
19152.0	5.87763898524194e+17
19153.0	5.87653155267106e+17
19154.0	5.875412893346474e+17
19155.0	5.874312716921514e+17
19156.0	5.873203409496745e+17
19157.0	5.872094435519146e+17
19158.0	5.870970442437972e+17
19159.0	5.869875983548415e+17
19160.0	5.868766398600532e+17
19161.0	5.867660932459178e+17
19162.0	5.866518847946751e+17
19163.0	5.86544540951074e+17
19164.0	5.864328848037204e+17
19165.0	5.863206840259924e+17
19166.0	5.862092789077332e+17
19167.0	5.860990379884544e+17
19168.0	5.859873770875562e+17
19169.0	5.858773592353449e+17
19170.0	5.85767403458833e+17
19171.0	5.856566409079466e+17
19172.0	5.855462217307476e+17
19173.0	5.854356458962941e+17
19174.0	5.853247057865385e+17
19175.0	5.852145772746068e+17
19176.0	5.851040670810111e+17
19177.0	5.849925005519529e+17
19178.0	5.848830678750548e+17
19179.0	5.847724062670847e+17
19180.0	5.846615924058793e+17
19181.0	5.845510572561747e+17
19182.0	5.844403071483904e+17
19183.0	5.843309499689641e+17
19184.0	5.842195068922538e+17
19185.0	5.841102435953321e+17
19186.0	5.839999791180457e+17
19187.0	5.838892017472852e+17
19188.0	5.837793804681215e+17
19189.0	5.83669148356881e+17
19190.0	5.83558890590481e+17
19191.0	5.834486261131946e+17
19192.0	5.833384073538218e+17
19193.0	5.832277469342378e+17
19194.0	5.831178772108628e+17
19195.0	5.830078894178304e+17
19196.0	5.828976756217171e+17
19197.0	5.827875487875071e+17
19198.0	5.826775024839337e+17
19199.0	5.825463693170003e+17
19200.0	5.824439895719936e+17
19201.0	5.823472746539689e+17
19202.0	5.822372432401748e+17
19203.0	5.821272158808746e+17
19204.0	5.820170234757119e+17
19205.0	5.81907202056738e+17
19206.0	5.817971410031956e+17
19207.0	5.816869190980948e+17
19208.0	5.815756975505407e+17
19209.0	5.814673766438227e+17
19210.0	5.813574340094633e+17
19211.0	5.812474529273171e+17
19212.0	5.811376561848319e+17
19213.0	5.81027081818385e+17
19214.0	5.809171117812393e+17
19215.0	5.808079959840084e+17
19216.0	5.806977800208383e+17
19217.0	5.805883885879296e+17
19218.0	5.804728142615892e+17
19219.0	5.803676210473642e+17
19220.0	5.802590266021206e+17
19221.0	5.801469279556948e+17
19222.0	5.800395002959188e+17
19223.0	5.799297230569472e+17
19224.0	5.798192917861716e+17
19225.0	5.797090796677801e+17
19226.0	5.796005815517183e+17
19227.0	5.79490894839808e+17
19228.0	5.793812074987517e+17
19229.0	5.79271525470481e+17
19230.0	5.791618186259113e+17
19231.0	5.790522090891946e+17
19232.0	5.789418934413993e+17
19233.0	5.788323828902569e+17
19234.0	5.787231011383978e+17
19235.0	5.786136723062783e+17
19236.0	5.785040539615231e+17
19237.0	5.783943355826176e+17
19238.0	5.782841906429952e+17
19239.0	5.781752825337171e+17
19240.0	5.780631238388393e+17
19241.0	5.779554395575635e+17
19242.0	5.778464000966655e+17
19243.0	5.777356795587242e+17
19244.0	5.776273825595391e+17
19245.0	5.775178738259284e+17
19246.0	5.774082224859817e+17
19247.0	5.772987034763263e+17
19248.0	5.771892551406932e+17
19249.0	5.770797094972073e+17
19250.0	5.76970138058752e+17
19251.0	5.768600320562515e+17
19252.0	5.767485283019433e+17
19253.0	5.766415206318079e+17
19254.0	5.765316762140672e+17
19255.0	5.7642099692011514e+17
19256.0	5.763128935579647e+17
19257.0	5.762034719260671e+17
19258.0	5.7609390307409914e+17
19259.0	5.759838186722645e+17
19260.0	5.7587460479822496e+17
19261.0	5.7576533094563834e+17
19262.0	5.756557855118677e+17
19263.0	5.75546067063057e+17
19264.0	5.754332291006463e+17
19265.0	5.7532575858906445e+17
19266.0	5.7521651808119456e+17
19267.0	5.751079700529151e+17
19268.0	5.7499838253629434e+17
19269.0	5.748887849533439e+17
19270.0	5.747791716417535e+17
19271.0	5.7466728543682554e+17
19272.0	5.7455967574425594e+17
19273.0	5.7438288771809254e+17
19274.0	5.743089029218303e+17
19275.0	5.742309489857875e+17
19276.0	5.741212643011241e+17
19277.0	5.740115582255103e+17
19278.0	5.7390183355514874e+17
19279.0	5.737918710677502e+17
19280.0	5.736817633875284e+17
19281.0	5.7357252204079776e+17
19282.0	5.734627255779326e+17
19283.0	5.733525623930879e+17
19284.0	5.7324243395106125e+17
19285.0	5.7313163316210336e+17
19286.0	5.730230007584083e+17
19287.0	5.729132805619711e+17
19288.0	5.727972556974761e+17
19289.0	5.7267391282107725e+17
19290.0	5.725789372809215e+17
19291.0	5.7246693328595616e+17
19292.0	5.723587435910485e+17
19293.0	5.7224853098332154e+17
19294.0	5.7213840016452256e+17
19295.0	5.720281657464149e+17
19296.0	5.719178821151402e+17
19297.0	5.718075435384831e+17
19298.0	5.716971760211284e+17
19299.0	5.715867467775999e+17
19300.0	5.714762552486569e+17
19301.0	5.71365651522082e+17
19302.0	5.712550526189567e+17
19303.0	5.7114367294614176e+17
19304.0	5.710331914835284e+17
19305.0	5.709229257479509e+17
19306.0	5.708120889578836e+17
19307.0	5.70700980167202e+17
19308.0	5.705901398119764e+17
19309.0	5.704784320746836e+17
19310.0	5.7036680437869216e+17
19311.0	5.702538854662143e+17
19312.0	5.701427149493588e+17
19313.0	5.700299454240085e+17
19314.0	5.6991138657075194e+17
19315.0	5.698005630626473e+17
19316.0	5.6969664212063565e+17
19317.0	5.6958486370932045e+17
19318.0	5.694729124926804e+17
19319.0	5.693608701897385e+17
19320.0	5.6924833037243725e+17
19321.0	5.691363878240255e+17
19322.0	5.6902282760246605e+17
19323.0	5.689110475134292e+17
19324.0	5.68798678753826e+17
19325.0	5.6868533950218234e+17
19326.0	5.685728075841534e+17
19327.0	5.684595162873855e+17
19328.0	5.683462975520767e+17
19329.0	5.6823278668349434e+17
19330.0	5.681141979807743e+17
19331.0	5.6799837884689043e+17
19332.0	5.678846159006377e+17
19333.0	5.6777034628246176e+17
19334.0	5.676553959986515e+17
19335.0	5.675411459538943e+17
19336.0	5.6742618497460896e+17
19337.0	5.6731094465467725e+17
19338.0	5.6719405471498234e+17
19339.0	5.670798839425706e+17
19340.0	5.669635259804329e+17
19341.0	5.668476019889492e+17
19342.0	5.667282600591358e+17
19343.0	5.666142362271742e+17
19344.0	5.664970578591743e+17
19345.0	5.6636438426419174e+17
19346.0	5.662580562810196e+17
19347.0	5.661428843981481e+17
19348.0	5.6602477545390074e+17
19349.0	5.6590493440191136e+17
19350.0	5.657835392204798e+17
19351.0	5.656634444830036e+17
19352.0	5.655427837242026e+17
19353.0	5.654225033188692e+17
19354.0	5.653011554631679e+17
19355.0	5.651787286926677e+17
19356.0	5.650569075097599e+17
19357.0	5.6493458301037216e+17
19358.0	5.6480717620292256e+17
19359.0	5.646779725556393e+17
19360.0	5.6455642917546656e+17
19361.0	5.644306171822079e+17
19362.0	5.643047467483135e+17
19363.0	5.6417764822220794e+17
19364.0	5.64049680216883e+17
19365.0	5.639210163765247e+17
19366.0	5.6379125027307514e+17
19367.0	5.636593196291413e+17
19368.0	5.63527786115891e+17
19369.0	5.6339405310962336e+17
19370.0	5.6325338915580576e+17
19371.0	5.6312630216403616e+17
19372.0	5.629906724235945e+17
19373.0	5.6285334580756474e+17
19374.0	5.627146753365332e+17
19375.0	5.625745574111913e+17
19376.0	5.6243297812043085e+17
19377.0	5.6228810881761274e+17
19378.0	5.6213811071986336e+17
19379.0	5.6198586216830285e+17
19380.0	5.618373470366377e+17
19381.0	5.6168682975395834e+17
19382.0	5.615335285019988e+17
19383.0	5.6137851904983034e+17
19384.0	5.6122206759594656e+17
19385.0	5.610622564346538e+17
19386.0	5.608998200584874e+17
19387.0	5.6072446900087456e+17
19388.0	5.6054783889025696e+17
19389.0	5.6037631191941114e+17
19390.0	5.602013347140949e+17
19391.0	5.6000344213858976e+17
19392.0	5.59840091963392e+17
19393.0	5.5965338538693965e+17
19394.0	5.5945240790084256e+17
19395.0	5.59256390738466e+17
19396.0	5.590553576079358e+17
19397.0	5.588489303927466e+17
19398.0	5.5863055793957536e+17
19399.0	5.5840136019749536e+17
19400.0	5.58180712194594e+17
19401.0	5.5793889770646176e+17
19402.0	5.576792555388928e+17
19403.0	5.5743072911578445e+17
19404.0	5.571665179530581e+17
19405.0	5.568903431673173e+17
19406.0	5.566090944621226e+17
19407.0	5.5630607857745914e+17
19408.0	5.5597611135358285e+17
19409.0	5.556497678685524e+17
19410.0	5.5530498349684045e+17
19411.0	5.549512962954579e+17
19412.0	5.545648803807231e+17
19413.0	5.5417960755363834e+17
19414.0	5.537781197570047e+17
19415.0	5.533219508890283e+17
19416.0	5.5287107229668685e+17
19417.0	5.523766067068926e+17
19418.0	5.518673137631232e+17
19419.0	5.512951155567274e+17
19420.0	5.5070076052002125e+17
19421.0	5.5005668823094605e+17
19422.0	5.493378329695573e+17
19423.0	5.4856617309853e+17
19424.0	5.4773590153407155e+17
19425.0	5.4680564678000646e+17
19426.0	5.457608491488595e+17
19427.0	5.4478471618887686e+17
19428.0	5.4377754440062285e+17
19429.0	5.4270958603250323e+17
19430.0	5.415104970839381e+17
19431.0	5.4021141851450016e+17
19432.0	5.3877517089505274e+17
19433.0	5.371561297051646e+17
19434.0	5.3533377361346554e+17
19435.0	5.332088708399102e+17
19436.0	5.3068758068319546e+17
19437.0	5.278982509428736e+17
19438.0	5.2543156656974483e+17
19439.0	5.2276728692736006e+17
19440.0	5.1971807133040646e+17
19441.0	5.161805519257596e+17
19442.0	5.11889598648593e+17
19443.0	5.064604816244734e+17
19444.0	5.011340807984465e+17
19445.0	4.9533682139354477e+17
19446.0	4.88054317488537e+17
19447.0	4.7906305539222125e+17
19448.0	4.6880164507811866e+17
19449.0	4.540385667842049e+17
19450.0	4.2416756920156045e+17
19451.0	4.1488062426207514e+17
19452.0	4.4047347727291757e+17
19453.0	4.6234022637295e+17
19454.0	4.73989263165576e+17
19455.0	4.8306651485525325e+17
19456.0	4.9119062752843117e+17
19457.0	4.974029570047997e+17
19458.0	5.0253336939943277e+17
19459.0	5.0796594553596576e+17
19460.0	5.1257066602714445e+17
19461.0	5.162377230155777e+17
19462.0	5.192942011198122e+17
19463.0	5.2194478726840294e+17
19464.0	5.2428449398128634e+17
19465.0	5.266337096007676e+17
19466.0	5.291852227237204e+17
19467.0	5.3127384371909984e+17
19468.0	5.330232874980694e+17
19469.0	5.3451561205323085e+17
19470.0	5.3583273598648326e+17
19471.0	5.369889521576617e+17
19472.0	5.380127677830485e+17
19473.0	5.3893820146428576e+17
19474.0	5.3976840305377274e+17
19475.0	5.4051942135671443e+17
19476.0	5.413380962997587e+17
19477.0	5.421198248771583e+17
19478.0	5.427686650413055e+17
19479.0	5.433647333113856e+17
19480.0	5.438970691321856e+17
19481.0	5.443647671631871e+17
19482.0	5.447782882082815e+17
19483.0	5.4513877731246074e+17
19484.0	5.454635103245652e+17
19485.0	5.4576202565113165e+17
19486.0	5.460171578234196e+17
19487.0	5.4625505993468576e+17
19488.0	5.4647959836426234e+17
19489.0	5.4665741769987405e+17
19490.0	5.4682077745206605e+17
19491.0	5.469932326223871e+17
19492.0	5.471306217335466e+17
19493.0	5.472507194769407e+17
19494.0	5.473726883692543e+17
19495.0	5.4747149274972154e+17
19496.0	5.475592060622164e+17
19497.0	5.476239233340757e+17
19498.0	5.476866885768532e+17
19499.0	5.477021576593407e+17
19500.0	5.477690933684905e+17
19501.0	5.4781178159650125e+17
19502.0	5.478425719821653e+17
19503.0	5.478549433614336e+17
19504.0	5.478642457684649e+17
19505.0	5.4787203144526496e+17
19506.0	5.478664988087636e+17
19507.0	5.4785570232074234e+17
19508.0	5.478401889184426e+17
19509.0	5.4782458729594874e+17
19510.0	5.4780380591773005e+17
19511.0	5.477530297434111e+17
19512.0	5.4774110268074656e+17
19513.0	5.476982937965909e+17
19514.0	5.476646593931945e+17
19515.0	5.476251187806207e+17
19516.0	5.4758767762691405e+17
19517.0	5.4754624237731834e+17
19518.0	5.4750365600098976e+17
19519.0	5.474512975254868e+17
19520.0	5.4739655319005856e+17
19521.0	5.4733995441302176e+17
19522.0	5.472811358005929e+17
19523.0	5.472205873872894e+17
19524.0	5.471581616035156e+17
19525.0	5.470935730268842e+17
19526.0	5.470282322018303e+17
19527.0	5.4696104406548474e+17
19528.0	5.468968198340607e+17
19529.0	5.46828664910643e+17
19530.0	5.4675740529349965e+17
19531.0	5.466849278601897e+17
19532.0	5.466112970631849e+17
19533.0	5.465397737641301e+17
19534.0	5.464660958511103e+17
19535.0	5.463893558864554e+17
19536.0	5.463113889480703e+17
19537.0	5.4623312945698125e+17
19538.0	5.4615350304221856e+17
19539.0	5.460694221367977e+17
19540.0	5.4599253907647136e+17
19541.0	5.45910872412433e+17
19542.0	5.4582849075937274e+17
19543.0	5.457460600329557e+17
19544.0	5.4566319156101114e+17
19545.0	5.4557655681378976e+17
19546.0	5.4548729076995405e+17
19547.0	5.454085193640618e+17
19548.0	5.4532265846592845e+17
19549.0	5.452355589898239e+17
19550.0	5.451495392673792e+17
19551.0	5.450622323130367e+17
19552.0	5.4497447489044474e+17
19553.0	5.4488617654244685e+17
19554.0	5.447974624690175e+17
19555.0	5.4470880627698336e+17
19556.0	5.446210648626518e+17
19557.0	5.4453461857949005e+17
19558.0	5.4444465369470285e+17
19559.0	5.4435413432292685e+17
19560.0	5.442635650389332e+17
19561.0	5.441728883807572e+17
19562.0	5.44081710223633e+17
19563.0	5.439902016951636e+17
19564.0	5.43898587050803e+17
19565.0	5.43806657134592e+17
19566.0	5.43714352247603e+17
19567.0	5.436220184199167e+17
19568.0	5.4352947781304314e+17
19569.0	5.434366007530837e+17
19570.0	5.4334363708074656e+17
19571.0	5.4325041448004256e+17
19572.0	5.4315678482213536e+17
19573.0	5.430633569102505e+17
19574.0	5.4296899940078925e+17
19575.0	5.4287583656891725e+17
19576.0	5.4278181012985165e+17
19577.0	5.4268839501059405e+17
19578.0	5.425954058229077e+17
19579.0	5.425010270623059e+17
19580.0	5.424064555035305e+17
19581.0	5.4231173315952634e+17
19582.0	5.4221699257029965e+17
19583.0	5.421219988548266e+17
19584.0	5.4202690608387405e+17
19585.0	5.4193088804945914e+17
19586.0	5.418352779810132e+17
19587.0	5.417406421095764e+17
19588.0	5.416419383924051e+17
19589.0	5.4154958596997114e+17
19590.0	5.4145363126954656e+17
19591.0	5.4135842063865165e+17
19592.0	5.412625533894655e+17
19593.0	5.4116664433704954e+17
19594.0	5.410688572850175e+17
19595.0	5.409745322115071e+17
19596.0	5.4087371127958176e+17
19597.0	5.40782175068706e+17
19598.0	5.406840938561536e+17
19599.0	5.405895806681088e+17
19600.0	5.4049317815582714e+17
19601.0	5.4039624457475405e+17
19602.0	5.4029992196396365e+17
19603.0	5.4020063817454925e+17
19604.0	5.401067051286528e+17
19605.0	5.4000821294421325e+17
19606.0	5.399135486913193e+17
19607.0	5.3981694687969274e+17
19608.0	5.3972012703416314e+17
19609.0	5.396231486439423e+17
19610.0	5.395264684687358e+17
19611.0	5.3942953055354874e+17
19612.0	5.3933263164538874e+17
19613.0	5.392356203298815e+17
19614.0	5.3913835085496314e+17
19615.0	5.390416293658623e+17
19616.0	5.3894440994297165e+17
19617.0	5.388474777599998e+17
19618.0	5.3874691351947936e+17
19619.0	5.386483822581077e+17
19620.0	5.385516047051434e+17
19621.0	5.3845888744816634e+17
19622.0	5.383616833344853e+17
19623.0	5.382644579696639e+17
19624.0	5.3816721498876576e+17
19625.0	5.380699457934677e+17
19626.0	5.379726755495935e+17
19627.0	5.37875380769041e+17
19628.0	5.3777761902264314e+17
19629.0	5.3768013291192314e+17
19630.0	5.375831696211967e+17
19631.0	5.374641922463059e+17
19632.0	5.3738870008709114e+17
19633.0	5.372913275021994e+17
19634.0	5.3719396120876365e+17
19635.0	5.3709627258306554e+17
19636.0	5.369991860497065e+17
19637.0	5.368988896154964e+17
19638.0	5.368043158896639e+17
19639.0	5.367068757764778e+17
19640.0	5.3660919616853325e+17
19641.0	5.365078194913279e+17
19642.0	5.3641468902550176e+17
19643.0	5.3631709952518816e+17
19644.0	5.362193808403115e+17
19645.0	5.361205370333866e+17
19646.0	5.3602495338905574e+17
19647.0	5.3592751628178765e+17
19648.0	5.358300756093609e+17
19649.0	5.357326195578196e+17
19650.0	5.3563520153463456e+17
19651.0	5.355377656856575e+17
19652.0	5.3544032983668045e+17
19653.0	5.35342884131089e+17
19654.0	5.352454671564799e+17
19655.0	5.3514801047579296e+17
19656.0	5.350505635818153e+17
19657.0	5.3495318945901216e+17
19658.0	5.3485578108272634e+17
19659.0	5.3475835432140794e+17
