# Flux units: erg / (cm m2 s)
# Wavelength units: Angstrom
wave	flux
19000.0	5.772456163104084e+17
19001.0	5.771226170873174e+17
19002.0	5.770324835915092e+17
19003.0	5.769234098771284e+17
19004.0	5.768166807786836e+17
19005.0	5.767088769597439e+17
19006.0	5.766037382015657e+17
19007.0	5.764933723619327e+17
19008.0	5.763861595903316e+17
19009.0	5.762700370684585e+17
19010.0	5.761172092136105e+17
19011.0	5.760636314539347e+17
19012.0	5.757785698467836e+17
19013.0	5.7586195184134816e+17
19014.0	5.7575075266341536e+17
19015.0	5.75645804466449e+17
19016.0	5.755383147309737e+17
19017.0	5.754382995248468e+17
19018.0	5.7532524485672954e+17
19019.0	5.7522596239551136e+17
19020.0	5.7511917898082976e+17
19021.0	5.7501543727540896e+17
19022.0	5.749084126882473e+17
19023.0	5.7479455054670496e+17
19024.0	5.7468367726619296e+17
19025.0	5.7457299412746234e+17
19026.0	5.744570437817684e+17
19027.0	5.742165291084455e+17
19028.0	5.7426992965877754e+17
19029.0	5.741616321702569e+17
19030.0	5.7406003172693325e+17
19031.0	5.7395474917403296e+17
19032.0	5.7384527266665805e+17
19033.0	5.7372398667694054e+17
19034.0	5.7361353981733536e+17
19035.0	5.7338421002458445e+17
19036.0	5.631788376391644e+17
19037.0	5.732087973107028e+17
19038.0	5.731911632683007e+17
19039.0	5.731010428447402e+17
19040.0	5.729994286301183e+17
19041.0	5.7289414978218656e+17
19042.0	5.725098188559697e+17
19043.0	5.7268889054085114e+17
19044.0	5.725804944861866e+17
19045.0	5.724694086243668e+17
19046.0	5.7236416941260794e+17
19047.0	5.7226323530437965e+17
19048.0	5.720882515978921e+17
19049.0	5.7148453459503725e+17
19050.0	5.719211452137471e+17
19051.0	5.7023475685348474e+17
19052.0	5.713919867879424e+17
19053.0	5.716209872579242e+17
19054.0	5.715263128687956e+17
19055.0	5.7131306634444794e+17
19056.0	5.712883604258815e+17
19057.0	5.712131051749375e+17
19058.0	5.708190371020794e+17
19059.0	5.708951730869588e+17
19060.0	5.7089454219373216e+17
19061.0	5.707928694685696e+17
19062.0	5.706883992125439e+17
19063.0	5.7058343507722234e+17
19064.0	5.704619581767679e+17
19065.0	5.7035109062847136e+17
19066.0	5.701584188429654e+17
19067.0	5.701613258451626e+17
19068.0	5.700585277882367e+17
19069.0	5.69953230135842e+17
19070.0	5.698447478882303e+17
19071.0	5.6973573799717536e+17
19072.0	5.69530825974306e+17
19073.0	5.695332047039145e+17
19074.0	5.6942889788593485e+17
19075.0	5.693239627612158e+17
19076.0	5.692165348917247e+17
19077.0	5.691109684543487e+17
19078.0	5.690027671551999e+17
19079.0	5.689039926241963e+17
19080.0	5.68797515813137e+17
19081.0	5.6868780498397856e+17
19082.0	5.685842223824894e+17
19083.0	5.684711856799743e+17
19084.0	5.6835079300710394e+17
19085.0	5.682687025785513e+17
19086.0	5.679510068396031e+17
19087.0	5.6759108725200186e+17
19088.0	5.677487461761021e+17
19089.0	5.677012640683349e+17
19090.0	5.6772612951026336e+17
19091.0	5.67611139100945e+17
19092.0	5.672570711266649e+17
19093.0	5.674329056477183e+17
19094.0	5.673329061003263e+17
19095.0	5.672292955368107e+17
19096.0	5.671230461269332e+17
19097.0	5.670204939960319e+17
19098.0	5.6679705069922976e+17
19099.0	5.6666910331589984e+17
19100.0	5.66687969784627e+17
19101.0	5.665952804896767e+17
19102.0	5.664822848913407e+17
19103.0	5.663935466307583e+17
19104.0	5.6628925036844365e+17
19105.0	5.659225194408624e+17
19106.0	5.660311071053141e+17
19107.0	5.658999650604372e+17
19108.0	5.65754539732719e+17
19109.0	5.65126578883788e+17
19110.0	5.655848244215807e+17
19111.0	5.6547421601136614e+17
19112.0	5.6536403996398906e+17
19113.0	5.653501549303124e+17
19114.0	5.651951288407379e+17
19115.0	5.6510226485302605e+17
19116.0	5.6503599848488954e+17
19117.0	5.649275051223722e+17
19118.0	5.6477529641669965e+17
19119.0	5.6368410118498816e+17
19120.0	5.645255938408447e+17
19121.0	5.644500538665641e+17
19122.0	5.644153741028009e+17
19123.0	5.643125123623594e+17
19124.0	5.6415337375771296e+17
19125.0	5.6410154453346963e+17
19126.0	5.6399703107611296e+17
19127.0	5.6366394273082016e+17
19128.0	5.637428191341225e+17
19129.0	5.636789082172074e+17
19130.0	5.635843860114089e+17
19131.0	5.634809544048639e+17
19132.0	5.633784570795347e+17
19133.0	5.632629500717737e+17
19134.0	5.6314904710567245e+17
19135.0	5.6306438452019194e+17
19136.0	5.6296397099499514e+17
19137.0	5.6283974871285754e+17
19138.0	5.62754176103219e+17
19139.0	5.6265349924563616e+17
19140.0	5.6255026057707514e+17
19141.0	5.6244648398902605e+17
19142.0	5.623370779459583e+17
19143.0	5.622292339316053e+17
19144.0	5.6212760168147616e+17
19145.0	5.620284509214037e+17
19146.0	5.61842538606319e+17
19147.0	5.618102865057109e+17
19148.0	5.616217510729046e+17
19149.0	5.6150346715627514e+17
19150.0	5.61510950703377e+17
19151.0	5.614075105684138e+17
19152.0	5.612927845400575e+17
19153.0	5.6100739081393466e+17
19154.0	5.6106043673586336e+17
19155.0	5.60987796353843e+17
19156.0	5.608825838458195e+17
19157.0	5.606705122858326e+17
19158.0	5.6015429237910176e+17
19159.0	5.60547516068659e+17
19160.0	5.604550031441919e+17
19161.0	5.6033875800883194e+17
19162.0	5.5927730276925504e+17
19163.0	5.600494665859071e+17
19164.0	5.6004853489117856e+17
19165.0	5.597251362968914e+17
19166.0	5.59809971687697e+17
19167.0	5.5965593678206285e+17
19168.0	5.5963802843217914e+17
19169.0	5.595291436711936e+17
19170.0	5.594398420456788e+17
19171.0	5.5928389334903456e+17
19172.0	5.5922321477249696e+17
19173.0	5.591325605538473e+17
19174.0	5.59028064293137e+17
19175.0	5.5893203339618976e+17
19176.0	5.588293977986388e+17
19177.0	5.587039288295423e+17
19178.0	5.585801292633428e+17
19179.0	5.5843722114717005e+17
19180.0	5.58411404157474e+17
19181.0	5.582961812439039e+17
19182.0	5.5820667885103776e+17
19183.0	5.5811081306985805e+17
19184.0	5.580081561512617e+17
19185.0	5.5790363458491725e+17
19186.0	5.5780261379440634e+17
19187.0	5.5768819709597e+17
19188.0	5.5759412570794656e+17
19189.0	5.57490102285107e+17
19190.0	5.573806572350121e+17
19191.0	5.572693469779283e+17
19192.0	5.571790290026496e+17
19193.0	5.5704615100525216e+17
19194.0	5.569233536679935e+17
19195.0	5.5685459616290125e+17
19196.0	5.5673121763491834e+17
19197.0	5.565834753037653e+17
19198.0	5.5628048395578003e+17
19199.0	5.5019785186617875e+17
19200.0	5.515340366741522e+17
19201.0	5.560031268656468e+17
19202.0	5.560788850835456e+17
19203.0	5.55997744734754e+17
19204.0	5.559281752124074e+17
19205.0	5.5584053236421965e+17
19206.0	5.5574283807621114e+17
19207.0	5.5563044002638496e+17
19208.0	5.5551380558970854e+17
19209.0	5.5544303342059514e+17
19210.0	5.5534091155537914e+17
19211.0	5.55241559888145e+17
19212.0	5.5513695366676474e+17
19213.0	5.549723269551444e+17
19214.0	5.548414828456618e+17
19215.0	5.5480257501375136e+17
19216.0	5.5473089792354976e+17
19217.0	5.546274898051071e+17
19218.0	5.544207182375593e+17
19219.0	5.54405216789026e+17
19220.0	5.543175427631786e+17
19221.0	5.5418385603406496e+17
19222.0	5.541181004622505e+17
19223.0	5.5401790601953274e+17
19224.0	5.539127260872703e+17
19225.0	5.537985153990655e+17
19226.0	5.5371239543275514e+17
19227.0	5.5361074451797325e+17
19228.0	5.535121457982122e+17
19229.0	5.5341016423246496e+17
19230.0	5.5330580407691936e+17
19231.0	5.532037180730025e+17
19232.0	5.531025943822336e+17
19233.0	5.5299207391259296e+17
19234.0	5.528983212217683e+17
19235.0	5.527949788140885e+17
19236.0	5.5269745069042336e+17
19237.0	5.525935245754367e+17
19238.0	5.524724213175636e+17
19239.0	5.523919638014634e+17
19240.0	5.5229027996139514e+17
19241.0	5.5218560180770125e+17
19242.0	5.520850584687957e+17
19243.0	5.5196515401291085e+17
19244.0	5.518843666847059e+17
19245.0	5.5178192206779725e+17
19246.0	5.5167891457529165e+17
19247.0	5.5157814229729274e+17
19248.0	5.514753742296404e+17
19249.0	5.5136418840357536e+17
19250.0	5.5122986630731085e+17
19251.0	5.511173880763732e+17
19252.0	5.510341414180181e+17
19253.0	5.509663178446165e+17
19254.0	5.508672033652735e+17
19255.0	5.507418604350122e+17
19256.0	5.5066098481670816e+17
19257.0	5.505630732637524e+17
19258.0	5.504615588036607e+17
19259.0	5.5034812776666445e+17
19260.0	5.500046316754257e+17
19261.0	5.501535686841685e+17
19262.0	5.5004400430612474e+17
19263.0	5.4994069384506016e+17
19264.0	5.497792482334036e+17
19265.0	5.4972302477666976e+17
19266.0	5.4961031550948685e+17
19267.0	5.4954813816832e+17
19268.0	5.4944571347435514e+17
19269.0	5.4934499054933325e+17
19270.0	5.4924255341226656e+17
19271.0	5.490970519579307e+17
19272.0	5.4903575500117325e+17
19273.0	5.488941163610111e+17
19274.0	5.487780863934462e+17
19275.0	5.4873647973662714e+17
19276.0	5.4863242660413434e+17
19277.0	5.485316336342357e+17
19278.0	5.4842401806964045e+17
19279.0	5.4832170074985805e+17
19280.0	5.482159428425045e+17
19281.0	5.481219807161002e+17
19282.0	5.4801702280232954e+17
19283.0	5.4784436924142925e+17
19284.0	5.4778950711596365e+17
19285.0	5.476914147186004e+17
19286.0	5.476013603553278e+17
19287.0	5.4747935783867725e+17
19288.0	5.445244557109908e+17
19289.0	5.404488325485798e+17
19290.0	5.4716235234235725e+17
19291.0	5.470608338277718e+17
19292.0	5.4700015161617043e+17
19293.0	5.4690084573675514e+17
19294.0	5.4679766180386125e+17
19295.0	5.4670089655418874e+17
19296.0	5.464736171469485e+17
19297.0	5.4646609368405344e+17
19298.0	5.4639292887422285e+17
19299.0	5.4615128453502304e+17
19300.0	5.461896315884885e+17
19301.0	5.4609137463459834e+17
19302.0	5.459884420803241e+17
19303.0	5.4587451562612045e+17
19304.0	5.4578201123007136e+17
19305.0	5.456808448273066e+17
19306.0	5.455744972008105e+17
19307.0	5.4546042653245434e+17
19308.0	5.4535645889385805e+17
19309.0	5.4503541672946323e+17
19310.0	5.448561576990033e+17
19311.0	5.450155422995796e+17
19312.0	5.4494829502354765e+17
19313.0	5.4481400033006925e+17
19314.0	5.2985950707384576e+17
19315.0	5.3096372687778464e+17
19316.0	5.44307524979917e+17
19317.0	5.444383135148715e+17
19318.0	5.443475041768788e+17
19319.0	5.4425183503865165e+17
19320.0	5.440975912566783e+17
19321.0	5.439346640071338e+17
19322.0	5.4391330297610234e+17
19323.0	5.4375522014767776e+17
19324.0	5.437075056055636e+17
19325.0	5.434258383088299e+17
19326.0	5.435074744243541e+17
19327.0	5.4342105966837754e+17
19328.0	5.4309586765960544e+17
19329.0	5.4322459147851085e+17
19330.0	5.431167209002324e+17
19331.0	5.4301293487499936e+17
19332.0	5.4291375566356474e+17
19333.0	5.428064340497749e+17
19334.0	5.427025080046933e+17
19335.0	5.4214133962943194e+17
19336.0	5.424931531653119e+17
19337.0	5.423987219759103e+17
19338.0	5.4226784759753376e+17
19339.0	5.4218847990142285e+17
19340.0	5.420626246369279e+17
19341.0	5.418057042930349e+17
19342.0	5.417504173544789e+17
19343.0	5.4175950410437965e+17
19344.0	5.4148567309571437e+17
19345.0	5.411997211776337e+17
19346.0	5.4132280876072934e+17
19347.0	5.4111337765492045e+17
19348.0	5.4123544168802976e+17
19349.0	5.411225152258047e+17
19350.0	5.4093482690259616e+17
19351.0	5.4091105281856845e+17
19352.0	5.40568776500838e+17
19353.0	5.407014393304403e+17
19354.0	5.4059463571319456e+17
19355.0	5.404748323400362e+17
19356.0	5.4037928630463136e+17
19357.0	5.402731540556458e+17
19358.0	5.401612652642302e+17
19359.0	5.399968610604371e+17
19360.0	5.397642350340777e+17
19361.0	5.398335600984062e+17
19362.0	5.397309207958868e+17
19363.0	5.396219160079018e+17
19364.0	5.395114337763326e+17
19365.0	5.3940077356646394e+17
19366.0	5.392910067433471e+17
19367.0	5.3917797108940794e+17
19368.0	5.390684074803199e+17
19369.0	5.389442080571392e+17
19370.0	5.388309098397694e+17
19371.0	5.38716067139857e+17
19372.0	5.3860828827702605e+17
19373.0	5.3849031984196256e+17
19374.0	5.383791518416894e+17
19375.0	5.382622831531347e+17
19376.0	5.381476497489919e+17
19377.0	5.3802891927879654e+17
19378.0	5.3791123885260794e+17
19379.0	5.3779257164649805e+17
19380.0	5.376716191738538e+17
19381.0	5.3755115974164474e+17
19382.0	5.374197096950442e+17
19383.0	5.372810980840788e+17
19384.0	5.371671674355711e+17
19385.0	5.370441251509587e+17
19386.0	5.369172125723306e+17
19387.0	5.367861310652415e+17
19388.0	5.3665368948517536e+17
19389.0	5.365094056372905e+17
19390.0	5.36312577855761e+17
19391.0	5.268633975870674e+17
19392.0	5.3576759816574214e+17
19393.0	5.3593728628381005e+17
19394.0	5.3580761832707405e+17
19395.0	5.355788781835606e+17
19396.0	5.3547356403357005e+17
19397.0	5.3536213312034125e+17
19398.0	5.351389317649749e+17
19399.0	5.348508977943892e+17
19400.0	5.3480033427128314e+17
19401.0	5.3470449246754125e+17
19402.0	5.344967787195049e+17
19403.0	5.3432433787972256e+17
19404.0	5.3411497101666976e+17
19405.0	5.339062733548202e+17
19406.0	5.336643340162388e+17
19407.0	5.333774239094099e+17
19408.0	5.331114186331478e+17
19409.0	5.3301462744869536e+17
19410.0	5.3281706685235194e+17
19411.0	5.3261084480853325e+17
19412.0	5.323756493515434e+17
19413.0	5.32065678402082e+17
19414.0	5.319082553376767e+17
19415.0	5.3166611753861114e+17
19416.0	5.313093924028415e+17
19417.0	5.309900378865662e+17
19418.0	5.3082900331670176e+17
19419.0	5.304868991751509e+17
19420.0	5.301807175696381e+17
19421.0	5.297788156553898e+17
19422.0	5.293910822398634e+17
19423.0	5.289610870172329e+17
19424.0	5.284339071844352e+17
19425.0	5.2786540422976845e+17
19426.0	5.271990045420202e+17
19427.0	5.264202777580885e+17
19428.0	5.2547228969642675e+17
19429.0	5.247322699071488e+17
19430.0	5.238696727019525e+17
19431.0	5.217140327404908e+17
19432.0	5.227835323755177e+17
19433.0	5.2200814565567123e+17
19434.0	5.2110324043612154e+17
19435.0	5.197185468945746e+17
19436.0	5.1779140052145363e+17
19437.0	5.167290569981954e+17
19438.0	4.984451411651267e+17
19439.0	5.1030638562290534e+17
19440.0	5.0799261229165203e+17
19441.0	5.06116736042052e+17
19442.0	5.038924534295215e+17
19443.0	5.010647765658279e+17
19444.0	4.9699856786827834e+17
19445.0	4.905140224000009e+17
19446.0	4.825074664210428e+17
19447.0	4.7599901307043795e+17
19448.0	4.671595692599984e+17
19449.0	4.520516347319635e+17
19450.0	4.175351506796574e+17
19451.0	3.94154445740447e+17
19452.0	4.387549401317391e+17
19453.0	4.6070341398691885e+17
19454.0	4.716701321003005e+17
19455.0	4.7880591407841274e+17
19456.0	4.8553581472645114e+17
19457.0	4.9309404805201875e+17
19458.0	4.633422189647767e+17
19459.0	4.9991125320773184e+17
19460.0	5.034119088046078e+17
19461.0	5.053590196453375e+17
19462.0	5.074673622581257e+17
19463.0	5.107910562545654e+17
19464.0	5.13425685103684e+17
19465.0	5.152751545046359e+17
19466.0	5.1663635616890874e+17
19467.0	5.1764374291524243e+17
19468.0	5.184251233654101e+17
19469.0	5.189090852296016e+17
19470.0	5.1959613997711366e+17
19471.0	5.201159602743978e+17
19472.0	5.2051192829706234e+17
19473.0	5.209516833854803e+17
19474.0	5.2146448374606464e+17
19475.0	5.221572129674579e+17
19476.0	5.227978520089941e+17
19477.0	5.2323486073705824e+17
19478.0	5.235810171355133e+17
19479.0	5.236719088915792e+17
19480.0	5.2407628334803616e+17
19481.0	5.2424536797566285e+17
19482.0	5.244182625692329e+17
19483.0	5.245447455113215e+17
19484.0	5.2466689231202976e+17
19485.0	5.2473572195915085e+17
19486.0	5.246610273468419e+17
19487.0	5.2489619777781754e+17
19488.0	5.249405979110057e+17
19489.0	5.249553808053589e+17
19490.0	5.248157952070993e+17
19491.0	5.250334177886207e+17
19492.0	5.2505003652983456e+17
19493.0	5.250537020719104e+17
19494.0	5.250712806795945e+17
19495.0	5.2508366422234445e+17
19496.0	5.250585048296104e+17
19497.0	5.250894675312639e+17
19498.0	5.238906884019548e+17
19499.0	5.1084145445218125e+17
19500.0	5.2505974396682234e+17
19501.0	5.251250351592789e+17
19502.0	5.2509936608870394e+17
19503.0	5.2509155196054176e+17
19504.0	5.250670841386325e+17
19505.0	5.250178324540073e+17
19506.0	5.2497407460857165e+17
19507.0	5.24938241061683e+17
19508.0	5.2489085213736954e+17
19509.0	5.2481753898898765e+17
19510.0	5.246135443303081e+17
19511.0	4.9739024896271e+17
19512.0	5.2216198720388646e+17
19513.0	5.203212541187347e+17
19514.0	5.21368855502298e+17
19515.0	5.2430717181405875e+17
19516.0	5.243939087624873e+17
19517.0	5.243492230671017e+17
19518.0	5.242458411630591e+17
19519.0	5.24167358325282e+17
19520.0	5.2399248856405306e+17
19521.0	5.2409834077334176e+17
19522.0	5.239952887513086e+17
19523.0	5.2390394526870195e+17
19524.0	5.237488654221314e+17
19525.0	5.2379586965886285e+17
19526.0	5.237254895872681e+17
19527.0	5.236470739981653e+17
19528.0	5.235555478536191e+17
19529.0	5.234681083592703e+17
19530.0	5.2341193879934285e+17
19531.0	5.233319103605417e+17
19532.0	5.232513001018708e+17
19533.0	5.2317194435952634e+17
19534.0	5.23094653473041e+17
19535.0	5.2301015131968845e+17
19536.0	5.2292470796451834e+17
19537.0	5.228439605521065e+17
19538.0	5.2258813240497504e+17
19539.0	5.226037839396865e+17
19540.0	5.2259061368531616e+17
19541.0	5.2247117605546656e+17
19542.0	5.2240740390010874e+17
19543.0	5.2216860092224864e+17
19544.0	5.2224125144050336e+17
19545.0	5.2209804489960083e+17
19546.0	5.21959230214417e+17
19547.0	5.2199544075933e+17
19548.0	5.2190930716153165e+17
19549.0	5.218100925781332e+17
19550.0	5.217359446933503e+17
19551.0	5.216517759172606e+17
19552.0	5.215667470991359e+17
19553.0	5.2147598634516474e+17
19554.0	5.21387781460241e+17
19555.0	5.212832707990869e+17
19556.0	5.2120162762315085e+17
19557.0	5.211255295268181e+17
19558.0	5.2103840523441485e+17
19559.0	5.209510826213375e+17
19560.0	5.207976960851967e+17
19561.0	5.207696340942847e+17
19562.0	5.2062193838981114e+17
19563.0	5.205956677162325e+17
19564.0	5.2051356183866003e+17
19565.0	5.204239549377195e+17
19566.0	5.20330297877026e+17
19567.0	5.202442687873023e+17
19568.0	5.2015146764424525e+17
19569.0	5.200620980011007e+17
19570.0	5.199755928578729e+17
19571.0	5.198857377939455e+17
19572.0	5.1979258202248525e+17
19573.0	5.196828937726633e+17
19574.0	5.195965964571988e+17
19575.0	5.1952600946660685e+17
19576.0	5.194233387767124e+17
19577.0	5.1930974695806285e+17
19578.0	5.192481015944532e+17
19579.0	5.191593459275094e+17
19580.0	5.1906842984448e+17
19581.0	5.189791432485546e+17
19582.0	5.1889045287294285e+17
19583.0	5.18799376847121e+17
19584.0	5.1870381522288634e+17
19585.0	5.186013185267027e+17
19586.0	5.1850534886659405e+17
19587.0	5.184023255056383e+17
19588.0	5.182850274601642e+17
19589.0	5.182535947168426e+17
19590.0	5.1814489981801805e+17
19591.0	5.180733568057343e+17
19592.0	5.179834957998762e+17
19593.0	5.178731672196436e+17
19594.0	5.1775168913080314e+17
19595.0	5.177059986199893e+17
19596.0	5.175206053500246e+17
19597.0	5.17523759047202e+17
19598.0	5.17368409506884e+17
19599.0	5.173420496344405e+17
19600.0	5.1725191033651194e+17
19601.0	5.1715104634306554e+17
19602.0	5.170576509370367e+17
19603.0	5.168241246732286e+17
19604.0	5.1685884700917754e+17
19605.0	5.1675294146232314e+17
19606.0	5.1670056802713594e+17
19607.0	5.16610351833634e+17
19608.0	5.165164610103978e+17
19609.0	5.164200760442879e+17
19610.0	5.16253148826829e+17
19611.0	5.16125306720529e+17
19612.0	5.161516516332885e+17
19613.0	5.1605839030517754e+17
19614.0	5.159625691234304e+17
19615.0	5.1587220829634554e+17
19616.0	5.156141429773653e+17
19617.0	5.155715906448043e+17
19618.0	5.15511794479923e+17
19619.0	5.153862532988925e+17
19620.0	5.152782183038973e+17
19621.0	5.151555619651583e+17
19622.0	5.152311978491904e+17
19623.0	5.151290113916928e+17
19624.0	5.1501795020636154e+17
19625.0	5.149520076384938e+17
19626.0	5.148561975017472e+17
19627.0	5.1475073375491405e+17
19628.0	5.144963172007939e+17
19629.0	5.140964526697128e+17
19630.0	5.1357967506036045e+17
19631.0	5.078689173733378e+17
19632.0	5.141718554902527e+17
19633.0	5.141602152480768e+17
19634.0	5.1411372152804685e+17
19635.0	5.1400315764735974e+17
19636.0	5.137532594072232e+17
19637.0	5.136286627135485e+17
19638.0	5.1374399251196576e+17
19639.0	5.136678095508821e+17
19640.0	5.135653640252074e+17
19641.0	5.1332201700829914e+17
19642.0	5.133809723550378e+17
19643.0	5.1328756010188794e+17
19644.0	5.132040356407978e+17
19645.0	5.130851158676819e+17
19646.0	5.1282867835808384e+17
19647.0	5.129344280166398e+17
19648.0	5.1284676007253325e+17
19649.0	5.1275596520488954e+17
19650.0	5.126676344209407e+17
19651.0	5.1257540041768954e+17
19652.0	5.124835774562303e+17
19653.0	5.123884667196756e+17
19654.0	5.1230030447684256e+17
19655.0	5.122081813430271e+17
19656.0	5.121171852886016e+17
