# Flux units: erg / (cm m2 s)
# Wavelength units: Angstrom
wave	flux
19000.0	8.247068685150889e+17
19001.0	8.245561448027475e+17
19002.0	8.244119486857216e+17
19003.0	8.242641664387752e+17
19004.0	8.241162461992275e+17
19005.0	8.239683158933503e+17
19006.0	8.238201364458152e+17
19007.0	8.236638355674451e+17
19008.0	8.235213103213226e+17
19009.0	8.23372121584435e+17
19010.0	8.232117664918188e+17
19011.0	8.23075498168593e+17
19012.0	8.229121908452008e+17
19013.0	8.227789840842752e+17
19014.0	8.22627845275648e+17
19015.0	8.224803114713085e+17
19016.0	8.223289319096319e+17
19017.0	8.221795983294464e+17
19018.0	8.220305025662973e+17
19019.0	8.218813845733373e+17
19020.0	8.217299819429885e+17
19021.0	8.215809121845248e+17
19022.0	8.214312313159679e+17
19023.0	8.212808911028224e+17
19024.0	8.211301230706685e+17
19025.0	8.209790274633725e+17
19026.0	8.208267497613994e+17
19027.0	8.206636574659922e+17
19028.0	8.205275370618876e+17
19029.0	8.203766239068156e+17
19030.0	8.202255647899645e+17
19031.0	8.200743953629181e+17
19032.0	8.199231080759293e+17
19033.0	8.19768658703155e+17
19034.0	8.196199915978748e+17
19035.0	8.194650702260906e+17
19036.0	8.183796907464019e+17
19037.0	8.191636630667264e+17
19038.0	8.190133631188991e+17
19039.0	8.188616941502464e+17
19040.0	8.187097949143041e+17
19041.0	8.185577541905066e+17
19042.0	8.184029217379667e+17
19043.0	8.18253497840435e+17
19044.0	8.181011358329514e+17
19045.0	8.179488245765458e+17
19046.0	8.177947486366378e+17
19047.0	8.176433246153385e+17
19048.0	8.17484819350596e+17
19049.0	8.173362186551296e+17
19050.0	8.171839903061331e+17
19051.0	8.168838506654376e+17
19052.0	8.168530606992042e+17
19053.0	8.167248918566228e+17
19054.0	8.165740532203519e+17
19055.0	8.16412425156471e+17
19056.0	8.162678992273404e+17
19057.0	8.161146785060179e+17
19058.0	8.159600025010175e+17
19059.0	8.158079696065875e+17
19060.0	8.15653828654967e+17
19061.0	8.155011144657577e+17
19062.0	8.153474139160573e+17
19063.0	8.151938580698454e+17
19064.0	8.150364347957245e+17
19065.0	8.148802677156522e+17
19066.0	8.147304919160147e+17
19067.0	8.145788126014121e+17
19068.0	8.144249396658173e+17
19069.0	8.142709975242067e+17
19070.0	8.141166296607402e+17
19071.0	8.139628775211008e+17
19072.0	8.138087315363155e+17
19073.0	8.13654353187089e+17
19074.0	8.135002738917375e+17
19075.0	8.13345960554223e+17
19076.0	8.131909097182548e+17
19077.0	8.130367772950527e+17
19078.0	8.128817489685161e+17
19079.0	8.127281446081878e+17
19080.0	8.125733018096979e+17
19081.0	8.124174607668564e+17
19082.0	8.12262729257233e+17
19083.0	8.121056799752191e+17
19084.0	8.119458460947795e+17
19085.0	8.117993895275178e+17
19086.0	8.116289910341631e+17
19087.0	8.114636823287123e+17
19088.0	8.113270882478762e+17
19089.0	8.111593903270569e+17
19090.0	8.110226052655786e+17
19091.0	8.108676883677181e+17
19092.0	8.107062277963775e+17
19093.0	8.105586864422911e+17
19094.0	8.104022881162579e+17
19095.0	8.102467208216573e+17
19096.0	8.100926307609257e+17
19097.0	8.099377622373715e+17
19098.0	8.097824429659475e+17
19099.0	8.096269030741331e+17
19100.0	8.094698024818003e+17
19101.0	8.0931566139037e+17
19102.0	8.091573310281042e+17
19103.0	8.09004316946159e+17
19104.0	8.088484803772415e+17
19105.0	8.086923141360297e+17
19106.0	8.085318473351167e+17
19107.0	8.08379699516757e+17
19108.0	8.082235008395945e+17
19109.0	8.079754793407827e+17
19110.0	8.079058551526739e+17
19111.0	8.077562699142482e+17
19112.0	8.076005140157782e+17
19113.0	8.074444257886208e+17
19114.0	8.072881966328489e+17
19115.0	8.071291788241577e+17
19116.0	8.069754991061673e+17
19117.0	8.068179870526122e+17
19118.0	8.066555293554004e+17
19119.0	8.06430316901171e+17
19120.0	8.0634132327738e+17
19121.0	8.0618696226461e+17
19122.0	8.060364713361407e+17
19123.0	8.058796826602153e+17
19124.0	8.057172685837651e+17
19125.0	8.05565447222067e+17
19126.0	8.054088821025449e+17
19127.0	8.051983397857961e+17
19128.0	8.05048071435059e+17
19129.0	8.0493550778013e+17
19130.0	8.047812089828692e+17
19131.0	8.046234005318314e+17
19132.0	8.04467033243648e+17
19133.0	8.042960271354537e+17
19134.0	8.041315512789673e+17
19135.0	8.039952137497258e+17
19136.0	8.038380780650496e+17
19137.0	8.036754109322582e+17
19138.0	8.035212519451305e+17
19139.0	8.033654638903292e+17
19140.0	8.032081380638719e+17
19141.0	8.030505442213888e+17
19142.0	8.028928079123795e+17
19143.0	8.027334632275967e+17
19144.0	8.025769547311785e+17
19145.0	8.024190066098175e+17
19146.0	8.02240788815326e+17
19147.0	8.021005366023506e+17
19148.0	8.019447552584361e+17
19149.0	8.017867422651731e+17
19150.0	8.01628654613299e+17
19151.0	8.014706663664297e+17
19152.0	8.013112064780969e+17
19153.0	8.011539049786022e+17
19154.0	8.009912202297343e+17
19155.0	8.008365481394175e+17
19156.0	8.00677147390771e+17
19157.0	8.005132061682345e+17
19158.0	8.003025712971773e+17
19159.0	8.001977738155347e+17
19160.0	8.000404967828138e+17
19161.0	7.998771416443561e+17
19162.0	7.995804558731945e+17
19163.0	7.995558855005523e+17
19164.0	7.994058015593812e+17
19165.0	7.992449185437012e+17
19166.0	7.990819140490582e+17
19167.0	7.989147373404157e+17
19168.0	7.987665268550313e+17
19169.0	7.986066669699071e+17
19170.0	7.984494535507967e+17
19171.0	7.982836736851965e+17
19172.0	7.981295426600957e+17
19173.0	7.979703176527872e+17
19174.0	7.978090416308221e+17
19175.0	7.976507347566591e+17
19176.0	7.974904779505661e+17
19177.0	7.97324869632e+17
19178.0	7.971652984548008e+17
19179.0	7.969997906597203e+17
19180.0	7.968453428248573e+17
19181.0	7.966845917899434e+17
19182.0	7.965263135768577e+17
19183.0	7.963662800475475e+17
19184.0	7.962041065843369e+17
19185.0	7.96044315066368e+17
19186.0	7.958833457878355e+17
19187.0	7.9571969914525e+17
19188.0	7.955600549871615e+17
19189.0	7.953968209242792e+17
19190.0	7.952343772080809e+17
19191.0	7.950248282423293e+17
19192.0	7.948392333661523e+17
19193.0	7.946746694292822e+17
19194.0	7.945136039613782e+17
19195.0	7.943515767395667e+17
19196.0	7.941875383489875e+17
19197.0	7.940208820136617e+17
19198.0	7.938402930393088e+17
19199.0	7.928415129348776e+17
19200.0	7.929026470128302e+17
19201.0	7.93354882322705e+17
19202.0	7.932078075150333e+17
19203.0	7.930466517297833e+17
19204.0	7.928861481588054e+17
19205.0	7.927242492826964e+17
19206.0	7.92560669888785e+17
19207.0	7.923954463277053e+17
19208.0	7.922278732573353e+17
19209.0	7.920698939583145e+17
19210.0	7.919056940870314e+17
19211.0	7.917412260599126e+17
19212.0	7.915738315270825e+17
19213.0	7.913923533602815e+17
19214.0	7.912227868770301e+17
19215.0	7.910673620489556e+17
19216.0	7.909056843524778e+17
19217.0	7.907405589381119e+17
19218.0	7.905490257663315e+17
19219.0	7.904034990762664e+17
19220.0	7.90242458075136e+17
19221.0	7.900669801398271e+17
19222.0	7.899104155795456e+17
19223.0	7.897440669663232e+17
19224.0	7.895760249727657e+17
19225.0	7.894056895337812e+17
19226.0	7.892431265595391e+17
19227.0	7.890757532778493e+17
19228.0	7.889080654233599e+17
19229.0	7.887401604437331e+17
19230.0	7.885700151465302e+17
19231.0	7.884024338273619e+17
19232.0	7.882345150065322e+17
19233.0	7.880637759356928e+17
19234.0	7.878964090852691e+17
19235.0	7.877278426639016e+17
19236.0	7.875582184390655e+17
19237.0	7.873878417560915e+17
19238.0	7.872139889737728e+17
19239.0	7.870478490970792e+17
19240.0	7.868741284353364e+17
19241.0	7.86705159360785e+17
19242.0	7.865350175588352e+17
19243.0	7.863576745563475e+17
19244.0	7.86191769420868e+17
19245.0	7.860196411965437e+17
19246.0	7.858467051492692e+17
19247.0	7.856743842665812e+17
19248.0	7.855013623758845e+17
19249.0	7.853278145194664e+17
19250.0	7.851538136782164e+17
19251.0	7.849756273410045e+17
19252.0	7.847953446906538e+17
19253.0	7.846302041767935e+17
19254.0	7.844416702119935e+17
19255.0	7.84168054371123e+17
19256.0	7.83995913703697e+17
19257.0	7.838220223337811e+17
19258.0	7.836454076022783e+17
19259.0	7.834657585714515e+17
19260.0	7.832763354142034e+17
19261.0	7.831128615769428e+17
19262.0	7.829335592752468e+17
19263.0	7.827539045122047e+17
19264.0	7.8256112954682e+17
19265.0	7.823912258415272e+17
19266.0	7.822127770806953e+17
19267.0	7.82036450218257e+17
19268.0	7.818554742494547e+17
19269.0	7.816740243243005e+17
19270.0	7.814919578364586e+17
19271.0	7.812995595195731e+17
19272.0	7.811253349821097e+17
19273.0	7.808553674866688e+17
19274.0	7.8070567417501e+17
19275.0	7.805746193716564e+17
19276.0	7.803897545839956e+17
19277.0	7.802041903262377e+17
19278.0	7.800180267024383e+17
19279.0	7.798298422629714e+17
19280.0	7.796414447528616e+17
19281.0	7.79455612339268e+17
19282.0	7.792663376603817e+17
19283.0	7.789465317670911e+17
19284.0	7.787248471419561e+17
19285.0	7.785472408769875e+17
19286.0	7.783602866268841e+17
19287.0	7.781691208761344e+17
19288.0	7.777225383695697e+17
19289.0	7.771931547096396e+17
19290.0	7.775881562248532e+17
19291.0	7.773844283938132e+17
19292.0	7.771972831630675e+17
19293.0	7.770001276665855e+17
19294.0	7.768025820998314e+17
19295.0	7.766039467130879e+17
19296.0	7.764044963730772e+17
19297.0	7.762040767294122e+17
19298.0	7.76002830807859e+17
19299.0	7.758005872011948e+17
19300.0	7.754918221141331e+17
19301.0	7.75202613109282e+17
19302.0	7.749967022828202e+17
19303.0	7.747879984693245e+17
19304.0	7.745814076063743e+17
19305.0	7.743739216789501e+17
19306.0	7.741637027430399e+17
19307.0	7.739500289589248e+17
19308.0	7.737379436975446e+17
19309.0	7.734989859498664e+17
19310.0	7.732715186378068e+17
19311.0	7.730905966357162e+17
19312.0	7.72744300357222e+17
19313.0	7.724165380090538e+17
19314.0	7.717992976613377e+17
19315.0	7.715982031541592e+17
19316.0	7.717474721420627e+17
19317.0	7.715260662983338e+17
19318.0	7.712998378438655e+17
19319.0	7.710718403717802e+17
19320.0	7.708418945056767e+17
19321.0	7.704254698837332e+17
19322.0	7.700701717899945e+17
19323.0	7.698278061703167e+17
19324.0	7.696008005113172e+17
19325.0	7.693426404010666e+17
19326.0	7.691209343849812e+17
19327.0	7.688794337705983e+17
19328.0	7.684841104124581e+17
19329.0	7.680234466486953e+17
19330.0	7.677723982604969e+17
19331.0	7.675037333760684e+17
19332.0	7.672380581915305e+17
19333.0	7.669814557059753e+17
19334.0	7.664897627608403e+17
19335.0	7.66025158308659e+17
19336.0	7.657594104228521e+17
19337.0	7.654910315899562e+17
19338.0	7.652138187139753e+17
19339.0	7.647824819432105e+17
19340.0	7.644134995132416e+17
19341.0	7.641338532418899e+17
19342.0	7.638393499069097e+17
19343.0	7.635648594138454e+17
19344.0	7.632754932624041e+17
19345.0	7.629288324988925e+17
19346.0	7.626631542385321e+17
19347.0	7.62386049016354e+17
19348.0	7.620856612126719e+17
19349.0	7.617782517246634e+17
19350.0	7.614665692195498e+17
19351.0	7.611516055104168e+17
19352.0	7.608314113643858e+17
19353.0	7.605116001583103e+17
19354.0	7.601863216769705e+17
19355.0	7.598047110365184e+17
19356.0	7.594661426233343e+17
19357.0	7.591289897877501e+17
19358.0	7.587869494695251e+17
19359.0	7.584388844530345e+17
19360.0	7.580924254355455e+17
19361.0	7.577389644469587e+17
19362.0	7.573881738319187e+17
19363.0	7.570250263778644e+17
19364.0	7.566571091613011e+17
19365.0	7.562842377726633e+17
19366.0	7.559063323803645e+17
19367.0	7.554338531224233e+17
19368.0	7.550373239018835e+17
19369.0	7.546399021334525e+17
19370.0	7.542299872111272e+17
19371.0	7.53825105733222e+17
19372.0	7.534079320085842e+17
19373.0	7.529824388819626e+17
19374.0	7.524983911743488e+17
19375.0	7.519671437055318e+17
19376.0	7.515192462846632e+17
19377.0	7.510631562696019e+17
19378.0	7.505996482084863e+17
19379.0	7.501278698187434e+17
19380.0	7.494660413631148e+17
19381.0	7.489546017745577e+17
19382.0	7.484498128142335e+17
19383.0	7.479363113058303e+17
19384.0	7.472229063327741e+17
19385.0	7.466155990756012e+17
19386.0	7.460658997450066e+17
19387.0	7.45359143862272e+17
19388.0	7.445905414291455e+17
19389.0	7.439892648820736e+17
19390.0	7.430521994870781e+17
19391.0	7.416745230161225e+17
19392.0	7.413817207510358e+17
19393.0	7.405329081259347e+17
19394.0	7.394718447042566e+17
19395.0	7.385643678870185e+17
19396.0	7.37246881076565e+17
19397.0	7.362410128779942e+17
19398.0	7.348833777702228e+17
19399.0	7.337682376065023e+17
19400.0	7.328365080652458e+17
19401.0	7.320012454188372e+17
19402.0	7.311314850414591e+17
19403.0	7.30226947592465e+17
19404.0	7.292770014898858e+17
19405.0	7.283214023043753e+17
19406.0	7.273521123513684e+17
19407.0	7.263569355735039e+17
19408.0	7.253188108004008e+17
19409.0	7.242831887684948e+17
19410.0	7.231779614228479e+17
19411.0	7.220264767761064e+17
19412.0	7.208782108382548e+17
19413.0	7.196918179779923e+17
19414.0	7.184001057248595e+17
19415.0	7.17093239591185e+17
19416.0	7.15751135571695e+17
19417.0	7.142631322681341e+17
19418.0	7.12841994558942e+17
19419.0	7.112003717955583e+17
19420.0	7.095891329897809e+17
19421.0	7.078312237072383e+17
19422.0	7.05921372267042e+17
19423.0	7.038884129712808e+17
19424.0	7.016483931204261e+17
19425.0	6.991910311471785e+17
19426.0	6.965450624379558e+17
19427.0	6.936030633874785e+17
19428.0	6.904483629323603e+17
19429.0	6.877747986388308e+17
19430.0	6.852020177382058e+17
19431.0	6.82469605122594e+17
19432.0	6.797088578863101e+17
19433.0	6.766799881590102e+17
19434.0	6.733973332601514e+17
19435.0	6.697778663129084e+17
19436.0	6.65846528676113e+17
19437.0	6.616656532297046e+17
19438.0	6.566669314949119e+17
19439.0	6.520072535277568e+17
19440.0	6.464409049584977e+17
19441.0	6.404937391712934e+17
19442.0	6.342011818868737e+17
19443.0	6.274481666392063e+17
19444.0	6.199524148117499e+17
19445.0	6.116123467928919e+17
19446.0	6.023390499788116e+17
19447.0	5.92049658693768e+17
19448.0	5.806125475692548e+17
19449.0	5.6772778192622925e+17
19450.0	5.515849356716694e+17
19451.0	5.4346298040866266e+17
19452.0	5.601021460654762e+17
19453.0	5.7419587712450605e+17
19454.0	5.860358985438543e+17
19455.0	5.966465290556756e+17
19456.0	6.06170776320956e+17
19457.0	6.147224133522769e+17
19458.0	6.221710463685976e+17
19459.0	6.292218601362775e+17
19460.0	6.354756140269564e+17
19461.0	6.413546244713129e+17
19462.0	6.468676858762582e+17
19463.0	6.519481443898703e+17
19464.0	6.565263966557523e+17
19465.0	6.606177118278996e+17
19466.0	6.643912997339133e+17
19467.0	6.678982130226516e+17
19468.0	6.71056543997406e+17
19469.0	6.739659347809618e+17
19470.0	6.766222825750527e+17
19471.0	6.791051069794988e+17
19472.0	6.814384506535933e+17
19473.0	6.837499896091983e+17
19474.0	6.864383498693288e+17
19475.0	6.891818668348753e+17
19476.0	6.917116676538369e+17
19477.0	6.940266680986284e+17
19478.0	6.960755896571219e+17
19479.0	6.979600747855872e+17
19480.0	6.996458417597097e+17
19481.0	7.011100568584188e+17
19482.0	7.025988652586324e+17
19483.0	7.03895500715895e+17
19484.0	7.051702230319101e+17
19485.0	7.063280579947177e+17
19486.0	7.074778390549844e+17
19487.0	7.084916648269139e+17
19488.0	7.095484142671187e+17
19489.0	7.104842868020564e+17
19490.0	7.113457158935891e+17
19491.0	7.122282958815232e+17
19492.0	7.131005050333866e+17
19493.0	7.138848482699945e+17
19494.0	7.146393884601002e+17
19495.0	7.15365477847313e+17
19496.0	7.160572616026794e+17
19497.0	7.167379171704832e+17
19498.0	7.173435181847892e+17
19499.0	7.170798503941455e+17
19500.0	7.186596313606825e+17
19501.0	7.192253898424319e+17
19502.0	7.197692460881235e+17
19503.0	7.206560342212607e+17
19504.0	7.214646422055602e+17
19505.0	7.224226589878953e+17
19506.0	7.23324688942148e+17
19507.0	7.239514416917161e+17
19508.0	7.248573833936896e+17
19509.0	7.253040833407658e+17
19510.0	7.261140611847506e+17
19511.0	7.256255757636943e+17
19512.0	7.269597854040063e+17
19513.0	7.27240187488938e+17
19514.0	7.276523083355469e+17
19515.0	7.284247084313258e+17
19516.0	7.287153746771968e+17
19517.0	7.289706999971839e+17
19518.0	7.294042233984343e+17
19519.0	7.296954990766761e+17
19520.0	7.299145193401e+17
19521.0	7.301244537623891e+17
19522.0	7.304285960273919e+17
19523.0	7.307010187285844e+17
19524.0	7.308802623100244e+17
19525.0	7.3105120704157e+17
19526.0	7.3121517287069e+17
19527.0	7.313716876585642e+17
19528.0	7.316532354875392e+17
19529.0	7.317932684782249e+17
19530.0	7.319266779638441e+17
19531.0	7.320532226321066e+17
19532.0	7.321725159079933e+17
19533.0	7.322824877626708e+17
19534.0	7.323858242284202e+17
19535.0	7.325100634275837e+17
19536.0	7.326639580337492e+17
19537.0	7.32751507558673e+17
19538.0	7.328300018608812e+17
19539.0	7.328945510809599e+17
19540.0	7.329798369400148e+17
19541.0	7.330477649515859e+17
19542.0	7.331102262471336e+17
19543.0	7.331681933459456e+17
19544.0	7.332219068612607e+17
19545.0	7.332587201276585e+17
19546.0	7.33293049946658e+17
19547.0	7.333592096396627e+17
19548.0	7.334465709801471e+17
19549.0	7.334810815736489e+17
19550.0	7.335150951421268e+17
19551.0	7.335424151606611e+17
19552.0	7.335661133976916e+17
19553.0	7.335849501567657e+17
19554.0	7.335993601075881e+17
19555.0	7.336116666149544e+17
19556.0	7.336195565202088e+17
19557.0	7.336240251316905e+17
19558.0	7.33625457905937e+17
19559.0	7.336235978719232e+17
19560.0	7.336181079474173e+17
19561.0	7.336113572151296e+17
19562.0	7.336007805785428e+17
19563.0	7.337358138190505e+17
19564.0	7.338040976474111e+17
19565.0	7.33784184909551e+17
19566.0	7.337611019769172e+17
19567.0	7.337366168884564e+17
19568.0	7.339561094305108e+17
19569.0	7.340743352560297e+17
19570.0	7.340406593290239e+17
19571.0	7.34004368253474e+17
19572.0	7.33965155705378e+17
19573.0	7.339354365449556e+17
19574.0	7.340927749543254e+17
19575.0	7.341944329994239e+17
19576.0	7.341469231393449e+17
19577.0	7.34097088656179e+17
19578.0	7.340449730308777e+17
19579.0	7.339922903356756e+17
19580.0	7.339378173717161e+17
19581.0	7.339157442876756e+17
19582.0	7.340947117441023e+17
19583.0	7.340342146411177e+17
19584.0	7.339719774612136e+17
19585.0	7.339049453529769e+17
19586.0	7.338381263153833e+17
19587.0	7.337723530575871e+17
19588.0	7.336948839830868e+17
19589.0	7.336386097053696e+17
19590.0	7.335668213962068e+17
19591.0	7.336491771144872e+17
19592.0	7.336389905481725e+17
19593.0	7.335639942955005e+17
19594.0	7.334792739684351e+17
19595.0	7.33409528704751e+17
19596.0	7.332212142418602e+17
19597.0	7.332487575371773e+17
19598.0	7.331634522445139e+17
19599.0	7.33089178390801e+17
19600.0	7.330062655291392e+17
19601.0	7.329201430462463e+17
19602.0	7.328356929721684e+17
19603.0	7.327266969922217e+17
19604.0	7.328001117126653e+17
19605.0	7.327336043118591e+17
19606.0	7.326541264453632e+17
19607.0	7.325644564201471e+17
19608.0	7.324736628806995e+17
19609.0	7.323815288416936e+17
19610.0	7.322900222705664e+17
19611.0	7.321968003689129e+17
19612.0	7.32103119610402e+17
19613.0	7.320084772377939e+17
19614.0	7.319115275785556e+17
19615.0	7.318164825527636e+17
19616.0	7.317129797129556e+17
19617.0	7.31622117806353e+17
19618.0	7.315072896466943e+17
19619.0	7.314044159524863e+17
19620.0	7.313057039865172e+17
19621.0	7.312252896717481e+17
19622.0	7.311246013497344e+17
19623.0	7.31116817420561e+17
19624.0	7.310450460284244e+17
19625.0	7.309422915922602e+17
19626.0	7.308389703658153e+17
19627.0	7.30734580011281e+17
19628.0	7.306099395570348e+17
19629.0	7.305203026668202e+17
19630.0	7.303440227805866e+17
19631.0	7.294030569624918e+17
19632.0	7.302028272686419e+17
19633.0	7.301009673377106e+17
19634.0	7.299948501882196e+17
19635.0	7.29886171856896e+17
19636.0	7.297798037482152e+17
19637.0	7.296575406254761e+17
19638.0	7.295623998297428e+17
19639.0	7.294529027702783e+17
19640.0	7.293413639236266e+17
19641.0	7.292166981637459e+17
19642.0	7.291232275398655e+17
19643.0	7.290121967632383e+17
19644.0	7.288990972160681e+17
19645.0	7.287813688350036e+17
19646.0	7.286776782301866e+17
19647.0	7.285654320840704e+17
19648.0	7.284528122254676e+17
19649.0	7.283397719577939e+17
19650.0	7.282265780387839e+17
19651.0	7.28112970141969e+17
19652.0	7.279990510277972e+17
19653.0	7.27884760298291e+17
19654.0	7.277702594341545e+17
19655.0	7.276551825522687e+17
19656.0	7.275404655416662e+17
19657.0	7.275116768176812e+17
19658.0	7.273959171031039e+17
19659.0	7.27279680496162e+17
19660.0	7.271632710838952e+17
19661.0	7.270465387102207e+17
19662.0	7.269295209840637e+17
19663.0	7.268103729709055e+17
19664.0	7.266914304786432e+17
19665.0	7.265770270621693e+17
19666.0	7.264585996304383e+17
