# Flux units: erg / (cm m2 s)
# Wavelength units: Angstrom
wave	flux
19000.0	4.80332696658466e+17
19001.0	4.8023327159091194e+17
19002.0	4.8016865344443725e+17
19003.0	4.800866327112362e+17
19004.0	4.7997375245626016e+17
19005.0	4.7989558600881485e+17
19006.0	4.7982009112330234e+17
19007.0	4.7974633582537376e+17
19008.0	4.79659924984081e+17
19009.0	4.79551037706513e+17
19010.0	4.794725973710164e+17
19011.0	4.793854565111125e+17
19012.0	4.7924119887762765e+17
19013.0	4.792486580977663e+17
19014.0	4.79138538463778e+17
19015.0	4.7905418884328096e+17
19016.0	4.7898693303883085e+17
19017.0	4.7891478996145485e+17
19018.0	4.788223206577493e+17
19019.0	4.787440743787177e+17
19020.0	4.786568250261502e+17
19021.0	4.7857675422487885e+17
19022.0	4.7849854639363405e+17
19023.0	4.78381244363571e+17
19024.0	4.78288971632913e+17
19025.0	4.782258815412907e+17
19026.0	4.7813690483452576e+17
19027.0	4.7804977823525536e+17
19028.0	4.7796333565706234e+17
19029.0	4.7787641982156794e+17
19030.0	4.777875555221504e+17
19031.0	4.777187367802198e+17
19032.0	4.776342044977834e+17
19033.0	4.774985105145855e+17
19034.0	4.773701594294955e+17
19035.0	4.7698484165345274e+17
19036.0	4.7579757903435085e+17
19037.0	4.768722734546943e+17
19038.0	4.77043807695667e+17
19039.0	4.770160103653375e+17
19040.0	4.769464764246697e+17
19041.0	4.768763106121044e+17
19042.0	4.7545227463884614e+17
19043.0	4.7672430896523936e+17
19044.0	4.766539990084265e+17
19045.0	4.7655146022939296e+17
19046.0	4.7646784838696954e+17
19047.0	4.763766452038314e+17
19048.0	4.761124204795219e+17
19049.0	4.733835757486043e+17
19050.0	4.760613792950953e+17
19051.0	4.7582261525435725e+17
19052.0	4.7579502141767674e+17
19053.0	4.758397240999936e+17
19054.0	4.757798275514366e+17
19055.0	4.752902992865962e+17
19056.0	4.755273368119973e+17
19057.0	4.755716190153387e+17
19058.0	4.740531429747348e+17
19059.0	4.7482640374169555e+17
19060.0	4.753230090556757e+17
19061.0	4.752310385246208e+17
19062.0	4.751373090422783e+17
19063.0	4.7507720172994554e+17
19064.0	4.7498902166132045e+17
19065.0	4.748955853608276e+17
19066.0	4.742990234211675e+17
19067.0	4.747076474066261e+17
19068.0	4.7466652805802656e+17
19069.0	4.745800244527104e+17
19070.0	4.744757601370111e+17
19071.0	4.7439787079325005e+17
19072.0	4.737861453261475e+17
19073.0	4.742570245270187e+17
19074.0	4.741437288961363e+17
19075.0	4.740819479166975e+17
19076.0	4.739941482714453e+17
19077.0	4.7391055054984525e+17
19078.0	4.7382480198915405e+17
19079.0	4.737388762191189e+17
19080.0	4.736639347720191e+17
19081.0	4.7357907169880736e+17
19082.0	4.7350724536128845e+17
19083.0	4.734021231007062e+17
19084.0	4.7331170858653e+17
19085.0	4.7324122708268365e+17
19086.0	4.723860172352166e+17
19087.0	4.718907476672496e+17
19088.0	4.7226249015896634e+17
19089.0	4.7289138004623366e+17
19090.0	4.72828885475874e+17
19091.0	4.726627771962716e+17
19092.0	4.715519698184907e+17
19093.0	4.7258170493501434e+17
19094.0	4.7250617957089274e+17
19095.0	4.7241096474569376e+17
19096.0	4.7234262366508365e+17
19097.0	4.722587781999275e+17
19098.0	4.716087280489807e+17
19099.0	4.713946961412103e+17
19100.0	4.720093483237375e+17
19101.0	4.7192242388991994e+17
19102.0	4.718412221644798e+17
19103.0	4.717527790430889e+17
19104.0	4.7168842199203834e+17
19105.0	4.703302710547836e+17
19106.0	4.7150510105777485e+17
19107.0	4.7111754030776256e+17
19108.0	4.708440977615534e+17
19109.0	4.712354660308309e+17
19110.0	4.711601432515925e+17
19111.0	4.7071365749363994e+17
19112.0	4.705719028110669e+17
19113.0	4.709391382435157e+17
19114.0	4.705962043987281e+17
19115.0	4.707258488673619e+17
19116.0	4.706697411734187e+17
19117.0	4.705833594126336e+17
19118.0	4.70400277483793e+17
19119.0	4.694221955006456e+17
19120.0	4.7027917960861005e+17
19121.0	4.702395990802432e+17
19122.0	4.701983810955947e+17
19123.0	4.701267745396053e+17
19124.0	4.7001911724168525e+17
19125.0	4.699517221863423e+17
19126.0	4.698474749274794e+17
19127.0	4.697153338692948e+17
19128.0	4.696704757880148e+17
19129.0	4.6962110442591565e+17
19130.0	4.695525442628266e+17
19131.0	4.694715917489493e+17
19132.0	4.693796784701439e+17
19133.0	4.6930733106025805e+17
19134.0	4.6922511305495885e+17
19135.0	4.691505840477524e+17
19136.0	4.69058899218705e+17
19137.0	4.689620806314665e+17
19138.0	4.688980831021738e+17
19139.0	4.688245740797951e+17
19140.0	4.6874538457169914e+17
19141.0	4.6865879505305594e+17
19142.0	4.68570269164066e+17
19143.0	4.684868620036778e+17
19144.0	4.683966378409983e+17
19145.0	4.6832245961741645e+17
19146.0	4.681822788474197e+17
19147.0	4.681599007675732e+17
19148.0	4.676220616004957e+17
19149.0	4.6744158727045114e+17
19150.0	4.679238932933289e+17
19151.0	4.6783221049152845e+17
19152.0	4.677571727152468e+17
19153.0	4.6668584660063405e+17
19154.0	4.6751232022282246e+17
19155.0	4.6750996609979725e+17
19156.0	4.6742102476499616e+17
19157.0	4.670260719736159e+17
19158.0	4.665494481141771e+17
19159.0	4.671482693855914e+17
19160.0	4.670709601839785e+17
19161.0	4.6698821537409696e+17
19162.0	4.668861360810666e+17
19163.0	4.668176300944042e+17
19164.0	4.667485355070804e+17
19165.0	4.656109121961968e+17
19166.0	4.6658017754262176e+17
19167.0	4.665247716256426e+17
19168.0	4.6643828067314336e+17
19169.0	4.6636132386297165e+17
19170.0	4.662834930996564e+17
19171.0	4.661948236256598e+17
19172.0	4.6611646745586336e+17
19173.0	4.660462808115882e+17
19174.0	4.65957919199505e+17
19175.0	4.65872515899938e+17
19176.0	4.6579999030203725e+17
19177.0	4.656987714704724e+17
19178.0	4.656240732230997e+17
19179.0	4.655493148573696e+17
19180.0	4.654717939133098e+17
19181.0	4.653846931090089e+17
19182.0	4.652845658450602e+17
19183.0	4.65222267638033e+17
19184.0	4.6514732395397114e+17
19185.0	4.6505560102666234e+17
19186.0	4.649779445366782e+17
19187.0	4.648929790525438e+17
19188.0	4.6481689060311034e+17
19189.0	4.647302557859838e+17
19190.0	4.646431144367444e+17
19191.0	4.645554147557375e+17
19192.0	4.644644378553002e+17
19193.0	4.642384539986605e+17
19194.0	4.6406707417797997e+17
19195.0	4.6415825841684474e+17
19196.0	4.640237767273129e+17
19197.0	4.6385283052776096e+17
19198.0	4.636255592295083e+17
19199.0	4.633297874670932e+17
19200.0	4.632682345179817e+17
19201.0	4.6340394304143354e+17
19202.0	4.6347085512267085e+17
19203.0	4.634551205407403e+17
19204.0	4.6344116497285114e+17
19205.0	4.6338508300397216e+17
19206.0	4.633233330623828e+17
19207.0	4.6321598222827514e+17
19208.0	4.631720580087807e+17
19209.0	4.631082701247828e+17
19210.0	4.6301995772586656e+17
19211.0	4.6295636711396685e+17
19212.0	4.62876568523025e+17
19213.0	4.6278813658644474e+17
19214.0	4.627111916601344e+17
19215.0	4.62638988464401e+17
19216.0	4.625620230559061e+17
19217.0	4.6248326360378016e+17
19218.0	4.6237431837491194e+17
19219.0	4.6229221815965e+17
19220.0	4.622408109522943e+17
19221.0	4.6215641463521274e+17
19222.0	4.620675910205439e+17
19223.0	4.620018827045546e+17
19224.0	4.6191566766735354e+17
19225.0	4.6184974320489805e+17
19226.0	4.617763644855636e+17
19227.0	4.616913604138325e+17
19228.0	4.6161586042525e+17
19229.0	4.615047706487466e+17
19230.0	4.6144911181523616e+17
19231.0	4.6138389982522016e+17
19232.0	4.6130149580253856e+17
19233.0	4.612090862676649e+17
19234.0	4.6112913360595616e+17
19235.0	4.6105201454612474e+17
19236.0	4.6097714517114874e+17
19237.0	4.608800071876607e+17
19238.0	4.6080534550063776e+17
19239.0	4.6073517255775565e+17
19240.0	4.606473308995584e+17
19241.0	4.605778178605056e+17
19242.0	4.6047424630401696e+17
19243.0	4.6040416269981e+17
19244.0	4.6033117957324794e+17
19245.0	4.602596545964714e+17
19246.0	4.6018185431176525e+17
19247.0	4.6010262307034445e+17
19248.0	4.600166834591061e+17
19249.0	4.598990313444692e+17
19250.0	4.5964906264002554e+17
19251.0	4.5957279068979155e+17
19252.0	4.5967435240570874e+17
19253.0	4.596133849115306e+17
19254.0	4.595396261882538e+17
19255.0	4.594365981436585e+17
19256.0	4.593640394806612e+17
19257.0	4.5929307528232954e+17
19258.0	4.5920737020258976e+17
19259.0	4.5912349062376096e+17
19260.0	4.5897287414579194e+17
19261.0	4.5896704986535245e+17
19262.0	4.5887382705493325e+17
19263.0	4.5878052797808634e+17
19264.0	4.5870282101664416e+17
19265.0	4.5862488448696314e+17
19266.0	4.585489504578219e+17
19267.0	4.5849754912249165e+17
19268.0	4.584080498753536e+17
19269.0	4.5833476392004256e+17
19270.0	4.5825159953995085e+17
19271.0	4.5815436466804045e+17
19272.0	4.580970988568575e+17
19273.0	4.580106778094249e+17
19274.0	4.5790760111090336e+17
19275.0	4.5786708616151034e+17
19276.0	4.5778619705152845e+17
19277.0	4.5770954866251085e+17
19278.0	4.576029379832489e+17
19279.0	4.5754232392908794e+17
19280.0	4.5746785280327674e+17
19281.0	4.5738147292992845e+17
19282.0	4.5730324007266976e+17
19283.0	4.5721225506324474e+17
19284.0	4.5712879533424634e+17
19285.0	4.570346143350783e+17
19286.0	4.569191308154197e+17
19287.0	4.56741568520738e+17
19288.0	4.559904540284244e+17
19289.0	4.556834524364797e+17
19290.0	4.564855375091028e+17
19291.0	4.565018023209643e+17
19292.0	4.564819356505429e+17
19293.0	4.5641475744071674e+17
19294.0	4.5634085240613536e+17
19295.0	4.562630805727914e+17
19296.0	4.5556368017107814e+17
19297.0	4.560142174169775e+17
19298.0	4.560250130661375e+17
19299.0	4.552598951209649e+17
19300.0	4.5587635365041485e+17
19301.0	4.557963225552213e+17
19302.0	4.5571768445829114e+17
19303.0	4.556211452816042e+17
19304.0	4.555497007655594e+17
19305.0	4.554635531168425e+17
19306.0	4.5538775092865696e+17
19307.0	4.5529083838900896e+17
19308.0	4.5520843590423885e+17
19309.0	4.5509681233264634e+17
19310.0	4.549967186930346e+17
19311.0	4.548860708563625e+17
19312.0	4.5471740237359776e+17
19313.0	4.5426217974060365e+17
19314.0	4.441611968708629e+17
19315.0	4.4462452555558016e+17
19316.0	4.532484877669731e+17
19317.0	4.5434492685735245e+17
19318.0	4.5435970380977485e+17
19319.0	4.543044116283392e+17
19320.0	4.540284941631481e+17
19321.0	4.536345036849152e+17
19322.0	4.5411997431016096e+17
19323.0	4.5404996648304634e+17
19324.0	4.53968133235234e+17
19325.0	4.538967808540672e+17
19326.0	4.5381508601828685e+17
19327.0	4.537463171885739e+17
19328.0	4.525235130859532e+17
19329.0	4.5359628043332256e+17
19330.0	4.535216011302229e+17
19331.0	4.5344152781236896e+17
19332.0	4.533607478941013e+17
19333.0	4.532914714836991e+17
19334.0	4.531664987706711e+17
19335.0	4.507971697857908e+17
19336.0	4.530309621437781e+17
19337.0	4.529703376737622e+17
19338.0	4.528723587323219e+17
19339.0	4.5280079845348685e+17
19340.0	4.5269894768011936e+17
19341.0	4.517879335267007e+17
19342.0	4.523258641296052e+17
19343.0	4.524865560248319e+17
19344.0	4.515415876523363e+17
19345.0	4.518773548296885e+17
19346.0	4.52156923506415e+17
19347.0	4.51091857809954e+17
19348.0	4.521036472472916e+17
19349.0	4.5202467549347834e+17
19350.0	4.5153756587403955e+17
19351.0	4.518618613503317e+17
19352.0	4.506410103952706e+17
19353.0	4.5171650690635085e+17
19354.0	4.516462250513748e+17
19355.0	4.515584278528e+17
19356.0	4.514835031829162e+17
19357.0	4.514109520696659e+17
19358.0	4.51329542726178e+17
19359.0	4.510112415394464e+17
19360.0	4.5026472414412774e+17
19361.0	4.5109509972732576e+17
19362.0	4.510163533474474e+17
19363.0	4.50939737674001e+17
19364.0	4.5086448612802554e+17
19365.0	4.507799414024874e+17
19366.0	4.5068443108857165e+17
19367.0	4.506194861359102e+17
19368.0	4.5054846615333536e+17
19369.0	4.5047148354819405e+17
19370.0	4.503970411533653e+17
19371.0	4.5030179095620256e+17
19372.0	4.5023373222215674e+17
19373.0	4.501420485115902e+17
19374.0	4.5006328577392634e+17
19375.0	4.4999908146544634e+17
19376.0	4.4992433743025485e+17
19377.0	4.4984735964856314e+17
19378.0	4.497690820520618e+17
19379.0	4.4969019215708154e+17
19380.0	4.495813906530304e+17
19381.0	4.495116421038079e+17
19382.0	4.4943738418845005e+17
19383.0	4.493571074468521e+17
19384.0	4.492573345316864e+17
19385.0	4.492077688335018e+17
19386.0	4.4912101720500915e+17
19387.0	4.490304175123113e+17
19388.0	4.4893255300546554e+17
19389.0	4.4881885031738016e+17
19390.0	4.485617934488917e+17
19391.0	4.473943182278651e+17
19392.0	4.4809751391546016e+17
19393.0	4.4844935988729165e+17
19394.0	4.484498735497215e+17
19395.0	4.4806016391796134e+17
19396.0	4.4825058399136454e+17
19397.0	4.482459127250943e+17
19398.0	4.478758857736194e+17
19399.0	4.476655517040638e+17
19400.0	4.477486090594989e+17
19401.0	4.4793232845264205e+17
19402.0	4.4786495478824954e+17
19403.0	4.4778635870426445e+17
19404.0	4.476948180893696e+17
19405.0	4.476101188037291e+17
19406.0	4.475395603344042e+17
19407.0	4.4704484462428096e+17
19408.0	4.473502637053268e+17
19409.0	4.472767959269375e+17
19410.0	4.4721021295875405e+17
19411.0	4.4712934104541856e+17
19412.0	4.4704266442506234e+17
19413.0	4.465426454369621e+17
19414.0	4.468833671359147e+17
19415.0	4.4678740020210336e+17
19416.0	4.466808492217684e+17
19417.0	4.466168242896895e+17
19418.0	4.4653175247994874e+17
19419.0	4.464421896891049e+17
19420.0	4.4635179244148045e+17
19421.0	4.462598618262185e+17
19422.0	4.4615286268450125e+17
19423.0	4.46073045988147e+17
19424.0	4.459736644714496e+17
19425.0	4.4585798053396474e+17
19426.0	4.457610143072255e+17
19427.0	4.456467548951891e+17
19428.0	4.4549948742915405e+17
19429.0	4.453641695352149e+17
19430.0	4.4512600353232205e+17
19431.0	4.44926239248657e+17
19432.0	4.449113051496447e+17
19433.0	4.447852090621952e+17
19434.0	4.446121380981417e+17
19435.0	4.443323839632725e+17
19436.0	4.440150879414955e+17
19437.0	4.435061278856534e+17
19438.0	4.409952808468481e+17
19439.0	4.42229441377075e+17
19440.0	4.4293107168051194e+17
19441.0	4.427138996371455e+17
19442.0	4.422843921421653e+17
19443.0	4.417015232768682e+17
19444.0	4.409504269598718e+17
19445.0	4.399604522374485e+17
19446.0	4.3865108420143776e+17
19447.0	4.368253434462206e+17
19448.0	4.3417460777069235e+17
19449.0	4.2994585224697165e+17
19450.0	4.213394389336059e+17
19451.0	4.1381603042481517e+17
19452.0	4.265114355455313e+17
19453.0	4.320594983474517e+17
19454.0	4.3512230090287763e+17
19455.0	4.370414109196287e+17
19456.0	4.381514849932629e+17
19457.0	4.379695682420737e+17
19458.0	4.107539573986834e+17
19459.0	4.332100380175073e+17
19460.0	4.4031498501051725e+17
19461.0	4.4117616517010765e+17
19462.0	4.415569922446677e+17
19463.0	4.4178611427956045e+17
19464.0	4.4193292163044685e+17
19465.0	4.420341337511253e+17
19466.0	4.4210903367461536e+17
19467.0	4.421496120978091e+17
19468.0	4.42173034139921e+17
19469.0	4.413612433080307e+17
19470.0	4.4216976034583885e+17
19471.0	4.421551267687082e+17
19472.0	4.421323386257407e+17
19473.0	4.420950996374868e+17
19474.0	4.411932474518173e+17
19475.0	4.419496762671102e+17
19476.0	4.4195065312051194e+17
19477.0	4.4190827303403514e+17
19478.0	4.4186760310510925e+17
19479.0	4.4099946655252346e+17
19480.0	4.417526797347498e+17
19481.0	4.416715801406123e+17
19482.0	4.4161479010331296e+17
19483.0	4.4156282980706976e+17
19484.0	4.4148561448796154e+17
19485.0	4.414292210221055e+17
19486.0	4.404984309350426e+17
19487.0	4.412796331272874e+17
19488.0	4.41210663670033e+17
19489.0	4.411128646642346e+17
19490.0	4.410089625266857e+17
19491.0	4.4098030389602976e+17
19492.0	4.409241922874025e+17
19493.0	4.408415613528746e+17
19494.0	4.407614554592596e+17
19495.0	4.4067228630384634e+17
19496.0	4.405178606288895e+17
19497.0	4.403367287018836e+17
19498.0	4.3940115578006163e+17
19499.0	4.3833661996400634e+17
19500.0	4.3996847041850016e+17
19501.0	4.401635207238996e+17
19502.0	4.4014875243970554e+17
19503.0	4.4009972766692685e+17
19504.0	4.4002882896964256e+17
19505.0	4.39932136071714e+17
19506.0	4.3987430458873165e+17
19507.0	4.397791159080277e+17
19508.0	4.396470297253204e+17
19509.0	4.3942179685881165e+17
19510.0	4.384089928193362e+17
19511.0	4.252057055089965e+17
19512.0	4.3736379623997414e+17
19513.0	4.38215910900804e+17
19514.0	4.3839367179578e+17
19515.0	4.39035873145651e+17
19516.0	4.3896169345406266e+17
19517.0	4.3903861342426445e+17
19518.0	4.3875492209622995e+17
19519.0	4.3868513838475904e+17
19520.0	4.3805105545980474e+17
19521.0	4.388128913620991e+17
19522.0	4.3860925363868986e+17
19523.0	4.384737010734428e+17
19524.0	4.3796110875033766e+17
19525.0	4.38507832152337e+17
19526.0	4.3843892763688954e+17
19527.0	4.383741536021161e+17
19528.0	4.3823130050123085e+17
19529.0	4.3812777801809926e+17
19530.0	4.38150507790336e+17
19531.0	4.380744113717247e+17
19532.0	4.3799698990257485e+17
19533.0	4.3791360399332685e+17
19534.0	4.378549997098325e+17
19535.0	4.377811261325311e+17
19536.0	4.3769782166268576e+17
19537.0	4.3761690584896845e+17
19538.0	4.367707520630794e+17
19539.0	4.3746448428236794e+17
19540.0	4.374012134162431e+17
19541.0	4.3714741286557e+17
19542.0	4.3717545402477216e+17
19543.0	4.363580673622022e+17
19544.0	4.370396903462227e+17
19545.0	4.3697983853690874e+17
19546.0	4.369122960517802e+17
19547.0	4.3687826570608634e+17
19548.0	4.368098291351551e+17
19549.0	4.3671989780479994e+17
19550.0	4.366452749150889e+17
19551.0	4.3659131617279994e+17
19552.0	4.365046091437397e+17
19553.0	4.3644005621869216e+17
19554.0	4.3635169362793805e+17
19555.0	4.36183446113485e+17
19556.0	4.361378770976766e+17
19557.0	4.361299036558677e+17
19558.0	4.360633443855019e+17
19559.0	4.3598832793026554e+17
19560.0	4.356202400754341e+17
19561.0	4.3583770851628365e+17
19562.0	4.3548722464467584e+17
19563.0	4.3569625526435834e+17
19564.0	4.3559426524009805e+17
19565.0	4.3553470682234874e+17
19566.0	4.3544957957789e+17
19567.0	4.3539558140914336e+17
19568.0	4.3531790870118394e+17
19569.0	4.352468447483222e+17
19570.0	4.351673712159402e+17
19571.0	4.3509057378932045e+17
19572.0	4.3501937589835085e+17
19573.0	4.348525594105172e+17
19574.0	4.348304842293246e+17
19575.0	4.3480251542186656e+17
19576.0	4.346804388058454e+17
19577.0	4.3451718789584224e+17
19578.0	4.345755006053034e+17
19579.0	4.3450553409208314e+17
19580.0	4.3441884398004896e+17
19581.0	4.343356826757801e+17
19582.0	4.3427812864600736e+17
19583.0	4.3421210233186976e+17
19584.0	4.3412372086674765e+17
19585.0	4.340466371788799e+17
19586.0	4.339709028685141e+17
19587.0	4.3390617287393274e+17
19588.0	4.3381325463988896e+17
19589.0	4.3375540854674765e+17
19590.0	4.3367345324468896e+17
19591.0	4.3360909367705594e+17
19592.0	4.335353585816916e+17
19593.0	4.333884133780137e+17
19594.0	4.33298323223347e+17
19595.0	4.333134737484457e+17
19596.0	4.332239998069418e+17
19597.0	4.331633159875242e+17
19598.0	4.3302504124907526e+17
19599.0	4.3300731325426336e+17
19600.0	4.32929038593775e+17
19601.0	4.328580548919296e+17
19602.0	4.3277826580807674e+17
19603.0	4.32692969812787e+17
19604.0	4.326341563034282e+17
19605.0	4.3253965919354874e+17
19606.0	4.3248456736003405e+17
19607.0	4.324253228859392e+17
19608.0	4.323256934858751e+17
19609.0	4.3227118640824314e+17
19610.0	4.318175236369074e+17
19611.0	4.315423490528601e+17
19612.0	4.3205420814172154e+17
19613.0	4.3196081308521805e+17
19614.0	4.3189670154076154e+17
19615.0	4.3182700569995936e+17
19616.0	4.3136696534958163e+17
19617.0	4.3108968019176154e+17
19618.0	4.315186466215252e+17
19619.0	4.313852892151808e+17
19620.0	4.312159228002293e+17
19621.0	4.305121991196666e+17
19622.0	4.3130202941467296e+17
19623.0	4.3119354052607994e+17
19624.0	4.3104128575296864e+17
19625.0	4.310749673422847e+17
19626.0	4.309781813308074e+17
19627.0	4.308958843327829e+17
19628.0	4.3078049854040755e+17
19629.0	4.286658910355444e+17
19630.0	4.3041901902124365e+17
19631.0	4.3021435089715194e+17
19632.0	4.3038022017133216e+17
19633.0	4.303937032508757e+17
19634.0	4.303752860620117e+17
19635.0	4.3023595883287834e+17
19636.0	4.293090541393227e+17
19637.0	4.292437584729419e+17
19638.0	4.300590944004773e+17
19639.0	4.3004098647162874e+17
19640.0	4.299306310478506e+17
19641.0	4.2980329505423366e+17
19642.0	4.2977398560740685e+17
19643.0	4.2970680369261203e+17
19644.0	4.2968484546259616e+17
19645.0	4.296171745618602e+17
19646.0	4.285425980014576e+17
19647.0	4.2944321063048506e+17
19648.0	4.29407364780305e+17
19649.0	4.2932691383528096e+17
19650.0	4.292561764788906e+17
19651.0	4.291837012126379e+17
19652.0	4.2911683338130765e+17
19653.0	4.290323341639679e+17
19654.0	4.2897072892586656e+17
19655.0	4.288853242281983e+17
