# Flux units: erg / (cm m2 s)
# Wavelength units: Angstrom
wave	flux
19000.0	6.108458396942335e+17
19001.0	6.106461579684521e+17
19002.0	6.106276618567679e+17
19003.0	6.105095443141972e+17
19004.0	6.103999847596031e+17
19005.0	6.102753547212115e+17
19006.0	6.101630894910122e+17
19007.0	6.100497510782292e+17
19008.0	6.099103641501696e+17
19009.0	6.097078751767209e+17
19010.0	6.095746056410452e+17
19011.0	6.0953035014144e+17
19012.0	6.093317960542889e+17
19013.0	6.093767724149418e+17
19014.0	6.092403684758867e+17
19015.0	6.091411579469823e+17
19016.0	6.090635345220948e+17
19017.0	6.089509608707412e+17
19018.0	6.088371794695507e+17
19019.0	6.087313005565268e+17
19020.0	6.086144334757887e+17
19021.0	6.085164489419434e+17
19022.0	6.083994511387306e+17
19023.0	6.082475520425983e+17
19024.0	6.081258928297299e+17
19025.0	6.080153955685716e+17
19026.0	6.078719033256618e+17
19027.0	6.077535301402623e+17
19028.0	6.07674194670387e+17
19029.0	6.075612245874003e+17
19030.0	6.074645816715946e+17
19031.0	6.073331920928768e+17
19032.0	6.071679700697087e+17
19033.0	6.068696963350527e+17
19034.0	6.065121256975017e+17
19035.0	6.049846453250729e+17
19036.0	6.006778643524265e+17
19037.0	6.050350131139923e+17
19038.0	6.061074823162537e+17
19039.0	6.062925666058237e+17
19040.0	6.06285711085841e+17
19041.0	6.062190371711657e+17
19042.0	6.054659714886307e+17
19043.0	6.060452010961578e+17
19044.0	6.059308381547178e+17
19045.0	6.058074637511337e+17
19046.0	6.056776276727124e+17
19047.0	6.055467652481023e+17
19048.0	6.052893055167146e+17
19049.0	6.039338980037957e+17
19050.0	6.048991102544553e+17
19051.0	6.042172008693759e+17
19052.0	6.043455049782611e+17
19053.0	6.046952294711295e+17
19054.0	6.047389067160234e+17
19055.0	6.043197367123976e+17
19056.0	6.045416360159912e+17
19057.0	6.045226308556116e+17
19058.0	6.0377720286085e+17
19059.0	6.040821041550675e+17
19060.0	6.042117860928169e+17
19061.0	6.041059416429908e+17
19062.0	6.039959064543231e+17
19063.0	6.038855220898474e+17
19064.0	6.037391420686336e+17
19065.0	6.035618509357057e+17
19066.0	6.03288729603277e+17
19067.0	6.03445357847074e+17
19068.0	6.033506365516457e+17
19069.0	6.032424720924672e+17
19070.0	6.031169462206463e+17
19071.0	6.030090683722409e+17
19072.0	6.026813611791698e+17
19073.0	6.028041465626623e+17
19074.0	6.026962747959978e+17
19075.0	6.02586540548642e+17
19076.0	6.024715875385344e+17
19077.0	6.023522291810304e+17
19078.0	6.022276401070079e+17
19079.0	6.02139134140962e+17
19080.0	6.020188264027476e+17
19081.0	6.018734581175636e+17
19082.0	6.017976360763391e+17
19083.0	6.016138141324627e+17
19084.0	6.013921071377066e+17
19085.0	6.014395570891434e+17
19086.0	6.006749284794363e+17
19087.0	6.006466254558542e+17
19088.0	6.00695626251195e+17
19089.0	6.008401006602926e+17
19090.0	6.008646439796735e+17
19091.0	6.00733579389611e+17
19092.0	6.001336815801697e+17
19093.0	6.005847503142911e+17
19094.0	6.004837623092566e+17
19095.0	6.003807095182676e+17
19096.0	6.00273932395042e+17
19097.0	6.001677873534292e+17
19098.0	5.9978931531066e+17
19099.0	5.996238522548227e+17
19100.0	5.998018064373076e+17
19101.0	5.997003877471574e+17
19102.0	5.995775783163219e+17
19103.0	5.994942070172329e+17
19104.0	5.993920203500201e+17
19105.0	5.986841858321083e+17
19106.0	5.991379687702527e+17
19107.0	5.988655348143443e+17
19108.0	5.986444890516138e+17
19109.0	5.986988512859476e+17
19110.0	5.986292793169236e+17
19111.0	5.983923271456082e+17
19112.0	5.982798883411282e+17
19113.0	5.983866454015999e+17
19114.0	5.981509868235432e+17
19115.0	5.981103341611689e+17
19116.0	5.980218065944573e+17
19117.0	5.978629462119766e+17
19118.0	5.972892385454764e+17
19119.0	5.941188377619092e+17
19120.0	5.972605759302314e+17
19121.0	5.974049386310314e+17
19122.0	5.973795216381267e+17
19123.0	5.972908700598272e+17
19124.0	5.970756120870911e+17
19125.0	5.970292076358314e+17
19126.0	5.967988942787924e+17
19127.0	5.963975563586218e+17
19128.0	5.965407800262655e+17
19129.0	5.965373592917331e+17
19130.0	5.965318964903933e+17
19131.0	5.964532881031168e+17
19132.0	5.963523261726719e+17
19133.0	5.96216785211665e+17
19134.0	5.961268704488106e+17
19135.0	5.960288696969897e+17
19136.0	5.959163837764948e+17
19137.0	5.957864306070867e+17
19138.0	5.956940621763924e+17
19139.0	5.956021089118889e+17
19140.0	5.9549883053725e+17
19141.0	5.953902260256765e+17
19142.0	5.952546720623274e+17
19143.0	5.951565145134419e+17
19144.0	5.950295976706047e+17
19145.0	5.949478954248873e+17
19146.0	5.943420619063301e+17
19147.0	5.947131191186772e+17
19148.0	5.944147863841453e+17
19149.0	5.942701754504532e+17
19150.0	5.944041516564479e+17
19151.0	5.942890120697172e+17
19152.0	5.941581330077012e+17
19153.0	5.936087578269006e+17
19154.0	5.938873182628522e+17
19155.0	5.938127438173524e+17
19156.0	5.937009140957183e+17
19157.0	5.934294713237508e+17
19158.0	5.931210538046808e+17
19159.0	5.933201531513514e+17
19160.0	5.931863246547625e+17
19161.0	5.930295192715263e+17
19162.0	5.928234247345494e+17
19163.0	5.927801727221759e+17
19164.0	5.92750535909922e+17
19165.0	5.922051647515299e+17
19166.0	5.925543642573481e+17
19167.0	5.924804912392873e+17
19168.0	5.92397247516945e+17
19169.0	5.923027218158932e+17
19170.0	5.922056336048127e+17
19171.0	5.920960738405034e+17
19172.0	5.919813286581588e+17
19173.0	5.918873097688404e+17
19174.0	5.917706840003924e+17
19175.0	5.916682921618089e+17
19176.0	5.915632902777514e+17
19177.0	5.913327069473448e+17
19178.0	5.913355269876393e+17
19179.0	5.912261537999529e+17
19180.0	5.911086084303529e+17
19181.0	5.909635649940137e+17
19182.0	5.90865754104354e+17
19183.0	5.907880131690496e+17
19184.0	5.906779398122154e+17
19185.0	5.905533237548374e+17
19186.0	5.904447246958592e+17
19187.0	5.902633619423231e+17
19188.0	5.901923745355092e+17
19189.0	5.900582972467882e+17
19190.0	5.899205223295657e+17
19191.0	5.89746979995648e+17
19192.0	5.896049918301526e+17
19193.0	5.893521201780052e+17
19194.0	5.890838944372054e+17
19195.0	5.889220624602452e+17
19196.0	5.885604783631018e+17
19197.0	5.880825399388841e+17
19198.0	5.873878342216361e+17
19199.0	5.863136702409386e+17
19200.0	5.863206197832361e+17
19201.0	5.871167938931369e+17
19202.0	5.875829414996649e+17
19203.0	5.878059351670783e+17
19204.0	5.879626716239187e+17
19205.0	5.880112236287316e+17
19206.0	5.880116558517588e+17
19207.0	5.878791900845395e+17
19208.0	5.878728282341375e+17
19209.0	5.878528908896938e+17
19210.0	5.877887457908052e+17
19211.0	5.877186807114409e+17
19212.0	5.876197426724863e+17
19213.0	5.874385186805074e+17
19214.0	5.873771150486186e+17
19215.0	5.873139724582911e+17
19216.0	5.872079730988372e+17
19217.0	5.870556467429376e+17
19218.0	5.868586877495978e+17
19219.0	5.86725126919509e+17
19220.0	5.867604393940308e+17
19221.0	5.866622327717888e+17
19222.0	5.865896644618921e+17
19223.0	5.865014162358272e+17
19224.0	5.863848592539645e+17
19225.0	5.863061680291839e+17
19226.0	5.862068555786921e+17
19227.0	5.861128237569363e+17
19228.0	5.860310447554559e+17
19229.0	5.859269120709972e+17
19230.0	5.858216848829097e+17
19231.0	5.857094148292607e+17
19232.0	5.856113554270889e+17
19233.0	5.854616725312852e+17
19234.0	5.853983841189887e+17
19235.0	5.852680210961748e+17
19236.0	5.851925719285759e+17
19237.0	5.850786152753833e+17
19238.0	5.849256548106239e+17
19239.0	5.848760809335465e+17
19240.0	5.847693105911124e+17
19241.0	5.846507106336767e+17
19242.0	5.845485485031423e+17
19243.0	5.843241905684477e+17
19244.0	5.843512367688361e+17
19245.0	5.842388015994196e+17
19246.0	5.841354005413887e+17
19247.0	5.840217319669759e+17
19248.0	5.839220576878591e+17
19249.0	5.837924914429952e+17
19250.0	5.835997048733695e+17
19251.0	5.834408271544312e+17
19252.0	5.832477956374528e+17
19253.0	5.833783797699924e+17
19254.0	5.832845574537215e+17
19255.0	5.83015582889847e+17
19256.0	5.830609602259626e+17
19257.0	5.829602988873043e+17
19258.0	5.828453561532415e+17
19259.0	5.826302989478569e+17
19260.0	5.824049602450771e+17
19261.0	5.824671167545344e+17
19262.0	5.823273977075028e+17
19263.0	5.821916917705385e+17
19264.0	5.820018187042813e+17
19265.0	5.819482528284671e+17
19266.0	5.818443130120874e+17
19267.0	5.818682197759316e+17
19268.0	5.817684401498794e+17
19269.0	5.816584110429524e+17
19270.0	5.815213716668415e+17
19271.0	5.813633285444948e+17
19272.0	5.813148061095252e+17
19273.0	5.810980025357652e+17
19274.0	5.808235448980813e+17
19275.0	5.810350235232938e+17
19276.0	5.809140871987199e+17
19277.0	5.808090034558292e+17
19278.0	5.806818493551955e+17
19279.0	5.805601639978323e+17
19280.0	5.804517759822506e+17
19281.0	5.803486711818922e+17
19282.0	5.80241806397713e+17
19283.0	5.801127836647423e+17
19284.0	5.79946327188002e+17
19285.0	5.797742476176041e+17
19286.0	5.795160740855807e+17
19287.0	5.789552388778666e+17
19288.0	5.76053561559176e+17
19289.0	5.7510775824056237e+17
19290.0	5.785103635229354e+17
19291.0	5.78790928556579e+17
19292.0	5.790624524883284e+17
19293.0	5.790295836852223e+17
19294.0	5.789431223724713e+17
19295.0	5.788735032175274e+17
19296.0	5.784759865879218e+17
19297.0	5.785994356501164e+17
19298.0	5.78550502592785e+17
19299.0	5.781322280031576e+17
19300.0	5.783549623926784e+17
19301.0	5.782534797393917e+17
19302.0	5.78131637305344e+17
19303.0	5.779810359967743e+17
19304.0	5.779113083491668e+17
19305.0	5.777834759596713e+17
19306.0	5.776637190733824e+17
19307.0	5.775052044413609e+17
19308.0	5.773697336650409e+17
19309.0	5.772027166894761e+17
19310.0	5.770240436032854e+17
19311.0	5.768537138965161e+17
19312.0	5.765614763245567e+17
19313.0	5.7556784242141875e+17
19314.0	5.576983545118773e+17
19315.0	5.5840535492253523e+17
19316.0	5.7490337358151725e+17
19317.0	5.760589315964928e+17
19318.0	5.761912050548735e+17
19319.0	5.7619046839528096e+17
19320.0	5.760082855854076e+17
19321.0	5.7577127273649485e+17
19322.0	5.759364137396906e+17
19323.0	5.7582962130725536e+17
19324.0	5.7572684575976096e+17
19325.0	5.75629646958865e+17
19326.0	5.755406271206741e+17
19327.0	5.7544326187581434e+17
19328.0	5.748302380619098e+17
19329.0	5.7525078393705805e+17
19330.0	5.751427671872852e+17
19331.0	5.7501064528308896e+17
19332.0	5.749373213693268e+17
19333.0	5.7481599763087354e+17
19334.0	5.747138871601835e+17
19335.0	5.735610645304674e+17
19336.0	5.744936011956224e+17
19337.0	5.743978380350805e+17
19338.0	5.741241005593938e+17
19339.0	5.741547816834388e+17
19340.0	5.7396015486293325e+17
19341.0	5.73460932932404e+17
19342.0	5.735754689587884e+17
19343.0	5.7361899611750394e+17
19344.0	5.730025165466288e+17
19345.0	5.7264436709512557e+17
19346.0	5.7277799922838176e+17
19347.0	5.72595610128657e+17
19348.0	5.731051803159209e+17
19349.0	5.730086642079059e+17
19350.0	5.7272202183748256e+17
19351.0	5.728077007028222e+17
19352.0	5.7216103192985504e+17
19353.0	5.7263635716287136e+17
19354.0	5.7253019876939085e+17
19355.0	5.7233753579192365e+17
19356.0	5.7230627298781856e+17
19357.0	5.7219278001493325e+17
19358.0	5.7206962245686605e+17
19359.0	5.718314185654267e+17
19360.0	5.7141333439720083e+17
19361.0	5.717264979110569e+17
19362.0	5.716213469893972e+17
19363.0	5.7150688051855354e+17
19364.0	5.713914673233919e+17
19365.0	5.712695888183296e+17
19366.0	5.711579056177151e+17
19367.0	5.710372565330603e+17
19368.0	5.709201886150655e+17
19369.0	5.707749639148883e+17
19370.0	5.7066318242775034e+17
19371.0	5.70519220003362e+17
19372.0	5.7044044482259616e+17
19373.0	5.7030336706860365e+17
19374.0	5.701951338228394e+17
19375.0	5.700750334230528e+17
19376.0	5.699519213032789e+17
19377.0	5.698189215312553e+17
19378.0	5.696907502419967e+17
19379.0	5.6956451518327456e+17
19380.0	5.6942803791380474e+17
19381.0	5.692928617174356e+17
19382.0	5.690913721068202e+17
19383.0	5.68987540014148e+17
19384.0	5.688724441180842e+17
19385.0	5.687353251900073e+17
19386.0	5.6858162443059194e+17
19387.0	5.6840065398429e+17
19388.0	5.681787330101247e+17
19389.0	5.6782768374633805e+17
19390.0	5.6688265078155936e+17
19391.0	5.625867002008903e+17
19392.0	5.653353263879508e+17
19393.0	5.6702393807885645e+17
19394.0	5.6723329522510496e+17
19395.0	5.670533117684398e+17
19396.0	5.670701883894443e+17
19397.0	5.6696541502504954e+17
19398.0	5.6661708730531846e+17
19399.0	5.6631158930145274e+17
19400.0	5.6625630900387846e+17
19401.0	5.663197128993449e+17
19402.0	5.661835541173588e+17
19403.0	5.660082884837374e+17
19404.0	5.658451118129151e+17
19405.0	5.656408506761215e+17
19406.0	5.6544719504670714e+17
19407.0	5.650412398968829e+17
19408.0	5.648698497302528e+17
19409.0	5.647615710461951e+17
19410.0	5.64645927653649e+17
19411.0	5.6445404984989005e+17
19412.0	5.6422847500779514e+17
19413.0	5.63817766453248e+17
19414.0	5.6374552250286074e+17
19415.0	5.6348592577358496e+17
19416.0	5.631180681860435e+17
19417.0	5.629552481009663e+17
19418.0	5.6268669513454925e+17
19419.0	5.624033123674794e+17
19420.0	5.6210694130892794e+17
19421.0	5.6179220800689485e+17
19422.0	5.614257518062249e+17
19423.0	5.610983691124736e+17
19424.0	5.607270989692928e+17
19425.0	5.603260522037247e+17
19426.0	5.599012331716607e+17
19427.0	5.594239543716521e+17
19428.0	5.5888296038891514e+17
19429.0	5.5822471757387085e+17
19430.0	5.573106380832767e+17
19431.0	5.565004994576386e+17
19432.0	5.563676429910015e+17
19433.0	5.5584824219402234e+17
19434.0	5.550884018716671e+17
19435.0	5.539898157170687e+17
19436.0	5.527102108117674e+17
19437.0	5.506554687477076e+17
19438.0	5.420131578544136e+17
19439.0	5.460837921019216e+17
19440.0	5.4878307859387725e+17
19441.0	5.482834040280403e+17
19442.0	5.4713769829335046e+17
19443.0	5.456923393174185e+17
19444.0	5.439800858727764e+17
19445.0	5.4191791108259834e+17
19446.0	5.394912579158015e+17
19447.0	5.3652296260648934e+17
19448.0	5.327584151732225e+17
19449.0	5.2771871802436256e+17
19450.0	5.1967522287998214e+17
19451.0	5.1345528130109446e+17
19452.0	5.2420812122794656e+17
19453.0	5.3008036898624864e+17
19454.0	5.340725412975955e+17
19455.0	5.370023104566612e+17
19456.0	5.3897760555226464e+17
19457.0	5.387974074870446e+17
19458.0	5.000077850443986e+17
19459.0	5.315536698561951e+17
19460.0	5.4464159073785146e+17
19461.0	5.4689854900578976e+17
19462.0	5.4823073601290234e+17
19463.0	5.4921090249523194e+17
19464.0	5.5006160157846176e+17
19465.0	5.508289594217813e+17
19466.0	5.514609500880894e+17
19467.0	5.520692103610367e+17
19468.0	5.525680087367679e+17
19469.0	5.526254284090021e+17
19470.0	5.534006412050431e+17
19471.0	5.538052752889173e+17
19472.0	5.541238521113258e+17
19473.0	5.5441518741858976e+17
19474.0	5.542854523529891e+17
19475.0	5.546325563146238e+17
19476.0	5.550528652115965e+17
19477.0	5.5532910039531514e+17
19478.0	5.555360495916372e+17
19479.0	5.553409878218062e+17
19480.0	5.5580631145731405e+17
19481.0	5.5592664757698554e+17
19482.0	5.560519089979392e+17
19483.0	5.561455074082815e+17
19484.0	5.5620788845281274e+17
19485.0	5.562639888067241e+17
19486.0	5.559417264493919e+17
19487.0	5.563425617521321e+17
19488.0	5.5633119945250125e+17
19489.0	5.561604282253311e+17
19490.0	5.5602963710388896e+17
19491.0	5.5630147183356576e+17
19492.0	5.564035962153641e+17
19493.0	5.5639224656855034e+17
19494.0	5.5633197875418445e+17
19495.0	5.5618728295574176e+17
19496.0	5.558169142383956e+17
19497.0	5.5518927579163296e+17
19498.0	5.51646471494041e+17
19499.0	5.480227501943467e+17
19500.0	5.544773126804822e+17
19501.0	5.556560132571136e+17
19502.0	5.5595460338210125e+17
19503.0	5.5604620642222074e+17
19504.0	5.560485576092328e+17
19505.0	5.559997935124479e+17
19506.0	5.559446528851968e+17
19507.0	5.5581146737541114e+17
19508.0	5.556041622923945e+17
19509.0	5.5508513842353485e+17
19510.0	5.527681638596602e+17
19511.0	5.2888590041306003e+17
19512.0	5.493258947919869e+17
19513.0	5.5130928706136685e+17
19514.0	5.5215731346418285e+17
19515.0	5.545738269709653e+17
19516.0	5.5501556589527014e+17
19517.0	5.5520102613428896e+17
19518.0	5.5513553242685414e+17
19519.0	5.551048675906899e+17
19520.0	5.547878610457934e+17
19521.0	5.551562518691839e+17
19522.0	5.5500157104073363e+17
19523.0	5.549232383590402e+17
19524.0	5.5466125514069395e+17
19525.0	5.5487951973034643e+17
19526.0	5.5482688722698234e+17
19527.0	5.547402935140351e+17
19528.0	5.546337716142079e+17
19529.0	5.545325837505878e+17
19530.0	5.5451245248948896e+17
19531.0	5.544352166182911e+17
19532.0	5.543507489281364e+17
19533.0	5.5426605334746445e+17
19534.0	5.541830988223828e+17
19535.0	5.540752671812266e+17
19536.0	5.5396960784001683e+17
19537.0	5.5387593540020896e+17
19538.0	5.533378827430575e+17
19539.0	5.535873667956736e+17
19540.0	5.5358921914013005e+17
19541.0	5.534520731587924e+17
19542.0	5.5341840792726176e+17
19543.0	5.529534826807298e+17
19544.0	5.5318817069684045e+17
19545.0	5.529281797029887e+17
19546.0	5.528246704319145e+17
19547.0	5.529518276083711e+17
19548.0	5.5292347718915405e+17
19549.0	5.527730211433127e+17
19550.0	5.5277801928567456e+17
19551.0	5.526933706812074e+17
19552.0	5.5260352260778656e+17
19553.0	5.525118779741526e+17
19554.0	5.524160552544938e+17
19555.0	5.5227539752222714e+17
19556.0	5.522101164660051e+17
19557.0	5.521523818015402e+17
19558.0	5.5206540172328954e+17
19559.0	5.519761174342313e+17
19560.0	5.51717809055334e+17
19561.0	5.517703344641365e+17
19562.0	5.5154819965037203e+17
19563.0	5.5160760378763936e+17
19564.0	5.515113942133417e+17
19565.0	5.514197098736297e+17
19566.0	5.513149502805332e+17
19567.0	5.5123310941306874e+17
19568.0	5.511196058845182e+17
19569.0	5.510329322700799e+17
19570.0	5.5094549298544634e+17
19571.0	5.5085462821273594e+17
19572.0	5.507347222888449e+17
19573.0	5.506119160037375e+17
19574.0	5.504765212142248e+17
19575.0	5.504778689839102e+17
19576.0	5.503526798447956e+17
19577.0	5.5018915952066554e+17
19578.0	5.5018421967912954e+17
19579.0	5.50073750729523e+17
19580.0	5.499827546750975e+17
19581.0	5.499053457189547e+17
19582.0	5.49813998461474e+17
19583.0	5.497174538321919e+17
19584.0	5.4961156527226874e+17
19585.0	5.494208974553084e+17
19586.0	5.492988574695425e+17
19587.0	5.492753841870165e+17
19588.0	5.4910190392879776e+17
19589.0	5.4906375156094285e+17
19590.0	5.489540026335231e+17
19591.0	5.4893062470150816e+17
19592.0	5.488505216040958e+17
19593.0	5.487019418102441e+17
19594.0	5.4842009996055846e+17
19595.0	5.4854749194813434e+17
19596.0	5.484105279296853e+17
19597.0	5.483366925904554e+17
19598.0	5.4803222953110176e+17
19599.0	5.481306767665834e+17
19600.0	5.480623171611305e+17
19601.0	5.47924441370897e+17
19602.0	5.4779763113328634e+17
19603.0	5.4764999554717005e+17
19604.0	5.475911942012926e+17
19605.0	5.474059257817777e+17
19606.0	5.474777228989781e+17
19607.0	5.473966875475968e+17
19608.0	5.472991887840596e+17
19609.0	5.4718711355583136e+17
19610.0	5.469321128749742e+17
19611.0	5.467442073567234e+17
19612.0	5.469253190112598e+17
19613.0	5.4681469053829114e+17
19614.0	5.466849729489577e+17
19615.0	5.465899235890517e+17
19616.0	5.46261441498317e+17
19617.0	5.460390976684033e+17
19618.0	5.459777528266751e+17
19619.0	5.4577377655302816e+17
19620.0	5.457417472398673e+17
19621.0	5.4551826346803174e+17
19622.0	5.4586888372442445e+17
19623.0	5.4575295393082016e+17
19624.0	5.4558858349117446e+17
19625.0	5.4553290123946656e+17
19626.0	5.4536308176977914e+17
19627.0	5.451591519130964e+17
19628.0	5.448467129652565e+17
19629.0	5.434224425304057e+17
19630.0	5.4357212577573536e+17
19631.0	5.429476222915924e+17
19632.0	5.438881615489705e+17
19633.0	5.4424151082926086e+17
19634.0	5.4445239672941216e+17
19635.0	5.4441671256965075e+17
19636.0	5.4402553912579366e+17
19637.0	5.437127720435712e+17
19638.0	5.443061426072232e+17
19639.0	5.442389748831573e+17
19640.0	5.439423509779796e+17
19641.0	5.436100513715544e+17
19642.0	5.4392441676322125e+17
19643.0	5.43853385945361e+17
19644.0	5.4376321588920314e+17
19645.0	5.436721360885077e+17
19646.0	5.43169139424187e+17
19647.0	5.435487493117268e+17
19648.0	5.434675303896403e+17
19649.0	5.433746025086975e+17
19650.0	5.4328638294370976e+17
19651.0	5.43188022600226e+17
19652.0	5.4309211389733536e+17
19653.0	5.429991681206953e+17
19654.0	5.429013204609706e+17
19655.0	5.428016133264724e+17
19656.0	5.4271678590484474e+17
19657.0	5.4261591715785376e+17
19658.0	5.4252414823301114e+17
19659.0	5.4242951327034016e+17
19660.0	5.423364207629653e+17
