# Flux units: erg / (cm m2 s)
# Wavelength units: Angstrom
wave	flux
19000.0	5.767724713465172e+17
19001.0	5.766645849696938e+17
19002.0	5.765580009242623e+17
19003.0	5.7645036809311565e+17
19004.0	5.763427702844074e+17
19005.0	5.7623521127301114e+17
19006.0	5.7612763087066445e+17
19007.0	5.760200605346473e+17
19008.0	5.7591186664543565e+17
19009.0	5.758037799206911e+17
19010.0	5.7569253719190176e+17
19011.0	5.755895188641109e+17
19012.0	5.754814902304766e+17
19013.0	5.753748549446313e+17
19014.0	5.7526735682054816e+17
19015.0	5.7515987232795296e+17
19016.0	5.7505175952861856e+17
19017.0	5.74944855527697e+17
19018.0	5.7483743919254176e+17
19019.0	5.7473004382890656e+17
19020.0	5.746225633209003e+17
19021.0	5.745151562132138e+17
19022.0	5.744077986682195e+17
19023.0	5.743004003685716e+17
19024.0	5.741928978404691e+17
19025.0	5.740856405393407e+17
19026.0	5.739779745032873e+17
19027.0	5.738701629248851e+17
19028.0	5.737636571032234e+17
19029.0	5.736563384254464e+17
19030.0	5.735490505758036e+17
19031.0	5.7344176796904096e+17
19032.0	5.733344979451902e+17
19033.0	5.732263125144917e+17
19034.0	5.7311999837252256e+17
19035.0	5.7301269374566394e+17
19036.0	5.728468817237332e+17
19037.0	5.727983313267369e+17
19038.0	5.7269118468532896e+17
19039.0	5.7258402399300256e+17
19040.0	5.724768748350121e+17
19041.0	5.723697181971797e+17
19042.0	5.722617904365566e+17
19043.0	5.721555167696213e+17
19044.0	5.7204840242435405e+17
19045.0	5.7194135057421645e+17
19046.0	5.718337425593685e+17
19047.0	5.717270084976639e+17
19048.0	5.716180900424362e+17
19049.0	5.7151321126120096e+17
19050.0	5.7140621393701536e+17
19051.0	5.7129140996450963e+17
19052.0	5.711905352755881e+17
19053.0	5.7108533178531834e+17
19054.0	5.709783817868628e+17
19055.0	5.708688899003732e+17
19056.0	5.7076459713331194e+17
19057.0	5.7065771731954323e+17
19058.0	5.705508574287188e+17
19059.0	5.704439894289066e+17
19060.0	5.7033693813800954e+17
19061.0	5.7023036786387616e+17
19062.0	5.701235200666281e+17
19063.0	5.7001676014004896e+17
19064.0	5.6990903831975245e+17
19065.0	5.698025596212564e+17
19066.0	5.69696564945442e+17
19067.0	5.695898517853524e+17
19068.0	5.694831533752319e+17
19069.0	5.6937648956811936e+17
19070.0	5.6926973173869216e+17
19071.0	5.691631968365226e+17
19072.0	5.690565736442538e+17
19073.0	5.689499450692949e+17
19074.0	5.688434140119039e+17
19075.0	5.687368464640682e+17
19076.0	5.686300877957802e+17
19077.0	5.6852358539946656e+17
19078.0	5.684169569643177e+17
19079.0	5.6831074823918925e+17
19080.0	5.682042731757567e+17
19081.0	5.680978119535274e+17
19082.0	5.679909277357396e+17
19083.0	5.678847668256767e+17
19084.0	5.677762862557866e+17
19085.0	5.6767214574196045e+17
19086.0	5.6756268363502925e+17
19087.0	5.6745786483234125e+17
19088.0	5.673528829411326e+17
19089.0	5.672444134162431e+17
19090.0	5.671404435406847e+17
19091.0	5.6703410821748045e+17
19092.0	5.6692756877148154e+17
19093.0	5.668216848951979e+17
19094.0	5.6671538116908365e+17
19095.0	5.6660915231129594e+17
19096.0	5.665028995459753e+17
19097.0	5.663968606901588e+17
19098.0	5.662907490631679e+17
19099.0	5.6618461541608096e+17
19100.0	5.6607850043364685e+17
19101.0	5.6597233994301434e+17
19102.0	5.6586518414404256e+17
19103.0	5.6576026663540045e+17
19104.0	5.656542240047103e+17
19105.0	5.6554819961924256e+17
19106.0	5.6544191294996474e+17
19107.0	5.6533605661627725e+17
19108.0	5.6523023320787616e+17
19109.0	5.651201915879423e+17
19110.0	5.650181942236501e+17
19111.0	5.649124461030058e+17
19112.0	5.648065540478291e+17
19113.0	5.647006796087294e+17
19114.0	5.645948208982698e+17
19115.0	5.6448864831406074e+17
19116.0	5.6438315373909325e+17
19117.0	5.642773032774313e+17
19118.0	5.641709985726463e+17
19119.0	5.640012930482175e+17
19120.0	5.639595997790207e+17
19121.0	5.6385396784059725e+17
19122.0	5.6374861957693434e+17
19123.0	5.6364292528319123e+17
19124.0	5.635372538484054e+17
19125.0	5.6343159247994874e+17
19126.0	5.6332589902506656e+17
19127.0	5.632015683201706e+17
19128.0	5.6311465500125856e+17
19129.0	5.6300909611362976e+17
19130.0	5.6290359021404154e+17
19131.0	5.627980114034688e+17
19132.0	5.626924602753023e+17
19133.0	5.6258633823245645e+17
19134.0	5.6248150908381856e+17
19135.0	5.623760184934399e+17
19136.0	5.622705729918292e+17
19137.0	5.6216344096058016e+17
19138.0	5.620595129581567e+17
19139.0	5.6195429520725325e+17
19140.0	5.6184892415453856e+17
19141.0	5.617435541503999e+17
19142.0	5.6163818568417274e+17
19143.0	5.615323240377002e+17
19144.0	5.614274140788053e+17
19145.0	5.613222537199615e+17
19146.0	5.6121099945683616e+17
19147.0	5.6111058453353805e+17
19148.0	5.610064379379711e+17
19149.0	5.609012116586496e+17
19150.0	5.607959256104958e+17
19151.0	5.606908222242815e+17
19152.0	5.605856328548351e+17
19153.0	5.6048048563814394e+17
19154.0	5.6037400924651514e+17
19155.0	5.6027020944998394e+17
19156.0	5.601650664275967e+17
19157.0	5.6005993053552634e+17
19158.0	5.599520803695274e+17
19159.0	5.5984966329521485e+17
19160.0	5.5974475627233274e+17
19161.0	5.5963976228754765e+17
19162.0	5.595283663268521e+17
19163.0	5.5942955201986554e+17
19164.0	5.593248108118015e+17
19165.0	5.592197021827071e+17
19166.0	5.5911347059862176e+17
19167.0	5.590093709093545e+17
19168.0	5.5890488974813856e+17
19169.0	5.5879991463772154e+17
19170.0	5.586952682209279e+17
19171.0	5.5858999957913594e+17
19172.0	5.5848555134320634e+17
19173.0	5.583807075844094e+17
19174.0	5.5827528375336954e+17
19175.0	5.5817110374318074e+17
19176.0	5.5806631262289914e+17
19177.0	5.57959973175296e+17
19178.0	5.578565856788479e+17
19179.0	5.577514770497534e+17
19180.0	5.576472032968703e+17
19181.0	5.5754127076666016e+17
19182.0	5.574375830978558e+17
19183.0	5.5733316939502925e+17
19184.0	5.5722835282930336e+17
19185.0	5.5712377799529805e+17
19186.0	5.570191700262911e+17
19187.0	5.569144978145279e+17
19188.0	5.568098914533375e+17
19189.0	5.567053473775615e+17
19190.0	5.5660072486830074e+17
19191.0	5.564960956481535e+17
19192.0	5.563915979194367e+17
19193.0	5.5628702574182394e+17
19194.0	5.561824915226623e+17
19195.0	5.560779484954623e+17
19196.0	5.55973311795473e+17
19197.0	5.558688055383381e+17
19198.0	5.5576428690800634e+17
19199.0	5.5562241038090234e+17
19200.0	5.5552902930541216e+17
19201.0	5.5545090543015245e+17
19202.0	5.553465583468543e+17
19203.0	5.552421428964009e+17
19204.0	5.551374504121684e+17
19205.0	5.550332931211264e+17
19206.0	5.549287826696873e+17
19207.0	5.5482405684073805e+17
19208.0	5.5471785210019834e+17
19209.0	5.546157539327999e+17
19210.0	5.545113858080767e+17
19211.0	5.544070277496831e+17
19212.0	5.5430267856923296e+17
19213.0	5.5419738797725e+17
19214.0	5.5409253764737696e+17
19215.0	5.539895246323711e+17
19216.0	5.5388534203569485e+17
19217.0	5.5378103920230394e+17
19218.0	5.536681742565375e+17
19219.0	5.5357097314877434e+17
19220.0	5.5346816090112e+17
19221.0	5.533605800793428e+17
19222.0	5.532594582760106e+17
19223.0	5.5315529021958816e+17
19224.0	5.5305102737189536e+17
19225.0	5.5294529714694816e+17
19226.0	5.52842536419328e+17
19227.0	5.5273830209290234e+17
19228.0	5.5263405455441914e+17
19229.0	5.525297917067262e+17
19230.0	5.524255160664064e+17
19231.0	5.5232132724817914e+17
19232.0	5.5221697408314016e+17
19233.0	5.5192944307950886e+17
19234.0	5.517329634951167e+17
19235.0	5.5162902116215456e+17
19236.0	5.5152482612237645e+17
19237.0	5.514204777807871e+17
19238.0	5.513160045887487e+17
19239.0	5.512122897268735e+17
19240.0	5.511078066782207e+17
19241.0	5.510037992636415e+17
19242.0	5.508996502213972e+17
19243.0	5.5079398263138976e+17
19244.0	5.5069131103272954e+17
19245.0	5.5058710082355194e+17
19246.0	5.504827232616447e+17
19247.0	5.5037865468013216e+17
19248.0	5.502744370610175e+17
19249.0	5.501701842097492e+17
19250.0	5.5006588053749766e+17
19251.0	5.499603520585728e+17
19252.0	5.498548342751231e+17
19253.0	5.497530347421694e+17
19254.0	5.496488341798911e+17
19255.0	5.495428688642047e+17
19256.0	5.4943979139672723e+17
19257.0	5.4933595874481485e+17
19258.0	5.492316160655358e+17
19259.0	5.4912726807347194e+17
19260.0	5.49021806563601e+17
19261.0	5.489185191712083e+17
19262.0	5.4881411406670496e+17
19263.0	5.4870925171316045e+17
19264.0	5.485996684607487e+17
19265.0	5.484986231335594e+17
19266.0	5.4839378384868685e+17
19267.0	5.482918092734462e+17
19268.0	5.481872805068799e+17
19269.0	5.480827276230656e+17
19270.0	5.4797811119554554e+17
19271.0	5.4786995715222176e+17
19272.0	5.4776853182109005e+17
19273.0	5.476537813958655e+17
19274.0	5.4755191335594656e+17
19275.0	5.474548081579349e+17
19276.0	5.4735005338828794e+17
19277.0	5.4724525807370234e+17
19278.0	5.4714041368576e+17
19279.0	5.47035522741043e+17
19280.0	5.469298413098324e+17
19281.0	5.4682564822739616e+17
19282.0	5.4672068800675834e+17
19283.0	5.466150813040639e+17
19284.0	5.465104614511957e+17
19285.0	5.464036932758185e+17
19286.0	5.463002304217088e+17
19287.0	5.461949982004564e+17
19288.0	5.460721148799657e+17
19289.0	5.459475798425599e+17
19290.0	5.458789687186772e+17
19291.0	5.4577095252814496e+17
19292.0	5.456679872582996e+17
19293.0	5.455623267287039e+17
19294.0	5.4545675679607456e+17
19295.0	5.4535103062562125e+17
19296.0	5.450324968647335e+17
19297.0	5.4481936428564474e+17
19298.0	5.447133358456832e+17
19299.0	5.446072049947988e+17
19300.0	5.4450097809435296e+17
19301.0	5.4439460453307725e+17
19302.0	5.44288236773922e+17
19303.0	5.4418139736528186e+17
19304.0	5.4407478312086176e+17
19305.0	5.4396844598012576e+17
19306.0	5.438616562739881e+17
19307.0	5.437544894999211e+17
19308.0	5.436476725308073e+17
19309.0	5.4353909877746336e+17
19310.0	5.434315076097363e+17
19311.0	5.433256735757652e+17
19312.0	5.4321831784830285e+17
19313.0	5.4311057135151776e+17
19314.0	5.429284776006998e+17
19315.0	5.428249561661439e+17
19316.0	5.427866019823615e+17
19317.0	5.426784571665066e+17
19318.0	5.4257001140933965e+17
19319.0	5.424614131892223e+17
19320.0	5.423526156697598e+17
19321.0	5.4224364576440314e+17
19322.0	5.420731748493992e+17
19323.0	5.4183842825284256e+17
19324.0	5.417292670872234e+17
19325.0	5.416180361723902e+17
19326.0	5.4150916853814605e+17
19327.0	5.4139863891094176e+17
19328.0	5.4128815430260045e+17
19329.0	5.41177296401203e+17
19330.0	5.4106577223461536e+17
19331.0	5.409546533776042e+17
19332.0	5.408430942584832e+17
19333.0	5.407311350027604e+17
19334.0	5.4061886425006074e+17
19335.0	5.4050631702282234e+17
19336.0	5.403933985996799e+17
19337.0	5.402574716927999e+17
19338.0	5.4010055578965325e+17
19339.0	5.3998872152418976e+17
19340.0	5.3987310777139194e+17
19341.0	5.3975904661012474e+17
19342.0	5.3964069215928314e+17
19343.0	5.3952882804435616e+17
19344.0	5.3941281478410234e+17
19345.0	5.392762970395988e+17
19346.0	5.3916952739621536e+17
19347.0	5.390613269359274e+17
19348.0	5.389441106094762e+17
19349.0	5.388256670995796e+17
19350.0	5.38706671828992e+17
19351.0	5.3858713675147936e+17
19352.0	5.3846680769221965e+17
19353.0	5.383462245280426e+17
19354.0	5.382248666759167e+17
19355.0	5.381019523175764e+17
19356.0	5.3798005962178554e+17
19357.0	5.378566336981673e+17
19358.0	5.3773234885099514e+17
19359.0	5.3760691958797645e+17
19360.0	5.3748135652666016e+17
19361.0	5.373547074901332e+17
19362.0	5.3722761504576845e+17
19363.0	5.3709921670485325e+17
19364.0	5.369699137224704e+17
19365.0	5.3683961885709645e+17
19366.0	5.3670827226999456e+17
19367.0	5.365758564149931e+17
19368.0	5.3644232906943136e+17
19369.0	5.3630713302002336e+17
19370.0	5.3617070866868896e+17
19371.0	5.3603448508470605e+17
19372.0	5.3589595274608634e+17
19373.0	5.357560417397417e+17
19374.0	5.356146972601002e+17
19375.0	5.3547179795196576e+17
19376.0	5.3532740882705043e+17
19377.0	5.351813036725587e+17
19378.0	5.3494819858677766e+17
19379.0	5.3478352888354125e+17
19380.0	5.3463138574882125e+17
19381.0	5.344772742272341e+17
19382.0	5.343204673759913e+17
19383.0	5.341618507524777e+17
19384.0	5.3400256702491296e+17
19385.0	5.3383981530699085e+17
19386.0	5.3367466304907936e+17
19387.0	5.335069147267071e+17
19388.0	5.333365097321812e+17
19389.0	5.331633262209706e+17
19390.0	5.3298723773480954e+17
19391.0	5.3261511461000506e+17
19392.0	5.324788936824147e+17
19393.0	5.3229307741689165e+17
19394.0	5.321020486800725e+17
19395.0	5.3190745275760634e+17
19396.0	5.3170918702885536e+17
19397.0	5.314966519982761e+17
19398.0	5.3110666421425485e+17
19399.0	5.308851391823871e+17
19400.0	5.306733413706409e+17
19401.0	5.304504169791488e+17
19402.0	5.300908302095701e+17
19403.0	5.2973421866953376e+17
19404.0	5.2948902042664954e+17
19405.0	5.291584288806225e+17
19406.0	5.2866393518899194e+17
19407.0	5.2839086446783136e+17
19408.0	5.278228620334418e+17
19409.0	5.27431377162513e+17
19410.0	5.2677988542928154e+17
19411.0	5.2629621409054675e+17
19412.0	5.2545311634445645e+17
19413.0	5.2464802255776435e+17
19414.0	5.2372117693399014e+17
19415.0	5.2272526286738726e+17
19416.0	5.219897232239273e+17
19417.0	5.2145556658585594e+17
19418.0	5.2089519135348045e+17
19419.0	5.2030647052533754e+17
19420.0	5.196887876086442e+17
19421.0	5.190437177742677e+17
19422.0	5.1836668035290445e+17
19423.0	5.176549658940756e+17
19424.0	5.169063677045419e+17
19425.0	5.1612050801732256e+17
19426.0	5.152966238186153e+17
19427.0	5.144428433899519e+17
19428.0	5.1354685609956685e+17
19429.0	5.1260408386464403e+17
19430.0	5.116484855179947e+17
19431.0	5.1064704538596685e+17
19432.0	5.09617349276467e+17
19433.0	5.0855082466126496e+17
19434.0	5.074281297870847e+17
19435.0	5.063567102793044e+17
19436.0	5.051356327619241e+17
19437.0	5.03796008414959e+17
19438.0	5.0208074849320966e+17
19439.0	4.999119268129445e+17
19440.0	4.9625335371311654e+17
19441.0	4.906800185518762e+17
19442.0	4.8720834468686515e+17
19443.0	4.835986139075925e+17
19444.0	4.797681532665855e+17
19445.0	4.755367428183385e+17
19446.0	4.696643260994895e+17
19447.0	4.5778099842143405e+17
19448.0	4.4705410480865344e+17
19449.0	4.289004784582648e+17
19450.0	3.8134267238154285e+17
19451.0	3.622534062101813e+17
19452.0	4.093051090414262e+17
19453.0	4.401821571350539e+17
19454.0	4.5210517670024474e+17
19455.0	4.6368934942037254e+17
19456.0	4.722854318134617e+17
19457.0	4.767963637525161e+17
19458.0	4.803854122090497e+17
19459.0	4.841166985319767e+17
19460.0	4.8735199994839014e+17
19461.0	4.9170765029485306e+17
19462.0	4.9647152847476045e+17
19463.0	4.990632500832939e+17
19464.0	5.007381380814164e+17
19465.0	5.019925443772415e+17
19466.0	5.0306202856325114e+17
19467.0	5.0402165791566496e+17
19468.0	5.049190884660566e+17
19469.0	5.058306148139007e+17
19470.0	5.0669506345478816e+17
19471.0	5.0751796248139085e+17
19472.0	5.083001803243519e+17
19473.0	5.090482106051242e+17
19474.0	5.0978465433081165e+17
19475.0	5.104498524203689e+17
19476.0	5.1110211814249805e+17
19477.0	5.117112907464704e+17
19478.0	5.1228175404892154e+17
19479.0	5.128147167783594e+17
19480.0	5.1331147826025805e+17
19481.0	5.137741638882645e+17
19482.0	5.1420787666234016e+17
19483.0	5.146133777088511e+17
19484.0	5.14989928620578e+17
19485.0	5.1533915615832736e+17
19486.0	5.156917173288963e+17
19487.0	5.163496761895591e+17
19488.0	5.17251050644002e+17
19489.0	5.17923957374976e+17
19490.0	5.184032277703339e+17
19491.0	5.188786540161706e+17
19492.0	5.1931434321619616e+17
19493.0	5.195510544247466e+17
19494.0	5.198898668066135e+17
19495.0	5.200923567587326e+17
19496.0	5.20195013747234e+17
19497.0	5.205248030627157e+17
19498.0	5.205677984535892e+17
19499.0	5.205399151400276e+17
19500.0	5.2084010203654835e+17
19501.0	5.2092799486525434e+17
19502.0	5.2095196230669645e+17
19503.0	5.209712133231957e+17
19504.0	5.2099973689726304e+17
19505.0	5.2117884290553165e+17
19506.0	5.2118180862798496e+17
19507.0	5.211810225455103e+17
19508.0	5.2117679405793274e+17
19509.0	5.211688148839083e+17
19510.0	5.2115537892037965e+17
19511.0	5.21012419563793e+17
19512.0	5.2121256538931206e+17
19513.0	5.212115802871124e+17
19514.0	5.211942232085844e+17
19515.0	5.211792175267839e+17
19516.0	5.211533955738281e+17
19517.0	5.2111985917733536e+17
19518.0	5.210850660275541e+17
19519.0	5.210472871624703e+17
19520.0	5.2100717514588154e+17
19521.0	5.2096547635418445e+17
19522.0	5.209216021867178e+17
19523.0	5.208758262519123e+17
19524.0	5.2082821202356896e+17
19525.0	5.207786994532351e+17
19526.0	5.2078319637626874e+17
19527.0	5.207677891597653e+17
19528.0	5.2071301840022176e+17
19529.0	5.2065678991032314e+17
19530.0	5.205991746437119e+17
19531.0	5.2054022558842874e+17
19532.0	5.204800013249194e+17
19533.0	5.2041855379264845e+17
19534.0	5.2035593437184e+17
19535.0	5.202921911571796e+17
19536.0	5.2022729688569165e+17
19537.0	5.2016152076178765e+17
19538.0	5.200932637769728e+17
19539.0	5.2002130475963725e+17
19540.0	5.1995816783162016e+17
19541.0	5.198886556314281e+17
19542.0	5.198182754899285e+17
19543.0	5.197470908809214e+17
19544.0	5.1967513605789e+17
19545.0	5.1959703273471994e+17
19546.0	5.1951989137517216e+17
19547.0	5.194549511061503e+17
19548.0	5.193801491895636e+17
19549.0	5.1930391240157856e+17
19550.0	5.192288593859925e+17
19551.0	5.191523322822655e+17
19552.0	5.190752062319274e+17
19553.0	5.189972850114559e+17
19554.0	5.1891899965549216e+17
19555.0	5.188407298184533e+17
19556.0	5.1876159008276474e+17
19557.0	5.18681939410944e+17
19558.0	5.1860191188090874e+17
19559.0	5.1852144408876365e+17
19560.0	5.1844058573701126e+17
19561.0	5.183593090034346e+17
19562.0	5.1827765827775136e+17
19563.0	5.1819563712511994e+17
19564.0	5.1811326805497165e+17
19565.0	5.1803055316445856e+17
19566.0	5.179473065061034e+17
19567.0	5.1786414583098016e+17
19568.0	5.177805060964351e+17
19569.0	5.176964562288639e+17
19570.0	5.1761232268492794e+17
19571.0	5.1752781626736634e+17
19572.0	5.1744304085510816e+17
19573.0	5.1735794751460685e+17
19574.0	5.172727716861269e+17
19575.0	5.1718728065570125e+17
19576.0	5.171015601968468e+17
19577.0	5.170154813347158e+17
19578.0	5.169290137305087e+17
19579.0	5.168431148739242e+17
19580.0	5.16756520182306e+17
19581.0	5.1666964754814285e+17
19582.0	5.1658290284025165e+17
19583.0	5.1649580420300794e+17
19584.0	5.1640845369780896e+17
19585.0	5.163203473790294e+17
19586.0	5.162320977548628e+17
19587.0	5.161455163452074e+17
19588.0	5.1605296224665594e+17
19589.0	5.160257151391062e+17
19590.0	5.1593753548991136e+17
19591.0	5.159373655506942e+17
19592.0	5.1592773962301434e+17
19593.0	5.1583894928315725e+17
19594.0	5.1574771051834016e+17
19595.0	5.156606285884074e+17
19596.0	5.155698271496874e+17
19597.0	5.1548243861613216e+17
19598.0	5.153891857465343e+17
19599.0	5.1530371519829325e+17
19600.0	5.152141661088426e+17
19601.0	5.151241178273108e+17
19602.0	5.150341794365439e+17
19603.0	5.149429343103658e+17
19604.0	5.148590833926143e+17
19605.0	5.14766575641122e+17
19606.0	5.14679334048017e+17
19607.0	5.1458924291467936e+17
19608.0	5.1449899197835936e+17
19609.0	5.144085086775978e+17
19610.0	5.143184322942294e+17
19611.0	5.142279636735315e+17
19612.0	5.1413758900524365e+17
19613.0	5.1404707508606285e+17
19614.0	5.1395650244662605e+17
19615.0	5.1386584948626765e+17
19616.0	5.137747508112042e+17
19617.0	5.136844612173823e+17
19618.0	5.135874397656405e+17
19619.0	5.1349537451322016e+17
19620.0	5.1340492029296634e+17
19621.0	5.1332107273065805e+17
19622.0	5.1323012379224723e+17
19623.0	5.1313913053402445e+17
19624.0	5.130480959619071e+17
19625.0	5.129570211244715e+17
19626.0	5.128659148996607e+17
19627.0	5.1277476148893005e+17
19628.0	5.1268266974248954e+17
19629.0	5.1259147893254816e+17
19630.0	5.12497846198818e+17
19631.0	5.123686020065961e+17
19632.0	5.12318537605666e+17
19633.0	5.1222724172840954e+17
19634.0	5.1213592271257594e+17
19635.0	5.12044562452753e+17
19636.0	5.119531698967893e+17
19637.0	5.118582920839166e+17
19638.0	5.1177020897361914e+17
19639.0	5.1167885996851194e+17
19640.0	5.115862303724885e+17
19641.0	5.1148550898537805e+17
19642.0	5.116241147942227e+17
19643.0	5.115890634850304e+17
19644.0	5.114969868380842e+17
19645.0	5.1140267777283405e+17
19646.0	5.1131385471740576e+17
19647.0	5.1122208977715194e+17
19648.0	5.111303141414228e+17
19649.0	5.110384952344575e+17
19650.0	5.1094672994467834e+17
19651.0	5.108549212438527e+17
19652.0	5.1076310499327994e+17
19653.0	5.1067126113020576e+17
19654.0	5.105794516604245e+17
