# Flux units: erg / (cm m2 s)
# Wavelength units: Angstrom
wave	flux
19000.0	5.188517715334485e+17
19001.0	5.1875103721390074e+17
19002.0	5.186708040231594e+17
19003.0	5.18579942466082e+17
19004.0	5.1848237945978874e+17
19005.0	5.183907570559658e+17
19006.0	5.183012898952532e+17
19007.0	5.182134687891455e+17
19008.0	5.181209193742335e+17
19009.0	5.1802112094371834e+17
19010.0	5.179339099690325e+17
19011.0	5.17840775099187e+17
19012.0	5.1773228593097376e+17
19013.0	5.1766797585612794e+17
19014.0	5.175684865458175e+17
19015.0	5.174782570004479e+17
19016.0	5.173945846202367e+17
19017.0	5.173063843490473e+17
19018.0	5.172117118473556e+17
19019.0	5.1712350018164045e+17
19020.0	5.1703045493009056e+17
19021.0	5.169406659264511e+17
19022.0	5.1685119736763725e+17
19023.0	5.1674826732994554e+17
19024.0	5.166534073428649e+17
19025.0	5.1656993517076474e+17
19026.0	5.164779108827135e+17
19027.0	5.1638865483530234e+17
19028.0	5.162933487140864e+17
19029.0	5.1619846586804915e+17
19030.0	5.161054545204564e+17
19031.0	5.1601559833804794e+17
19032.0	5.159180299490645e+17
19033.0	5.1579666056260256e+17
19034.0	5.1567863529471994e+17
19035.0	5.1549817564474016e+17
19036.0	5.15257722348066e+17
19037.0	5.1532769466340685e+17
19038.0	5.1531840798501536e+17
19039.0	5.1526352943185914e+17
19040.0	5.151875176682836e+17
19041.0	5.151050712831315e+17
19042.0	5.146440298222928e+17
19043.0	5.149336898546347e+17
19044.0	5.1484662008818336e+17
19045.0	5.14750216737041e+17
19046.0	5.146586999597738e+17
19047.0	5.145659288059903e+17
19048.0	5.1442028803085645e+17
19049.0	5.1359625171872326e+17
19050.0	5.1427046923960314e+17
19051.0	5.1416245053248845e+17
19052.0	5.140804465065983e+17
19053.0	5.1401025406020256e+17
19054.0	5.139275929965909e+17
19055.0	5.1371823060746234e+17
19056.0	5.137270035535187e+17
19057.0	5.1367441236404896e+17
19058.0	5.131892036031823e+17
19059.0	5.1334098239269536e+17
19060.0	5.1340714306437114e+17
19061.0	5.133144024591019e+17
19062.0	5.132223211984213e+17
19063.0	5.131380931428351e+17
19064.0	5.130464668243283e+17
19065.0	5.1294866327470074e+17
19066.0	5.1272341307173555e+17
19067.0	5.1276799950192634e+17
19068.0	5.12689481781521e+17
19069.0	5.125993391281492e+17
19070.0	5.125017617913172e+17
19071.0	5.124140730854058e+17
19072.0	5.1218215631585254e+17
19073.0	5.122410792266409e+17
19074.0	5.1214270042821965e+17
19075.0	5.1205875632701434e+17
19076.0	5.119667559464959e+17
19077.0	5.1187676058309965e+17
19078.0	5.1178574118038176e+17
19079.0	5.1169494099995296e+17
19080.0	5.116069558266538e+17
19081.0	5.1151426443455136e+17
19082.0	5.1143045930461856e+17
19083.0	5.113306404618239e+17
19084.0	5.112316042761556e+17
19085.0	5.111555655292245e+17
19086.0	5.1082970767469203e+17
19087.0	5.1064621645168595e+17
19088.0	5.10678401373525e+17
19089.0	5.107844568667477e+17
19090.0	5.107072965629268e+17
19091.0	5.1059369789358086e+17
19092.0	5.102155705526963e+17
19093.0	5.104389206660437e+17
19094.0	5.103504614664874e+17
19095.0	5.1025709577011194e+17
19096.0	5.1017152896259405e+17
19097.0	5.100815313622357e+17
19098.0	5.098323361573544e+17
19099.0	5.097068414631937e+17
19100.0	5.0980978030892365e+17
19101.0	5.0971998340601165e+17
19102.0	5.0963069317502285e+17
19103.0	5.095396446917972e+17
19104.0	5.0945569765457914e+17
19105.0	5.090088990714549e+17
19106.0	5.0927149088331085e+17
19107.0	5.0909583685713894e+17
19108.0	5.089543315958442e+17
19109.0	5.090005219278847e+17
19110.0	5.08911916347119e+17
19111.0	5.0871669092952723e+17
19112.0	5.086098111856637e+17
19113.0	5.0864557217109325e+17
19114.0	5.084808252926633e+17
19115.0	5.084488781179562e+17
19116.0	5.083628806952276e+17
19117.0	5.082596203560959e+17
19118.0	5.0808476094081696e+17
19119.0	5.077382200644947e+17
19120.0	5.0794173636280314e+17
19121.0	5.0790464354604365e+17
19122.0	5.078345305118036e+17
19123.0	5.0775117354325325e+17
19124.0	5.0765012381204474e+17
19125.0	5.075690802118654e+17
19126.0	5.074738877562879e+17
19127.0	5.07376353480977e+17
19128.0	5.07292471665186e+17
19129.0	5.0721000878243834e+17
19130.0	5.071304932371114e+17
19131.0	5.070444451332094e+17
19132.0	5.0695379105437005e+17
19133.0	5.068658543951871e+17
19134.0	5.0677884978025805e+17
19135.0	5.066920007740074e+17
19136.0	5.0660109783313056e+17
19137.0	5.065085318507178e+17
19138.0	5.064249077050025e+17
19139.0	5.0633779180120736e+17
19140.0	5.062497926468949e+17
19141.0	5.0615961182535674e+17
19142.0	5.060679585933994e+17
19143.0	5.0598046520224403e+17
19144.0	5.058877710838442e+17
19145.0	5.0580225761389216e+17
19146.0	5.0566664807601485e+17
19147.0	5.056247782965247e+17
19148.0	5.054114126539437e+17
19149.0	5.0529603231416314e+17
19150.0	5.0536146149922125e+17
19151.0	5.0526905056624634e+17
19152.0	5.0518120492346016e+17
19153.0	5.0482302212724e+17
19154.0	5.0498171319965005e+17
19155.0	5.0491532309954554e+17
19156.0	5.048249914927785e+17
19157.0	5.046508599989591e+17
19158.0	5.044561998337367e+17
19159.0	5.0455236117353805e+17
19160.0	5.0446504275476474e+17
19161.0	5.0437703633032525e+17
19162.0	5.0428643237341856e+17
19163.0	5.0420001586981536e+17
19164.0	5.041118343331839e+17
19165.0	5.0373186010043674e+17
19166.0	5.0393275950257485e+17
19167.0	5.0385089822283085e+17
19168.0	5.0376125462173005e+17
19169.0	5.0367368838949536e+17
19170.0	5.0358734661440845e+17
19171.0	5.0349568562298874e+17
19172.0	5.034079769242281e+17
19173.0	5.033234961618261e+17
19174.0	5.032327272988671e+17
19175.0	5.031432030956202e+17
19176.0	5.0305738393081165e+17
19177.0	5.0295583004426234e+17
19178.0	5.028766807315796e+17
19179.0	5.027902089330687e+17
19180.0	5.027004498487977e+17
19181.0	5.0261099387289594e+17
19182.0	5.0251590368843085e+17
19183.0	5.024332254980778e+17
19184.0	5.0234642374765216e+17
19185.0	5.022543998790314e+17
19186.0	5.02166434418961e+17
19187.0	5.020718019728724e+17
19188.0	5.019878790529024e+17
19189.0	5.0189597479185056e+17
19190.0	5.0180487856346445e+17
19191.0	5.0171002654556154e+17
19192.0	5.016174212065962e+17
19193.0	5.0148527406667085e+17
19194.0	5.01368463888657e+17
19195.0	5.0133140777205754e+17
19196.0	5.0123061102728525e+17
19197.0	5.011278948990975e+17
19198.0	5.0102058663717536e+17
19199.0	5.0091144092057594e+17
19200.0	5.00826244260386e+17
19201.0	5.007600253577898e+17
19202.0	5.006928030378666e+17
19203.0	5.0061346547083936e+17
19204.0	5.005432263977641e+17
19205.0	5.004624171892735e+17
19206.0	5.003827254132735e+17
19207.0	5.0028746354196474e+17
19208.0	5.0021624586786125e+17
19209.0	5.0013499982260896e+17
19210.0	5.0004844609536e+17
19211.0	4.9996808560749216e+17
19212.0	4.99882344386833e+17
19213.0	4.9979016365124256e+17
19214.0	4.99708439035904e+17
19215.0	4.996246754994858e+17
19216.0	4.99537927086626e+17
19217.0	4.9945158803783674e+17
19218.0	4.9935776795852794e+17
19219.0	4.9926227435192314e+17
19220.0	4.9918980733446816e+17
19221.0	4.991040719858346e+17
19222.0	4.9901466536290976e+17
19223.0	4.989313568385706e+17
19224.0	4.9884145969179296e+17
19225.0	4.9876201684773536e+17
19226.0	4.9867610233241594e+17
19227.0	4.985883592403626e+17
19228.0	4.985043555800404e+17
19229.0	4.9840926595481594e+17
19230.0	4.9832897914688845e+17
19231.0	4.9824528320866976e+17
19232.0	4.9815878673367046e+17
19233.0	4.9806667779058336e+17
19234.0	4.9798137788061005e+17
19235.0	4.9789354670817274e+17
19236.0	4.978094753098409e+17
19237.0	4.9771834154243405e+17
19238.0	4.976305154031615e+17
19239.0	4.975489734497621e+17
19240.0	4.9745946735192736e+17
19241.0	4.9737466460678816e+17
19242.0	4.972826621291177e+17
19243.0	4.9719128355416723e+17
19244.0	4.971134174188883e+17
19245.0	4.970286665433087e+17
19246.0	4.9694317579250336e+17
19247.0	4.9685585821259085e+17
19248.0	4.967674811514879e+17
19249.0	4.9666851745737376e+17
19250.0	4.9653368582307834e+17
19251.0	4.964445233086462e+17
19252.0	4.963982389542911e+17
19253.0	4.963319778989398e+17
19254.0	4.962476777013247e+17
19255.0	4.9614471956179616e+17
19256.0	4.960693042282496e+17
19257.0	4.959840385717589e+17
19258.0	4.958945855318698e+17
19259.0	4.9580151651259725e+17
19260.0	4.957030256563541e+17
19261.0	4.956311925380436e+17
19262.0	4.9553726061062816e+17
19263.0	4.9544928005106336e+17
19264.0	4.9536542899350176e+17
19265.0	4.9527690583080954e+17
19266.0	4.9519197411082234e+17
19267.0	4.951149117439998e+17
19268.0	4.9502733663382176e+17
19269.0	4.949423079555071e+17
19270.0	4.948553553499476e+17
19271.0	4.947652031195817e+17
19272.0	4.946844337569791e+17
19273.0	4.9458855672108365e+17
19274.0	4.944833066041343e+17
19275.0	4.944276519649279e+17
19276.0	4.9433970642780154e+17
19277.0	4.9425480686414496e+17
19278.0	4.941586718785535e+17
19279.0	4.9407703114929485e+17
19280.0	4.939923940092587e+17
19281.0	4.939036697296895e+17
19282.0	4.938163824186708e+17
19283.0	4.937251264572074e+17
19284.0	4.936315441250303e+17
19285.0	4.9353439705388365e+17
19286.0	4.9342400786595834e+17
19287.0	4.9329190148068685e+17
19288.0	4.9307885257796256e+17
19289.0	4.929670552223743e+17
19290.0	4.930263300352681e+17
19291.0	4.929738696381781e+17
19292.0	4.9293050032510285e+17
19293.0	4.928559318215338e+17
19294.0	4.9277438965841914e+17
19295.0	4.926925445966506e+17
19296.0	4.9243119849308205e+17
19297.0	4.924942505563479e+17
19298.0	4.9243474652474016e+17
19299.0	4.921558210445313e+17
19300.0	4.9226719862019405e+17
19301.0	4.921814895558655e+17
19302.0	4.920945103164756e+17
19303.0	4.9200127883782816e+17
19304.0	4.919188923613183e+17
19305.0	4.91828440797457e+17
19306.0	4.91740616335906e+17
19307.0	4.9164578046607354e+17
19308.0	4.915554373249706e+17
19309.0	4.9145581848057165e+17
19310.0	4.913523544380757e+17
19311.0	4.912309972150953e+17
19312.0	4.910619065057279e+17
19313.0	4.9067456462847994e+17
19314.0	4.878969857201497e+17
19315.0	4.879032152402606e+17
19316.0	4.902015868076035e+17
19317.0	4.9063799043741e+17
19318.0	4.906382290234026e+17
19319.0	4.905839116681216e+17
19320.0	4.90453581710404e+17
19321.0	4.902868667946324e+17
19322.0	4.903663737416362e+17
19323.0	4.9028596082496845e+17
19324.0	4.9020199784939514e+17
19325.0	4.9012057305688736e+17
19326.0	4.900346604290047e+17
19327.0	4.899520992597332e+17
19328.0	4.8954764832713414e+17
19329.0	4.897835660432725e+17
19330.0	4.897000346615808e+17
19331.0	4.8961220747373216e+17
19332.0	4.8952759563933005e+17
19333.0	4.894440806154239e+17
19334.0	4.8934636402769914e+17
19335.0	4.8862428677188346e+17
19336.0	4.8918014243198285e+17
19337.0	4.8910058857867936e+17
19338.0	4.889990272821929e+17
19339.0	4.889237414128298e+17
19340.0	4.888289119742634e+17
19341.0	4.885085640370864e+17
19342.0	4.885930087983789e+17
19343.0	4.8857396197457914e+17
19344.0	4.882442206139736e+17
19345.0	4.882784892660397e+17
19346.0	4.8829130167637325e+17
19347.0	4.879256017786196e+17
19348.0	4.881511127274836e+17
19349.0	4.8806689592661325e+17
19350.0	4.8786508454297594e+17
19351.0	4.878972863818409e+17
19352.0	4.874914175647739e+17
19353.0	4.877338021287253e+17
19354.0	4.876516031376042e+17
19355.0	4.8755818787853645e+17
19356.0	4.874792720487764e+17
19357.0	4.873952943232341e+17
19358.0	4.8730864888053754e+17
19359.0	4.871536014000124e+17
19360.0	4.8688216072519654e+17
19361.0	4.870518008883882e+17
19362.0	4.869665741690196e+17
19363.0	4.868816018341887e+17
19364.0	4.867968108331007e+17
19365.0	4.867094921347072e+17
19366.0	4.866201199050751e+17
19367.0	4.865373706212693e+17
19368.0	4.864530140801706e+17
19369.0	4.863668573437951e+17
19370.0	4.862818308325375e+17
19371.0	4.8618932301114016e+17
19372.0	4.861075060512085e+17
19373.0	4.8601850361937914e+17
19374.0	4.85932706894097e+17
19375.0	4.8585144861545805e+17
19376.0	4.8576557765099514e+17
19377.0	4.856787602418346e+17
19378.0	4.855923578590548e+17
19379.0	4.855057289838591e+17
19380.0	4.85410986856721e+17
19381.0	4.8532555209987405e+17
19382.0	4.8523549745698125e+17
19383.0	4.8514982355490125e+17
19384.0	4.8505770489501005e+17
19385.0	4.8497521041517216e+17
19386.0	4.8488400457564154e+17
19387.0	4.8478829594105165e+17
19388.0	4.846870643867647e+17
19389.0	4.845734536937471e+17
19390.0	4.8441952483409914e+17
19391.0	4.841705892566356e+17
19392.0	4.841819415598419e+17
19393.0	4.8419597486216525e+17
19394.0	4.8414905604942496e+17
19395.0	4.839878110653101e+17
19396.0	4.839777357179563e+17
19397.0	4.8391185438692685e+17
19398.0	4.8373891176857594e+17
19399.0	4.8362169949661856e+17
19400.0	4.8356963294467424e+17
19401.0	4.835575314688682e+17
19402.0	4.8347109245583354e+17
19403.0	4.833808078951764e+17
19404.0	4.832869924296022e+17
19405.0	4.8319168358208845e+17
19406.0	4.831010288741033e+17
19407.0	4.828945834136916e+17
19408.0	4.829063227113471e+17
19409.0	4.8281120253760845e+17
19410.0	4.8271895273581216e+17
19411.0	4.826226346688511e+17
19412.0	4.8252471647491405e+17
19413.0	4.8231211538404685e+17
19414.0	4.823259691701589e+17
19415.0	4.822207025556138e+17
19416.0	4.8210571305506125e+17
19417.0	4.820123022000127e+17
19418.0	4.8190362533669536e+17
19419.0	4.817917452834132e+17
19420.0	4.816768574947327e+17
19421.0	4.815600921258666e+17
19422.0	4.814342475568468e+17
19423.0	4.8131479783342086e+17
19424.0	4.811864905788074e+17
19425.0	4.810488501589332e+17
19426.0	4.8091042603335674e+17
19427.0	4.8076179087469216e+17
19428.0	4.805973014566228e+17
19429.0	4.8043191131176954e+17
19430.0	4.8024733110763514e+17
19431.0	4.80052744622353e+17
19432.0	4.7987102332573005e+17
19433.0	4.7965882237146445e+17
19434.0	4.794218280473941e+17
19435.0	4.7914944071816525e+17
19436.0	4.7882898442813434e+17
19437.0	4.784111416421034e+17
19438.0	4.777460853200212e+17
19439.0	4.775803922066089e+17
19440.0	4.774151675270485e+17
19441.0	4.770287851667455e+17
19442.0	4.765201914134527e+17
19443.0	4.759317009924095e+17
19444.0	4.751754784669695e+17
19445.0	4.743019547503274e+17
19446.0	4.731888795123711e+17
19447.0	4.7181623452849485e+17
19448.0	4.699947985971882e+17
19449.0	4.674508375283028e+17
19450.0	4.631016786362365e+17
19451.0	4.59387920449536e+17
19452.0	4.655173575464277e+17
19453.0	4.68491717120273e+17
19454.0	4.703972001928532e+17
19455.0	4.717246501530281e+17
19456.0	4.725745293197311e+17
19457.0	4.7254732862914566e+17
19458.0	4.659828086887788e+17
19459.0	4.712445124455091e+17
19460.0	4.746231192485887e+17
19461.0	4.7541751776979616e+17
19462.0	4.7583142895506765e+17
19463.0	4.7609920380818765e+17
19464.0	4.7631165586145274e+17
19465.0	4.764748395227817e+17
19466.0	4.766003347062783e+17
19467.0	4.7668223967668896e+17
19468.0	4.767562637595989e+17
19469.0	4.765845888696315e+17
19470.0	4.7684000247971834e+17
19471.0	4.768614859145215e+17
19472.0	4.7686681722443085e+17
19473.0	4.7685929397125114e+17
19474.0	4.7661303512869504e+17
19475.0	4.768083031883776e+17
19476.0	4.7679943545105056e+17
19477.0	4.7677063805883725e+17
19478.0	4.7673899056715085e+17
19479.0	4.76474987931238e+17
19480.0	4.766510575430314e+17
19481.0	4.765978641913173e+17
19482.0	4.7654935552764576e+17
19483.0	4.764969597927423e+17
19484.0	4.7643699431778976e+17
19485.0	4.763782354042879e+17
19486.0	4.7607766500857235e+17
19487.0	4.762444510877012e+17
19488.0	4.761771466992298e+17
19489.0	4.761017915539455e+17
19490.0	4.7602599251148794e+17
19491.0	4.759610024001534e+17
19492.0	4.7589966573731834e+17
19493.0	4.758233568772096e+17
19494.0	4.7574213844445856e+17
19495.0	4.7565162857977165e+17
19496.0	4.755355366763178e+17
19497.0	4.75399366779426e+17
19498.0	4.7514511149629434e+17
19499.0	4.749442791331157e+17
19500.0	4.751260187448659e+17
19501.0	4.7515212744840525e+17
19502.0	4.7511646405044896e+17
19503.0	4.750590338924543e+17
19504.0	4.749868112631124e+17
19505.0	4.7490178013812045e+17
19506.0	4.748246350036991e+17
19507.0	4.747248601311915e+17
19508.0	4.7459898333593594e+17
19509.0	4.743975543330132e+17
19510.0	4.7376164576733843e+17
19511.0	4.7082712725804326e+17
19512.0	4.7331363132538874e+17
19513.0	4.7383461721975443e+17
19514.0	4.739107386643796e+17
19515.0	4.7401756220456954e+17
19516.0	4.739685451213481e+17
19517.0	4.7395577395500365e+17
19518.0	4.738281884702036e+17
19519.0	4.737572156036436e+17
19520.0	4.735210166594215e+17
19521.0	4.7368793772523514e+17
19522.0	4.735704528934227e+17
19523.0	4.734750633055575e+17
19524.0	4.732750231065945e+17
19525.0	4.733725413037398e+17
19526.0	4.732968441129642e+17
19527.0	4.7321975804832416e+17
19528.0	4.731199508097706e+17
19529.0	4.730308755368619e+17
19530.0	4.7298152381808634e+17
19531.0	4.729007745881428e+17
19532.0	4.728200482870612e+17
19533.0	4.727374306344959e+17
19534.0	4.7266035197979296e+17
19535.0	4.725786378502143e+17
19536.0	4.724941071755946e+17
19537.0	4.724124061881685e+17
19538.0	4.7211206235477357e+17
19539.0	4.722515293241343e+17
19540.0	4.7217132192836256e+17
19541.0	4.7203763009617914e+17
19542.0	4.7198780141513376e+17
19543.0	4.716939017803094e+17
19544.0	4.7182944917258234e+17
19545.0	4.7175447598858234e+17
19546.0	4.71678392991744e+17
19547.0	4.7160668668122445e+17
19548.0	4.7152901047801165e+17
19549.0	4.7144025963451725e+17
19550.0	4.713661785789781e+17
19551.0	4.7129243733196794e+17
19552.0	4.7120875873020576e+17
19553.0	4.711305062995283e+17
19554.0	4.710466095240532e+17
19555.0	4.709366078199126e+17
19556.0	4.708665837748223e+17
19557.0	4.70804371411217e+17
19558.0	4.707273336509781e+17
19559.0	4.706463494701055e+17
19560.0	4.704789844372137e+17
19561.0	4.704825681204564e+17
19562.0	4.703229606625278e+17
19563.0	4.703252989870079e+17
19564.0	4.702375851851776e+17
19565.0	4.7016038482575354e+17
19566.0	4.7007636760384845e+17
19567.0	4.700014084008617e+17
19568.0	4.6991856271796896e+17
19569.0	4.6983895825339725e+17
19570.0	4.697573520572415e+17
19571.0	4.696760730867029e+17
19572.0	4.6959486472028166e+17
19573.0	4.6948778337020576e+17
19574.0	4.694182429982719e+17
19575.0	4.6935618645306016e+17
19576.0	4.6926049557435725e+17
19577.0	4.69150344413184e+17
19578.0	4.6911304810277536e+17
19579.0	4.6903201652626765e+17
19580.0	4.689489732217514e+17
19581.0	4.688670682513408e+17
19582.0	4.687908595651924e+17
19583.0	4.6871170556887034e+17
19584.0	4.6862681334524576e+17
19585.0	4.685399982429524e+17
19586.0	4.6845728740693325e+17
19587.0	4.683854080813738e+17
19588.0	4.683007417909247e+17
19589.0	4.682220857283925e+17
19590.0	4.681382390049449e+17
19591.0	4.6806233755156486e+17
19592.0	4.679838372375211e+17
19593.0	4.6787992545307296e+17
19594.0	4.6778339144936096e+17
19595.0	4.67741479796736e+17
19596.0	4.6765607433011194e+17
19597.0	4.6757623365631994e+17
19598.0	4.6747714972549114e+17
19599.0	4.67412604559906e+17
19600.0	4.673338428009131e+17
19601.0	4.6725364987549005e+17
19602.0	4.6717309001837216e+17
19603.0	4.6709072870768634e+17
19604.0	4.6701155968177485e+17
19605.0	4.669201803378689e+17
19606.0	4.6685272865942176e+17
19607.0	4.6677697848060576e+17
19608.0	4.6668929508747936e+17
19609.0	4.6661368982186656e+17
19610.0	4.6642638464832864e+17
19611.0	4.6628935876389555e+17
19612.0	4.6637425119723514e+17
19613.0	4.662878195242324e+17
19614.0	4.6620717326445216e+17
19615.0	4.661289181773823e+17
19616.0	4.65937747463373e+17
19617.0	4.6579590833547955e+17
19618.0	4.6585871684949325e+17
19619.0	4.657599735660543e+17
19620.0	4.656516788038312e+17
19621.0	4.653951174923603e+17
19622.0	4.655600149463039e+17
19623.0	4.6546888754025805e+17
19624.0	4.653632100936362e+17
19625.0	4.6531662899227296e+17
19626.0	4.652280531910655e+17
19627.0	4.6514527685399885e+17
19628.0	4.6505312254252365e+17
19629.0	4.643991464531282e+17
19630.0	4.648657512387924e+17
19631.0	4.647651526748842e+17
19632.0	4.647180085581141e+17
19633.0	4.64647481196544e+17
19634.0	4.6458359977956685e+17
19635.0	4.644846819431763e+17
19636.0	4.641695169074514e+17
19637.0	4.640774222949032e+17
19638.0	4.642627497842003e+17
19639.0	4.641972207747071e+17
19640.0	4.64098333696546e+17
19641.0	4.6401054292923725e+17
19642.0	4.6394308635743565e+17
19643.0	4.6387013384929274e+17
19644.0	4.638080230577493e+17
19645.0	4.6373305651473056e+17
19646.0	4.6337208541511635e+17
19647.0	4.6356703233092256e+17
19648.0	4.634981971613012e+17
19649.0	4.6341730203948365e+17
19650.0	4.633390526846292e+17
19651.0	4.6326015614866765e+17
19652.0	4.6318176202042016e+17
19653.0	4.6309968732050765e+17
19654.0	4.6302311219199994e+17
