# Flux units: erg / (cm m2 s)
# Wavelength units: Angstrom
wave	flux
19000.0	6.991539722343764e+17
19001.0	6.990256776325802e+17
19002.0	6.989051317977087e+17
19003.0	6.987765045876052e+17
19004.0	6.986479673453225e+17
19005.0	6.985190100434943e+17
19006.0	6.983909681485139e+17
19007.0	6.982615527587839e+17
19008.0	6.981296794370047e+17
19009.0	6.979945062465536e+17
19010.0	6.978461621725865e+17
19011.0	6.977444050021033e+17
19012.0	6.976056645561001e+17
19013.0	6.974894312346963e+17
19014.0	6.97356419998242e+17
19015.0	6.972292858205524e+17
19016.0	6.971008016362154e+17
19017.0	6.969750762553343e+17
19018.0	6.968453501375827e+17
19019.0	6.967170650428755e+17
19020.0	6.965871858330281e+17
19021.0	6.964599695867903e+17
19022.0	6.963313496468137e+17
19023.0	6.961990485759316e+17
19024.0	6.960720407166973e+17
19025.0	6.959440681675433e+17
19026.0	6.958132143412564e+17
19027.0	6.956794767212543e+17
19028.0	6.955575062211241e+17
19029.0	6.954286706240169e+17
19030.0	6.953010993998506e+17
19031.0	6.95172102951185e+17
19032.0	6.950429463500115e+17
19033.0	6.949062798475263e+17
19034.0	6.947813852883625e+17
19035.0	6.946342575625556e+17
19036.0	6.939936074760191e+17
19037.0	6.943830130906452e+17
19038.0	6.942653035140436e+17
19039.0	6.941401683416404e+17
19040.0	6.940118775147178e+17
19041.0	6.93882572644898e+17
19042.0	6.93744921110118e+17
19043.0	6.936256468484093e+17
19044.0	6.934958082534058e+17
19045.0	6.933676618503507e+17
19046.0	6.932353445614932e+17
19047.0	6.931066540873044e+17
19048.0	6.929676603053395e+17
19049.0	6.928412784459775e+17
19050.0	6.927169273288019e+17
19051.0	6.925118778026665e+17
19052.0	6.924367399223295e+17
19053.0	6.923347710793044e+17
19054.0	6.922072685718185e+17
19055.0	6.920579802901162e+17
19056.0	6.919474173181951e+17
19057.0	6.91820537455138e+17
19058.0	6.916890870590121e+17
19059.0	6.915623231684607e+17
19060.0	6.914333283276116e+17
19061.0	6.913057310288553e+17
19062.0	6.911765396848639e+17
19063.0	6.910475402302803e+17
19064.0	6.909109697773567e+17
19065.0	6.907761251407188e+17
19066.0	6.906555579148969e+17
19067.0	6.905325993765546e+17
19068.0	6.904037949571071e+17
19069.0	6.90274999345698e+17
19070.0	6.901444612805972e+17
19071.0	6.900173667390804e+17
19072.0	6.898877243675987e+17
19073.0	6.897594975038121e+17
19074.0	6.896309778776064e+17
19075.0	6.895021436786004e+17
19076.0	6.893721847070719e+17
19077.0	6.892432264265727e+17
19078.0	6.891134640979965e+17
19079.0	6.889868836383401e+17
19080.0	6.888570515445075e+17
19081.0	6.887256782536703e+17
19082.0	6.885980943067817e+17
19083.0	6.884626972803072e+17
19084.0	6.883242507851091e+17
19085.0	6.882137007456256e+17
19086.0	6.880526558298111e+17
19087.0	6.879454034919423e+17
19088.0	6.878168294795945e+17
19089.0	6.876790340801876e+17
19090.0	6.875661278904317e+17
19091.0	6.874390050373631e+17
19092.0	6.873053803140435e+17
19093.0	6.871842330159785e+17
19094.0	6.870560588606121e+17
19095.0	6.869275402829823e+17
19096.0	6.867980503045462e+17
19097.0	6.866700824390313e+17
19098.0	6.865408293688662e+17
19099.0	6.864120540299263e+17
19100.0	6.86283115532561e+17
19101.0	6.861553006892372e+17
19102.0	6.860205667123199e+17
19103.0	6.858986905840297e+17
19104.0	6.857700740694015e+17
19105.0	6.856389158065492e+17
19106.0	6.855109454943572e+17
19107.0	6.853817696692905e+17
19108.0	6.852516549492733e+17
19109.0	6.850960034190676e+17
19110.0	6.849895945557332e+17
19111.0	6.848683651192148e+17
19112.0	6.847407122459305e+17
19113.0	6.846132646838271e+17
19114.0	6.844846135661908e+17
19115.0	6.843520902671018e+17
19116.0	6.842256992501759e+17
19117.0	6.840969099302227e+17
19118.0	6.839593312365225e+17
19119.0	6.835331008211621e+17
19120.0	6.837056960113321e+17
19121.0	6.835812292711763e+17
19122.0	6.834570327840084e+17
19123.0	6.83328787325474e+17
19124.0	6.831966225694719e+17
19125.0	6.830709305333076e+17
19126.0	6.829376241576617e+17
19127.0	6.826990240443049e+17
19128.0	6.826761014738941e+17
19129.0	6.825507433043284e+17
19130.0	6.824288422199295e+17
19131.0	6.823018163950932e+17
19132.0	6.821733217249961e+17
19133.0	6.820404808471891e+17
19134.0	6.81914895765777e+17
19135.0	6.817883799683071e+17
19136.0	6.816600200751785e+17
19137.0	6.815222980760915e+17
19138.0	6.814022678609919e+17
19139.0	6.812756132320596e+17
19140.0	6.81147618033664e+17
19141.0	6.81019379355921e+17
19142.0	6.8088909280925e+17
19143.0	6.807595062919167e+17
19144.0	6.806311315090089e+17
19145.0	6.805062339439274e+17
19146.0	6.803306259851946e+17
19147.0	6.802443093060266e+17
19148.0	6.801205120466943e+17
19149.0	6.79992251978001e+17
19150.0	6.798647284290899e+17
19151.0	6.797367307141119e+17
19152.0	6.796076540843348e+17
19153.0	6.794765021129385e+17
19154.0	6.793437957324799e+17
19155.0	6.792225439263401e+17
19156.0	6.79093533286946e+17
19157.0	6.789573281579007e+17
19158.0	6.788165908736682e+17
19159.0	6.787015804015958e+17
19160.0	6.785753452030634e+17
19161.0	6.784445964440916e+17
19162.0	6.782727105806335e+17
19163.0	6.781801068494847e+17
19164.0	6.780636286506324e+17
19165.0	6.779342739385002e+17
19166.0	6.778002535525034e+17
19167.0	6.776761324229972e+17
19168.0	6.775515547435007e+17
19169.0	6.77423954928162e+17
19170.0	6.772964821303295e+17
19171.0	6.771668457007785e+17
19172.0	6.770401395518121e+17
19173.0	6.769124036313087e+17
19174.0	6.767809538643283e+17
19175.0	6.766562592336554e+17
19176.0	6.76528283398963e+17
19177.0	6.763879800853844e+17
19178.0	6.762696831664127e+17
19179.0	6.761403950738089e+17
19180.0	6.760139895166291e+17
19181.0	6.758793434103805e+17
19182.0	6.757574933566804e+17
19183.0	6.756309645568681e+17
19184.0	6.755024894601897e+17
19185.0	6.753742344945663e+17
19186.0	6.752461449942355e+17
19187.0	6.751122261803007e+17
19188.0	6.74989336568354e+17
19189.0	6.748611126405801e+17
19190.0	6.747322680956244e+17
19191.0	6.746013194780671e+17
19192.0	6.744755009137322e+17
19193.0	6.74346468254242e+17
19194.0	6.742160414081023e+17
19195.0	6.740867470240425e+17
19196.0	6.739533868914003e+17
19197.0	6.738167576483155e+17
19198.0	6.736544393418067e+17
19199.0	6.732292521896617e+17
19200.0	6.73152222957841e+17
19201.0	6.732703664351914e+17
19202.0	6.731676591849471e+17
19203.0	6.730465994080255e+17
19204.0	6.729215074369533e+17
19205.0	6.727952673450665e+17
19206.0	6.726682125795327e+17
19207.0	6.725312802280787e+17
19208.0	6.723992037621759e+17
19209.0	6.722838443240106e+17
19210.0	6.721560238183763e+17
19211.0	6.720282992224938e+17
19212.0	6.718994217522516e+17
19213.0	6.717621447688191e+17
19214.0	6.71632953844258e+17
19215.0	6.715118991005012e+17
19216.0	6.713846166541652e+17
19217.0	6.712535178106195e+17
19218.0	6.710767788578132e+17
19219.0	6.709824437179731e+17
19220.0	6.708674105966591e+17
19221.0	6.707228859258196e+17
19222.0	6.706092896332457e+17
19223.0	6.704822078843561e+17
19224.0	6.703508863232681e+17
19225.0	6.702174185368233e+17
19226.0	6.700954214727679e+17
19227.0	6.699665923069267e+17
19228.0	6.698399244659369e+17
19229.0	6.697107424193193e+17
19230.0	6.695814794226346e+17
19231.0	6.694513511410346e+17
19232.0	6.693225609123156e+17
19233.0	6.691884819458729e+17
19234.0	6.690633290874879e+17
19235.0	6.689327981527039e+17
19236.0	6.688057561098921e+17
19237.0	6.6867535296157e+17
19238.0	6.685397382507178e+17
19239.0	6.684173758627839e+17
19240.0	6.682873611769172e+17
19241.0	6.681562255633065e+17
19242.0	6.680271162179583e+17
19243.0	6.678853786621268e+17
19244.0	6.677689018613759e+17
19245.0	6.676322192108201e+17
19246.0	6.674951154521428e+17
19247.0	6.673659252965375e+17
19248.0	6.672360063107072e+17
19249.0	6.671056915922943e+17
19250.0	6.669739057217535e+17
19251.0	6.668376561330856e+17
19252.0	6.666906171168084e+17
19253.0	6.665823949160447e+17
19254.0	6.664535924539391e+17
19255.0	6.663071682527231e+17
19256.0	6.661905403871231e+17
19257.0	6.660613685466452e+17
19258.0	6.659303491152554e+17
19259.0	6.657929676237481e+17
19260.0	6.656565782948522e+17
19261.0	6.655355713661609e+17
19262.0	6.654004359244457e+17
19263.0	6.652664850240852e+17
19264.0	6.651061001519103e+17
19265.0	6.649960405663743e+17
19266.0	6.64864808903202e+17
19267.0	6.647470726228649e+17
19268.0	6.646151932892502e+17
19269.0	6.644731559105876e+17
19270.0	6.643307915859284e+17
19271.0	6.641784866908842e+17
19272.0	6.64064347934993e+17
19273.0	6.639028733127337e+17
19274.0	6.637630630395901e+17
19275.0	6.636690737900202e+17
19276.0	6.635348945098068e+17
19277.0	6.634020792172543e+17
19278.0	6.632689448080723e+17
19279.0	6.631335047899817e+17
19280.0	6.629968551346173e+17
19281.0	6.628664888262655e+17
19282.0	6.627335014973437e+17
19283.0	6.625965311874388e+17
19284.0	6.624538937436841e+17
19285.0	6.622967807082495e+17
19286.0	6.621583988053331e+17
19287.0	6.620237307488937e+17
19288.0	6.617210755743741e+17
19289.0	6.614134369375569e+17
19290.0	6.616168650855764e+17
19291.0	6.61465157739042e+17
19292.0	6.613505068586326e+17
19293.0	6.61214349964083e+17
19294.0	6.610773953129129e+17
19295.0	6.609416909138602e+17
19296.0	6.608036071560532e+17
19297.0	6.606662735495168e+17
19298.0	6.60514555367697e+17
19299.0	6.603752196101459e+17
19300.0	6.602382112718847e+17
19301.0	6.600996599889919e+17
19302.0	6.599600307699711e+17
19303.0	6.59816581378867e+17
19304.0	6.596808344775338e+17
19305.0	6.595414221739348e+17
19306.0	6.594017917665279e+17
19307.0	6.592579122495487e+17
19308.0	6.591176313055914e+17
19309.0	6.589672127288659e+17
19310.0	6.588198703245993e+17
19311.0	6.586898931777535e+17
19312.0	6.585518598214996e+17
19313.0	6.584080770531327e+17
19314.0	6.577316150203729e+17
19315.0	6.57633166246981e+17
19316.0	6.57968173556258e+17
19317.0	6.578187391729663e+17
19318.0	6.576739636128425e+17
19319.0	6.575301719665321e+17
19320.0	6.573835329470463e+17
19321.0	6.572358048765267e+17
19322.0	6.570838917993812e+17
19323.0	6.569374628446208e+17
19324.0	6.567911936928425e+17
19325.0	6.566372983876265e+17
19326.0	6.564930931130368e+17
19327.0	6.563437131158868e+17
19328.0	6.561921014693887e+17
19329.0	6.56042861142562e+17
19330.0	6.558887690545833e+17
19331.0	6.557343900063059e+17
19332.0	6.555848580355412e+17
19333.0	6.554244558968148e+17
19334.0	6.55250421990468e+17
19335.0	6.550908450810537e+17
19336.0	6.549376997173929e+17
19337.0	6.547760504722772e+17
19338.0	6.546001979157161e+17
19339.0	6.54456374951936e+17
19340.0	6.542890431239508e+17
19341.0	6.541278378459133e+17
19342.0	6.539465408031401e+17
19343.0	6.538046049266346e+17
19344.0	6.536361901992617e+17
19345.0	6.53346673542212e+17
19346.0	6.531954668557652e+17
19347.0	6.530926190963369e+17
19348.0	6.529307339915263e+17
19349.0	6.527575843143679e+17
19350.0	6.525855768859987e+17
19351.0	6.524107083131561e+17
19352.0	6.522307119240531e+17
19353.0	6.520611462796627e+17
19354.0	6.518524461012308e+17
19355.0	6.516396356446889e+17
19356.0	6.514641643503615e+17
19357.0	6.512797271020884e+17
19358.0	6.51093032898833e+17
19359.0	6.509020072378367e+17
19360.0	6.507104115709267e+17
19361.0	6.504643951591424e+17
19362.0	6.502565606151508e+17
19363.0	6.500609128311465e+17
19364.0	6.498630160613376e+17
19365.0	6.496609121949011e+17
19366.0	6.494237915523753e+17
19367.0	6.491459617641812e+17
19368.0	6.489390895333373e+17
19369.0	6.48726405255441e+17
19370.0	6.485146746923689e+17
19371.0	6.482308376821759e+17
19372.0	6.479686149690708e+17
19373.0	6.477487898187092e+17
19374.0	6.475277112705023e+17
19375.0	6.47228551978462e+17
19376.0	6.469254621342378e+17
19377.0	6.466913105696083e+17
19378.0	6.46454908760883e+17
19379.0	6.461244606600531e+17
19380.0	6.458509618402644e+17
19381.0	6.456014752011603e+17
19382.0	6.453422732257962e+17
19383.0	6.450834472697855e+17
19384.0	6.448261620913491e+17
19385.0	6.445581980751188e+17
19386.0	6.442843309954388e+17
19387.0	6.439782877320531e+17
19388.0	6.436600768626687e+17
19389.0	6.433627704044201e+17
19390.0	6.43054655644194e+17
19391.0	6.42310043511466e+17
19392.0	6.424036644312403e+17
19393.0	6.420706185183232e+17
19394.0	6.417033718311593e+17
19395.0	6.413677887138474e+17
19396.0	6.410261335026345e+17
19397.0	6.406767317614591e+17
19398.0	6.402048418032298e+17
19399.0	6.397769723237716e+17
19400.0	6.394352875427156e+17
19401.0	6.390461400175956e+17
19402.0	6.384838405084499e+17
19403.0	6.380625706964307e+17
19404.0	6.376298656737961e+17
19405.0	6.370246631882751e+17
19406.0	6.36514868535842e+17
19407.0	6.360347825580714e+17
19408.0	6.352912636706813e+17
19409.0	6.347752249578836e+17
19410.0	6.341672823335597e+17
19411.0	6.333705096265725e+17
19412.0	6.327918507939156e+17
19413.0	6.319829506064385e+17
19414.0	6.312252383341225e+17
19415.0	6.304806158554455e+17
19416.0	6.294656615361193e+17
19417.0	6.28793670631424e+17
19418.0	6.279030703652863e+17
19419.0	6.271864160649215e+17
19420.0	6.263227587493887e+17
19421.0	6.254820823050922e+17
19422.0	6.246076310181204e+17
19423.0	6.23594786783232e+17
19424.0	6.225587411965267e+17
19425.0	6.215348693674665e+17
19426.0	6.20276854502195e+17
19427.0	6.190459514082644e+17
19428.0	6.177202280333313e+17
19429.0	6.161569304717993e+17
19430.0	6.146709325348864e+17
19431.0	6.12854693835571e+17
19432.0	6.112382283677695e+17
19433.0	6.093912418549759e+17
19434.0	6.071898321103532e+17
19435.0	6.05097200801109e+17
19436.0	6.027608968571564e+17
19437.0	5.999093493705386e+17
19438.0	5.965407710784169e+17
19439.0	5.940853131793748e+17
19440.0	5.907073353820842e+17
19441.0	5.868912776314877e+17
19442.0	5.825476060075351e+17
19443.0	5.776120452481023e+17
19444.0	5.720205611936424e+17
19445.0	5.653989541194413e+17
19446.0	5.5755769034833914e+17
19447.0	5.4799164530578714e+17
19448.0	5.3577174521391834e+17
19449.0	5.1907529955519136e+17
19450.0	4.926228098886304e+17
19451.0	4.751570527496885e+17
19452.0	5.0784099784895136e+17
19453.0	5.280677730364081e+17
19454.0	5.419062662266873e+17
19455.0	5.524091096268799e+17
19456.0	5.6077939921387526e+17
19457.0	5.677287257844391e+17
19458.0	5.725323621214908e+17
19459.0	5.785277484935854e+17
19460.0	5.830015125378387e+17
19461.0	5.868340514564778e+17
19462.0	5.902070527819776e+17
19463.0	5.932334570274813e+17
19464.0	5.958601827592873e+17
19465.0	5.984321656935763e+17
19466.0	6.008088410019155e+17
19467.0	6.027485749007699e+17
19468.0	6.046219586852186e+17
19469.0	6.064788570374141e+17
19470.0	6.079288667275263e+17
19471.0	6.095048143798271e+17
19472.0	6.108364610207741e+17
19473.0	6.120805993108818e+17
19474.0	6.133498237332138e+17
19475.0	6.142785784643583e+17
19476.0	6.153909288566783e+17
19477.0	6.162642894848e+17
19478.0	6.170223133939027e+17
19479.0	6.178812278603773e+17
19480.0	6.185478288747178e+17
19481.0	6.191595946071379e+17
19482.0	6.198010873992532e+17
19483.0	6.203319879292244e+17
19484.0	6.20911940145425e+17
19485.0	6.214470890859177e+17
19486.0	6.220168150297257e+17
19487.0	6.227302269932884e+17
19488.0	6.231275052466176e+17
19489.0	6.23795167629585e+17
19490.0	6.241051027177471e+17
19491.0	6.246176189142356e+17
19492.0	6.25112809279761e+17
19493.0	6.254150474006527e+17
19494.0	6.258463855695188e+17
19495.0	6.261662343146153e+17
19496.0	6.263718769852415e+17
19497.0	6.267597493720404e+17
19498.0	6.269062162852522e+17
19499.0	6.264965316302162e+17
19500.0	6.274379650433023e+17
19501.0	6.276898089511593e+17
19502.0	6.27833667846144e+17
19503.0	6.279679368145578e+17
19504.0	6.281709661541716e+17
19505.0	6.283308219148969e+17
19506.0	6.28437700190754e+17
19507.0	6.285353296068608e+17
19508.0	6.286283154391037e+17
19509.0	6.287873984692223e+17
19510.0	6.288503077863423e+17
19511.0	6.279837452861432e+17
19512.0	6.288637720614227e+17
19513.0	6.288399829478054e+17
19514.0	6.289527108097363e+17
19515.0	6.291821232302761e+17
19516.0	6.292520998797311e+17
19517.0	6.292829096290985e+17
19518.0	6.293133802689876e+17
19519.0	6.293346637053951e+17
19520.0	6.29348428292642e+17
19521.0	6.293631983943679e+17
19522.0	6.293681318046378e+17
19523.0	6.294490906798761e+17
19524.0	6.294837008181929e+17
19525.0	6.294798479305385e+17
19526.0	6.294723764071082e+17
19527.0	6.295930574383785e+17
19528.0	6.295826173962921e+17
19529.0	6.29563682071074e+17
19530.0	6.295415942370644e+17
19531.0	6.296091328075092e+17
19532.0	6.296020904312831e+17
19533.0	6.295729423952553e+17
19534.0	6.295410976314708e+17
19535.0	6.295162133850793e+17
19536.0	6.295557364514815e+17
19537.0	6.295300661925203e+17
19538.0	6.294803550218921e+17
19539.0	6.29416936865792e+17
19540.0	6.294024976946516e+17
19541.0	6.293901665807018e+17
19542.0	6.293764572883625e+17
19543.0	6.293243233479337e+17
19544.0	6.292720335891113e+17
19545.0	6.291815268002473e+17
19546.0	6.291058399554218e+17
19547.0	6.291042686992383e+17
19548.0	6.29073110892544e+17
19549.0	6.290264647794687e+17
19550.0	6.289709637915988e+17
19551.0	6.289063379555668e+17
19552.0	6.288401891677524e+17
19553.0	6.287710820674218e+17
19554.0	6.287015872036863e+17
19555.0	6.286327730754899e+17
19556.0	6.285625914643795e+17
19557.0	6.285179019941204e+17
19558.0	6.284505578296659e+17
19559.0	6.28375782756625e+17
19560.0	6.282969327774378e+17
19561.0	6.282202172795561e+17
19562.0	6.281436187328511e+17
19563.0	6.280648656420863e+17
19564.0	6.279846076350463e+17
19565.0	6.27903398220049e+17
19566.0	6.278192868360191e+17
19567.0	6.27738252603119e+17
19568.0	6.276553923100672e+17
19569.0	6.27574663212783e+17
19570.0	6.275126432279209e+17
19571.0	6.274268690120701e+17
19572.0	6.273376482667178e+17
19573.0	6.272518794335572e+17
19574.0	6.271573981921279e+17
19575.0	6.270765847893332e+17
19576.0	6.269874196884137e+17
19577.0	6.268965645626026e+17
19578.0	6.268047950086144e+17
19579.0	6.267140761277779e+17
19580.0	6.266228325395114e+17
19581.0	6.265321437877588e+17
19582.0	6.264406757343231e+17
19583.0	6.263476694898004e+17
19584.0	6.262540100523348e+17
19585.0	6.261510671521108e+17
19586.0	6.260541528648361e+17
19587.0	6.259677239880361e+17
19588.0	6.25855874273553e+17
19589.0	6.257891511457108e+17
19590.0	6.256894156297556e+17
19591.0	6.255990275396948e+17
19592.0	6.255025856708608e+17
19593.0	6.254036191106388e+17
19594.0	6.252883025242794e+17
19595.0	6.252072336883711e+17
19596.0	6.250996274910548e+17
19597.0	6.250103453690538e+17
19598.0	6.248868492607487e+17
19599.0	6.248120214093823e+17
19600.0	6.247130500956159e+17
19601.0	6.246077774692351e+17
19602.0	6.245055458530644e+17
19603.0	6.243860368501418e+17
19604.0	6.243177744826368e+17
19605.0	6.242082674966527e+17
19606.0	6.241344211124223e+17
19607.0	6.240336832277162e+17
19608.0	6.239304779038719e+17
19609.0	6.238259029300563e+17
19610.0	6.237263156128425e+17
19611.0	6.23623180194065e+17
19612.0	6.23521814352145e+17
19613.0	6.234178551720618e+17
19614.0	6.233121122942973e+17
19615.0	6.232114145350998e+17
19616.0	6.231031193534463e+17
19617.0	6.230012484474195e+17
19618.0	6.228595754838697e+17
19619.0	6.227628135197353e+17
19620.0	6.226670078569129e+17
19621.0	6.226039326550697e+17
19622.0	6.225020894314496e+17
19623.0	6.223974360940543e+17
19624.0	6.222915628433408e+17
19625.0	6.221923121190228e+17
19626.0	6.220877014237183e+17
19627.0	6.219801582807721e+17
19628.0	6.218655826881194e+17
19629.0	6.217487340623188e+17
19630.0	6.215637875556351e+17
19631.0	6.212112993659562e+17
19632.0	6.214300864260778e+17
19633.0	6.213382401862313e+17
19634.0	6.212388967677951e+17
19635.0	6.21131529785617e+17
19636.0	6.21040456835618e+17
19637.0	6.209052542850388e+17
19638.0	6.208289559106899e+17
19639.0	6.207217887171924e+17
19640.0	6.206063678324736e+17
19641.0	6.20451199975424e+17
19642.0	6.204005476728831e+17
19643.0	6.202933324546047e+17
19644.0	6.201807972510378e+17
19645.0	6.200620496541012e+17
19646.0	6.199701094618452e+17
19647.0	6.198647131034963e+17
19648.0	6.197571621311827e+17
19649.0	6.19649315180817e+17
19650.0	6.195416529895423e+17
19651.0	6.194332244989268e+17
19652.0	6.193256079556607e+17
19653.0	6.192176209854463e+17
19654.0	6.191088865902591e+17
19655.0	6.190004879491072e+17
19656.0	6.188927285897897e+17
19657.0	6.187848538871124e+17
19658.0	6.186764762873855e+17
19659.0	6.185679575493289e+17
19660.0	6.184595518477652e+17
19661.0	6.183509735505919e+17
19662.0	6.182421708581545e+17
19663.0	6.181361041102164e+17
19664.0	6.180332309752489e+17
19665.0	6.17926237425937e+17
