# Flux units: erg / (cm m2 s)
# Wavelength units: Angstrom
wave	flux
19000.0	4.908705575337983e+17
19001.0	4.90770041597679e+17
19002.0	4.9068943923828045e+17
19003.0	4.9059740173817165e+17
19004.0	4.905062225324714e+17
19005.0	4.9041669455435085e+17
19006.0	4.9032698873774086e+17
19007.0	4.902209115739477e+17
19008.0	4.9013947398881274e+17
19009.0	4.900427953515177e+17
19010.0	4.899175913226238e+17
19011.0	4.8986401104636576e+17
19012.0	4.896880963442003e+17
19013.0	4.896922366115839e+17
19014.0	4.895971829874687e+17
19015.0	4.8950775266672634e+17
19016.0	4.894153598391635e+17
19017.0	4.8933032983265274e+17
19018.0	4.892352297216683e+17
19019.0	4.89149357359104e+17
19020.0	4.8905753097229645e+17
19021.0	4.889689316829866e+17
19022.0	4.8887821755569485e+17
19023.0	4.887845790897493e+17
19024.0	4.8869470060762445e+17
19025.0	4.885996857109161e+17
19026.0	4.8850601613721594e+17
19027.0	4.8834893120361805e+17
19028.0	4.8833650788488525e+17
19029.0	4.882436135583743e+17
19030.0	4.881564840929962e+17
19031.0	4.8806674591034016e+17
19032.0	4.8797576796132685e+17
19033.0	4.878771567984639e+17
19034.0	4.8779445169466016e+17
19035.0	4.876960079544319e+17
19036.0	4.81901692042172e+17
19037.0	4.875219397946026e+17
19038.0	4.874324206245204e+17
19039.0	4.873443247915008e+17
19040.0	4.872545670354261e+17
19041.0	4.8716326584538445e+17
19042.0	4.87046896558626e+17
19043.0	4.8698444176424954e+17
19044.0	4.868922134233087e+17
19045.0	4.8680138807705594e+17
19046.0	4.867079855407102e+17
19047.0	4.866211351363583e+17
19048.0	4.8650824313733114e+17
19049.0	4.864013907263487e+17
19050.0	4.863477330651817e+17
19051.0	4.855150570460492e+17
19052.0	4.859996588212222e+17
19053.0	4.860797719150592e+17
19054.0	4.859935124881407e+17
19055.0	4.8587413714370554e+17
19056.0	4.858088747521364e+17
19057.0	4.85722765201681e+17
19058.0	4.856099932296534e+17
19059.0	4.8553605114538656e+17
19060.0	4.8545107237928954e+17
19061.0	4.8536436115592525e+17
19062.0	4.8527395593912314e+17
19063.0	4.8518429248498336e+17
19064.0	4.850813423845375e+17
19065.0	4.849884493163178e+17
19066.0	4.84902959194658e+17
19067.0	4.848237559152638e+17
19068.0	4.8473533963741856e+17
19069.0	4.84645696315938e+17
19070.0	4.8455306329456634e+17
19071.0	4.8446280851346765e+17
19072.0	4.8436835187862176e+17
19073.0	4.8428634428757325e+17
19074.0	4.8419718750535674e+17
19075.0	4.8410750853229216e+17
19076.0	4.84015852294417e+17
19077.0	4.8392632138028365e+17
19078.0	4.838346780049407e+17
19079.0	4.837484545092265e+17
19080.0	4.8365762671629645e+17
19081.0	4.8356577362575354e+17
19082.0	4.8347588843274234e+17
19083.0	4.833813227459924e+17
19084.0	4.832804161104553e+17
19085.0	4.832096212921002e+17
19086.0	4.830747911957161e+17
19087.0	4.828754357168811e+17
19088.0	4.8292106534038176e+17
19089.0	4.827627104414377e+17
19090.0	4.8276072947165856e+17
19091.0	4.8266896096624634e+17
19092.0	4.8253351486641485e+17
19093.0	4.824957457181355e+17
19094.0	4.824062838003028e+17
19095.0	4.8231686634209274e+17
19096.0	4.822256168118953e+17
19097.0	4.8213796494595405e+17
19098.0	4.8204073014394874e+17
19099.0	4.8194968676379296e+17
19100.0	4.818613315829759e+17
19101.0	4.817775886685524e+17
19102.0	4.8167969899588256e+17
19103.0	4.816024334849364e+17
19104.0	4.8151352563466234e+17
19105.0	4.8140688405736096e+17
19106.0	4.8130775496785914e+17
19107.0	4.812390351415978e+17
19108.0	4.811500106896725e+17
19109.0	4.80683416459673e+17
19110.0	4.809637668148564e+17
19111.0	4.8088234418940576e+17
19112.0	4.8079390169716045e+17
19113.0	4.807106253291519e+17
19114.0	4.806184478091946e+17
19115.0	4.805157065850879e+17
19116.0	4.804418481771861e+17
19117.0	4.80352589123857e+17
19118.0	4.8023300609146874e+17
19119.0	4.794036221815456e+17
19120.0	4.800437296649555e+17
19121.0	4.7996569051463674e+17
19122.0	4.7990999875583994e+17
19123.0	4.798210258239488e+17
19124.0	4.797098230808576e+17
19125.0	4.7963888999028045e+17
19126.0	4.795530230803114e+17
19127.0	4.792811547962026e+17
19128.0	4.79274680328738e+17
19129.0	4.79280646796083e+17
19130.0	4.7919668382050976e+17
19131.0	4.791065420059989e+17
19132.0	4.7902080630783994e+17
19133.0	4.789054760899925e+17
19134.0	4.7879955027066874e+17
19135.0	4.787528062905002e+17
19136.0	4.786662604625236e+17
19137.0	4.785610806001663e+17
19138.0	4.7848364417133216e+17
19139.0	4.783999352307711e+17
19140.0	4.783114781283668e+17
19141.0	4.782227557362345e+17
19142.0	4.7813042009101645e+17
19143.0	4.7803962389517645e+17
19144.0	4.779529362298195e+17
19145.0	4.7786738948505594e+17
19146.0	4.7771929706932896e+17
19147.0	4.7767900036355405e+17
19148.0	4.77593688010479e+17
19149.0	4.7750433185901216e+17
19150.0	4.7742455109386234e+17
19151.0	4.773360386965502e+17
19152.0	4.772427907203071e+17
19153.0	4.771462428753919e+17
19154.0	4.7705611364379296e+17
19155.0	4.76981332489011e+17
19156.0	4.7689410557597e+17
19157.0	4.767966179273387e+17
19158.0	4.764491301868881e+17
19159.0	4.766266740965376e+17
19160.0	4.7653430860185594e+17
19161.0	4.764441601463635e+17
19162.0	4.7577102734240474e+17
19163.0	4.76254134407441e+17
19164.0	4.761865870289577e+17
19165.0	4.7607209511266976e+17
19166.0	4.7598157504184314e+17
19167.0	4.7586554185864525e+17
19168.0	4.758307284363945e+17
19169.0	4.7573275697479686e+17
19170.0	4.756570194487978e+17
19171.0	4.755306229093717e+17
19172.0	4.754775843973802e+17
19173.0	4.75390077234927e+17
19174.0	4.752984449744896e+17
19175.0	4.752162961752064e+17
19176.0	4.7512803110202016e+17
19177.0	4.7502522815173965e+17
19178.0	4.74936458084352e+17
19179.0	4.74811436367872e+17
19180.0	4.747685886164991e+17
19181.0	4.746740480955734e+17
19182.0	4.745949112958975e+17
19183.0	4.7451048149428896e+17
19184.0	4.7442050437611514e+17
19185.0	4.7433422376796154e+17
19186.0	4.7424706046853114e+17
19187.0	4.741517571435178e+17
19188.0	4.7406895242499405e+17
19189.0	4.7397862899712e+17
19190.0	4.738880831313236e+17
19191.0	4.737976405852159e+17
19192.0	4.737186925292202e+17
19193.0	4.736264402108415e+17
19194.0	4.7353782225687885e+17
19195.0	4.7345429996284576e+17
19196.0	4.73364945768721e+17
19197.0	4.732769796795049e+17
19198.0	4.731862841469611e+17
19199.0	4.697933305872373e+17
19200.0	4.706794795084471e+17
19201.0	4.7292327723881805e+17
19202.0	4.7283864338431994e+17
19203.0	4.727410816363177e+17
19204.0	4.726596264351059e+17
19205.0	4.725749814657024e+17
19206.0	4.7248667389023565e+17
19207.0	4.7238819512756896e+17
19208.0	4.722900224092842e+17
19209.0	4.722234393711957e+17
19210.0	4.721360022536191e+17
19211.0	4.7204940623380474e+17
19212.0	4.7196130075388576e+17
19213.0	4.718365183923541e+17
19214.0	4.7173214970839046e+17
19215.0	4.716841725329408e+17
19216.0	4.716101952864255e+17
19217.0	4.715218514302293e+17
19218.0	4.7134933977661414e+17
19219.0	4.7133301729307296e+17
19220.0	4.7125487978632525e+17
19221.0	4.7113868197669536e+17
19222.0	4.710820973903872e+17
19223.0	4.7099418093376845e+17
19224.0	4.7090393482089805e+17
19225.0	4.708055307867476e+17
19226.0	4.7073106238723405e+17
19227.0	4.706432453356202e+17
19228.0	4.7055768859443194e+17
19229.0	4.704699369040555e+17
19230.0	4.703781646936745e+17
19231.0	4.702908220877481e+17
19232.0	4.7020511707791354e+17
19233.0	4.701116773520723e+17
19234.0	4.700290559945385e+17
19235.0	4.6994102608199674e+17
19236.0	4.6985596349972474e+17
19237.0	4.6976666613841914e+17
19238.0	4.6966598739339936e+17
19239.0	4.695928838903124e+17
19240.0	4.69502167036723e+17
19241.0	4.6941421632662176e+17
19242.0	4.6932794375755085e+17
19243.0	4.6922756658298874e+17
19244.0	4.691545173262336e+17
19245.0	4.6906637766273696e+17
19246.0	4.6897734440277325e+17
19247.0	4.6889051951377056e+17
19248.0	4.688026245180074e+17
19249.0	4.687128966113962e+17
19250.0	4.686234536378368e+17
19251.0	4.6852428449273165e+17
19252.0	4.6842855509633696e+17
19253.0	4.6836245447311354e+17
19254.0	4.6827637449250125e+17
19255.0	4.681735393159849e+17
19256.0	4.6809472393980576e+17
19257.0	4.680135761810772e+17
19258.0	4.679260950233087e+17
19259.0	4.678320808176298e+17
19260.0	4.6763382172986e+17
19261.0	4.6766117215709856e+17
19262.0	4.6756908481467725e+17
19263.0	4.6747936487724365e+17
19264.0	4.673422434325844e+17
19265.0	4.6728944672221856e+17
19266.0	4.671952066532692e+17
19267.0	4.6713541188648954e+17
19268.0	4.6704663028476576e+17
19269.0	4.669591082325332e+17
19270.0	4.668711812202495e+17
19271.0	4.6674780409036806e+17
19272.0	4.66691959239475e+17
19273.0	4.664931228057598e+17
19274.0	4.6643722482701626e+17
19275.0	4.6643126751723514e+17
19276.0	4.663411777120938e+17
19277.0	4.6625358638394016e+17
19278.0	4.6616511963463674e+17
19279.0	4.660720324400468e+17
19280.0	4.659808684736511e+17
19281.0	4.659002133359274e+17
19282.0	4.6581361759573325e+17
19283.0	4.656708404117504e+17
19284.0	4.656041557316948e+17
19285.0	4.65530694734097e+17
19286.0	4.6545657159570765e+17
19287.0	4.6537107070866765e+17
19288.0	4.635183793132863e+17
19289.0	4.6163456618222483e+17
19290.0	4.6510553183901005e+17
19291.0	4.649932863919445e+17
19292.0	4.649285596829013e+17
19293.0	4.648391982885546e+17
19294.0	4.6474999963320314e+17
19295.0	4.6466227485627725e+17
19296.0	4.6456501845360634e+17
19297.0	4.6447741754845856e+17
19298.0	4.6439245884511565e+17
19299.0	4.64297049264401e+17
19300.0	4.642155612078079e+17
19301.0	4.6412719267512314e+17
19302.0	4.6403644499339936e+17
19303.0	4.6394030595331405e+17
19304.0	4.638557378095787e+17
19305.0	4.6376776717653325e+17
19306.0	4.636767107940351e+17
19307.0	4.635811885962581e+17
19308.0	4.634942226388309e+17
19309.0	4.632767934846291e+17
19310.0	4.6315403571363814e+17
19311.0	4.632096145058474e+17
19312.0	4.6313913370105165e+17
19313.0	4.630492686406997e+17
19314.0	4.547821506134096e+17
19315.0	4.5514576139824275e+17
19316.0	4.6275621695433376e+17
19317.0	4.6268693600010234e+17
19318.0	4.625959444895061e+17
19319.0	4.625065880584192e+17
19320.0	4.624112287394474e+17
19321.0	4.6231721684063565e+17
19322.0	4.6221653425083744e+17
19323.0	4.620869056506538e+17
19324.0	4.620457787523072e+17
19325.0	4.618313981580629e+17
19326.0	4.6186492679509325e+17
19327.0	4.617711134266708e+17
19328.0	4.6166616823562234e+17
19329.0	4.6158889985856845e+17
19330.0	4.6149207658769056e+17
19331.0	4.6139877212815354e+17
19332.0	4.6130817089754445e+17
19333.0	4.6121304380320416e+17
19334.0	4.611214857120425e+17
19335.0	4.609995784759978e+17
19336.0	4.6093166178904736e+17
19337.0	4.608403022981802e+17
19338.0	4.607255468397908e+17
19339.0	4.6064995401727994e+17
19340.0	4.605402631809706e+17
19341.0	4.6044392022780576e+17
19342.0	4.603156183558825e+17
19343.0	4.6026860649949856e+17
19344.0	4.60161780093201e+17
19345.0	4.598717362121383e+17
19346.0	4.5987664683335654e+17
19347.0	4.5986054007685114e+17
19348.0	4.5978426561003514e+17
19349.0	4.5968098143327565e+17
19350.0	4.59577786245666e+17
19351.0	4.5948441978033485e+17
19352.0	4.593661171990527e+17
19353.0	4.5928860897771514e+17
19354.0	4.5918891330764794e+17
19355.0	4.590785826302634e+17
19356.0	4.589864036422997e+17
19357.0	4.588846423474176e+17
19358.0	4.5877935231467514e+17
19359.0	4.586672127038804e+17
19360.0	4.5855980573600403e+17
19361.0	4.58466529378304e+17
19362.0	4.583661411587412e+17
19363.0	4.58260224217361e+17
19364.0	4.581535300714496e+17
19365.0	4.5804669101233485e+17
19366.0	4.5793868824357536e+17
19367.0	4.5782920733218125e+17
19368.0	4.5772037220379296e+17
19369.0	4.5760122705674234e+17
19370.0	4.574841742382421e+17
19371.0	4.5738094451752954e+17
19372.0	4.5727233371450016e+17
19373.0	4.571549252190207e+17
19374.0	4.570416439885823e+17
19375.0	4.569244941418496e+17
19376.0	4.568074869713578e+17
19377.0	4.5668715455665485e+17
19378.0	4.565669085446144e+17
19379.0	4.5644527233051296e+17
19380.0	4.5632185836066125e+17
19381.0	4.5619662070743034e+17
19382.0	4.5606395046789126e+17
19383.0	4.5593124031255885e+17
19384.0	4.5581138947386016e+17
19385.0	4.5568066448261114e+17
19386.0	4.5554762360640845e+17
19387.0	4.55411478106385e+17
19388.0	4.5527460272756045e+17
19389.0	4.5513479944492365e+17
19390.0	4.5499191544599885e+17
19391.0	4.497639500414912e+17
19392.0	4.545213548025164e+17
19393.0	4.545535246248618e+17
19394.0	4.543985331382955e+17
19395.0	4.5423339954503674e+17
19396.0	4.5407843294467405e+17
19397.0	4.5393027628619085e+17
19398.0	4.537571528933376e+17
19399.0	4.5352022847433376e+17
19400.0	4.5341772010400416e+17
19401.0	4.532564297515007e+17
19402.0	4.5308010093172045e+17
19403.0	4.528982886886058e+17
19404.0	4.5271588840407034e+17
19405.0	4.525267185128787e+17
19406.0	4.523360216853161e+17
19407.0	4.521355491934207e+17
19408.0	4.518248013190486e+17
19409.0	4.51685327568896e+17
19410.0	4.51477877362961e+17
19411.0	4.5126448089224525e+17
19412.0	4.5104461240074234e+17
19413.0	4.508161573999957e+17
19414.0	4.505890766629546e+17
19415.0	4.503579347211605e+17
19416.0	4.5008091366468256e+17
19417.0	4.4980880225075194e+17
19418.0	4.4962566649501e+17
19419.0	4.493663604310015e+17
19420.0	4.4910875494754976e+17
19421.0	4.488047031397033e+17
19422.0	4.4847549522466125e+17
19423.0	4.4819585664286714e+17
19424.0	4.479056721128106e+17
19425.0	4.4760616014970874e+17
19426.0	4.471757412324692e+17
19427.0	4.4683455816007674e+17
19428.0	4.46423752437487e+17
19429.0	4.459599596530346e+17
19430.0	4.452817313289562e+17
19431.0	4.438972009458355e+17
19432.0	4.440396444729346e+17
19433.0	4.430227834230102e+17
19434.0	4.4156268230737926e+17
19435.0	4.392819922479781e+17
19436.0	4.3699125228666835e+17
19437.0	4.3625449321922554e+17
19438.0	4.261488413900838e+17
19439.0	4.329744802425515e+17
19440.0	4.320202444854612e+17
19441.0	4.303739814936576e+17
19442.0	4.2851779169921696e+17
19443.0	4.261014112916824e+17
19444.0	4.21916502183116e+17
19445.0	4.142872015492438e+17
19446.0	4.089555280636585e+17
19447.0	4.030904238342141e+17
19448.0	3.952891510740337e+17
19449.0	3.7692566558911136e+17
19450.0	3.286571471077365e+17
19451.0	3.0905351208086035e+17
19452.0	3.5845557176675194e+17
19453.0	3.872856950352565e+17
19454.0	3.9953518174754086e+17
19455.0	4.0563838011746976e+17
19456.0	4.1096029709271046e+17
19457.0	4.173005974405111e+17
19458.0	4.02518507485067e+17
19459.0	4.2437819931908205e+17
19460.0	4.281259816299176e+17
19461.0	4.2974764237236883e+17
19462.0	4.311526855584426e+17
19463.0	4.3247645550619283e+17
19464.0	4.336488428863487e+17
19465.0	4.346737144976725e+17
19466.0	4.358672062174546e+17
19467.0	4.3809807878062125e+17
19468.0	4.3970452244835014e+17
19469.0	4.4064223124957875e+17
19470.0	4.414074296554833e+17
19471.0	4.419689348333568e+17
19472.0	4.423666685880999e+17
19473.0	4.4263423694165325e+17
19474.0	4.4297791387729914e+17
19475.0	4.430647256241491e+17
19476.0	4.4337282060124154e+17
19477.0	4.4357944508852896e+17
19478.0	4.4371234021266765e+17
19479.0	4.438231839233364e+17
19480.0	4.4394564501722445e+17
19481.0	4.44131889451281e+17
19482.0	4.442404958502912e+17
19483.0	4.4433719503967565e+17
19484.0	4.4442372416034125e+17
19485.0	4.445017256318293e+17
19486.0	4.445680145093973e+17
19487.0	4.4465338013013325e+17
19488.0	4.4472004572610554e+17
19489.0	4.4476302902340256e+17
19490.0	4.4469001388031974e+17
19491.0	4.448838509133823e+17
19492.0	4.449336846974976e+17
19493.0	4.4497492393328634e+17
19494.0	4.4501095698923514e+17
19495.0	4.450821611716607e+17
19496.0	4.4506923013242874e+17
19497.0	4.451355707397461e+17
19498.0	4.4423157086071424e+17
19499.0	4.374085488345081e+17
19500.0	4.4518486017310714e+17
19501.0	4.4519297489305594e+17
19502.0	4.451950900805632e+17
19503.0	4.45200902267426e+17
19504.0	4.4519847788980896e+17
19505.0	4.451941440552959e+17
19506.0	4.4518731817506125e+17
19507.0	4.451741224053418e+17
19508.0	4.451629450745173e+17
19509.0	4.4514628425045325e+17
19510.0	4.4510344551683405e+17
19511.0	4.3078696916309056e+17
19512.0	4.4362731426065005e+17
19513.0	4.428237868367841e+17
19514.0	4.432804739110206e+17
19515.0	4.448961960782506e+17
19516.0	4.4496279421583354e+17
19517.0	4.4492578185980576e+17
19518.0	4.448938829195947e+17
19519.0	4.448521017797289e+17
19520.0	4.448066781664597e+17
19521.0	4.447797791162366e+17
19522.0	4.44732817871121e+17
19523.0	4.4469023422109005e+17
19524.0	4.4464072570525005e+17
19525.0	4.446010144544084e+17
19526.0	4.445549712026283e+17
19527.0	4.4450549099834016e+17
19528.0	4.444541495716521e+17
19529.0	4.444021046203734e+17
19530.0	4.443528311952725e+17
19531.0	4.442995868128596e+17
19532.0	4.442453700509695e+17
19533.0	4.441902270469461e+17
19534.0	4.4413383288203936e+17
19535.0	4.4407588493721594e+17
19536.0	4.4401551771784525e+17
19537.0	4.439608828537514e+17
19538.0	4.438764603222699e+17
19539.0	4.437869668772523e+17
19540.0	4.4377840525421216e+17
19541.0	4.437169032658943e+17
19542.0	4.4365588348272634e+17
19543.0	4.435836183511039e+17
19544.0	4.4353046407632205e+17
19545.0	4.434133512792746e+17
19546.0	4.4331368070512634e+17
19547.0	4.433393394996566e+17
19548.0	4.4327344083217056e+17
19549.0	4.431994486259712e+17
19550.0	4.4314214898073594e+17
19551.0	4.430758317916159e+17
19552.0	4.430087042629631e+17
19553.0	4.4293858088277325e+17
19554.0	4.428695771021311e+17
19555.0	4.428024494336682e+17
19556.0	4.4273564913063245e+17
19557.0	4.426673470570495e+17
19558.0	4.4259817424595616e+17
19559.0	4.4252864023538336e+17
19560.0	4.424526832773802e+17
19561.0	4.423864281639594e+17
19562.0	4.4231396219508045e+17
19563.0	4.422481302170282e+17
19564.0	4.4217722648657914e+17
19565.0	4.421060401299455e+17
19566.0	4.4203158773869216e+17
19567.0	4.419627540370772e+17
19568.0	4.4188871604305914e+17
19569.0	4.4181675730534394e+17
19570.0	4.417464859361279e+17
19571.0	4.4167322997009056e+17
19572.0	4.415983212385621e+17
19573.0	4.415245319667711e+17
19574.0	4.4144686555026765e+17
19575.0	4.4138205921935354e+17
19576.0	4.413076156361387e+17
19577.0	4.412294837917013e+17
19578.0	4.411568055211349e+17
19579.0	4.4108494534956365e+17
19580.0	4.410107816662357e+17
19581.0	4.409377814828372e+17
19582.0	4.408651910829396e+17
19583.0	4.4079077287526394e+17
19584.0	4.4071328429725005e+17
19585.0	4.4063119184145056e+17
19586.0	4.405518289687893e+17
19587.0	4.404696378070357e+17
19588.0	4.4036862156035405e+17
19589.0	4.403421388647083e+17
19590.0	4.4025589453728416e+17
19591.0	4.40193044779281e+17
19592.0	4.401188028022783e+17
19593.0	4.4004054694625274e+17
19594.0	4.399429618499583e+17
19595.0	4.3988690952082765e+17
19596.0	4.396198870559403e+17
19597.0	4.3972870400901126e+17
19598.0	4.3961535273369594e+17
19599.0	4.395884959061332e+17
19600.0	4.395133372639914e+17
19601.0	4.394305227587583e+17
19602.0	4.3935491938058234e+17
19603.0	4.3918745319505914e+17
19604.0	4.391948690041515e+17
19605.0	4.3910354740183034e+17
19606.0	4.3905508886009165e+17
19607.0	4.389794931015679e+17
19608.0	4.3890107597455354e+17
19609.0	4.3882128605183994e+17
19610.0	4.387438624855381e+17
19611.0	4.3866443404192416e+17
19612.0	4.3859651371991034e+17
19613.0	4.3851880095634765e+17
19614.0	4.384393164488704e+17
19615.0	4.3836364015970976e+17
19616.0	4.382378415183189e+17
19617.0	4.382037054062591e+17
19618.0	4.380728708737705e+17
19619.0	4.379829933703166e+17
19620.0	4.379071943977642e+17
19621.0	4.3789404364690765e+17
19622.0	4.3782771737012896e+17
19623.0	4.3775003047144096e+17
19624.0	4.3767091016936096e+17
19625.0	4.375961026603691e+17
19626.0	4.3751875571002016e+17
19627.0	4.374408700013225e+17
19628.0	4.3727495864429235e+17
19629.0	4.372510585913343e+17
19630.0	4.3689409703662925e+17
19631.0	4.3336870693000614e+17
19632.0	4.3705334937681914e+17
19633.0	4.369662438189738e+17
19634.0	4.3690103462516045e+17
19635.0	4.3681792099614714e+17
19636.0	4.3673381709195936e+17
19637.0	4.3662623962562554e+17
19638.0	4.3658873401944736e+17
19639.0	4.365119034578261e+17
19640.0	4.364194264645632e+17
19641.0	4.362444141669035e+17
19642.0	4.362805334857045e+17
19643.0	4.3620169448161274e+17
19644.0	4.361208741582165e+17
19645.0	4.360211759016617e+17
19646.0	4.35959746334993e+17
19647.0	4.3589421180299936e+17
19648.0	4.358177431399082e+17
19649.0	4.3573949476372474e+17
19650.0	4.356626359604565e+17
19651.0	4.355847480847018e+17
19652.0	4.355069563983189e+17
19653.0	4.3542803001289376e+17
19654.0	4.353519282814974e+17
