# Flux units: erg / (cm m2 s)
# Wavelength units: Angstrom
wave	flux
19000.0	6.139221075733161e+17
19001.0	6.137997488903508e+17
19002.0	6.136930620145663e+17
19003.0	6.135783308831401e+17
19004.0	6.134636947526996e+17
19005.0	6.133493566275583e+17
19006.0	6.132347913808553e+17
19007.0	6.131180612441427e+17
19008.0	6.130008449176916e+17
19009.0	6.128824416032084e+17
19010.0	6.127403894046717e+17
19011.0	6.12658701279778e+17
19012.0	6.12533008404753e+17
19013.0	6.124319728642729e+17
19014.0	6.123131543835988e+17
19015.0	6.122001022320639e+17
19016.0	6.120843723669503e+17
19017.0	6.119738753854121e+17
19018.0	6.118585299981652e+17
19019.0	6.117444823285759e+17
19020.0	6.116285494591488e+17
19021.0	6.115157069529087e+17
19022.0	6.114023276456618e+17
19023.0	6.112847450865663e+17
19024.0	6.111712903517524e+17
19025.0	6.110577528493396e+17
19026.0	6.109412220119721e+17
19027.0	6.108204995969023e+17
19028.0	6.10714826903825e+17
19029.0	6.106001146467668e+17
19030.0	6.104905691430911e+17
19031.0	6.103771297174868e+17
19032.0	6.102623997045418e+17
19033.0	6.101411773284351e+17
19034.0	6.100328767640916e+17
19035.0	6.099160921014271e+17
19036.0	6.091280059378346e+17
19037.0	6.096897461365418e+17
19038.0	6.095746343720276e+17
19039.0	6.094622507925503e+17
19040.0	6.093479555192148e+17
19041.0	6.09233501561378e+17
19042.0	6.091116345906516e+17
19043.0	6.090051326137684e+17
19044.0	6.088899222831103e+17
19045.0	6.087766251842218e+17
19046.0	6.086582828269568e+17
19047.0	6.085463678211412e+17
19048.0	6.084176013601448e+17
19049.0	6.083132047141545e+17
19050.0	6.082022429338282e+17
19051.0	6.079939319868072e+17
19052.0	6.079567220790611e+17
19053.0	6.07862430699793e+17
19054.0	6.077488293740544e+17
19055.0	6.076148296100522e+17
19056.0	6.075191284553044e+17
19057.0	6.074060209389568e+17
19058.0	6.072911996299946e+17
19059.0	6.071784541519871e+17
19060.0	6.070627240072531e+17
19061.0	6.06950548185634e+17
19062.0	6.068361404350463e+17
19063.0	6.067222838160042e+17
19064.0	6.065992906746537e+17
19065.0	6.064809566360915e+17
19066.0	6.063761582456831e+17
19067.0	6.062663893254143e+17
19068.0	6.061526998493865e+17
19069.0	6.060388258239827e+17
19070.0	6.059230660395008e+17
19071.0	6.058111374721023e+17
19072.0	6.056972749111295e+17
19073.0	6.05583015289378e+17
19074.0	6.054696184359594e+17
19075.0	6.053558061367296e+17
19076.0	6.052404186666324e+17
19077.0	6.051269606462804e+17
19078.0	6.050123156378963e+17
19079.0	6.049005330322772e+17
19080.0	6.047855717034665e+17
19081.0	6.046701326434303e+17
19082.0	6.045561232119124e+17
19083.0	6.044376266440703e+17
19084.0	6.043144800610986e+17
19085.0	6.042185855489364e+17
19086.0	6.040768707821567e+17
19087.0	6.039715395054249e+17
19088.0	6.038713682711892e+17
19089.0	6.037410111204009e+17
19090.0	6.036483068657663e+17
19091.0	6.035346470993917e+17
19092.0	6.034154215615146e+17
19093.0	6.03309983539746e+17
19094.0	6.031963060174847e+17
19095.0	6.030827813076991e+17
19096.0	6.029682292031487e+17
19097.0	6.028558392623101e+17
19098.0	6.027424359077206e+17
19099.0	6.026289509739178e+17
19100.0	6.025142730402473e+17
19101.0	6.024020761072979e+17
19102.0	6.022809989939199e+17
19103.0	6.021758092050431e+17
19104.0	6.020624782721023e+17
19105.0	6.019485603463167e+17
19106.0	6.018324216064681e+17
19107.0	6.017212142496425e+17
19108.0	6.01609004454161e+17
19109.0	6.014443406928553e+17
19110.0	6.013808320795988e+17
19111.0	6.012694312255487e+17
19112.0	6.011562395435007e+17
19113.0	6.010432724664319e+17
19114.0	6.009299128025087e+17
19115.0	6.008122675385684e+17
19116.0	6.007020696808105e+17
19117.0	6.005888838008831e+17
19118.0	6.00468292108288e+17
19119.0	5.999647804533413e+17
19120.0	6.002451934434644e+17
19121.0	6.001342306844671e+17
19122.0	6.000254243569663e+17
19123.0	5.999123536805887e+17
19124.0	5.997963972531539e+17
19125.0	5.996858524565504e+17
19126.0	5.995729609468585e+17
19127.0	5.993201081690794e+17
19128.0	5.993325332354388e+17
19129.0	5.992286471061504e+17
19130.0	5.99119954514193e+17
19131.0	5.990085891719167e+17
19132.0	5.988956572570966e+17
19133.0	5.987698886748841e+17
19134.0	5.986625621677395e+17
19135.0	5.985569188347901e+17
19136.0	5.984447766375082e+17
19137.0	5.983192158830591e+17
19138.0	5.982173758051667e+17
19139.0	5.981063606872746e+17
19140.0	5.97993774522914e+17
19141.0	5.9788101681152e+17
19142.0	5.977664178705748e+17
19143.0	5.975930451962541e+17
19144.0	5.973013973434367e+17
19145.0	5.971917825638399e+17
19146.0	5.970342259108522e+17
19147.0	5.969577086637396e+17
19148.0	5.968535846475092e+17
19149.0	5.967410933443241e+17
19150.0	5.96628296695808e+17
19151.0	5.965164686518954e+17
19152.0	5.964028669067263e+17
19153.0	5.962896130790739e+17
19154.0	5.961688629116927e+17
19155.0	5.960665667731455e+17
19156.0	5.959538765201408e+17
19157.0	5.958406122067284e+17
19158.0	5.956933157300905e+17
19159.0	5.956152238014463e+17
19160.0	5.955035808661504e+17
19161.0	5.953904231579647e+17
19162.0	5.951994646757376e+17
19163.0	5.951644393712297e+17
19164.0	5.950549899171156e+17
19165.0	5.949405439983615e+17
19166.0	5.948191469993983e+17
19167.0	5.947104986573482e+17
19168.0	5.94603657011746e+17
19169.0	5.944906501586944e+17
19170.0	5.943811232497663e+17
19171.0	5.942639497052159e+17
19172.0	5.941566474551295e+17
19173.0	5.940443822948351e+17
19174.0	5.939277930168319e+17
19175.0	5.938202138028713e+17
19176.0	5.937080347656191e+17
19177.0	5.935839711679827e+17
19178.0	5.934814444126208e+17
19179.0	5.933647016929961e+17
19180.0	5.932579131053395e+17
19181.0	5.931379932703401e+17
19182.0	5.930327414756692e+17
19183.0	5.929227536826367e+17
19184.0	5.928089875207508e+17
19185.0	5.926981582804307e+17
19186.0	5.925863949686102e+17
19187.0	5.924690465914877e+17
19188.0	5.923620696795818e+17
19189.0	5.922497938937171e+17
19190.0	5.921372723915434e+17
19191.0	5.920231609685332e+17
19192.0	5.919141143773183e+17
19193.0	5.918015399570089e+17
19194.0	5.916889880461311e+17
19195.0	5.915779788002644e+17
19196.0	5.914650260537344e+17
19197.0	5.913528947616425e+17
19198.0	5.912404128257364e+17
19199.0	5.906593245822973e+17
19200.0	5.906881579057152e+17
19201.0	5.909046987063295e+17
19202.0	5.907937843216383e+17
19203.0	5.906808085064361e+17
19204.0	5.905681508291924e+17
19205.0	5.904572206459561e+17
19206.0	5.903449503825919e+17
19207.0	5.902255959397716e+17
19208.0	5.901059211919359e+17
19209.0	5.900094568835753e+17
19210.0	5.898985270498643e+17
19211.0	5.897865466129066e+17
19212.0	5.896746124531028e+17
19213.0	5.895532237029376e+17
19214.0	5.894376265176403e+17
19215.0	5.893368141141334e+17
19216.0	5.892265395705171e+17
19217.0	5.891147939446783e+17
19218.0	5.889380460440233e+17
19219.0	5.888793571054932e+17
19220.0	5.887771263281833e+17
19221.0	5.886420597429588e+17
19222.0	5.885539943186432e+17
19223.0	5.884413095182336e+17
19224.0	5.883271640514559e+17
19225.0	5.882075588591615e+17
19226.0	5.881053391967574e+17
19227.0	5.879931607187455e+17
19228.0	5.878831200774825e+17
19229.0	5.877710871418196e+17
19230.0	5.876587774519978e+17
19231.0	5.875460636409855e+17
19232.0	5.874340367171583e+17
19233.0	5.873175098643796e+17
19234.0	5.872090702588586e+17
19235.0	5.870971511286442e+17
19236.0	5.869867112595455e+17
19237.0	5.86873362850338e+17
19238.0	5.867549000466431e+17
19239.0	5.86650443911441e+17
19240.0	5.865346962904404e+17
19241.0	5.864232789387945e+17
19242.0	5.86312454312209e+17
19243.0	5.861893428914857e+17
19244.0	5.860896801467049e+17
19245.0	5.859775092883455e+17
19246.0	5.858640379860307e+17
19247.0	5.857529087830697e+17
19248.0	5.856407204484436e+17
19249.0	5.855281334452223e+17
19250.0	5.854145112877737e+17
19251.0	5.852931830753961e+17
19252.0	5.851708398414506e+17
19253.0	5.850769629293225e+17
19254.0	5.849658692381353e+17
19255.0	5.848406547933865e+17
19256.0	5.847376877060095e+17
19257.0	5.846289454115497e+17
19258.0	5.845163242247508e+17
19259.0	5.843985685108052e+17
19260.0	5.842774783950848e+17
19261.0	5.841773149203113e+17
19262.0	5.840611631781203e+17
19263.0	5.839474746108586e+17
19264.0	5.837973507538943e+17
19265.0	5.837113527020202e+17
19266.0	5.835976600802644e+17
19267.0	5.83501498810368e+17
19268.0	5.833885153755136e+17
19269.0	5.832754776244223e+17
19270.0	5.831621372542973e+17
19271.0	5.830225506074623e+17
19272.0	5.829332001882111e+17
19273.0	5.827037698719741e+17
19274.0	5.826307104789843e+17
19275.0	5.825960402223103e+17
19276.0	5.824810658212521e+17
19277.0	5.823679501959167e+17
19278.0	5.822545162928127e+17
19279.0	5.821401720160255e+17
19280.0	5.820213810080425e+17
19281.0	5.819129142793556e+17
19282.0	5.818005149712383e+17
19283.0	5.816790967910399e+17
19284.0	5.815659422285823e+17
19285.0	5.814434423373821e+17
19286.0	5.813413805206185e+17
19287.0	5.812298306988713e+17
19288.0	5.809113458715304e+17
19289.0	5.805781238677496e+17
19290.0	5.80651785283174e+17
19291.0	5.804741168726015e+17
19292.0	5.803788225653418e+17
19293.0	5.802631310781098e+17
19294.0	5.801476457409194e+17
19295.0	5.800331257926995e+17
19296.0	5.799175390931625e+17
19297.0	5.798009732333568e+17
19298.0	5.796840329620138e+17
19299.0	5.795702217113599e+17
19300.0	5.794536900351316e+17
19301.0	5.79337334100241e+17
19302.0	5.792198843607722e+17
19303.0	5.790990615620266e+17
19304.0	5.789849915228159e+17
19305.0	5.788695361049942e+17
19306.0	5.787531233372841e+17
19307.0	5.786324202859178e+17
19308.0	5.785164555397801e+17
19309.0	5.783832972929705e+17
19310.0	5.782602552180736e+17
19311.0	5.781610319664467e+17
19312.0	5.780463986322089e+17
19313.0	5.779284062197075e+17
19314.0	5.77133229934729e+17
19315.0	5.770510337398106e+17
19316.0	5.775702131474431e+17
19317.0	5.774520389118634e+17
19318.0	5.773320261031251e+17
19319.0	5.772133744159402e+17
19320.0	5.770929091816106e+17
19321.0	5.769724493998761e+17
19322.0	5.768443976482815e+17
19323.0	5.767234712502271e+17
19324.0	5.766090653171711e+17
19325.0	5.764713119307092e+17
19326.0	5.76244119764992e+17
19327.0	5.759095701940906e+17
19328.0	5.757865669864106e+17
19329.0	5.756631497310207e+17
19330.0	5.755357229307221e+17
19331.0	5.754103067399509e+17
19332.0	5.7528799992654496e+17
19333.0	5.7516264028897274e+17
19334.0	5.750360954809002e+17
19335.0	5.749086421166762e+17
19336.0	5.747820599093929e+17
19337.0	5.7465396432732154e+17
19338.0	5.745096832057343e+17
19339.0	5.743967920455678e+17
19340.0	5.7425999621870925e+17
19341.0	5.7413394787642016e+17
19342.0	5.739763627720702e+17
19343.0	5.7387469473054714e+17
19344.0	5.735288035519145e+17
19345.0	5.730699647997265e+17
19346.0	5.730077555818494e+17
19347.0	5.7294000156398925e+17
19348.0	5.7280928726821536e+17
19349.0	5.726696179236862e+17
19350.0	5.7253072725169485e+17
19351.0	5.72391172411665e+17
19352.0	5.722464729781588e+17
19353.0	5.721109337647786e+17
19354.0	5.719684447993855e+17
19355.0	5.715863088922618e+17
19356.0	5.712202115142996e+17
19357.0	5.7106841769519776e+17
19358.0	5.7090464424482125e+17
19359.0	5.707472555038036e+17
19360.0	5.705972669830485e+17
19361.0	5.704435771987285e+17
19362.0	5.7029037751883085e+17
19363.0	5.6992252804027725e+17
19364.0	5.6970688356242765e+17
19365.0	5.695435671513769e+17
19366.0	5.693781592506367e+17
19367.0	5.6921079890138445e+17
19368.0	5.6904136761453216e+17
19369.0	5.688644046159871e+17
19370.0	5.6868306514083834e+17
19371.0	5.685153017189717e+17
19372.0	5.683402316098218e+17
19373.0	5.681570941763583e+17
19374.0	5.679745496077652e+17
19375.0	5.6778729483578016e+17
19376.0	5.6759750810228045e+17
19377.0	5.6740412111803725e+17
19378.0	5.672080189510996e+17
19379.0	5.6700876832986445e+17
19380.0	5.6680573367746554e+17
19381.0	5.665989688208041e+17
19382.0	5.6638275608466765e+17
19383.0	5.661648278781951e+17
19384.0	5.659541323295402e+17
19385.0	5.657310650520916e+17
19386.0	5.655034456965119e+17
19387.0	5.652706541349545e+17
19388.0	5.6503280389324794e+17
19389.0	5.647896545678676e+17
19390.0	5.645408840362666e+17
19391.0	5.6371404739706797e+17
19392.0	5.640083936553641e+17
19393.0	5.637594617828692e+17
19394.0	5.634861719093247e+17
19395.0	5.632068307735892e+17
19396.0	5.6292054408014496e+17
19397.0	5.6262819193378125e+17
19398.0	5.6232522526228474e+17
19399.0	5.619640317946537e+17
19400.0	5.616933932804777e+17
19401.0	5.6137291308291405e+17
19402.0	5.610384572547071e+17
19403.0	5.606922679309652e+17
19404.0	5.603390794323285e+17
19405.0	5.5997351081629005e+17
19406.0	5.596011283436884e+17
19407.0	5.592183883868842e+17
19408.0	5.587662572355584e+17
19409.0	5.584166183064917e+17
19410.0	5.5800169119088634e+17
19411.0	5.5757281654647456e+17
19412.0	5.5711160612509005e+17
19413.0	5.566291349864447e+17
19414.0	5.5615945752357536e+17
19415.0	5.556832750447274e+17
19416.0	5.551831101647529e+17
19417.0	5.5468703515060896e+17
19418.0	5.5418006543182496e+17
19419.0	5.5364418528433485e+17
19420.0	5.530149042782207e+17
19421.0	5.5245521089986554e+17
19422.0	5.5187373398425594e+17
19423.0	5.512043679449088e+17
19424.0	5.50514005709073e+17
19425.0	5.49831731769071e+17
19426.0	5.490228475199487e+17
19427.0	5.4816655701005677e+17
19428.0	5.4720490628273485e+17
19429.0	5.4605220941223226e+17
19430.0	5.446490380042246e+17
19431.0	5.426555273958742e+17
19432.0	5.402720706669229e+17
19433.0	5.371278323438931e+17
19434.0	5.352750010684755e+17
19435.0	5.335394112853331e+17
19436.0	5.316544721234602e+17
19437.0	5.2966840962034336e+17
19438.0	5.266332327783084e+17
19439.0	5.251506281731413e+17
19440.0	5.227136443656873e+17
19441.0	5.199927879663613e+17
19442.0	5.165224682323968e+17
19443.0	5.109970130785604e+17
19444.0	5.028745614895774e+17
19445.0	4.968958216809131e+17
19446.0	4.903755701026815e+17
19447.0	4.815964266124638e+17
19448.0	4.664854247200099e+17
19449.0	4.471112638048943e+17
19450.0	4.0002409778380755e+17
19451.0	3.839137048166371e+17
19452.0	4.269575924001466e+17
19453.0	4.584062955378014e+17
19454.0	4.742671211255124e+17
19455.0	4.8595344528069946e+17
19456.0	4.930052975580503e+17
19457.0	4.989159991148541e+17
19458.0	5.0426121754596736e+17
19459.0	5.127037319293614e+17
19460.0	5.167928220931409e+17
19461.0	5.1960284415262694e+17
19462.0	5.219631233673899e+17
19463.0	5.241967234864468e+17
19464.0	5.261999649499817e+17
19465.0	5.281012393181184e+17
19466.0	5.2982132492642976e+17
19467.0	5.314163860919637e+17
19468.0	5.3286895290941434e+17
19469.0	5.352374561756508e+17
19470.0	5.379788597013161e+17
19471.0	5.398975727271937e+17
19472.0	5.412765833363455e+17
19473.0	5.42349060018449e+17
19474.0	5.432044309271892e+17
19475.0	5.438546361974781e+17
19476.0	5.4446655662981094e+17
19477.0	5.450590207344639e+17
19478.0	5.454803703780691e+17
19479.0	5.4602363012382694e+17
19480.0	5.4640528815991456e+17
19481.0	5.4676849111859194e+17
19482.0	5.471446129530196e+17
19483.0	5.4753289512331936e+17
19484.0	5.478466784154964e+17
19485.0	5.4814276964406605e+17
19486.0	5.484289381979477e+17
19487.0	5.4870483469161805e+17
19488.0	5.4896910387554976e+17
19489.0	5.4920843225989114e+17
19490.0	5.493983671921319e+17
19491.0	5.497259446413994e+17
19492.0	5.4994130055113376e+17
19493.0	5.5014176577290234e+17
19494.0	5.5033063668012365e+17
19495.0	5.5050795982957216e+17
19496.0	5.506446113024681e+17
19497.0	5.5082991397546643e+17
19498.0	5.508836658686634e+17
19499.0	5.5021270319759334e+17
19500.0	5.512461944531626e+17
19501.0	5.5136567095022925e+17
19502.0	5.5147522169678496e+17
19503.0	5.5157715852328954e+17
19504.0	5.516704433395028e+17
19505.0	5.517561444346538e+17
19506.0	5.5183418505297914e+17
19507.0	5.519033547183445e+17
19508.0	5.5196893084385274e+17
19509.0	5.520268562792447e+17
19510.0	5.520630208266239e+17
19511.0	5.50892507321685e+17
19512.0	5.520049661367636e+17
19513.0	5.5192412658947366e+17
19514.0	5.520285078563495e+17
19515.0	5.522107092609707e+17
19516.0	5.522670687529642e+17
19517.0	5.522779851980799e+17
19518.0	5.5229226330794656e+17
19519.0	5.522967844181332e+17
19520.0	5.522962877426345e+17
19521.0	5.5229575912052045e+17
19522.0	5.522868441972735e+17
19523.0	5.5227896428844365e+17
19524.0	5.5226542864029005e+17
19525.0	5.522475709715796e+17
19526.0	5.522289414810281e+17
19527.0	5.522060050694143e+17
19528.0	5.5218002988455245e+17
19529.0	5.5215213286959776e+17
19530.0	5.5212167746901325e+17
19531.0	5.520882634063871e+17
19532.0	5.5205244712605005e+17
19533.0	5.5201433663133e+17
19534.0	5.519737298965845e+17
19535.0	5.519307549878953e+17
19536.0	5.5188401002905594e+17
19537.0	5.5184071782126925e+17
19538.0	5.5178192346589856e+17
19539.0	5.517021763250858e+17
19540.0	5.516884508846761e+17
19541.0	5.518418773366097e+17
19542.0	5.51825525842466e+17
19543.0	5.517670916379988e+17
19544.0	5.517078516378281e+17
19545.0	5.516079977725951e+17
19546.0	5.515184379876692e+17
19547.0	5.5152164704965965e+17
19548.0	5.51456683921681e+17
19549.0	5.514033037836288e+17
19550.0	5.5174690270522003e+17
19551.0	5.516768373462356e+17
19552.0	5.516055629791231e+17
19553.0	5.515314855586473e+17
19554.0	5.5145768482242554e+17
19555.0	5.5138561989891405e+17
19556.0	5.513121846263807e+17
19557.0	5.5123645737642656e+17
19558.0	5.5116045435098445e+17
19559.0	5.5108345405986125e+17
19560.0	5.510041464821077e+17
19561.0	5.509258048525652e+17
19562.0	5.508491878509226e+17
19563.0	5.510190636640937e+17
19564.0	5.51047272665361e+17
19565.0	5.509652828301994e+17
19566.0	5.508804017214804e+17
19567.0	5.507996027191294e+17
19568.0	5.5071962754798925e+17
19569.0	5.506452946944e+17
19570.0	5.5056158882966176e+17
19571.0	5.5047626109747194e+17
19572.0	5.5038926368276474e+17
19573.0	5.503038145953791e+17
19574.0	5.502129798818474e+17
19575.0	5.5013309824368634e+17
19576.0	5.500463866008917e+17
19577.0	5.4995726581978426e+17
19578.0	5.4986824416406176e+17
19579.0	5.4978161242275834e+17
19580.0	5.496933816729599e+17
19581.0	5.4960592344405325e+17
19582.0	5.4951842201381536e+17
19583.0	5.4942935834514765e+17
19584.0	5.4933924225570125e+17
19585.0	5.4924219193316685e+17
19586.0	5.491496304945834e+17
19587.0	5.490673150416213e+17
19588.0	5.491889499275265e+17
19589.0	5.4918492206749005e+17
19590.0	5.490878191064404e+17
19591.0	5.490037163906388e+17
19592.0	5.4891168881704954e+17
19593.0	5.488181887631358e+17
19594.0	5.487102158438399e+17
19595.0	5.4863117516363085e+17
19596.0	5.485064441823231e+17
19597.0	5.4844684927412896e+17
19598.0	5.483263365742591e+17
19599.0	5.4826319838795085e+17
19600.0	5.481705755028139e+17
19601.0	5.4807184962573645e+17
19602.0	5.479790094057471e+17
19603.0	5.4785192227416723e+17
19604.0	5.4779087690574496e+17
19605.0	5.476795567920468e+17
19606.0	5.476077944176639e+17
19607.0	5.475139254747135e+17
19608.0	5.4741806332859725e+17
19609.0	5.473210462808745e+17
19610.0	5.47230386959155e+17
19611.0	5.471351568247466e+17
19612.0	5.4704116904318285e+17
19613.0	5.4694549389312e+17
19614.0	5.468482593008298e+17
19615.0	5.467560840877396e+17
19616.0	5.4665594619822074e+17
19617.0	5.465651428720639e+17
19618.0	5.464245980364798e+17
19619.0	5.463200169809236e+17
19620.0	5.462270397470036e+17
19621.0	5.4618383191463245e+17
19622.0	5.46088569344273e+17
19623.0	5.459928696575317e+17
19624.0	5.4589633090027514e+17
19625.0	5.458011948580862e+17
19626.0	5.457052891611136e+17
19627.0	5.456091896872958e+17
19628.0	5.455017198747647e+17
19629.0	5.45409257841186e+17
19630.0	5.452805874297513e+17
19631.0	5.4471117172462925e+17
19632.0	5.4512791497386656e+17
19633.0	5.4502883474800634e+17
19634.0	5.449397699608575e+17
19635.0	5.448423290088105e+17
19636.0	5.44748462023202e+17
19637.0	5.446243644517035e+17
19638.0	5.4455489552274765e+17
19639.0	5.4445778025840634e+17
19640.0	5.4435158551429114e+17
19641.0	5.4419758577090566e+17
19642.0	5.441682826854399e+17
19643.0	5.4407117811657376e+17
19644.0	5.4397033530436256e+17
19645.0	5.438568886086313e+17
19646.0	5.43781355135522e+17
19647.0	5.436848669895338e+17
19648.0	5.4358796654346234e+17
19649.0	5.434907878752255e+17
19650.0	5.4339401409713485e+17
19651.0	5.432965465811625e+17
19652.0	5.431997220519936e+17
19653.0	5.4310273268667725e+17
19654.0	5.430057919752873e+17
19655.0	5.429082967769087e+17
19656.0	5.4281100185654605e+17
19657.0	5.4271437781510816e+17
19658.0	5.426172013139283e+17
19659.0	5.4251988157726714e+17
19660.0	5.424227939953321e+17
