# Flux units: erg / (cm m2 s)
# Wavelength units: Angstrom
wave	flux
19000.0	7.54185906613999e+17
19001.0	7.540437619310591e+17
19002.0	7.539136944668671e+17
19003.0	7.53772811989811e+17
19004.0	7.536287698037416e+17
19005.0	7.534924438787411e+17
19006.0	7.533561011765247e+17
19007.0	7.53217997565679e+17
19008.0	7.530802318759251e+17
19009.0	7.529470623044947e+17
19010.0	7.528137469110953e+17
19011.0	7.526890835279871e+17
19012.0	7.525422666700115e+17
19013.0	7.524190580113408e+17
19014.0	7.522791585393321e+17
19015.0	7.521450526594387e+17
19016.0	7.520100052981075e+17
19017.0	7.5187424881978e+17
19018.0	7.517364505542655e+17
19019.0	7.515996489951913e+17
19020.0	7.514615972539049e+17
19021.0	7.513257831738025e+17
19022.0	7.511901579771901e+17
19023.0	7.510491840643071e+17
19024.0	7.509131325865983e+17
19025.0	7.507747629170687e+17
19026.0	7.506344616307369e+17
19027.0	7.50490723112277e+17
19028.0	7.503617650414931e+17
19029.0	7.502252345742675e+17
19030.0	7.500969341703508e+17
19031.0	7.499616473142612e+17
19032.0	7.498247193668264e+17
19033.0	7.496813808451581e+17
19034.0	7.495385352940202e+17
19035.0	7.493303265482066e+17
19036.0	7.484906225532927e+17
19037.0	7.49073643671825e+17
19038.0	7.489878707142655e+17
19039.0	7.488598279804244e+17
19040.0	7.487200088992425e+17
19041.0	7.485820147597311e+17
19042.0	7.484360782861651e+17
19043.0	7.48306560974848e+17
19044.0	7.481679237087232e+17
19045.0	7.480293279662079e+17
19046.0	7.478899259386538e+17
19047.0	7.477501574687402e+17
19048.0	7.476075884620457e+17
19049.0	7.474639009742847e+17
19050.0	7.473250106518185e+17
19051.0	7.470915500987731e+17
19052.0	7.470023784966825e+17
19053.0	7.469173838621353e+17
19054.0	7.467855623400105e+17
19055.0	7.46632995790302e+17
19056.0	7.465102012492458e+17
19057.0	7.463729304873641e+17
19058.0	7.462316415822505e+17
19059.0	7.460957427772074e+17
19060.0	7.459576159578794e+17
19061.0	7.458195474393769e+17
19062.0	7.456808805335039e+17
19063.0	7.455420198507859e+17
19064.0	7.453991201931263e+17
19065.0	7.452551472130729e+17
19066.0	7.451219116512595e+17
19067.0	7.449885168457042e+17
19068.0	7.448499570343935e+17
19069.0	7.447113431165609e+17
19070.0	7.445716116963328e+17
19071.0	7.444333245147817e+17
19072.0	7.442942852945236e+17
19073.0	7.44156580282368e+17
19074.0	7.440179621702314e+17
19075.0	7.438791632835923e+17
19076.0	7.437398139644586e+17
19077.0	7.436006445809663e+17
19078.0	7.434617306305875e+17
19079.0	7.433238377136127e+17
19080.0	7.431840839237632e+17
19081.0	7.430431045582845e+17
19082.0	7.429056021310122e+17
19083.0	7.427604515302058e+17
19084.0	7.426133384145578e+17
19085.0	7.424882465133908e+17
19086.0	7.4232097697082e+17
19087.0	7.421999399829503e+17
19088.0	7.420599416651775e+17
19089.0	7.419157512803668e+17
19090.0	7.417893741046442e+17
19091.0	7.416524858632876e+17
19092.0	7.415095936155645e+17
19093.0	7.413776963163476e+17
19094.0	7.412396360466432e+17
19095.0	7.411010649107114e+17
19096.0	7.409619141219668e+17
19097.0	7.408232975477417e+17
19098.0	7.406834116373161e+17
19099.0	7.405442257562281e+17
19100.0	7.40404466234163e+17
19101.0	7.402659998160211e+17
19102.0	7.401245395036841e+17
19103.0	7.399889593259347e+17
19104.0	7.398496118243327e+17
19105.0	7.397069801826985e+17
19106.0	7.395687278138708e+17
19107.0	7.394272737929898e+17
19108.0	7.392818704154623e+17
19109.0	7.391184923481428e+17
19110.0	7.38996459213073e+17
19111.0	7.388697859194879e+17
19112.0	7.387340463581864e+17
19113.0	7.385971105813846e+17
19114.0	7.384574652841981e+17
19115.0	7.383155609348778e+17
19116.0	7.381782008343209e+17
19117.0	7.380385032481449e+17
19118.0	7.3788913890973e+17
19119.0	7.37589910132053e+17
19120.0	7.376113124070739e+17
19121.0	7.374772111409151e+17
19122.0	7.373443741777919e+17
19123.0	7.372057830490111e+17
19124.0	7.370590745438889e+17
19125.0	7.369254013763581e+17
19126.0	7.36778543833634e+17
19127.0	7.365843524517888e+17
19128.0	7.364912793081172e+17
19129.0	7.363631799511721e+17
19130.0	7.362291578175487e+17
19131.0	7.360869291087187e+17
19132.0	7.359475424602793e+17
19133.0	7.358038702118227e+17
19134.0	7.356631391491411e+17
19135.0	7.355275075212628e+17
19136.0	7.353877712076797e+17
19137.0	7.352439742485846e+17
19138.0	7.351080600644268e+17
19139.0	7.349701120622591e+17
19140.0	7.348309348493994e+17
19141.0	7.346914900399444e+17
19142.0	7.345503806510422e+17
19143.0	7.344105846385321e+17
19144.0	7.342699698978816e+17
19145.0	7.341318938296319e+17
19146.0	7.33955404787439e+17
19147.0	7.338490789014185e+17
19148.0	7.337107945160703e+17
19149.0	7.335711444653395e+17
19150.0	7.334325459266217e+17
19151.0	7.33292762636834e+17
19152.0	7.33150299885841e+17
19153.0	7.330075569553407e+17
19154.0	7.32867582824721e+17
19155.0	7.327310473243305e+17
19156.0	7.325897722604202e+17
19157.0	7.324441284094634e+17
19158.0	7.32295291155251e+17
19159.0	7.321640762692948e+17
19160.0	7.320249182104233e+17
19161.0	7.318769119876436e+17
19162.0	7.316978897256447e+17
19163.0	7.315858811169449e+17
19164.0	7.314663960215551e+17
19165.0	7.313286292133204e+17
19166.0	7.311874878078975e+17
19167.0	7.310488638237352e+17
19168.0	7.309125227992403e+17
19169.0	7.307743288710483e+17
19170.0	7.306371229810687e+17
19171.0	7.30496763813342e+17
19172.0	7.303568640617129e+17
19173.0	7.302177876519593e+17
19174.0	7.300764668701356e+17
19175.0	7.299380281343999e+17
19176.0	7.297980256223232e+17
19177.0	7.296483053273087e+17
19178.0	7.295153039474687e+17
19179.0	7.293742651626836e+17
19180.0	7.292350706133672e+17
19181.0	7.290916370208083e+17
19182.0	7.289541668896768e+17
19183.0	7.288152660814506e+17
19184.0	7.286743466945194e+17
19185.0	7.285331300712447e+17
19186.0	7.283920053032275e+17
19187.0	7.28245950410479e+17
19188.0	7.281088147051859e+17
19189.0	7.279669813794131e+17
19190.0	7.278245862965247e+17
19191.0	7.2768041268893e+17
19192.0	7.275395982994089e+17
19193.0	7.273949248705876e+17
19194.0	7.272476430041088e+17
19195.0	7.270979791923881e+17
19196.0	7.269400043672918e+17
19197.0	7.267648698056704e+17
19198.0	7.265364994599594e+17
19199.0	7.261097287483391e+17
19200.0	7.260037491720191e+17
19201.0	7.261231584903165e+17
19202.0	7.260624049755475e+17
19203.0	7.259507587547135e+17
19204.0	7.258264931314345e+17
19205.0	7.256934828037462e+17
19206.0	7.255578752232105e+17
19207.0	7.25414785004339e+17
19208.0	7.25272901906159e+17
19209.0	7.25133768593681e+17
19210.0	7.249913301696511e+17
19211.0	7.248503779273385e+17
19212.0	7.247080720433152e+17
19213.0	7.245591852963156e+17
19214.0	7.244177877587284e+17
19215.0	7.242804131179177e+17
19216.0	7.241394879987711e+17
19217.0	7.239939536191487e+17
19218.0	7.238297043948884e+17
19219.0	7.236979790621352e+17
19220.0	7.235676841268564e+17
19221.0	7.234193265612116e+17
19222.0	7.232825398220116e+17
19223.0	7.231418996359165e+17
19224.0	7.229967842672637e+17
19225.0	7.22853411631923e+17
19226.0	7.227125348870825e+17
19227.0	7.22569567281698e+17
19228.0	7.224282098696191e+17
19229.0	7.222846522654719e+17
19230.0	7.221429484038825e+17
19231.0	7.220023509996884e+17
19232.0	7.218592228922708e+17
19233.0	7.217118521065471e+17
19234.0	7.215714786781866e+17
19235.0	7.214269485547519e+17
19236.0	7.212837024475817e+17
19237.0	7.211388197229908e+17
19238.0	7.209897998767442e+17
19239.0	7.208504191003306e+17
19240.0	7.207075520184317e+17
19241.0	7.205615313791658e+17
19242.0	7.204156477538301e+17
19243.0	7.202581085771091e+17
19244.0	7.201188216132948e+17
19245.0	7.19966078763008e+17
19246.0	7.198204515494569e+17
19247.0	7.196752947970047e+17
19248.0	7.195298406683987e+17
19249.0	7.193842728741544e+17
19250.0	7.192424402474326e+17
19251.0	7.190919465227603e+17
19252.0	7.189325826839892e+17
19253.0	7.188040991287978e+17
19254.0	7.186587227346259e+17
19255.0	7.184995336585216e+17
19256.0	7.183636530287956e+17
19257.0	7.182175355011071e+17
19258.0	7.180689441729194e+17
19259.0	7.179146463543293e+17
19260.0	7.177560177770493e+17
19261.0	7.176225273413632e+17
19262.0	7.174714643098281e+17
19263.0	7.173196938390185e+17
19264.0	7.17156346250308e+17
19265.0	7.170200176689151e+17
19266.0	7.168713493053439e+17
19267.0	7.16725049045811e+17
19268.0	7.165596575727616e+17
19269.0	7.164095927855786e+17
19270.0	7.162564154053972e+17
19271.0	7.160960903719594e+17
19272.0	7.159536128010921e+17
19273.0	7.157852400167593e+17
19274.0	7.156245595859624e+17
19275.0	7.1550066767517e+17
19276.0	7.15347639612211e+17
19277.0	7.151942966968319e+17
19278.0	7.150395075854335e+17
19279.0	7.148847335735296e+17
19280.0	7.147288147962538e+17
19281.0	7.145747680766633e+17
19282.0	7.144203870710441e+17
19283.0	7.142587703317844e+17
19284.0	7.140951330564777e+17
19285.0	7.139336466202623e+17
19286.0	7.137601244889087e+17
19287.0	7.135957676108457e+17
19288.0	7.131436764452178e+17
19289.0	7.12806559680648e+17
19290.0	7.131226653589504e+17
19291.0	7.129694183533226e+17
19292.0	7.128319289283923e+17
19293.0	7.12674139771153e+17
19294.0	7.125147479703552e+17
19295.0	7.123568030646272e+17
19296.0	7.121979474356905e+17
19297.0	7.120402548872532e+17
19298.0	7.118703510421504e+17
19299.0	7.117076650349908e+17
19300.0	7.115355993057961e+17
19301.0	7.11372673664068e+17
19302.0	7.112098244984832e+17
19303.0	7.110443228550484e+17
19304.0	7.108818293664425e+17
19305.0	7.107182840862036e+17
19306.0	7.105520569679871e+17
19307.0	7.103803297191251e+17
19308.0	7.102124947843753e+17
19309.0	7.100355187834879e+17
19310.0	7.098508943294463e+17
19311.0	7.096948609078612e+17
19312.0	7.095313842743977e+17
19313.0	7.093576452975274e+17
19314.0	7.084778290763092e+17
19315.0	7.083579674722309e+17
19316.0	7.08844528406801e+17
19317.0	7.086844428681215e+17
19318.0	7.085194789344595e+17
19319.0	7.083500607897599e+17
19320.0	7.081742959640575e+17
19321.0	7.079883339464701e+17
19322.0	7.078064622141439e+17
19323.0	7.076269542517417e+17
19324.0	7.074484810241364e+17
19325.0	7.072662983540735e+17
19326.0	7.070853861386922e+17
19327.0	7.068975549994323e+17
19328.0	7.067049518607017e+17
19329.0	7.065207742398463e+17
19330.0	7.063403526182228e+17
19331.0	7.06150212374801e+17
19332.0	7.059628765828436e+17
19333.0	7.057762915713023e+17
19334.0	7.055834662742698e+17
19335.0	7.053837363139926e+17
19336.0	7.051919331688447e+17
19337.0	7.049947891367935e+17
19338.0	7.04783520506402e+17
19339.0	7.046013368576681e+17
19340.0	7.043978911634771e+17
19341.0	7.041938533733716e+17
19342.0	7.039710603334995e+17
19343.0	7.037523493999955e+17
19344.0	7.035424369978025e+17
19345.0	7.03272439722803e+17
19346.0	7.030802366507689e+17
19347.0	7.029167354107219e+17
19348.0	7.027154315378687e+17
19349.0	7.025138341336404e+17
19350.0	7.023027499827197e+17
19351.0	7.0209699343674e+17
19352.0	7.018745648818858e+17
19353.0	7.016574840646313e+17
19354.0	7.014296062700201e+17
19355.0	7.011692779842217e+17
19356.0	7.009157327967572e+17
19357.0	7.006775911907327e+17
19358.0	7.004379130014377e+17
19359.0	7.00200232489233e+17
19360.0	6.999612116871849e+17
19361.0	6.997185732979369e+17
19362.0	6.994753308590079e+17
19363.0	6.992236597564755e+17
19364.0	6.989739807386281e+17
19365.0	6.987161782626985e+17
19366.0	6.984254838450857e+17
19367.0	6.981234182498985e+17
19368.0	6.978552562625193e+17
19369.0	6.975756115290793e+17
19370.0	6.972947284972884e+17
19371.0	6.97012690424081e+17
19372.0	6.967294347444223e+17
19373.0	6.964335824513705e+17
19374.0	6.961437012393983e+17
19375.0	6.958558515385683e+17
19376.0	6.955648403810985e+17
19377.0	6.952323524504233e+17
19378.0	6.948764154243753e+17
19379.0	6.945509019921066e+17
19380.0	6.942323051069439e+17
19381.0	6.939083736962388e+17
19382.0	6.935766179512319e+17
19383.0	6.932346994076329e+17
19384.0	6.928674342655315e+17
19385.0	6.924955444838399e+17
19386.0	6.921428779663359e+17
19387.0	6.917751817895935e+17
19388.0	6.913984255666857e+17
19389.0	6.90983021908241e+17
19390.0	6.905189378992808e+17
19391.0	6.895137212858363e+17
19392.0	6.895917894467583e+17
19393.0	6.892761854771199e+17
19394.0	6.888514177553748e+17
19395.0	6.884140169297919e+17
19396.0	6.879574573623977e+17
19397.0	6.874779124498431e+17
19398.0	6.8696291686045e+17
19399.0	6.864533912726185e+17
19400.0	6.859579491789482e+17
19401.0	6.854431415642793e+17
19402.0	6.849029451983529e+17
19403.0	6.843284520086186e+17
19404.0	6.837582948903593e+17
19405.0	6.831792125029033e+17
19406.0	6.82587386421794e+17
19407.0	6.819729535314601e+17
19408.0	6.81332308967424e+17
19409.0	6.807064620477097e+17
19410.0	6.800157973326506e+17
19411.0	6.792958771374761e+17
19412.0	6.785180335341568e+17
19413.0	6.776993611076948e+17
19414.0	6.769278181878441e+17
19415.0	6.761219113353215e+17
19416.0	6.752761565675519e+17
19417.0	6.743979498405887e+17
19418.0	6.734729956382036e+17
19419.0	6.724938478125056e+17
19420.0	6.714752179546793e+17
19421.0	6.70419309961762e+17
19422.0	6.693433880783529e+17
19423.0	6.682285734625277e+17
19424.0	6.670786734937428e+17
19425.0	6.658429949749929e+17
19426.0	6.645075658407935e+17
19427.0	6.631237633092265e+17
19428.0	6.616863776352937e+17
19429.0	6.601411593415338e+17
19430.0	6.58470436077568e+17
19431.0	6.566937444919978e+17
19432.0	6.549788914177363e+17
19433.0	6.530789065184598e+17
19434.0	6.510297506381823e+17
19435.0	6.487895477758633e+17
19436.0	6.4640304283648e+17
19437.0	6.439157789709652e+17
19438.0	6.40381652898065e+17
19439.0	6.380970514404694e+17
19440.0	6.351089400020991e+17
19441.0	6.316001646521e+17
19442.0	6.277519369393494e+17
19443.0	6.234812320142676e+17
19444.0	6.186662012212562e+17
19445.0	6.132108157605207e+17
19446.0	6.069142165651455e+17
19447.0	5.995319612058278e+17
19448.0	5.90648726764476e+17
19449.0	5.795734234333183e+17
19450.0	5.644457266031265e+17
19451.0	5.548201504058027e+17
19452.0	5.7276247617918285e+17
19453.0	5.851973490311172e+17
19454.0	5.947995728117756e+17
19455.0	6.026240324534271e+17
19456.0	6.091847147454465e+17
19457.0	6.147821333206354e+17
19458.0	6.183421180466534e+17
19459.0	6.23845666490505e+17
19460.0	6.277594727055357e+17
19461.0	6.312091652718591e+17
19462.0	6.343102658772992e+17
19463.0	6.370936632639485e+17
19464.0	6.397114918283946e+17
19465.0	6.420600741778774e+17
19466.0	6.442262605070333e+17
19467.0	6.462855890425172e+17
19468.0	6.481468256332458e+17
19469.0	6.498766195873107e+17
19470.0	6.514692080009215e+17
19471.0	6.52986159272209e+17
19472.0	6.544172873940991e+17
19473.0	6.557473450928809e+17
19474.0	6.569768185582934e+17
19475.0	6.581023952688467e+17
19476.0	6.59234381505058e+17
19477.0	6.602739609326934e+17
19478.0	6.612077375040169e+17
19479.0	6.620823330051412e+17
19480.0	6.629211643052032e+17
19481.0	6.637292437372927e+17
19482.0	6.645152024799913e+17
19483.0	6.652565206160726e+17
19484.0	6.659550758655316e+17
19485.0	6.666034638837076e+17
19486.0	6.672030461416788e+17
19487.0	6.677694865473533e+17
19488.0	6.682962778477908e+17
19489.0	6.688041012472492e+17
19490.0	6.693427760594943e+17
19491.0	6.698585732502867e+17
19492.0	6.70313103823121e+17
19493.0	6.707317876370089e+17
19494.0	6.710916821985961e+17
19495.0	6.714504692542121e+17
19496.0	6.717774244085759e+17
19497.0	6.720900109260116e+17
19498.0	6.721576473635497e+17
19499.0	6.718034060946089e+17
19500.0	6.730052518193834e+17
19501.0	6.733126706047657e+17
19502.0	6.735795818506921e+17
19503.0	6.738193817447081e+17
19504.0	6.740559123884714e+17
19505.0	6.742969714125481e+17
19506.0	6.745078559845034e+17
19507.0	6.746969498888874e+17
19508.0	6.748725548417023e+17
19509.0	6.750334304474451e+17
19510.0	6.751531362331305e+17
19511.0	6.74084378430668e+17
19512.0	6.752317970492073e+17
19513.0	6.753717463635282e+17
19514.0	6.755607872798717e+17
19515.0	6.759029658004137e+17
19516.0	6.760382829253972e+17
19517.0	6.76126242443537e+17
19518.0	6.762553078185983e+17
19519.0	6.763519646455123e+17
19520.0	6.764257351128404e+17
19521.0	6.764937574263466e+17
19522.0	6.76554151768883e+17
19523.0	6.766143677835945e+17
19524.0	6.766876131240617e+17
19525.0	6.767886885104298e+17
19526.0	6.768371304147625e+17
19527.0	6.768650280588628e+17
19528.0	6.768894593204223e+17
19529.0	6.769224380841983e+17
19530.0	6.769558546634068e+17
19531.0	6.769811038841513e+17
19532.0	6.769893135351808e+17
19533.0	6.770209398456319e+17
19534.0	6.770346405396479e+17
19535.0	6.77044367270434e+17
19536.0	6.770938735493119e+17
19537.0	6.771090957970089e+17
19538.0	6.770887006442836e+17
19539.0	6.770717962709674e+17
19540.0	6.770734017806336e+17
19541.0	6.770631811705513e+17
19542.0	6.770435753858388e+17
19543.0	6.770175047106559e+17
19544.0	6.769971767366995e+17
19545.0	6.769519285152425e+17
19546.0	6.769215285493759e+17
19547.0	6.769600312814249e+17
19548.0	6.769432296685567e+17
19549.0	6.769030043358548e+17
19550.0	6.768705019751081e+17
19551.0	6.768276157759487e+17
19552.0	6.767760467383635e+17
19553.0	6.767162128247466e+17
19554.0	6.766633779462143e+17
19555.0	6.766138410489172e+17
19556.0	6.765661972507306e+17
19557.0	6.765161178202111e+17
19558.0	6.764625202074963e+17
19559.0	6.764073078576468e+17
19560.0	6.763757289428307e+17
19561.0	6.763258924324179e+17
19562.0	6.762682478755839e+17
19563.0	6.762061122677417e+17
19564.0	6.761409873794388e+17
19565.0	6.760820379746304e+17
19566.0	6.76018497135138e+17
19567.0	6.759551351827114e+17
19568.0	6.758881963278335e+17
19569.0	6.758250157790548e+17
19570.0	6.75754338541022e+17
19571.0	6.756820205611689e+17
19572.0	6.756067356704767e+17
19573.0	6.755321485022547e+17
19574.0	6.754531993976831e+17
19575.0	6.753857773589844e+17
19576.0	6.753089957309098e+17
19577.0	6.752407606962858e+17
19578.0	6.751608895438847e+17
19579.0	6.750804313986388e+17
19580.0	6.749999772379817e+17
19581.0	6.749259939796308e+17
19582.0	6.748443359838207e+17
19583.0	6.74762202423842e+17
19584.0	6.746798500610047e+17
19585.0	6.745767396682409e+17
19586.0	6.74486807499025e+17
19587.0	6.744050802971987e+17
19588.0	6.743033867403264e+17
19589.0	6.742223013369172e+17
19590.0	6.741316272652287e+17
19591.0	6.740458183764649e+17
19592.0	6.739624225406975e+17
19593.0	6.738711063909716e+17
19594.0	6.737642102893225e+17
19595.0	6.7368584740864e+17
19596.0	6.735779373339987e+17
19597.0	6.735023454202538e+17
19598.0	6.733917779744083e+17
19599.0	6.733022075639123e+17
19600.0	6.732143782090068e+17
19601.0	6.731169091551231e+17
19602.0	6.730164672484692e+17
19603.0	6.729178022587049e+17
19604.0	6.728370684078761e+17
19605.0	6.727344381930154e+17
19606.0	6.726472262396586e+17
19607.0	6.725346473454249e+17
19608.0	6.724355469869055e+17
19609.0	6.723350543291734e+17
19610.0	6.722375903783593e+17
19611.0	6.721366790591828e+17
19612.0	6.72037442106163e+17
19613.0	6.719659288035327e+17
19614.0	6.718638319643305e+17
19615.0	6.717626704549204e+17
19616.0	6.716574292159145e+17
19617.0	6.715664461638314e+17
19618.0	6.714398834600617e+17
19619.0	6.713334264321363e+17
19620.0	6.712394595521875e+17
19621.0	6.711568640595284e+17
19622.0	6.71056444592401e+17
19623.0	6.7095243011741e+17
19624.0	6.708484963827711e+17
19625.0	6.707423755982164e+17
19626.0	6.706338625923753e+17
19627.0	6.705202910461951e+17
19628.0	6.703950514356223e+17
19629.0	6.702526290198528e+17
19630.0	6.699886575615997e+17
19631.0	6.696741376098303e+17
19632.0	6.699070064164863e+17
19633.0	6.698579689209855e+17
19634.0	6.697786930102272e+17
19635.0	6.696901085407914e+17
19636.0	6.69587486994159e+17
19637.0	6.694566473586004e+17
19638.0	6.693739217726121e+17
19639.0	6.692644472225791e+17
19640.0	6.691472464849576e+17
19641.0	6.690160074118484e+17
19642.0	6.689366057418751e+17
19643.0	6.688278181489322e+17
19644.0	6.687112543163732e+17
19645.0	6.685923037151231e+17
19646.0	6.684881456551252e+17
19647.0	6.683799895146495e+17
19648.0	6.682664384506538e+17
19649.0	6.6815438894749e+17
19650.0	6.680431061630975e+17
19651.0	6.679312137366185e+17
19652.0	6.678197408803498e+17
19653.0	6.677079214347603e+17
19654.0	6.675955573587967e+17
19655.0	6.674853360828415e+17
19656.0	6.673730783324842e+17
19657.0	6.672611406075219e+17
19658.0	6.671549854995796e+17
19659.0	6.67047913656593e+17
19660.0	6.669350446563327e+17
19661.0	6.668219307786239e+17
19662.0	6.667071501544105e+17
19663.0	6.665922642531667e+17
19664.0	6.664798743822335e+17
19665.0	6.663665850428074e+17
19666.0	6.662493331346772e+17
