# Flux units: erg / (cm m2 s)
# Wavelength units: Angstrom
wave	flux
19000.0	4.256179916810921e+17
19001.0	4.255463242377897e+17
19002.0	4.254747450845866e+17
19003.0	4.254030392634027e+17
19004.0	4.2532720645679776e+17
19005.0	4.2525780869119994e+17
19006.0	4.251859364959572e+17
19007.0	4.251153289532758e+17
19008.0	4.250434027913215e+17
19009.0	4.249718214011562e+17
19010.0	4.248949387602602e+17
19011.0	4.2482532792401914e+17
19012.0	4.247500314989908e+17
19013.0	4.2468501573249696e+17
19014.0	4.246093710404266e+17
19015.0	4.245372940233385e+17
19016.0	4.2446712156979194e+17
19017.0	4.243976277546323e+17
19018.0	4.243244630846123e+17
19019.0	4.242536978361002e+17
19020.0	4.2418125227950074e+17
19021.0	4.2410978378601805e+17
19022.0	4.240393754727764e+17
19023.0	4.239649908894378e+17
19024.0	4.2389470183423994e+17
19025.0	4.2382269206582605e+17
19026.0	4.2375143566431565e+17
19027.0	4.236792420455765e+17
19028.0	4.2360660739577165e+17
19029.0	4.2353420664832e+17
19030.0	4.2346130761755296e+17
19031.0	4.2339299254162765e+17
19032.0	4.2332268370329594e+17
19033.0	4.2324696987511456e+17
19034.0	4.231784769606997e+17
19035.0	4.2310806095790074e+17
19036.0	4.230075441130153e+17
19037.0	4.229637368446975e+17
19038.0	4.2289206933149e+17
19039.0	4.2282084180077216e+17
19040.0	4.227487946331476e+17
19041.0	4.2267775298000205e+17
19042.0	4.225556312053076e+17
19043.0	4.2253524129546234e+17
19044.0	4.2246577949682336e+17
19045.0	4.2239271688820045e+17
19046.0	4.22320109850897e+17
19047.0	4.2224897109961376e+17
19048.0	4.2217099584252576e+17
19049.0	4.220003828105214e+17
19050.0	4.2203639482504525e+17
19051.0	4.219537715800746e+17
19052.0	4.2189227714150394e+17
19053.0	4.218222716212565e+17
19054.0	4.217494232017578e+17
19055.0	4.216630404623018e+17
19056.0	4.2160512984678394e+17
19057.0	4.215383967225172e+17
19058.0	4.2141210937480506e+17
19059.0	4.213709937311743e+17
19060.0	4.213244057791146e+17
19061.0	4.21252157214993e+17
19062.0	4.2117892354867194e+17
19063.0	4.211113112982868e+17
19064.0	4.2103955689308154e+17
19065.0	4.2096766624290125e+17
19066.0	4.2087848247732896e+17
19067.0	4.2082183183073274e+17
19068.0	4.207562709445291e+17
19069.0	4.206850047563093e+17
19070.0	4.2061060025002656e+17
19071.0	4.2054100010926074e+17
19072.0	4.204513981715796e+17
19073.0	4.2040217214211405e+17
19074.0	4.2032655114786125e+17
19075.0	4.2025906018276685e+17
19076.0	4.201867410145279e+17
19077.0	4.201165929578495e+17
19078.0	4.200459245977599e+17
19079.0	4.199734654795775e+17
19080.0	4.199043070689278e+17
19081.0	4.198335034425343e+17
19082.0	4.1976380976878925e+17
19083.0	4.1969102789891405e+17
19084.0	4.196198316856661e+17
19085.0	4.19549998621218e+17
19086.0	4.194481207246847e+17
19087.0	4.1936381738134163e+17
19088.0	4.1931033035844256e+17
19089.0	4.1926558209802234e+17
19090.0	4.1919708359120205e+17
19091.0	4.191227138976425e+17
19092.0	4.1901269262008326e+17
19093.0	4.1898393052992845e+17
19094.0	4.189137241025193e+17
19095.0	4.1884110588040525e+17
19096.0	4.1877234704711674e+17
19097.0	4.187014947667968e+17
19098.0	4.1861085124362234e+17
19099.0	4.18534775586816e+17
19100.0	4.184907540594687e+17
19101.0	4.184194305490943e+17
19102.0	4.183478207774719e+17
19103.0	4.182767430533119e+17
19104.0	4.1820904097491616e+17
19105.0	4.180899689485654e+17
19106.0	4.180668377814357e+17
19107.0	4.1798506556074656e+17
19108.0	4.179072284360704e+17
19109.0	4.178533915383125e+17
19110.0	4.1778432001966074e+17
19111.0	4.1769767835183776e+17
19112.0	4.1762657846777165e+17
19113.0	4.1757430954065914e+17
19114.0	4.174933641570987e+17
19115.0	4.1743177066304845e+17
19116.0	4.173605844462249e+17
19117.0	4.1729177681919994e+17
19118.0	4.172212605725354e+17
19119.0	4.1704198064046054e+17
19120.0	4.1708115264361805e+17
19121.0	4.1700932819353594e+17
19122.0	4.169424198871721e+17
19123.0	4.1687290104599885e+17
19124.0	4.168011586644649e+17
19125.0	4.167311193101653e+17
19126.0	4.166605164511231e+17
19127.0	4.1657480829556045e+17
19128.0	4.1651867291921056e+17
19129.0	4.164504539627519e+17
19130.0	4.163809603573076e+17
19131.0	4.1631052575976096e+17
19132.0	4.162389767356415e+17
19133.0	4.161701126952276e+17
19134.0	4.1609966516524365e+17
19135.0	4.16030740377327e+17
19136.0	4.15959160594978e+17
19137.0	4.15886028710434e+17
19138.0	4.1581974968948045e+17
19139.0	4.1575048439398394e+17
19140.0	4.1568071235665914e+17
19141.0	4.1561033759784954e+17
19142.0	4.155395249537024e+17
19143.0	4.154687882963627e+17
19144.0	4.1539832636593485e+17
19145.0	4.1532926561266336e+17
19146.0	4.152559264595967e+17
19147.0	4.1518848428823885e+17
19148.0	4.151032031128234e+17
19149.0	4.1502801189492045e+17
19150.0	4.1498125260554234e+17
19151.0	4.149100503105536e+17
19152.0	4.1484144233239885e+17
19153.0	4.147340540291753e+17
19154.0	4.146973312199338e+17
19155.0	4.1463220388495354e+17
19156.0	4.1456138404058445e+17
19157.0	4.144800892715008e+17
19158.0	4.143951616060075e+17
19159.0	4.1434958364235104e+17
19160.0	4.14281474716467e+17
19161.0	4.1421239851417594e+17
19162.0	4.141406201315327e+17
19163.0	4.1407358984082765e+17
19164.0	4.14003595645201e+17
19165.0	4.1389219716792314e+17
19166.0	4.138612690692778e+17
19167.0	4.1379527952520525e+17
19168.0	4.1372482199879674e+17
19169.0	4.13655269183761e+17
19170.0	4.1358652579949216e+17
19171.0	4.13514833400081e+17
19172.0	4.1344642563003725e+17
19173.0	4.1337849789808634e+17
19174.0	4.133073420200617e+17
19175.0	4.1323781024645126e+17
19176.0	4.131695168410965e+17
19177.0	4.130983402711723e+17
19178.0	4.1302940919179936e+17
19179.0	4.129595124438357e+17
19180.0	4.128910843314175e+17
19181.0	4.1282046749136205e+17
19182.0	4.1275015921227085e+17
19183.0	4.1268268670211405e+17
19184.0	4.1261370606004896e+17
19185.0	4.12543734513664e+17
19186.0	4.124745626113365e+17
19187.0	4.12405370786065e+17
19188.0	4.1233699412377594e+17
19189.0	4.1226785367872845e+17
19190.0	4.121982073307136e+17
19191.0	4.1212895405888845e+17
19192.0	4.1205943046417056e+17
19193.0	4.119847828979712e+17
19194.0	4.119136849013418e+17
19195.0	4.118526731572565e+17
19196.0	4.11782898253824e+17
19197.0	4.117119889309694e+17
19198.0	4.116416848461823e+17
19199.0	4.1154218449087136e+17
19200.0	4.114850268228266e+17
19201.0	4.114362648930985e+17
19202.0	4.113678720827391e+17
19203.0	4.1129818588883616e+17
19204.0	4.112304083129685e+17
19205.0	4.111604110415189e+17
19206.0	4.110916815683583e+17
19207.0	4.1101831340468896e+17
19208.0	4.109506371911679e+17
19209.0	4.1088448504791034e+17
19210.0	4.10813879812096e+17
19211.0	4.1074602722809165e+17
19212.0	4.106768368708266e+17
19213.0	4.1060765888675834e+17
19214.0	4.10538446229777e+17
19215.0	4.104703019319296e+17
19216.0	4.104014422955349e+17
19217.0	4.1033372378944845e+17
19218.0	4.1025620431339514e+17
19219.0	4.1019242223151776e+17
19220.0	4.101265020332714e+17
19221.0	4.1005420593370445e+17
19222.0	4.0998547604111354e+17
19223.0	4.0991863323579725e+17
19224.0	4.0984858654146554e+17
19225.0	4.09781092290833e+17
19226.0	4.097138425681236e+17
19227.0	4.0964430331467085e+17
19228.0	4.095758438847829e+17
19229.0	4.095021357727743e+17
19230.0	4.0943720780704416e+17
19231.0	4.0937069733041485e+17
19232.0	4.0930170088980486e+17
19233.0	4.0923157541246285e+17
19234.0	4.0916212395977376e+17
19235.0	4.0909422593747616e+17
19236.0	4.0902586025028256e+17
19237.0	4.0895504068553376e+17
19238.0	4.0888735776112634e+17
19239.0	4.0881999758841165e+17
19240.0	4.0874982974859936e+17
19241.0	4.086831775044948e+17
19242.0	4.086112372916223e+17
19243.0	4.0854511227153056e+17
19244.0	4.084760789909504e+17
19245.0	4.0840899123828045e+17
19246.0	4.0834085302217376e+17
19247.0	4.082725707317247e+17
19248.0	4.082029937295359e+17
19249.0	4.081317532663808e+17
19250.0	4.0805772960290125e+17
19251.0	4.0799024248258554e+17
19252.0	4.079280880003754e+17
19253.0	4.078604143733418e+17
19254.0	4.077930318310059e+17
19255.0	4.0772273361824416e+17
19256.0	4.076541339587925e+17
19257.0	4.0758680517345274e+17
19258.0	4.075176405412521e+17
19259.0	4.0745112174591994e+17
19260.0	4.073802849146197e+17
19261.0	4.0731449844476576e+17
19262.0	4.0724534793338874e+17
19263.0	4.0717541623289165e+17
19264.0	4.071041641654953e+17
19265.0	4.070374950043647e+17
19266.0	4.069693849599999e+17
19267.0	4.0690471130890234e+17
19268.0	4.068344082726911e+17
19269.0	4.067671196827648e+17
19270.0	4.0669925039144954e+17
19271.0	4.0662680826019834e+17
19272.0	4.0656353984075085e+17
19273.0	4.0649483518388896e+17
19274.0	4.0642488404978336e+17
19275.0	4.063593812546901e+17
19276.0	4.062911670517759e+17
19277.0	4.062239645848917e+17
19278.0	4.061546417575253e+17
19279.0	4.0608719084803405e+17
19280.0	4.060193181313707e+17
19281.0	4.05951640310033e+17
19282.0	4.0588324442385056e+17
19283.0	4.0581436724128416e+17
19284.0	4.057474714479274e+17
19285.0	4.056771642174121e+17
19286.0	4.0560934420916896e+17
19287.0	4.0554097992007674e+17
19288.0	4.054700707370325e+17
19289.0	4.053859297831593e+17
19290.0	4.0533916448194554e+17
19291.0	4.052692529141077e+17
19292.0	4.052027051780778e+17
19293.0	4.051346689534634e+17
19294.0	4.050679008766634e+17
19295.0	4.049983088448854e+17
19296.0	4.049075365565781e+17
19297.0	4.0485941740393805e+17
19298.0	4.0479427413060256e+17
19299.0	4.0470256560373754e+17
19300.0	4.046610956113236e+17
19301.0	4.0459235306591565e+17
19302.0	4.0452482770752845e+17
19303.0	4.044549533291862e+17
19304.0	4.0438815246690995e+17
19305.0	4.0432034671930016e+17
19306.0	4.0425331272362656e+17
19307.0	4.0418501141899936e+17
19308.0	4.041174239150079e+17
19309.0	4.040483302364501e+17
19310.0	4.039805655231146e+17
19311.0	4.0391336697091405e+17
19312.0	4.038462202183679e+17
19313.0	4.037803621657259e+17
19314.0	4.034952755325602e+17
19315.0	4.0344524251900634e+17
19316.0	4.035480978281813e+17
19317.0	4.035095537822378e+17
19318.0	4.034417743888383e+17
19319.0	4.03371421789935e+17
19320.0	4.0329828794804896e+17
19321.0	4.032184742576128e+17
19322.0	4.0317096614516045e+17
19323.0	4.031046396586666e+17
19324.0	4.0303670675374074e+17
19325.0	4.029686735350442e+17
19326.0	4.029009000835754e+17
19327.0	4.0283467600800416e+17
19328.0	4.0272274485411846e+17
19329.0	4.026993859362815e+17
19330.0	4.026323781550079e+17
19331.0	4.0256526020334925e+17
19332.0	4.02496702836463e+17
19333.0	4.024310089209174e+17
19334.0	4.023584822744404e+17
19335.0	4.0220677730467846e+17
19336.0	4.022258224507561e+17
19337.0	4.021599054681429e+17
19338.0	4.020906851216042e+17
19339.0	4.020234841227263e+17
19340.0	4.019527457876649e+17
19341.0	4.018582226031957e+17
19342.0	4.0181159711211514e+17
19343.0	4.0175573142951245e+17
19344.0	4.016565339029504e+17
19345.0	4.0158694396832416e+17
19346.0	4.015483755954176e+17
19347.0	4.014459390874965e+17
19348.0	4.0142001947716256e+17
19349.0	4.013519877264725e+17
19350.0	4.0126870583596365e+17
19351.0	4.012172280943958e+17
19352.0	4.011066914067795e+17
19353.0	4.0108248174428166e+17
19354.0	4.0101650876770976e+17
19355.0	4.0094830260387846e+17
19356.0	4.0088075585454074e+17
19357.0	4.008143975612415e+17
19358.0	4.0074694574298445e+17
19359.0	4.0067041157884576e+17
19360.0	4.005779365429248e+17
19361.0	4.0054470276546554e+17
19362.0	4.004776536702974e+17
19363.0	4.0041059891281914e+17
19364.0	4.003439779162795e+17
19365.0	4.0027630366010016e+17
19366.0	4.002059930741418e+17
19367.0	4.001413419324757e+17
19368.0	4.0007477189672954e+17
19369.0	4.0000845792324256e+17
19370.0	3.9994150229114874e+17
19371.0	3.9987188334591994e+17
19372.0	3.998056951316479e+17
19373.0	3.9973736963986765e+17
19374.0	3.99669331038481e+17
19375.0	3.996046833221631e+17
19376.0	3.9953755131958605e+17
19377.0	3.994705042516649e+17
19378.0	3.9940342740418554e+17
19379.0	3.993361311247018e+17
19380.0	3.992651793694719e+17
19381.0	3.991987216012629e+17
19382.0	3.9913276204646394e+17
19383.0	3.990647372862804e+17
19384.0	3.989950398376618e+17
19385.0	3.989316186756436e+17
19386.0	3.9886400964089165e+17
19387.0	3.987960560440661e+17
19388.0	3.987285968857771e+17
19389.0	3.9866210339607885e+17
19390.0	3.985944958992383e+17
19391.0	3.9849901690279245e+17
19392.0	3.984592003050153e+17
19393.0	3.983915268177919e+17
19394.0	3.98324831162641e+17
19395.0	3.982453990839636e+17
19396.0	3.981869523664895e+17
19397.0	3.981207832363008e+17
19398.0	3.980431338766336e+17
19399.0	3.9796375562485754e+17
19400.0	3.97908800176128e+17
19401.0	3.9785006992370336e+17
19402.0	3.977832650069333e+17
19403.0	3.9771564073287674e+17
19404.0	3.976451394458965e+17
19405.0	3.9757656732904096e+17
19406.0	3.975104569191082e+17
19407.0	3.974264171178665e+17
19408.0	3.973671075621546e+17
19409.0	3.9730545122344954e+17
19410.0	3.9723644331840845e+17
19411.0	3.971671336331946e+17
19412.0	3.9709840926310394e+17
19413.0	3.9701435911591245e+17
19414.0	3.9696093598624416e+17
19415.0	3.9689119918107296e+17
19416.0	3.968195995456853e+17
19417.0	3.9675212354027514e+17
19418.0	3.9668232514874016e+17
19419.0	3.966120321788587e+17
19420.0	3.965411092245161e+17
19421.0	3.964708029027669e+17
19422.0	3.963981731463167e+17
19423.0	3.96328908689681e+17
19424.0	3.9625757665088845e+17
19425.0	3.9618445035874976e+17
19426.0	3.961136623910912e+17
19427.0	3.9604105877913594e+17
19428.0	3.9596537081582925e+17
19429.0	3.9589444380699296e+17
19430.0	3.9581876269438285e+17
19431.0	3.9573213633576954e+17
19432.0	3.9566882359650976e+17
19433.0	3.9559220337923405e+17
19434.0	3.9551780684212896e+17
19435.0	3.954387097485311e+17
19436.0	3.9535526043538765e+17
19437.0	3.9528431720857594e+17
19438.0	3.951416425753257e+17
19439.0	3.9512814257875616e+17
19440.0	3.950477462994943e+17
19441.0	3.9496758343325e+17
19442.0	3.9488705782961485e+17
19443.0	3.948061806034943e+17
19444.0	3.94723999158545e+17
19445.0	3.946435928828585e+17
19446.0	3.9456194488347315e+17
19447.0	3.9448200291723936e+17
19448.0	3.9440154728857594e+17
19449.0	3.943247335041706e+17
19450.0	3.942441138083157e+17
19451.0	3.9417278841050445e+17
19452.0	3.941184702163627e+17
19453.0	3.9406466708275194e+17
19454.0	3.940065793977002e+17
19455.0	3.939495185481727e+17
19456.0	3.9388363644818765e+17
19457.0	3.93782148272401e+17
19458.0	3.934047245959168e+17
19459.0	3.935568445920597e+17
19460.0	3.9365954261483514e+17
19461.0	3.9363972655568205e+17
19462.0	3.935981020031657e+17
19463.0	3.935509025914879e+17
19464.0	3.934996784655018e+17
19465.0	3.934485214483797e+17
19466.0	3.933964177768448e+17
19467.0	3.9334294284752205e+17
19468.0	3.932891982244522e+17
19469.0	3.932014376561322e+17
19470.0	3.931787199774719e+17
19471.0	3.9312195985954125e+17
19472.0	3.930657095592617e+17
19473.0	3.930080746493268e+17
19474.0	3.929171361267711e+17
19475.0	3.9288123428263245e+17
19476.0	3.928328631921322e+17
19477.0	3.927729445535743e+17
19478.0	3.9271475173130234e+17
19479.0	3.926238789894142e+17
19480.0	3.9259457946910714e+17
19481.0	3.9253172726442656e+17
19482.0	3.92470746698001e+17
19483.0	3.924116313385642e+17
19484.0	3.9234929007001594e+17
19485.0	3.922888593768446e+17
19486.0	3.92193639448576e+17
19487.0	3.921640740793001e+17
19488.0	3.921035704052395e+17
19489.0	3.9204176922323616e+17
19490.0	3.9196402968603296e+17
19491.0	3.91914571501841e+17
19492.0	3.9185317255359136e+17
19493.0	3.917892429021183e+17
19494.0	3.9172630233743354e+17
19495.0	3.916654933180416e+17
19496.0	3.915961330215595e+17
19497.0	3.9153944134068896e+17
19498.0	3.914763812383402e+17
19499.0	3.913663909287252e+17
19500.0	3.9134890899974816e+17
19501.0	3.9131286517841914e+17
19502.0	3.91263481373218e+17
19503.0	3.9119866099138554e+17
19504.0	3.91132837122321e+17
19505.0	3.9106681465296205e+17
19506.0	3.910040196306261e+17
19507.0	3.9093924363851085e+17
19508.0	3.90873857654784e+17
19509.0	3.908094592898389e+17
19510.0	3.907388288182954e+17
19511.0	3.90365626079641e+17
19512.0	3.906108265594879e+17
19513.0	3.905315993026558e+17
19514.0	3.9047401262721696e+17
19515.0	3.9041597555343354e+17
19516.0	3.903495632934227e+17
19517.0	3.9028919782167885e+17
19518.0	3.902160978837504e+17
19519.0	3.9015086666984096e+17
19520.0	3.9006435153018874e+17
19521.0	3.9003197744523936e+17
19522.0	3.899617776588116e+17
19523.0	3.898956917156522e+17
19524.0	3.89813187449105e+17
19525.0	3.897722304899754e+17
19526.0	3.897060203255125e+17
19527.0	3.896431467298815e+17
19528.0	3.89574956224785e+17
19529.0	3.895097351471104e+17
19530.0	3.894488526574933e+17
19531.0	3.893836978498219e+17
19532.0	3.893187805795668e+17
19533.0	3.892525092481706e+17
19534.0	3.8919049450618874e+17
19535.0	3.891264584592042e+17
19536.0	3.89060536233711e+17
19537.0	3.8899695589785594e+17
19538.0	3.889037641951914e+17
19539.0	3.888631626334208e+17
19540.0	3.888040572704085e+17
19541.0	3.887318195415721e+17
19542.0	3.886710027627178e+17
19543.0	3.8857920475736736e+17
19544.0	3.8854253123119776e+17
19545.0	3.884785810975402e+17
19546.0	3.884072722672298e+17
19547.0	3.883532186637653e+17
19548.0	3.882881513073321e+17
19549.0	3.882217084289023e+17
19550.0	3.8815624079605754e+17
19551.0	3.880954712031232e+17
19552.0	3.880290789359616e+17
19553.0	3.8796629985198074e+17
19554.0	3.878999298845353e+17
19555.0	3.8783180376200525e+17
19556.0	3.8776962061871776e+17
19557.0	3.877082260744874e+17
19558.0	3.876444651039402e+17
19559.0	3.875798549266432e+17
19560.0	3.875044277092351e+17
19561.0	3.874512974118912e+17
19562.0	3.873781967050069e+17
19563.0	3.8732366872575994e+17
19564.0	3.87254808809745e+17
19565.0	3.8719344998700365e+17
19566.0	3.871274521941333e+17
19567.0	3.8706653433255245e+17
19568.0	3.8700211947001165e+17
19569.0	3.869383864614911e+17
19570.0	3.868744282188459e+17
19571.0	3.868095432447318e+17
19572.0	3.8674549063024634e+17
19573.0	3.866786471258795e+17
19574.0	3.86615854759936e+17
19575.0	3.865540597295786e+17
19576.0	3.8648872680379725e+17
19577.0	3.864214686225749e+17
19578.0	3.8636142534328314e+17
19579.0	3.8629838418520736e+17
19580.0	3.8623267810618016e+17
19581.0	3.861665709118804e+17
19582.0	3.8610595133521914e+17
19583.0	3.860428117508096e+17
19584.0	3.859769368510463e+17
19585.0	3.859140264853503e+17
19586.0	3.858500577569451e+17
19587.0	3.8578697318782285e+17
19588.0	3.8571844231495674e+17
19589.0	3.8565945145644365e+17
19590.0	3.8559400822046714e+17
19591.0	3.85530929942801e+17
19592.0	3.8546710766551034e+17
19593.0	3.854006120786602e+17
19594.0	3.853356715300181e+17
19595.0	3.852757479981055e+17
19596.0	3.852098754751146e+17
19597.0	3.851481506993493e+17
19598.0	3.8507599860421965e+17
19599.0	3.850202354723497e+17
19600.0	3.849550462713855e+17
19601.0	3.84892344082978e+17
19602.0	3.8482841471112525e+17
19603.0	3.8476114856072525e+17
19604.0	3.847020227155285e+17
19605.0	3.846350499566933e+17
19606.0	3.8457327855424845e+17
19607.0	3.8451136433575245e+17
19608.0	3.8444358228596045e+17
19609.0	3.843831476082004e+17
19610.0	3.843060946785621e+17
19611.0	3.842333892848297e+17
19612.0	3.8419309285867514e+17
19613.0	3.8412664054306125e+17
19614.0	3.8406495708119034e+17
19615.0	3.840027495410346e+17
19616.0	3.8392518259944096e+17
19617.0	3.838541150115157e+17
19618.0	3.83805479190528e+17
19619.0	3.837383873833642e+17
19620.0	3.836707705192446e+17
19621.0	3.835858055943508e+17
19622.0	3.835578693626538e+17
19623.0	3.8349376201250125e+17
19624.0	3.8342771962019834e+17
19625.0	3.8336797406658554e+17
19626.0	3.833027378195114e+17
19627.0	3.832411504072021e+17
19628.0	3.8317721040977914e+17
19629.0	3.8304009371866445e+17
19630.0	3.830511309597354e+17
19631.0	3.829680171210068e+17
19632.0	3.8292464773802656e+17
19633.0	3.828615103905791e+17
19634.0	3.8279780632275616e+17
19635.0	3.827306948722687e+17
19636.0	3.826337449334101e+17
19637.0	3.8256949826245965e+17
19638.0	3.825411264522921e+17
19639.0	3.824799394562048e+17
19640.0	3.8241704929307296e+17
19641.0	3.823401879033174e+17
19642.0	3.8229037683834886e+17
19643.0	3.8222713889751034e+17
19644.0	3.821649408644437e+17
19645.0	3.821006215621291e+17
19646.0	3.8200035721434445e+17
19647.0	3.819717303904938e+17
19648.0	3.8191319440424954e+17
19649.0	3.818489545140906e+17
19650.0	3.817860764445354e+17
19651.0	3.817234932345514e+17
19652.0	3.8166088339073696e+17
19653.0	3.8159662889041914e+17
19654.0	3.8153500296041805e+17
19655.0	3.8147039264331085e+17
