# Flux units: erg / (cm m2 s)
# Wavelength units: Angstrom
wave	flux
19000.0	7.902617296437245e+17
19001.0	7.900701008418131e+17
19002.0	7.899813699212628e+17
19003.0	7.898376575472979e+17
19004.0	7.896956979729747e+17
19005.0	7.8955293966336e+17
19006.0	7.894115088509613e+17
19007.0	7.892563808397994e+17
19008.0	7.890974881611773e+17
19009.0	7.88943184470562e+17
19010.0	7.88615350819225e+17
19011.0	7.886844879088298e+17
19012.0	7.884679153014097e+17
19013.0	7.88412166709794e+17
19014.0	7.882372689865385e+17
19015.0	7.881082552713215e+17
19016.0	7.879627654911318e+17
19017.0	7.878305569745577e+17
19018.0	7.876903448870911e+17
19019.0	7.875486069118292e+17
19020.0	7.873980766967126e+17
19021.0	7.872656566474067e+17
19022.0	7.871226652742996e+17
19023.0	7.86957769987413e+17
19024.0	7.868255697196372e+17
19025.0	7.866853155493206e+17
19026.0	7.865303211966461e+17
19027.0	7.863513563966118e+17
19028.0	7.862575910529706e+17
19029.0	7.861044869332991e+17
19030.0	7.859751456429395e+17
19031.0	7.858336150061055e+17
19032.0	7.856870640670034e+17
19033.0	7.854925655222953e+17
19034.0	7.853849428972884e+17
19035.0	7.852056112354644e+17
19036.0	7.814523999573321e+17
19037.0	7.849356036145151e+17
19038.0	7.848019844136956e+17
19039.0	7.846695278739455e+17
19040.0	7.845274213591718e+17
19041.0	7.843790713432744e+17
19042.0	7.841877938842281e+17
19043.0	7.840910925277864e+17
19044.0	7.83940731482931e+17
19045.0	7.837992816563539e+17
19046.0	7.836232057531049e+17
19047.0	7.834995134911827e+17
19048.0	7.832588223774717e+17
19049.0	7.83175532867311e+17
19050.0	7.8304009781248e+17
19051.0	7.822939737729697e+17
19052.0	7.826584362811391e+17
19053.0	7.826262711424339e+17
19054.0	7.82482064819268e+17
19055.0	7.822037849123503e+17
19056.0	7.821796202687144e+17
19057.0	7.82042846531857e+17
19058.0	7.818886303623849e+17
19059.0	7.817528606020947e+17
19060.0	7.81633068204032e+17
19061.0	7.814976184691369e+17
19062.0	7.813478903447551e+17
19063.0	7.812022642496851e+17
19064.0	7.809897020959402e+17
19065.0	7.808105175143764e+17
19066.0	7.807277453017085e+17
19067.0	7.806076711862271e+17
19068.0	7.804668513441108e+17
19069.0	7.803209274534569e+17
19070.0	7.801584117350399e+17
19071.0	7.800220426087081e+17
19072.0	7.798786387957076e+17
19073.0	7.797281239597053e+17
19074.0	7.795855290881364e+17
19075.0	7.794379182484138e+17
19076.0	7.79280037795157e+17
19077.0	7.791361438078291e+17
19078.0	7.789726276080979e+17
19079.0	7.788451847995391e+17
19080.0	7.786905300456787e+17
19081.0	7.785258676824745e+17
19082.0	7.78380502752734e+17
19083.0	7.781884612313088e+17
19084.0	7.779730834412883e+17
19085.0	7.77948583113523e+17
19086.0	7.775873246341802e+17
19087.0	7.775667929568596e+17
19088.0	7.774474560602111e+17
19089.0	7.772122407501824e+17
19090.0	7.771893796962301e+17
19091.0	7.77048957194513e+17
19092.0	7.768655071455914e+17
19093.0	7.76767582310673e+17
19094.0	7.766216690455891e+17
19095.0	7.764758593798143e+17
19096.0	7.763199368276649e+17
19097.0	7.761783202075987e+17
19098.0	7.760281356031315e+17
19099.0	7.758788917810518e+17
19100.0	7.7572574543872e+17
19101.0	7.755816583735977e+17
19102.0	7.753893389096275e+17
19103.0	7.75283316970837e+17
19104.0	7.751382277466794e+17
19105.0	7.749834249338879e+17
19106.0	7.748213209563135e+17
19107.0	7.746769518941522e+17
19108.0	7.745316852509352e+17
19109.0	7.74066653399176e+17
19110.0	7.742056236930387e+17
19111.0	7.740894989342036e+17
19112.0	7.739443663689042e+17
19113.0	7.737955071645012e+17
19114.0	7.736442429461842e+17
19115.0	7.734663795703808e+17
19116.0	7.73335263949619e+17
19117.0	7.731838067933181e+17
19118.0	7.729914418910547e+17
19119.0	7.715030659934871e+17
19120.0	7.72704895710003e+17
19121.0	7.725750365629096e+17
19122.0	7.724513968695977e+17
19123.0	7.723000638646953e+17
19124.0	7.721272439996416e+17
19125.0	7.719967088705535e+17
19126.0	7.718414911012861e+17
19127.0	7.708571700210342e+17
19128.0	7.714313907907241e+17
19129.0	7.713525072571049e+17
19130.0	7.712425293905917e+17
19131.0	7.710975956353024e+17
19132.0	7.709487574024191e+17
19133.0	7.70724292792593e+17
19134.0	7.705979975456084e+17
19135.0	7.704978781110271e+17
19136.0	7.703506096663209e+17
19137.0	7.701221853538985e+17
19138.0	7.700408431192745e+17
19139.0	7.698992154542079e+17
19140.0	7.697503629606911e+17
19141.0	7.695999036293117e+17
19142.0	7.694337109043884e+17
19143.0	7.692691815006208e+17
19144.0	7.691246425691476e+17
19145.0	7.689938608149846e+17
19146.0	7.685315653271556e+17
19147.0	7.686508507736745e+17
19148.0	7.685395821800106e+17
19149.0	7.683869625024513e+17
19150.0	7.682366392063314e+17
19151.0	7.680864242630653e+17
19152.0	7.679323657994239e+17
19153.0	7.677734943719421e+17
19154.0	7.6757158882618e+17
19155.0	7.674796540166144e+17
19156.0	7.673254287594838e+17
19157.0	7.671474690544978e+17
19158.0	7.668322973078866e+17
19159.0	7.66848879908181e+17
19160.0	7.667065094318761e+17
19161.0	7.66545133166046e+17
19162.0	7.659111796353708e+17
19163.0	7.662112457359357e+17
19164.0	7.661107282619049e+17
19165.0	7.659495842207059e+17
19166.0	7.657505905005908e+17
19167.0	7.65609963177028e+17
19168.0	7.65489860260659e+17
19169.0	7.653399017291777e+17
19170.0	7.652007095566333e+17
19171.0	7.650263682777087e+17
19172.0	7.648897585381375e+17
19173.0	7.647447629867689e+17
19174.0	7.645648112670038e+17
19175.0	7.644407657048745e+17
19176.0	7.64285283275025e+17
19177.0	7.64054500086033e+17
19178.0	7.639650424324093e+17
19179.0	7.637952754614271e+17
19180.0	7.636633566314493e+17
19181.0	7.63470595367458e+17
19182.0	7.633571781716649e+17
19183.0	7.632143513550845e+17
19184.0	7.630496868947283e+17
19185.0	7.628993180205055e+17
19186.0	7.627527504439978e+17
19187.0	7.625424583873875e+17
19188.0	7.622336660373501e+17
19189.0	7.620771772541609e+17
19190.0	7.619202259790506e+17
19191.0	7.617501100419754e+17
19192.0	7.616152656849577e+17
19193.0	7.614524695074131e+17
19194.0	7.612894553658708e+17
19195.0	7.6113809258141e+17
19196.0	7.609638438567935e+17
19197.0	7.607865521646249e+17
19198.0	7.605177931879764e+17
19199.0	7.57466967607432e+17
19200.0	7.580256249927005e+17
19201.0	7.600708070495574e+17
19202.0	7.600168473285972e+17
19203.0	7.598796594741247e+17
19204.0	7.597275671603881e+17
19205.0	7.595838640138922e+17
19206.0	7.594282064019453e+17
19207.0	7.592283638945108e+17
19208.0	7.590294049871187e+17
19209.0	7.589630698323968e+17
19210.0	7.58808977674513e+17
19211.0	7.586599814561791e+17
19212.0	7.584999863746557e+17
19213.0	7.582797078200319e+17
19214.0	7.581032679910058e+17
19215.0	7.580159464964093e+17
19216.0	7.578702138660182e+17
19217.0	7.577053525529939e+17
19218.0	7.571570019707555e+17
19219.0	7.573036513361917e+17
19220.0	7.572240419083604e+17
19221.0	7.569228679522988e+17
19222.0	7.569132417449983e+17
19223.0	7.567498425663487e+17
19224.0	7.564078056035666e+17
19225.0	7.561053490293414e+17
19226.0	7.560033587953663e+17
19227.0	7.55843418099985e+17
19228.0	7.556977896281427e+17
19229.0	7.555371159082323e+17
19230.0	7.553696846053373e+17
19231.0	7.552068095748777e+17
19232.0	7.550498718613503e+17
19233.0	7.54842433888802e+17
19234.0	7.5468871068986e+17
19235.0	7.545187173662719e+17
19236.0	7.543771654782973e+17
19237.0	7.542051679764479e+17
19238.0	7.540020406299305e+17
19239.0	7.53889536254498e+17
19240.0	7.53705170449203e+17
19241.0	7.535429690239657e+17
19242.0	7.533890273017853e+17
19243.0	7.531386966988114e+17
19244.0	7.530709293290836e+17
19245.0	7.529027931034964e+17
19246.0	7.5256775545542e+17
19247.0	7.522367450382335e+17
19248.0	7.520770133590015e+17
19249.0	7.519092147748863e+17
19250.0	7.517340747606697e+17
19251.0	7.515173424900776e+17
19252.0	7.512511522450089e+17
19253.0	7.512309738678956e+17
19254.0	7.510726293848061e+17
19255.0	7.508031639475538e+17
19256.0	7.507210312264362e+17
19257.0	7.505679230522706e+17
19258.0	7.503996180758525e+17
19259.0	7.501887167266816e+17
19260.0	7.499889130864637e+17
19261.0	7.498811408646143e+17
19262.0	7.493954607338836e+17
19263.0	7.49107180208128e+17
19264.0	7.487139468716709e+17
19265.0	7.487010186286419e+17
19266.0	7.485473689698305e+17
19267.0	7.484473954970281e+17
19268.0	7.48269137577028e+17
19269.0	7.4809402734237e+17
19270.0	7.47917303558963e+17
19271.0	7.475853843759107e+17
19272.0	7.475455976275965e+17
19273.0	7.467452367634426e+17
19274.0	7.465414060321444e+17
19275.0	7.467896336110931e+17
19276.0	7.466034973900799e+17
19277.0	7.464253184628051e+17
19278.0	7.462481349836797e+17
19279.0	7.460506955328169e+17
19280.0	7.458429133477204e+17
19281.0	7.456983291177641e+17
19282.0	7.455213266927615e+17
19283.0	7.453057177965908e+17
19284.0	7.450970957720232e+17
19285.0	7.448851271122943e+17
19286.0	7.44761461833728e+17
19287.0	7.445940099787433e+17
19288.0	7.434399953278285e+17
19289.0	7.419016216488579e+17
19290.0	7.440313963861332e+17
19291.0	7.437116879405059e+17
19292.0	7.436588954943488e+17
19293.0	7.434666694235475e+17
19294.0	7.43272636027153e+17
19295.0	7.430748743139327e+17
19296.0	7.428305865845417e+17
19297.0	7.426239385392468e+17
19298.0	7.424296140581542e+17
19299.0	7.422487644777129e+17
19300.0	7.42052515090705e+17
19301.0	7.418530671274664e+17
19302.0	7.416494201066836e+17
19303.0	7.414189257654271e+17
19304.0	7.412391187491498e+17
19305.0	7.410458369720317e+17
19306.0	7.408460208887123e+17
19307.0	7.406204277314899e+17
19308.0	7.404236869118633e+17
19309.0	7.401345640300543e+17
19310.0	7.398743232653994e+17
19311.0	7.39792863310643e+17
19312.0	7.396112018527572e+17
19313.0	7.394063219862185e+17
19314.0	7.372232098228902e+17
19315.0	7.371501316254406e+17
19316.0	7.38761389305583e+17
19317.0	7.385584420345172e+17
19318.0	7.383424370562387e+17
19319.0	7.381282203893757e+17
19320.0	7.378150112974164e+17
19321.0	7.375917985475241e+17
19322.0	7.373244934564522e+17
19323.0	7.371013041946623e+17
19324.0	7.369095269143892e+17
19325.0	7.366246844596224e+17
19326.0	7.364590381126995e+17
19327.0	7.362327102532266e+17
19328.0	7.360103534209705e+17
19329.0	7.357804936779092e+17
19330.0	7.355278798356476e+17
19331.0	7.352875926334121e+17
19332.0	7.350709090167464e+17
19333.0	7.348234618579626e+17
19334.0	7.34452328309282e+17
19335.0	7.3419018235194e+17
19336.0	7.339441630740479e+17
19337.0	7.336960420304212e+17
19338.0	7.333444747700905e+17
19339.0	7.331917317799933e+17
19340.0	7.329081562846548e+17
19341.0	7.326669104043348e+17
19342.0	7.322388355437905e+17
19343.0	7.320651127848956e+17
19344.0	7.3166358591133e+17
19345.0	7.305312279898779e+17
19346.0	7.307560302411772e+17
19347.0	7.308253402759165e+17
19348.0	7.305809797054463e+17
19349.0	7.30282053476898e+17
19350.0	7.298265027095212e+17
19351.0	7.294158268006399e+17
19352.0	7.291050993385471e+17
19353.0	7.28847158870016e+17
19354.0	7.285479175094271e+17
19355.0	7.280651325669379e+17
19356.0	7.275610876761428e+17
19357.0	7.272467549301417e+17
19358.0	7.269219249597097e+17
19359.0	7.26575317324049e+17
19360.0	7.258475825113768e+17
19361.0	7.254657869021183e+17
19362.0	7.25146876912162e+17
19363.0	7.248058470017705e+17
19364.0	7.23914778022161e+17
19365.0	7.235308501685587e+17
19366.0	7.231732931624957e+17
19367.0	7.225494825773736e+17
19368.0	7.217598410959529e+17
19369.0	7.213426680703657e+17
19370.0	7.206331207385089e+17
19371.0	7.197456641731242e+17
19372.0	7.193464224961876e+17
19373.0	7.185221366229677e+17
19374.0	7.180097917637972e+17
19375.0	7.175601106452479e+17
19376.0	7.171025882753705e+17
19377.0	7.166321131956905e+17
19378.0	7.161612648229545e+17
19379.0	7.156822234365952e+17
19380.0	7.151948836197716e+17
19381.0	7.146968340671145e+17
19382.0	7.141622289181356e+17
19383.0	7.136438392280403e+17
19384.0	7.131725255671807e+17
19385.0	7.12648934101265e+17
19386.0	7.12111552742468e+17
19387.0	7.115535773510313e+17
19388.0	7.109993018949632e+17
19389.0	7.104387236582739e+17
19390.0	7.098602747505321e+17
19391.0	7.067079073071066e+17
19392.0	7.086359273537532e+17
19393.0	7.080917738717183e+17
19394.0	7.074779837584723e+17
19395.0	7.068527536810666e+17
19396.0	7.062190481735679e+17
19397.0	7.055513028132863e+17
19398.0	7.048513108049919e+17
19399.0	7.039221764194301e+17
19400.0	7.03469337059874e+17
19401.0	7.027937266805417e+17
19402.0	7.020868091772925e+17
19403.0	7.01293782822639e+17
19404.0	7.005290492155219e+17
19405.0	6.997658364630356e+17
19406.0	6.989961774148265e+17
19407.0	6.981684018107732e+17
19408.0	6.96972861872538e+17
19409.0	6.963730139054079e+17
19410.0	6.954548908261375e+17
19411.0	6.943996328804351e+17
19412.0	6.934593418559488e+17
19413.0	6.922557677284006e+17
19414.0	6.911845436052819e+17
19415.0	6.898485893442217e+17
19416.0	6.885790997020668e+17
19417.0	6.870455733802323e+17
19418.0	6.855893786995364e+17
19419.0	6.839635861482147e+17
19420.0	6.820731068000937e+17
19421.0	6.800984116996783e+17
19422.0	6.780274731210067e+17
19423.0	6.757800933851132e+17
19424.0	6.73575089751108e+17
19425.0	6.716834321530879e+17
19426.0	6.698979843986771e+17
19427.0	6.680435294382762e+17
19428.0	6.660994204609194e+17
19429.0	6.639965413485225e+17
19430.0	6.617458836242433e+17
19431.0	6.589759461785604e+17
19432.0	6.568812335857661e+17
19433.0	6.54166897721344e+17
19434.0	6.512941945148754e+17
19435.0	6.480333961341609e+17
19436.0	6.443683920478208e+17
19437.0	6.406106962198527e+17
19438.0	6.340134888800255e+17
19439.0	6.317724018584236e+17
19440.0	6.2679922811863e+17
19441.0	6.212527397885267e+17
19442.0	6.152700139929604e+17
19443.0	6.085765468869972e+17
19444.0	6.011297618111142e+17
19445.0	5.927579357107544e+17
19446.0	5.831379951200938e+17
19447.0	5.720313971081209e+17
19448.0	5.59004507404152e+17
19449.0	5.434372199721641e+17
19450.0	5.237820160125596e+17
19451.0	5.1339231605992154e+17
19452.0	5.343070402904064e+17
19453.0	5.5145602359842176e+17
19454.0	5.653963957338106e+17
19455.0	5.771609903551828e+17
19456.0	5.87232106425003e+17
19457.0	5.959613708326223e+17
19458.0	6.017770601491144e+17
19459.0	6.103688888188934e+17
19460.0	6.164778981173929e+17
19461.0	6.220064744625495e+17
19462.0	6.270493336272895e+17
19463.0	6.31579741537348e+17
19464.0	6.357010986915155e+17
19465.0	6.395047469645824e+17
19466.0	6.42950066829175e+17
19467.0	6.460932669221546e+17
19468.0	6.489317634124458e+17
19469.0	6.513260485061289e+17
19470.0	6.537481138733055e+17
19471.0	6.559713012831572e+17
19472.0	6.580206679272105e+17
19473.0	6.598909829491368e+17
19474.0	6.616787142224554e+17
19475.0	6.63083366569301e+17
19476.0	6.648392222507007e+17
19477.0	6.663604947036842e+17
19478.0	6.681670217018024e+17
19479.0	6.70268809316488e+17
19480.0	6.721533028335617e+17
19481.0	6.738980332634111e+17
19482.0	6.754577627305297e+17
19483.0	6.768945806355114e+17
19484.0	6.783778796077055e+17
19485.0	6.794979468902401e+17
19486.0	6.805890413887487e+17
19487.0	6.816730040325457e+17
19488.0	6.825346688439635e+17
19489.0	6.834185187972435e+17
19490.0	6.83745273044445e+17
19491.0	6.849153363607551e+17
19492.0	6.857003562784084e+17
19493.0	6.86296309834274e+17
19494.0	6.869027756441596e+17
19495.0	6.875465516755625e+17
19496.0	6.879273298165756e+17
19497.0	6.885400275932499e+17
19498.0	6.88754220981726e+17
19499.0	6.855990576851602e+17
19500.0	6.900270545327444e+17
19501.0	6.904727946133504e+17
19502.0	6.908970669877929e+17
19503.0	6.913099924417194e+17
19504.0	6.917092029409961e+17
19505.0	6.921428558064297e+17
19506.0	6.925205581245098e+17
19507.0	6.928684840299177e+17
19508.0	6.932223995412479e+17
19509.0	6.935527933957459e+17
19510.0	6.937972600122025e+17
19511.0	6.902768069509097e+17
19512.0	6.93848407102804e+17
19513.0	6.935047519775382e+17
19514.0	6.941993350113951e+17
19515.0	6.95138291058825e+17
19516.0	6.956260800856061e+17
19517.0	6.958650230833151e+17
19518.0	6.96135921574434e+17
19519.0	6.963711414282921e+17
19520.0	6.965901881158314e+17
19521.0	6.968287797706751e+17
19522.0	6.970285676123475e+17
19523.0	6.972541611190953e+17
19524.0	6.974539216278868e+17
19525.0	6.976416738443261e+17
19526.0	6.978347703031124e+17
19527.0	6.980096885784575e+17
19528.0	6.981826112039594e+17
19529.0	6.986796567800489e+17
19530.0	6.989328748118015e+17
19531.0	6.992488098518358e+17
19532.0	6.999573847343103e+17
19533.0	7.000761033905491e+17
19534.0	7.003036738824872e+17
19535.0	7.009005056557055e+17
19536.0	7.009785977940649e+17
19537.0	7.010765304583508e+17
19538.0	7.014283695794865e+17
19539.0	7.015251256715953e+17
19540.0	7.018063382358698e+17
19541.0	7.018803438638419e+17
19542.0	7.021978052810066e+17
19543.0	7.024150597424467e+17
19544.0	7.024589880164351e+17
19545.0	7.022958472069115e+17
19546.0	7.021748377616387e+17
19547.0	7.029164088142505e+17
19548.0	7.029433501570388e+17
19549.0	7.029137592025087e+17
19550.0	7.029843301848404e+17
19551.0	7.030017046697299e+17
19552.0	7.03218901669205e+17
19553.0	7.032790835702442e+17
19554.0	7.032743335209642e+17
19555.0	7.032859787963049e+17
19556.0	7.032890702080681e+17
19557.0	7.032824659268948e+17
19558.0	7.032733219946493e+17
19559.0	7.034145597292541e+17
19560.0	7.034339501364564e+17
19561.0	7.034168679246506e+17
19562.0	7.034080793198592e+17
19563.0	7.033903540513449e+17
19564.0	7.033651467736404e+17
19565.0	7.033385573329577e+17
19566.0	7.032958732992511e+17
19567.0	7.032807540217172e+17
19568.0	7.032320185860093e+17
19569.0	7.033353304451753e+17
19570.0	7.033137113945427e+17
19571.0	7.032739373689513e+17
19572.0	7.032145629413376e+17
19573.0	7.031830911210836e+17
19574.0	7.030976739104083e+17
19575.0	7.031001689620479e+17
19576.0	7.030523279616681e+17
19577.0	7.029928783162026e+17
19578.0	7.029341010176681e+17
19579.0	7.028865021684393e+17
19580.0	7.028340948292948e+17
19581.0	7.027863171629055e+17
19582.0	7.027381846583978e+17
19583.0	7.026911565141332e+17
19584.0	7.027078263559508e+17
19585.0	7.025911005533522e+17
19586.0	7.02512506007279e+17
19587.0	7.025034035986432e+17
19588.0	7.022428958665389e+17
19589.0	7.023745110988116e+17
19590.0	7.022807727385257e+17
19591.0	7.022490968653823e+17
19592.0	7.021831154302975e+17
19593.0	7.021020930113533e+17
19594.0	7.019169180549117e+17
19595.0	7.019522427628202e+17
19596.0	7.016585496974679e+17
19597.0	7.018100264271872e+17
19598.0	7.01605054076245e+17
19599.0	7.016649857171456e+17
19600.0	7.015912830577322e+17
19601.0	7.014802154411348e+17
19602.0	7.014069223555071e+17
19603.0	7.011269788478118e+17
19604.0	7.012391305521834e+17
19605.0	7.010394701474477e+17
19606.0	7.011058531871402e+17
19607.0	7.010240382544554e+17
19608.0	7.009356683236692e+17
19609.0	7.008310389637119e+17
19610.0	7.008019251811668e+17
19611.0	7.007331880883539e+17
19612.0	7.006532410889555e+17
19613.0	7.005596247829161e+17
19614.0	7.004552059071146e+17
19615.0	7.003864455359146e+17
19616.0	7.002708408707753e+17
19617.0	7.002045407384916e+17
19618.0	6.998528257687547e+17
19619.0	6.996947455967226e+17
19620.0	6.996216032264188e+17
19621.0	6.998315071700991e+17
19622.0	6.997446113274538e+17
19623.0	6.996517982306304e+17
19624.0	6.995513447896404e+17
19625.0	6.994605377585151e+17
19626.0	6.99357366128913e+17
19627.0	6.992615200609619e+17
19628.0	6.990837728673792e+17
19629.0	6.991135468333737e+17
19630.0	6.988071083267412e+17
19631.0	6.958650393711955e+17
19632.0	6.989329991729151e+17
19633.0	6.988479083489961e+17
19634.0	6.987815664833876e+17
19635.0	6.986614025398953e+17
19636.0	6.985762843131904e+17
19637.0	6.982697283660461e+17
19638.0	6.983736898529962e+17
19639.0	6.982691189336746e+17
19640.0	6.981315937872554e+17
19641.0	6.978004341926582e+17
19642.0	6.983075913968298e+17
19643.0	6.981997174631081e+17
19644.0	6.980696158153385e+17
19645.0	6.978691094194857e+17
19646.0	6.978894536114175e+17
19647.0	6.977852900988244e+17
19648.0	6.976759854181033e+17
19649.0	6.975673530144084e+17
19650.0	6.974631799248212e+17
19651.0	6.973520996554068e+17
19652.0	6.972424354529279e+17
19653.0	6.971364104383146e+17
19654.0	6.970232702063956e+17
19655.0	6.969111647092733e+17
19656.0	6.968066743205887e+17
19657.0	6.966965033762815e+17
19658.0	6.966470639266474e+17
19659.0	6.967580913478313e+17
19660.0	6.966493158484649e+17
19661.0	6.965354820184746e+17
19662.0	6.96426162168354e+17
19663.0	6.962893507526655e+17
19664.0	6.961857472495615e+17
19665.0	6.961246039441407e+17
19666.0	6.960059183529983e+17
