# Flux units: erg / (cm m2 s)
# Wavelength units: Angstrom
wave	flux
19000.0	5.6605912729299616e+17
19001.0	5.659440157381972e+17
19002.0	5.658547197050879e+17
19003.0	5.6575211158022816e+17
19004.0	5.656498150921556e+17
19005.0	5.6554442069114874e+17
19006.0	5.654430779878058e+17
19007.0	5.653424071420585e+17
19008.0	5.652364859364692e+17
19009.0	5.6511686718259194e+17
19010.0	5.6500715873020576e+17
19011.0	5.6492332514891085e+17
19012.0	5.6478901228011494e+17
19013.0	5.647302387564544e+17
19014.0	5.646249629144404e+17
19015.0	5.6452364901198496e+17
19016.0	5.6442422247642445e+17
19017.0	5.643244449475242e+17
19018.0	5.6422164982661114e+17
19019.0	5.6412071194350925e+17
19020.0	5.6401825523302394e+17
19021.0	5.639180571552426e+17
19022.0	5.638156121888084e+17
19023.0	5.637071295217663e+17
19024.0	5.636010866813609e+17
19025.0	5.6350265622309536e+17
19026.0	5.6339287003627494e+17
19027.0	5.632760934126931e+17
19028.0	5.6319760344459936e+17
19029.0	5.630973160980479e+17
19030.0	5.62998139822626e+17
19031.0	5.628950564132179e+17
19032.0	5.6278810417780045e+17
19033.0	5.6266710395999565e+17
19034.0	5.625405727834111e+17
19035.0	5.622100651234643e+17
19036.0	5.602360412514986e+17
19037.0	5.620647779980627e+17
19038.0	5.621383632169642e+17
19039.0	5.620676750737407e+17
19040.0	5.619757964678484e+17
19041.0	5.6187824359778976e+17
19042.0	5.615480029052923e+17
19043.0	5.616816994910207e+17
19044.0	5.615794893357055e+17
19045.0	5.6147519230443514e+17
19046.0	5.613729104265216e+17
19047.0	5.6126883331659085e+17
19048.0	5.611246571924137e+17
19049.0	5.6058742731789574e+17
19050.0	5.609218830761983e+17
19051.0	5.6057268468886176e+17
19052.0	5.605873088987135e+17
19053.0	5.606399279103999e+17
19054.0	5.6056021872803834e+17
19055.0	5.603751967238828e+17
19056.0	5.6034348939345894e+17
19057.0	5.6026683841795405e+17
19058.0	5.5992814948843475e+17
19059.0	5.599767624504659e+17
19060.0	5.5996480651700896e+17
19061.0	5.598642897420287e+17
19062.0	5.5976410194029216e+17
19063.0	5.596627814667604e+17
19064.0	5.5955491543231136e+17
19065.0	5.594465115482794e+17
19066.0	5.5927022138600115e+17
19067.0	5.592587206743379e+17
19068.0	5.5916019892005536e+17
19069.0	5.590594799796224e+17
19070.0	5.5895605599272954e+17
19071.0	5.5885505372706125e+17
19072.0	5.5866885843626656e+17
19073.0	5.586565071896575e+17
19074.0	5.5855594364818765e+17
19075.0	5.5845511292955296e+17
19076.0	5.583534959187284e+17
19077.0	5.58251622076689e+17
19078.0	5.581489100029951e+17
19079.0	5.5805187582853114e+17
19080.0	5.579499928289279e+17
19081.0	5.57844932014899e+17
19082.0	5.57747464708642e+17
19083.0	5.576385489797119e+17
19084.0	5.575244553824938e+17
19085.0	5.57440373498402e+17
19086.0	5.5717315935382163e+17
19087.0	5.570200525078525e+17
19088.0	5.56995255363174e+17
19089.0	5.5700872453160954e+17
19090.0	5.5693051145748474e+17
19091.0	5.568195704389632e+17
19092.0	5.565464300923566e+17
19093.0	5.566410716960084e+17
19094.0	5.565432162069162e+17
19095.0	5.564437825410388e+17
19096.0	5.563437721583615e+17
19097.0	5.562442276929535e+17
19098.0	5.560456678735871e+17
19099.0	5.559252988985344e+17
19100.0	5.559372022633811e+17
19101.0	5.5583918207795194e+17
19102.0	5.557348345752234e+17
19103.0	5.556416729317374e+17
19104.0	5.5554179788526925e+17
19105.0	5.5522438777842394e+17
19106.0	5.5533292811714554e+17
19107.0	5.551780277168809e+17
19108.0	5.550362598921557e+17
19109.0	5.5497463158538234e+17
19110.0	5.549037299520853e+17
19111.0	5.54767404306705e+17
19112.0	5.5466286260770106e+17
19113.0	5.5463986034551456e+17
19114.0	5.5449611917066214e+17
19115.0	5.544250963219796e+17
19116.0	5.5433727074194765e+17
19117.0	5.542335393125717e+17
19118.0	5.540954006792874e+17
19119.0	5.533420771169612e+17
19120.0	5.539012477452287e+17
19121.0	5.5382122657655456e+17
19122.0	5.537406851044694e+17
19123.0	5.5364373446656e+17
19124.0	5.535258439057406e+17
19125.0	5.534413873304917e+17
19126.0	5.5332646647671456e+17
19127.0	5.53136687292962e+17
19128.0	5.5311963758701216e+17
19129.0	5.530359064166399e+17
19130.0	5.5294643086731936e+17
19131.0	5.528492410142719e+17
19132.0	5.527499592521044e+17
19133.0	5.5264658748429645e+17
19134.0	5.525488792152747e+17
19135.0	5.524512890159103e+17
19136.0	5.5235134364494496e+17
19137.0	5.522448112593577e+17
19138.0	5.5215110065138336e+17
19139.0	5.5205454952093005e+17
19140.0	5.5195576932761594e+17
19141.0	5.5185630021986976e+17
19142.0	5.517538110734335e+17
19143.0	5.516544677948074e+17
19144.0	5.515538785981779e+17
19145.0	5.5145835213619194e+17
19146.0	5.512962220141226e+17
19147.0	5.5125523052189e+17
19148.0	5.5108384881377274e+17
19149.0	5.5097093381597856e+17
19150.0	5.509622233650515e+17
19151.0	5.508622841457322e+17
19152.0	5.5075917543069005e+17
19153.0	5.504989245997053e+17
19154.0	5.505423943663615e+17
19155.0	5.5045828941359776e+17
19156.0	5.5035669714916685e+17
19157.0	5.5019496674426886e+17
19158.0	5.500187941623126e+17
19159.0	5.5004602959571616e+17
19160.0	5.49948014932787e+17
19161.0	5.4983098895783245e+17
19162.0	5.496618107972266e+17
19163.0	5.4961003050653005e+17
19164.0	5.4955113353052154e+17
19165.0	5.492875245300391e+17
19166.0	5.4935659912451405e+17
19167.0	5.4926170041002656e+17
19168.0	5.491698434047999e+17
19169.0	5.4907479788967245e+17
19170.0	5.4897719930170003e+17
19171.0	5.488772330291199e+17
19172.0	5.487783011418111e+17
19173.0	5.4868266996203514e+17
19174.0	5.4858236737617914e+17
19175.0	5.4848635961780896e+17
19176.0	5.4838768945506976e+17
19177.0	5.482725769915049e+17
19178.0	5.48183786581743e+17
19179.0	5.4808507258852685e+17
19180.0	5.479898480465236e+17
19181.0	5.478845861855231e+17
19182.0	5.477905772926292e+17
19183.0	5.4769779670166176e+17
19184.0	5.475994650192554e+17
19185.0	5.4749920843093325e+17
19186.0	5.474013100900352e+17
19187.0	5.472947435208703e+17
19188.0	5.4720118411755514e+17
19189.0	5.471002668564478e+17
19190.0	5.4699925340596896e+17
19191.0	5.468943251319466e+17
19192.0	5.467935892744874e+17
19193.0	5.466652311988905e+17
19194.0	5.4654083946687136e+17
19195.0	5.46457599938833e+17
19196.0	5.4631903229815456e+17
19197.0	5.4613829841059834e+17
19198.0	5.4582497460442445e+17
19199.0	5.451305912194388e+17
19200.0	5.450981268171434e+17
19201.0	5.4555400942387194e+17
19202.0	5.456571907702783e+17
19203.0	5.456311210038613e+17
19204.0	5.4557492103522976e+17
19205.0	5.45497884463377e+17
19206.0	5.4541201559606605e+17
19207.0	5.4530705425694714e+17
19208.0	5.4521493818354336e+17
19209.0	5.451331737922217e+17
19210.0	5.450379454753449e+17
19211.0	5.4494332687045965e+17
19212.0	5.4484441148074656e+17
19213.0	5.4473295197634554e+17
19214.0	5.446354683822079e+17
19215.0	5.4454910276949325e+17
19216.0	5.444549730806442e+17
19217.0	5.4435116056139085e+17
19218.0	5.442204558426111e+17
19219.0	5.4414081383901856e+17
19220.0	5.440619066075817e+17
19221.0	5.439570069946367e+17
19222.0	5.438687312958804e+17
19223.0	5.437755437875199e+17
19224.0	5.436747608839508e+17
19225.0	5.4357688547191456e+17
19226.0	5.434836535738367e+17
19227.0	5.433876589576191e+17
19228.0	5.432929704476671e+17
19229.0	5.431955148155562e+17
19230.0	5.4309758319984634e+17
19231.0	5.42999318766114e+17
19232.0	5.429022030124373e+17
19233.0	5.427990831125844e+17
19234.0	5.427073390040404e+17
19235.0	5.4260748003573754e+17
19236.0	5.425132626160298e+17
19237.0	5.4241447361467725e+17
19238.0	5.4230996623906125e+17
19239.0	5.422211486362281e+17
19240.0	5.421243431911423e+17
19241.0	5.4202514161008634e+17
19242.0	5.4192827877294074e+17
19243.0	5.418168839307262e+17
19244.0	5.417354322247678e+17
19245.0	5.4163744370633376e+17
19246.0	5.415400778323283e+17
19247.0	5.414424827396096e+17
19248.0	5.413455766312276e+17
19249.0	5.4124188980128403e+17
19250.0	5.4111473940561914e+17
19251.0	5.4101096708177894e+17
19252.0	5.409275262271487e+17
19253.0	5.4085808512040954e+17
19254.0	5.407628325464745e+17
19255.0	5.4064631904556365e+17
19256.0	5.405670025199615e+17
19257.0	5.4047028941946874e+17
19258.0	5.403725866729471e+17
19259.0	5.4026220832030714e+17
19260.0	5.4011109383864314e+17
19261.0	5.400750557495294e+17
19262.0	5.399732067237888e+17
19263.0	5.3987032079619405e+17
19264.0	5.397513880906409e+17
19265.0	5.3967181927765325e+17
19266.0	5.3957110732772685e+17
19267.0	5.3949844478580045e+17
19268.0	5.3940184227512314e+17
19269.0	5.393047379159722e+17
19270.0	5.3920314942641485e+17
19271.0	5.3909047623024634e+17
19272.0	5.3900993706502816e+17
19273.0	5.388973697750356e+17
19274.0	5.3878031695653523e+17
19275.0	5.387236593194324e+17
19276.0	5.386249686745088e+17
19277.0	5.3852848514225485e+17
19278.0	5.384259980929705e+17
19279.0	5.383302546456575e+17
19280.0	5.382317914718207e+17
19281.0	5.3813591814089376e+17
19282.0	5.380391650547028e+17
19283.0	5.3793767576043514e+17
19284.0	5.378342591834794e+17
19285.0	5.377324624467285e+17
19286.0	5.376233399386112e+17
19287.0	5.3747538146099194e+17
19288.0	5.365180680634364e+17
19289.0	5.359552011348644e+17
19290.0	5.371688147484671e+17
19291.0	5.371178331231574e+17
19292.0	5.3706351639702176e+17
19293.0	5.369735454304938e+17
19294.0	5.368770638555818e+17
19295.0	5.367855493152767e+17
19296.0	5.3658240561097414e+17
19297.0	5.365723999589717e+17
19298.0	5.364944751034366e+17
19299.0	5.362798399848448e+17
19300.0	5.363018686791679e+17
19301.0	5.362072836986196e+17
19302.0	5.361087702630399e+17
19303.0	5.36005455188241e+17
19304.0	5.3591428010693965e+17
19305.0	5.358156660779689e+17
19306.0	5.357168165388287e+17
19307.0	5.3561176984562336e+17
19308.0	5.355094400827391e+17
19309.0	5.353858697352532e+17
19310.0	5.3527551053660154e+17
19311.0	5.3519336893754003e+17
19312.0	5.350879713908053e+17
19313.0	5.348988876226559e+17
19314.0	5.2917247455614285e+17
19315.0	5.294829018458846e+17
19316.0	5.344712077257388e+17
19317.0	5.3460848261201914e+17
19318.0	5.345378783548756e+17
19319.0	5.344528722558974e+17
19320.0	5.343180077662206e+17
19321.0	5.3416804441128954e+17
19322.0	5.341611021391188e+17
19323.0	5.3406248985777485e+17
19324.0	5.33965248065263e+17
19325.0	5.3386538734933325e+17
19326.0	5.337778827733673e+17
19327.0	5.336856984027135e+17
19328.0	5.334011631807149e+17
19329.0	5.3349846222547616e+17
19330.0	5.334010090400426e+17
19331.0	5.333014622677675e+17
19332.0	5.3320943091930445e+17
19333.0	5.331107063005182e+17
19334.0	5.3301243082178554e+17
19335.0	5.325294938357763e+17
19336.0	5.3281848201052154e+17
19337.0	5.3272527919295136e+17
19338.0	5.326079273205759e+17
19339.0	5.3252900366144845e+17
19340.0	5.3241631634445645e+17
19341.0	5.3217968734426477e+17
19342.0	5.321715956929878e+17
19343.0	5.321332614321492e+17
19344.0	5.318846765684055e+17
19345.0	5.31747572739823e+17
19346.0	5.3174156950241274e+17
19347.0	5.315518401609726e+17
19348.0	5.316484192534526e+17
19349.0	5.315496790458367e+17
19350.0	5.313830845065898e+17
19351.0	5.3135357743813965e+17
19352.0	5.3105997804557606e+17
19353.0	5.311642275414015e+17
19354.0	5.310670063708841e+17
19355.0	5.309589889919659e+17
19356.0	5.3087033524660896e+17
19357.0	5.3077188486539936e+17
19358.0	5.306716333801471e+17
19359.0	5.3052860936137363e+17
19360.0	5.303193920951636e+17
19361.0	5.3037383793595725e+17
19362.0	5.3027715482473805e+17
19363.0	5.301781201769813e+17
19364.0	5.3007821094693536e+17
19365.0	5.2997767641606816e+17
19366.0	5.298778695969449e+17
19367.0	5.297772189537622e+17
19368.0	5.296774814105598e+17
19369.0	5.2957181479922336e+17
19370.0	5.2947255988060154e+17
19371.0	5.2936928017776634e+17
19372.0	5.2927255491379194e+17
19373.0	5.2916925766478496e+17
19374.0	5.2906946825202323e+17
19375.0	5.289671507225258e+17
19376.0	5.288652329101993e+17
19377.0	5.2876135572875936e+17
19378.0	5.28658090496273e+17
19379.0	5.285545789183317e+17
19380.0	5.2844941946825376e+17
19381.0	5.283449839550462e+17
19382.0	5.2823166798178976e+17
19383.0	5.2812686588641274e+17
19384.0	5.2802301883405645e+17
19385.0	5.279169531346942e+17
19386.0	5.2780815358798496e+17
19387.0	5.2769591869658445e+17
19388.0	5.275793096354474e+17
19389.0	5.274481215930367e+17
19390.0	5.272298899985749e+17
19391.0	5.253806699489951e+17
19392.0	5.2669633279645e+17
19393.0	5.269732179574783e+17
19394.0	5.268954282284373e+17
19395.0	5.267361753290069e+17
19396.0	5.2666783354934605e+17
19397.0	5.2656648881875616e+17
19398.0	5.263911104981675e+17
19399.0	5.2622123825015443e+17
19400.0	5.261413982055083e+17
19401.0	5.260782637940736e+17
19402.0	5.2595513342907725e+17
19403.0	5.2582542380892154e+17
19404.0	5.2569604868450976e+17
19405.0	5.255572739151188e+17
19406.0	5.2541758471755085e+17
19407.0	5.252082521079807e+17
19408.0	5.250877328370345e+17
19409.0	5.249725101331796e+17
19410.0	5.248318378606591e+17
19411.0	5.2468066451892896e+17
19412.0	5.2452280042345805e+17
19413.0	5.242807302225919e+17
19414.0	5.24178501472529e+17
19415.0	5.2400206255226874e+17
19416.0	5.237941241992532e+17
19417.0	5.23616844321041e+17
19418.0	5.2343085727743994e+17
19419.0	5.2322436742731085e+17
19420.0	5.230076749327017e+17
19421.0	5.227806743068671e+17
19422.0	5.225361804274345e+17
19423.0	5.2228605674345805e+17
19424.0	5.2201820520448e+17
19425.0	5.2173693245194234e+17
19426.0	5.214313369305087e+17
19427.0	5.210921911713791e+17
19428.0	5.207325047171754e+17
19429.0	5.2032163894613325e+17
19430.0	5.1975207602094074e+17
19431.0	5.191694409181867e+17
19432.0	5.1892841656702285e+17
19433.0	5.184204720220842e+17
19434.0	5.1780974794506234e+17
19435.0	5.1705484697490765e+17
19436.0	5.162161503819093e+17
19437.0	5.152967359463424e+17
19438.0	5.1102711993248474e+17
19439.0	5.126183713417896e+17
19440.0	5.1234924459458554e+17
19441.0	5.110440717014355e+17
19442.0	5.0945422084014074e+17
19443.0	5.0759673647377056e+17
19444.0	5.053813177537876e+17
19445.0	5.0263735241714336e+17
19446.0	4.992866541633535e+17
19447.0	4.9496204103734586e+17
19448.0	4.891042577558188e+17
19449.0	4.802952754277034e+17
19450.0	4.6306334507444806e+17
19451.0	4.480149959475215e+17
19452.0	4.735546304408237e+17
19453.0	4.8500042559214957e+17
19454.0	4.918133249452711e+17
19455.0	4.966033314021375e+17
19456.0	5.001092139406678e+17
19457.0	5.027068553898665e+17
19458.0	4.888324048508433e+17
19459.0	5.050018425733155e+17
19460.0	5.0852331212417683e+17
19461.0	5.0996247128965114e+17
19462.0	5.110934088799573e+17
19463.0	5.120182064250879e+17
19464.0	5.1280919826268154e+17
19465.0	5.135087085551615e+17
19466.0	5.1410900265642656e+17
19467.0	5.146219561091071e+17
19468.0	5.1505310930916685e+17
19469.0	5.152914800639998e+17
19470.0	5.1575161800185165e+17
19471.0	5.1603452457560736e+17
19472.0	5.1628426573905914e+17
19473.0	5.165016474277205e+17
19474.0	5.1653833682234e+17
19475.0	5.1677382413298336e+17
19476.0	5.169538224794281e+17
19477.0	5.170706090994346e+17
19478.0	5.1715753961499296e+17
19479.0	5.171005491598674e+17
19480.0	5.1728834877194234e+17
19481.0	5.173336620051115e+17
19482.0	5.1737147568291834e+17
19483.0	5.174007134770517e+17
19484.0	5.174145202170538e+17
19485.0	5.174159994082645e+17
19486.0	5.172757310472195e+17
19487.0	5.174105491898368e+17
19488.0	5.173901664802132e+17
19489.0	5.1733654244338336e+17
19490.0	5.172656942175572e+17
19491.0	5.173101117571071e+17
19492.0	5.1728419207686816e+17
19493.0	5.172518697915732e+17
19494.0	5.172037330228566e+17
19495.0	5.171439069386068e+17
19496.0	5.170412589678591e+17
19497.0	5.1693902504482125e+17
19498.0	5.159832420788903e+17
19499.0	5.140153077071871e+17
19500.0	5.166800438995626e+17
19501.0	5.1677945316857165e+17
19502.0	5.1675311279964154e+17
19503.0	5.1670293011933856e+17
19504.0	5.166411948578133e+17
19505.0	5.1656992398595405e+17
19506.0	5.165031424873813e+17
19507.0	5.1642401799099725e+17
19508.0	5.1633796184801274e+17
19509.0	5.1621965143736314e+17
19510.0	5.15868095361843e+17
19511.0	5.073743761462568e+17
19512.0	5.148862841531049e+17
19513.0	5.1490879113789376e+17
19514.0	5.150303050181286e+17
19515.0	5.1572626112730445e+17
19516.0	5.1571004287221754e+17
19517.0	5.1566893624634016e+17
19518.0	5.155629264710313e+17
19519.0	5.154840647477929e+17
19520.0	5.153093342374567e+17
19521.0	5.153762285628074e+17
19522.0	5.152703146273449e+17
19523.0	5.1517687986476384e+17
19524.0	5.150244271904087e+17
19525.0	5.1504679163876685e+17
19526.0	5.1496906643210234e+17
19527.0	5.148851183463081e+17
19528.0	5.147900926842196e+17
19529.0	5.146993861066751e+17
19530.0	5.146368233788757e+17
19531.0	5.1455245278685856e+17
19532.0	5.1446762452637005e+17
19533.0	5.1438215411793914e+17
19534.0	5.1429687496977056e+17
19535.0	5.142091216016724e+17
19536.0	5.1412113202435405e+17
19537.0	5.1403459787052365e+17
19538.0	5.137996942671873e+17
19539.0	5.13833211929122e+17
19540.0	5.1377376284289696e+17
19541.0	5.1365927581996365e+17
19542.0	5.1359181791996576e+17
19543.0	5.13374416797696e+17
19544.0	5.134170869202943e+17
19545.0	5.132923141357568e+17
19546.0	5.131977787179006e+17
19547.0	5.131646825136128e+17
19548.0	5.130828647847251e+17
19549.0	5.129866486393513e+17
19550.0	5.129093011996671e+17
19551.0	5.128220852617215e+17
19552.0	5.127341332234239e+17
19553.0	5.1264437672564045e+17
19554.0	5.1255506419493536e+17
19555.0	5.124519014432768e+17
19556.0	5.12369456386321e+17
19557.0	5.1229174068674554e+17
19558.0	5.122053138371924e+17
19559.0	5.121176803562837e+17
19560.0	5.119754365479593e+17
19561.0	5.119385995837439e+17
19562.0	5.1180123242277536e+17
19563.0	5.1176490954042016e+17
19564.0	5.1167592067017363e+17
19565.0	5.1158758261609805e+17
19566.0	5.1149666513496736e+17
19567.0	5.114098614271998e+17
19568.0	5.11319141917218e+17
19569.0	5.1123088844827296e+17
19570.0	5.111420924461055e+17
19571.0	5.110537973836458e+17
19572.0	5.109626324385792e+17
19573.0	5.108581340108115e+17
19574.0	5.107724516502185e+17
19575.0	5.1069968089524896e+17
19576.0	5.10600503431441e+17
19577.0	5.104920476079445e+17
19578.0	5.1042988047291725e+17
19579.0	5.103404105160021e+17
19580.0	5.102515543255721e+17
19581.0	5.1016424422550176e+17
19582.0	5.1007637208869536e+17
19583.0	5.099871999273641e+17
19584.0	5.0989613613492896e+17
19585.0	5.0979611813259936e+17
19586.0	5.097028567345835e+17
19587.0	5.0962172393553914e+17
19588.0	5.0951054062605645e+17
19589.0	5.0944361987659085e+17
19590.0	5.093497174491135e+17
19591.0	5.0927249367149216e+17
19592.0	5.0918494883020794e+17
19593.0	5.090805613417812e+17
19594.0	5.089697121086121e+17
19595.0	5.089165971903828e+17
19596.0	5.088182225862656e+17
19597.0	5.087374112107177e+17
19598.0	5.086078746755072e+17
19599.0	5.0855826479732045e+17
19600.0	5.0847166891731616e+17
19601.0	5.083761576946346e+17
19602.0	5.0827989722944845e+17
19603.0	5.0816968818687994e+17
19604.0	5.0809983568882336e+17
19605.0	5.080000381670741e+17
19606.0	5.079354679754751e+17
19607.0	5.078488161015124e+17
19608.0	5.0775836656489805e+17
19609.0	5.076672465687892e+17
19610.0	5.075144167565994e+17
19611.0	5.0739350371041274e+17
19612.0	5.074037908002132e+17
19613.0	5.073131342746966e+17
19614.0	5.07220707053841e+17
19615.0	5.0713106862571514e+17
19616.0	5.0696224432455686e+17
19617.0	5.0684883936215046e+17
19618.0	5.068063498043391e+17
19619.0	5.0669241594019834e+17
19620.0	5.066047328965971e+17
19621.0	5.0644885130881683e+17
19622.0	5.065068388199081e+17
19623.0	5.06409662808064e+17
19624.0	5.0630307226146125e+17
19625.0	5.062338679930878e+17
19626.0	5.061369493716992e+17
19627.0	5.060312736727039e+17
19628.0	5.059030019997696e+17
19629.0	5.054053346880168e+17
19630.0	5.053134925026645e+17
19631.0	5.048632018119338e+17
19632.0	5.0540533692497914e+17
19633.0	5.054483783832917e+17
19634.0	5.0540898275382605e+17
19635.0	5.053175054729215e+17
19636.0	5.0509621532207763e+17
19637.0	5.049848424999593e+17
19638.0	5.050732060693844e+17
19639.0	5.049955918020607e+17
19640.0	5.048835441164288e+17
19641.0	5.0472552399284915e+17
19642.0	5.0471920702149965e+17
19643.0	5.0463192530288634e+17
19644.0	5.045483561025534e+17
19645.0	5.044534150955006e+17
19646.0	5.042106972940967e+17
19647.0	5.0429059151517e+17
19648.0	5.042050823094271e+17
19649.0	5.0411666596167674e+17
19650.0	5.0402868917698554e+17
19651.0	5.0393979572715514e+17
19652.0	5.0385126228841805e+17
19653.0	5.0376222427490976e+17
19654.0	5.036742650363904e+17
19655.0	5.0358559192733005e+17
