# Flux units: erg / (cm m2 s)
# Wavelength units: Angstrom
wave	flux
19000.0	6.750989102437715e+17
19001.0	6.749648759466666e+17
19002.0	6.748492796002301e+17
19003.0	6.747235993081172e+17
19004.0	6.745982709181098e+17
19005.0	6.744738403188735e+17
19006.0	6.743495336613203e+17
19007.0	6.742208585662464e+17
19008.0	6.74093870490146e+17
19009.0	6.739639231228585e+17
19010.0	6.738099862940329e+17
19011.0	6.737184781849939e+17
19012.0	6.735524014325757e+17
19013.0	6.734732114351444e+17
19014.0	6.733434184182441e+17
19015.0	6.73220144398336e+17
19016.0	6.730948004894036e+17
19017.0	6.729737755951103e+17
19018.0	6.72846625968401e+17
19019.0	6.727231589406036e+17
19020.0	6.725969582052691e+17
19021.0	6.724737442338131e+17
19022.0	6.72348264010001e+17
19023.0	6.72219898454562e+17
19024.0	6.72096555578163e+17
19025.0	6.719685073218217e+17
19026.0	6.718396594214228e+17
19027.0	6.716823957405695e+17
19028.0	6.715967068089002e+17
19029.0	6.714710818815999e+17
19030.0	6.713486580471123e+17
19031.0	6.712232593326079e+17
19032.0	6.71097022316544e+17
19033.0	6.709619835535359e+17
19034.0	6.708378634027008e+17
19035.0	6.706599395590143e+17
19036.0	6.679301275516919e+17
19037.0	6.70426520949009e+17
19038.0	6.703379250151423e+17
19039.0	6.702207193142612e+17
19040.0	6.700975914658472e+17
19041.0	6.699726780323156e+17
19042.0	6.698266896891901e+17
19043.0	6.697243063790249e+17
19044.0	6.695982411896148e+17
19045.0	6.694725889294335e+17
19046.0	6.69345089987106e+17
19047.0	6.692213448769535e+17
19048.0	6.690788814269097e+17
19049.0	6.689380069889364e+17
19050.0	6.688364171711828e+17
19051.0	6.683172567078225e+17
19052.0	6.68483418394897e+17
19053.0	6.684687998473555e+17
19054.0	6.683489235632127e+17
19055.0	6.681977962889216e+17
19056.0	6.680966735768234e+17
19057.0	6.679754066711891e+17
19058.0	6.678353715134463e+17
19059.0	6.677211899057492e+17
19060.0	6.676002149935786e+17
19061.0	6.674771875987455e+17
19062.0	6.673520071977641e+17
19063.0	6.672272153990483e+17
19064.0	6.670921381882537e+17
19065.0	6.669615462263466e+17
19066.0	6.668426335136425e+17
19067.0	6.667279899732649e+17
19068.0	6.666038979242665e+17
19069.0	6.664792715209386e+17
19070.0	6.663524311542441e+17
19071.0	6.662282832510975e+17
19072.0	6.6609964136093e+17
19073.0	6.659801527003817e+17
19074.0	6.658558745640959e+17
19075.0	6.657311837082963e+17
19076.0	6.656049562692265e+17
19077.0	6.654803508374185e+17
19078.0	6.653542943861417e+17
19079.0	6.652324498549417e+17
19080.0	6.651065649506985e+17
19081.0	6.649789194873514e+17
19082.0	6.648551412421972e+17
19083.0	6.647233975244115e+17
19084.0	6.645871726122323e+17
19085.0	6.644818776861353e+17
19086.0	6.643079735934973e+17
19087.0	6.641685347259734e+17
19088.0	6.64074979516962e+17
19089.0	6.639372503875583e+17
19090.0	6.63850022146321e+17
19091.0	6.63729638281489e+17
19092.0	6.635834839837353e+17
19093.0	6.634864374360745e+17
19094.0	6.63364018704657e+17
19095.0	6.632400991813631e+17
19096.0	6.631146653046099e+17
19097.0	6.629913472445097e+17
19098.0	6.628612449675945e+17
19099.0	6.627357950126761e+17
19100.0	6.626133771201193e+17
19101.0	6.624920389113172e+17
19102.0	6.623607453122559e+17
19103.0	6.622451109374633e+17
19104.0	6.621208208474111e+17
19105.0	6.619815986156884e+17
19106.0	6.618608339080531e+17
19107.0	6.617393428168704e+17
19108.0	6.616082151025321e+17
19109.0	6.613280978807465e+17
19110.0	6.613402796075689e+17
19111.0	6.612422486567593e+17
19112.0	6.61121274094114e+17
19113.0	6.610027212526932e+17
19114.0	6.60875643068962e+17
19115.0	6.607441533861887e+17
19116.0	6.606280491794431e+17
19117.0	6.605024914309119e+17
19118.0	6.60362668085521e+17
19119.0	6.598344679882744e+17
19120.0	6.601070507021652e+17
19121.0	6.599912697364479e+17
19122.0	6.598860182213972e+17
19123.0	6.597624606665385e+17
19124.0	6.596219336567465e+17
19125.0	6.595130300213929e+17
19126.0	6.593859684051625e+17
19127.0	6.591186478650707e+17
19128.0	6.591159642794665e+17
19129.0	6.590101509373951e+17
19130.0	6.588933256598868e+17
19131.0	6.587708046573567e+17
19132.0	6.586467051285161e+17
19133.0	6.585150945099775e+17
19134.0	6.583883959806634e+17
19135.0	6.582744726721875e+17
19136.0	6.581512030562985e+17
19137.0	6.580147443815766e+17
19138.0	6.579019877187583e+17
19139.0	6.577800235799894e+17
19140.0	6.576565120226644e+17
19141.0	6.57532731400738e+17
19142.0	6.574057110284969e+17
19143.0	6.572806987492009e+17
19144.0	6.571575120407209e+17
19145.0	6.570373646647295e+17
19146.0	6.568565879253674e+17
19147.0	6.567826726147412e+17
19148.0	6.566603267943082e+17
19149.0	6.565354320953343e+17
19150.0	6.564180424742227e+17
19151.0	6.562946763893417e+17
19152.0	6.561675438194687e+17
19153.0	6.560351547381076e+17
19154.0	6.559114038957396e+17
19155.0	6.557964159330985e+17
19156.0	6.556708386111487e+17
19157.0	6.555258955584852e+17
19158.0	6.553224961414484e+17
19159.0	6.552872851690836e+17
19160.0	6.551704682801834e+17
19161.0	6.55037926875682e+17
19162.0	6.546655855771648e+17
19163.0	6.547566739761833e+17
19164.0	6.546785095559849e+17
19165.0	6.545438784793257e+17
19166.0	6.544206368953683e+17
19167.0	6.542881284860585e+17
19168.0	6.541855363694591e+17
19169.0	6.540631834886141e+17
19170.0	6.539424033319593e+17
19171.0	6.538083177944403e+17
19172.0	6.53692610159138e+17
19173.0	6.53573118632482e+17
19174.0	6.534468092646739e+17
19175.0	6.533279850517844e+17
19176.0	6.532043734603091e+17
19177.0	6.530655682123094e+17
19178.0	6.529455955290793e+17
19179.0	6.52814641598737e+17
19180.0	6.527066405776041e+17
19181.0	6.525761675242154e+17
19182.0	6.524611075593555e+17
19183.0	6.52340256518963e+17
19184.0	6.522163570584234e+17
19185.0	6.520922236955305e+17
19186.0	6.519694943759018e+17
19187.0	6.518387078681939e+17
19188.0	6.517216089822548e+17
19189.0	6.51597361324578e+17
19190.0	6.51471326683682e+17
19191.0	6.513438594782548e+17
19192.0	6.512248639280467e+17
19193.0	6.510977621863082e+17
19194.0	6.509693205741565e+17
19195.0	6.508439271724372e+17
19196.0	6.507078557018793e+17
19197.0	6.505578423648255e+17
19198.0	6.5032384689821e+17
19199.0	6.485754127581179e+17
19200.0	6.487778463667544e+17
19201.0	6.499705383725738e+17
19202.0	6.499445761900543e+17
19203.0	6.498406530110804e+17
19204.0	6.497305046461098e+17
19205.0	6.496141863201449e+17
19206.0	6.494939616990548e+17
19207.0	6.493623440900095e+17
19208.0	6.492327583416319e+17
19209.0	6.49127205675554e+17
19210.0	6.490047096990377e+17
19211.0	6.488821661870761e+17
19212.0	6.487575815170729e+17
19213.0	6.486133056383657e+17
19214.0	6.484822579653289e+17
19215.0	6.483792304799743e+17
19216.0	6.48264188830242e+17
19217.0	6.481396639989759e+17
19218.0	6.479513363240275e+17
19219.0	6.478775567690409e+17
19220.0	6.477662682524329e+17
19221.0	6.476173343894185e+17
19222.0	6.47516023492881e+17
19223.0	6.473934430710442e+17
19224.0	6.472664995244712e+17
19225.0	6.471257611217578e+17
19226.0	6.470116265601705e+17
19227.0	6.46888010354961e+17
19228.0	6.467669363174058e+17
19229.0	6.466430612537343e+17
19230.0	6.465182775640063e+17
19231.0	6.463936587104255e+17
19232.0	6.462705654650195e+17
19233.0	6.461407891554304e+17
19234.0	6.460221040536234e+17
19235.0	6.458970712222377e+17
19236.0	6.457758382205609e+17
19237.0	6.456505004632746e+17
19238.0	6.455172948208297e+17
19239.0	6.454037220163583e+17
19240.0	6.452792329065812e+17
19241.0	6.451535435967146e+17
19242.0	6.450301434680659e+17
19243.0	6.448921794576383e+17
19244.0	6.447833634133334e+17
19245.0	6.44658466267682e+17
19246.0	6.445333623428436e+17
19247.0	6.444102135229098e+17
19248.0	6.442853476947283e+17
19249.0	6.441596780281855e+17
19250.0	6.440327843938304e+17
19251.0	6.439011404305748e+17
19252.0	6.437600985000617e+17
19253.0	6.436609506060969e+17
19254.0	6.435384095408127e+17
19255.0	6.433954696877396e+17
19256.0	6.43286225125376e+17
19257.0	6.431639696222889e+17
19258.0	6.430388972246356e+17
19259.0	6.429059766550527e+17
19260.0	6.42732987200307e+17
19261.0	6.426616896946175e+17
19262.0	6.425322985619455e+17
19263.0	6.424050939898537e+17
19264.0	6.422417007531347e+17
19265.0	6.421301173070506e+17
19266.0	6.420026934427647e+17
19267.0	6.418958118114644e+17
19268.0	6.417702589562879e+17
19269.0	6.416443939050835e+17
19270.0	6.415169624910505e+17
19271.0	6.413645309979306e+17
19272.0	6.412627457256106e+17
19273.0	6.410998022580906e+17
19274.0	6.409671688585213e+17
19275.0	6.408875817304063e+17
19276.0	6.407596372131839e+17
19277.0	6.40633555316463e+17
19278.0	6.405066569285631e+17
19279.0	6.40376808476945e+17
19280.0	6.402468781664937e+17
19281.0	6.401243437421908e+17
19282.0	6.399963170865151e+17
19283.0	6.398533374574591e+17
19284.0	6.397291168530432e+17
19285.0	6.396015101870077e+17
19286.0	6.394806337710761e+17
19287.0	6.39334872130082e+17
19288.0	6.384203023253496e+17
19289.0	6.373326726015633e+17
19290.0	6.389380391021226e+17
19291.0	6.387997126339242e+17
19292.0	6.386981121906004e+17
19293.0	6.385702075891711e+17
19294.0	6.38441325924625e+17
19295.0	6.383136833972906e+17
19296.0	6.381773634142205e+17
19297.0	6.380513601606996e+17
19298.0	6.379230487117824e+17
19299.0	6.377881399721983e+17
19300.0	6.376650283417599e+17
19301.0	6.37534797299712e+17
19302.0	6.373861768910164e+17
19303.0	6.372381266979498e+17
19304.0	6.37111674933521e+17
19305.0	6.369807970598911e+17
19306.0	6.368483054277972e+17
19307.0	6.367030371068585e+17
19308.0	6.365663182454781e+17
19309.0	6.36378613424674e+17
19310.0	6.362211872145405e+17
19311.0	6.361567715131391e+17
19312.0	6.360377459736575e+17
19313.0	6.358808929850708e+17
19314.0	6.329039452460358e+17
19315.0	6.330175332898176e+17
19316.0	6.354580554820265e+17
19317.0	6.353494498519721e+17
19318.0	6.352175555586729e+17
19319.0	6.350850242205012e+17
19320.0	6.349465189351423e+17
19321.0	6.348062834993833e+17
19322.0	6.346618158011731e+17
19323.0	6.345149957974698e+17
19324.0	6.343899761082365e+17
19325.0	6.342175275089919e+17
19326.0	6.341162644974249e+17
19327.0	6.339838730392916e+17
19328.0	6.338355658052948e+17
19329.0	6.337081387253759e+17
19330.0	6.335649993632425e+17
19331.0	6.334225047355391e+17
19332.0	6.332847184936959e+17
19333.0	6.331386753449983e+17
19334.0	6.329802223692457e+17
19335.0	6.328137297515859e+17
19336.0	6.326914297888768e+17
19337.0	6.325479265009664e+17
19338.0	6.323838434410495e+17
19339.0	6.322559085707263e+17
19340.0	6.321002399836842e+17
19341.0	6.319488279860563e+17
19342.0	6.317773288374271e+17
19343.0	6.316627301061972e+17
19344.0	6.315025870356479e+17
19345.0	6.311941165984424e+17
19346.0	6.311262008901631e+17
19347.0	6.310396774318079e+17
19348.0	6.308772525899775e+17
19349.0	6.307124880954708e+17
19350.0	6.305533777324714e+17
19351.0	6.303996721496063e+17
19352.0	6.302265063243776e+17
19353.0	6.300855742846291e+17
19354.0	6.299249659259561e+17
19355.0	6.297538585952255e+17
19356.0	6.29599043129617e+17
19357.0	6.29390141694498e+17
19358.0	6.292045165494272e+17
19359.0	6.290315934345898e+17
19360.0	6.288556112041299e+17
19361.0	6.286947190308863e+17
19362.0	6.28526225170978e+17
19363.0	6.283524718635689e+17
19364.0	6.281364695416831e+17
19365.0	6.279314886623231e+17
19366.0	6.277519881797631e+17
19367.0	6.275695336488959e+17
19368.0	6.2738507249309e+17
19369.0	6.271939916769961e+17
19370.0	6.269404328580436e+17
19371.0	6.267239234448041e+17
19372.0	6.265353290121215e+17
19373.0	6.263368311985491e+17
19374.0	6.26107339575569e+17
19375.0	6.258212988780543e+17
19376.0	6.256165693074089e+17
19377.0	6.254074872375977e+17
19378.0	6.251246036626092e+17
19379.0	6.248036300051796e+17
19380.0	6.245853114488148e+17
19381.0	6.243234763593043e+17
19382.0	6.239547508304553e+17
19383.0	6.237250397754708e+17
19384.0	6.234674879791103e+17
19385.0	6.231600897458173e+17
19386.0	6.229200913913172e+17
19387.0	6.226748317018793e+17
19388.0	6.224064185455958e+17
19389.0	6.220989533432489e+17
19390.0	6.218190250049535e+17
19391.0	6.192890223700621e+17
19392.0	6.211844659565907e+17
19393.0	6.210200858001408e+17
19394.0	6.207429224868521e+17
19395.0	6.203899650943657e+17
19396.0	6.200465610681002e+17
19397.0	6.197474767841961e+17
19398.0	6.194276584478036e+17
19399.0	6.190487000055807e+17
19400.0	6.186013459567956e+17
19401.0	6.182684025946111e+17
19402.0	6.179137121856169e+17
19403.0	6.174354062704637e+17
19404.0	6.169347044496724e+17
19405.0	6.165311083162281e+17
19406.0	6.159358931675818e+17
19407.0	6.153556383323476e+17
19408.0	6.148200121499645e+17
19409.0	6.140624612185427e+17
19410.0	6.135853300580351e+17
19411.0	6.12656403779857e+17
19412.0	6.120737050634926e+17
19413.0	6.110459638491817e+17
19414.0	6.102350102702762e+17
19415.0	6.092397256987988e+17
19416.0	6.080120945814181e+17
19417.0	6.070939034845181e+17
19418.0	6.061979005353983e+17
19419.0	6.054562877494612e+17
19420.0	6.04764022837521e+17
19421.0	6.04019061948416e+17
19422.0	6.031506598963882e+17
19423.0	6.023715359118676e+17
19424.0	6.013300751990781e+17
19425.0	6.004111764531886e+17
19426.0	5.992268812342612e+17
19427.0	5.979859794089295e+17
19428.0	5.966184887353348e+17
19429.0	5.950355414887076e+17
19430.0	5.931690629267457e+17
19431.0	5.908828535827112e+17
19432.0	5.889407992550735e+17
19433.0	5.86325501114231e+17
19434.0	5.835885553647617e+17
19435.0	5.812736090264915e+17
19436.0	5.791873116056234e+17
19437.0	5.77117486055424e+17
19438.0	5.7156025862935917e+17
19439.0	5.7203467104201414e+17
19440.0	5.693976064207531e+17
19441.0	5.661005798091432e+17
19442.0	5.6221694462088544e+17
19443.0	5.577010541057363e+17
19444.0	5.524135355962706e+17
19445.0	5.4603129696201414e+17
19446.0	5.382327717505707e+17
19447.0	5.286221415361189e+17
19448.0	5.159407332971867e+17
19449.0	4.9787106167357434e+17
19450.0	4.6693713294568096e+17
19451.0	4.4661280328035194e+17
19452.0	4.849617674611367e+17
19453.0	5.077738864683697e+17
19454.0	5.2241058856523046e+17
19455.0	5.3312042897681056e+17
19456.0	5.414860928057345e+17
19457.0	5.4825746666181946e+17
19458.0	5.480104640992698e+17
19459.0	5.583776356062561e+17
19460.0	5.6251513048487226e+17
19461.0	5.658488333489492e+17
19462.0	5.687109225895253e+17
19463.0	5.711754389269161e+17
19464.0	5.733908101813588e+17
19465.0	5.754511387787264e+17
19466.0	5.773083800851795e+17
19467.0	5.791391231071567e+17
19468.0	5.814872448521556e+17
19469.0	5.839810265961821e+17
19470.0	5.861936335945727e+17
19471.0	5.880818405386924e+17
19472.0	5.897161352238422e+17
19473.0	5.911431003592022e+17
19474.0	5.923718068262228e+17
19475.0	5.934978014991697e+17
19476.0	5.944286241619965e+17
19477.0	5.952927020264106e+17
19478.0	5.960369777060522e+17
19479.0	5.966979640153427e+17
19480.0	5.972856928206847e+17
19481.0	5.978882851209215e+17
19482.0	5.983664123587241e+17
19483.0	5.988478770042195e+17
19484.0	5.993989875782998e+17
19485.0	6.001486230192127e+17
19486.0	6.01055436647083e+17
19487.0	6.017121353291094e+17
19488.0	6.02612439257361e+17
19489.0	6.03154060148736e+17
19490.0	6.036336765741737e+17
19491.0	6.042670275930797e+17
19492.0	6.047187956574889e+17
19493.0	6.051237777986899e+17
19494.0	6.055521979203583e+17
19495.0	6.057630506855081e+17
19496.0	6.06214528434176e+17
19497.0	6.064242577549993e+17
19498.0	6.062131922687319e+17
19499.0	6.033384364397889e+17
19500.0	6.070630849271126e+17
19501.0	6.072108622107988e+17
19502.0	6.073983248105472e+17
19503.0	6.075822974697471e+17
19504.0	6.076696893587455e+17
19505.0	6.077476156123818e+17
19506.0	6.078177712887124e+17
19507.0	6.079700143177727e+17
19508.0	6.080362776100863e+17
19509.0	6.080786688813738e+17
19510.0	6.080771034273108e+17
19511.0	6.03004238631181e+17
19512.0	6.075377131367072e+17
19513.0	6.071661632334491e+17
19514.0	6.075087368574284e+17
19515.0	6.082515517308928e+17
19516.0	6.083268651428522e+17
19517.0	6.083526482984959e+17
19518.0	6.084422878451028e+17
19519.0	6.084396992604841e+17
19520.0	6.08467753771554e+17
19521.0	6.085996784036522e+17
19522.0	6.085838674853887e+17
19523.0	6.085727174175401e+17
19524.0	6.087073081589757e+17
19525.0	6.087004279625044e+17
19526.0	6.086762225642152e+17
19527.0	6.086581894337878e+17
19528.0	6.087246847410176e+17
19529.0	6.086909396779008e+17
19530.0	6.086561151407444e+17
19531.0	6.086169748744873e+17
19532.0	6.086254266766678e+17
19533.0	6.086154019405823e+17
19534.0	6.085685394713257e+17
19535.0	6.085186329859412e+17
19536.0	6.084651036704767e+17
19537.0	6.084154467461802e+17
19538.0	6.083744867112276e+17
19539.0	6.08324024131038e+17
19540.0	6.08306948210688e+17
19541.0	6.082472854945791e+17
19542.0	6.081867262459903e+17
19543.0	6.081157810618367e+17
19544.0	6.080593415285418e+17
19545.0	6.079588241244159e+17
19546.0	6.07900472058402e+17
19547.0	6.079158483768659e+17
19548.0	6.078472070539946e+17
19549.0	6.077673421930495e+17
19550.0	6.07704300266018e+17
19551.0	6.076312060603049e+17
19552.0	6.07556665868288e+17
19553.0	6.074791613519188e+17
19554.0	6.074015458263039e+17
19555.0	6.073460347021994e+17
19556.0	6.07277008621841e+17
19557.0	6.071979163516927e+17
19558.0	6.071175796315476e+17
19559.0	6.070364702507008e+17
19560.0	6.069483607162879e+17
19561.0	6.068687031238656e+17
19562.0	6.067842782855167e+17
19563.0	6.067031331831808e+17
19564.0	6.066178583691263e+17
19565.0	6.065319351855786e+17
19566.0	6.064428262883328e+17
19567.0	6.063580811449684e+17
19568.0	6.062679780578644e+17
19569.0	6.061801743581183e+17
19570.0	6.060988502289066e+17
19571.0	6.060212924448767e+17
19572.0	6.059284149654867e+17
19573.0	6.058381643786921e+17
19574.0	6.057403852259327e+17
19575.0	6.056582018236415e+17
19576.0	6.055650077442045e+17
19577.0	6.054695952274772e+17
19578.0	6.053772740526079e+17
19579.0	6.052844048919208e+17
19580.0	6.051907771913556e+17
19581.0	6.050978364478804e+17
19582.0	6.05004613427746e+17
19583.0	6.04909632295185e+17
19584.0	6.048129582017193e+17
19585.0	6.047076633455274e+17
19586.0	6.04606896799744e+17
19587.0	6.045162985750527e+17
19588.0	6.043900485566464e+17
19589.0	6.043289135000233e+17
19590.0	6.042251668313428e+17
19591.0	6.041501691805696e+17
19592.0	6.040553992312148e+17
19593.0	6.039544797331455e+17
19594.0	6.038349928901289e+17
19595.0	6.037578067214335e+17
19596.0	6.036144887518548e+17
19597.0	6.035705520892586e+17
19598.0	6.034396236742655e+17
19599.0	6.0337228873728e+17
19600.0	6.032769454964735e+17
19601.0	6.031765115589972e+17
19602.0	6.030929815055018e+17
19603.0	6.029473967243261e+17
19604.0	6.028926402254163e+17
19605.0	6.027770619144874e+17
19606.0	6.027023570960383e+17
19607.0	6.026021240657236e+17
19608.0	6.024991278279337e+17
19609.0	6.023944427536383e+17
19610.0	6.022927261280937e+17
19611.0	6.02188556603665e+17
19612.0	6.020931332516521e+17
19613.0	6.019897659577684e+17
19614.0	6.018844007071741e+17
19615.0	6.01784205775121e+17
19616.0	6.016576101460649e+17
19617.0	6.015717904220159e+17
19618.0	6.014274570114388e+17
19619.0	6.013251455636819e+17
19620.0	6.012289536753663e+17
19621.0	6.011743413906089e+17
19622.0	6.010804126788265e+17
19623.0	6.009760881049599e+17
19624.0	6.008698804983124e+17
19625.0	6.007677112374612e+17
19626.0	6.006619405374803e+17
19627.0	6.00551216783906e+17
19628.0	6.004026427921748e+17
19629.0	6.002850049381716e+17
19630.0	5.998628752938323e+17
19631.0	5.983168829412694e+17
19632.0	5.999670686558889e+17
19633.0	5.999103903268863e+17
19634.0	5.998229319581695e+17
19635.0	5.997176619881812e+17
19636.0	5.996093748456106e+17
19637.0	5.994729181981354e+17
19638.0	5.994099846239572e+17
19639.0	5.993058598387711e+17
19640.0	5.991923410709162e+17
19641.0	5.990198975048364e+17
19642.0	5.989902993500841e+17
19643.0	5.98884559757858e+17
19644.0	5.987750961829204e+17
19645.0	5.986642002531667e+17
19646.0	5.985731479251625e+17
19647.0	5.9847830156957e+17
19648.0	5.983731537936383e+17
19649.0	5.982674532783444e+17
19650.0	5.981620842528768e+17
19651.0	5.98055837569297e+17
19652.0	5.979505614476627e+17
19653.0	5.978438326987433e+17
19654.0	5.977384262041599e+17
19655.0	5.97632319959859e+17
19656.0	5.975269695291391e+17
19657.0	5.974216291647487e+17
19658.0	5.973154641302867e+17
19659.0	5.972095701876735e+17
19660.0	5.971036674370218e+17
19661.0	5.969975551808851e+17
19662.0	5.968912085330602e+17
19663.0	5.967797265891327e+17
19664.0	5.966715975019178e+17
19665.0	5.965727134296745e+17
