# Flux units: erg / (cm m2 s)
# Wavelength units: Angstrom
wave	flux
19000.0	6.877798297064787e+17
19001.0	6.876516075263315e+17
19002.0	6.875333466783743e+17
19003.0	6.874060280212138e+17
19004.0	6.8727879513757e+17
19005.0	6.871511696670719e+17
19006.0	6.870245678164649e+17
19007.0	6.868959260661076e+17
19008.0	6.867651530500778e+17
19009.0	6.866331353743359e+17
19010.0	6.864774937706493e+17
19011.0	6.863843058428585e+17
19012.0	6.862392264054099e+17
19013.0	6.861323954552831e+17
19014.0	6.860002576127316e+17
19015.0	6.858746492529321e+17
19016.0	6.857469527588864e+17
19017.0	6.85623587442961e+17
19018.0	6.854947653375316e+17
19019.0	6.853681826409129e+17
19020.0	6.852425699469994e+17
19021.0	6.851280300059305e+17
19022.0	6.850008499705172e+17
19023.0	6.848695810479444e+17
19024.0	6.847439998113107e+17
19025.0	6.846168690589695e+17
19026.0	6.844867358840148e+17
19027.0	6.843483258792617e+17
19028.0	6.842353511126358e+17
19029.0	6.841071886314153e+17
19030.0	6.839818552082431e+17
19031.0	6.838542651796138e+17
19032.0	6.83726208045329e+17
19033.0	6.835903914486441e+17
19034.0	6.834676351456595e+17
19035.0	6.83321195565329e+17
19036.0	6.821903285092347e+17
19037.0	6.830732517310461e+17
19038.0	6.829571636723711e+17
19039.0	6.828337076895743e+17
19040.0	6.82706860122658e+17
19041.0	6.825789209881257e+17
19042.0	6.824403453083647e+17
19043.0	6.823249884566868e+17
19044.0	6.821964403092137e+17
19045.0	6.820692930592767e+17
19046.0	6.819383568149161e+17
19047.0	6.818123664239273e+17
19048.0	6.816702017481386e+17
19049.0	6.815457452840276e+17
19050.0	6.814260265659049e+17
19051.0	6.811450286800893e+17
19052.0	6.81135858533444e+17
19053.0	6.810486541997398e+17
19054.0	6.809225990766591e+17
19055.0	6.807718953571668e+17
19056.0	6.806652265168895e+17
19057.0	6.805401771879082e+17
19058.0	6.804085422424061e+17
19059.0	6.802844522905599e+17
19060.0	6.801570624700413e+17
19061.0	6.800313813390676e+17
19062.0	6.799036013084672e+17
19063.0	6.797762188978857e+17
19064.0	6.796393437287764e+17
19065.0	6.795059343829674e+17
19066.0	6.793875721027583e+17
19067.0	6.79266490655266e+17
19068.0	6.791397485750953e+17
19069.0	6.790124966772735e+17
19070.0	6.78883110158336e+17
19071.0	6.78757247623714e+17
19072.0	6.786289486178985e+17
19073.0	6.785028534392148e+17
19074.0	6.783759330312191e+17
19075.0	6.782486099700394e+17
19076.0	6.781197833207808e+17
19077.0	6.779926306881535e+17
19078.0	6.778639536357375e+17
19079.0	6.777393424018089e+17
19080.0	6.776108744354474e+17
19081.0	6.774808025672361e+17
19082.0	6.773543264059391e+17
19083.0	6.772203355897855e+17
19084.0	6.770822427443199e+17
19085.0	6.769750900211711e+17
19086.0	6.768098339542355e+17
19087.0	6.766964863838889e+17
19088.0	6.765784249750868e+17
19089.0	6.764382476304383e+17
19090.0	6.763338730744489e+17
19091.0	6.762087093807785e+17
19092.0	6.760728022570324e+17
19093.0	6.759576344985599e+17
19094.0	6.758312051037523e+17
19095.0	6.757042475761663e+17
19096.0	6.755760204327594e+17
19097.0	6.754498898122068e+17
19098.0	6.753214581964799e+17
19099.0	6.751940810287785e+17
19100.0	6.750666531099988e+17
19101.0	6.749407995931305e+17
19102.0	6.748064888913919e+17
19103.0	6.746877426226516e+17
19104.0	6.745606195598675e+17
19105.0	6.744293072262484e+17
19106.0	6.74302307406097e+17
19107.0	6.741760456436393e+17
19108.0	6.740474231171753e+17
19109.0	6.738575527073107e+17
19110.0	6.737857849502378e+17
19111.0	6.736692174127101e+17
19112.0	6.7354311000064e+17
19113.0	6.734177669305684e+17
19114.0	6.732899018255017e+17
19115.0	6.731578996686847e+17
19116.0	6.730347971259049e+17
19117.0	6.72907485389346e+17
19118.0	6.727703686283264e+17
19119.0	6.722782079483898e+17
19120.0	6.725176014143487e+17
19121.0	6.723952804102143e+17
19122.0	6.72275728835106e+17
19123.0	6.721490454751913e+17
19124.0	6.720158579381588e+17
19125.0	6.718945078454953e+17
19126.0	6.717646684815359e+17
19127.0	6.714999123389097e+17
19128.0	6.71501887087138e+17
19129.0	6.713800424161279e+17
19130.0	6.712600159059967e+17
19131.0	6.711345921654783e+17
19132.0	6.710076559589375e+17
19133.0	6.70874515607825e+17
19134.0	6.707497730222761e+17
19135.0	6.706272806808233e+17
19136.0	6.705008798072831e+17
19137.0	6.703562608345087e+17
19138.0	6.702328346312703e+17
19139.0	6.701077453165908e+17
19140.0	6.699813209549481e+17
19141.0	6.698546742951935e+17
19142.0	6.697257599849812e+17
19143.0	6.695971179550036e+17
19144.0	6.694710839432532e+17
19145.0	6.693479989466452e+17
19146.0	6.691684861607936e+17
19147.0	6.690877486049961e+17
19148.0	6.689663367861587e+17
19149.0	6.688390256787455e+17
19150.0	6.68714330558737e+17
19151.0	6.685881306622633e+17
19152.0	6.684601374911145e+17
19153.0	6.683300396182185e+17
19154.0	6.681978665435136e+17
19155.0	6.68080619528738e+17
19156.0	6.679531484785321e+17
19157.0	6.678190124695551e+17
19158.0	6.676599428612095e+17
19159.0	6.675680678903808e+17
19160.0	6.674444068061183e+17
19161.0	6.673150546105684e+17
19162.0	6.6708891486563e+17
19163.0	6.670496456944297e+17
19164.0	6.669397882743466e+17
19165.0	6.668100181863081e+17
19166.0	6.666768853150376e+17
19167.0	6.665519918044499e+17
19168.0	6.664337441685504e+17
19169.0	6.663074782117887e+17
19170.0	6.661824220321108e+17
19171.0	6.660516653738666e+17
19172.0	6.6592844035741e+17
19173.0	6.658033809620991e+17
19174.0	6.656730348563114e+17
19175.0	6.65550997037602e+17
19176.0	6.654245600231423e+17
19177.0	6.652842786597545e+17
19178.0	6.651669795657044e+17
19179.0	6.650373159430825e+17
19180.0	6.649164494536703e+17
19181.0	6.647820628350292e+17
19182.0	6.646639095010644e+17
19183.0	6.645389823661396e+17
19184.0	6.644120226015914e+17
19185.0	6.642855100896596e+17
19186.0	6.641591752065023e+17
19187.0	6.64026337054993e+17
19188.0	6.639057250200233e+17
19189.0	6.637790603946666e+17
19190.0	6.636515334903123e+17
19191.0	6.635218872041472e+17
19192.0	6.633986902895274e+17
19193.0	6.6327085069981e+17
19194.0	6.631418431362388e+17
19195.0	6.630150472291667e+17
19196.0	6.628830115179177e+17
19197.0	6.627476097378986e+17
19198.0	6.625815324961449e+17
19199.0	6.618076325172563e+17
19200.0	6.618173955287722e+17
19201.0	6.622078864195583e+17
19202.0	6.621162569553236e+17
19203.0	6.619964634387795e+17
19204.0	6.618737653667156e+17
19205.0	6.617497147015168e+17
19206.0	6.616242758615037e+17
19207.0	6.614889002958847e+17
19208.0	6.613554257985533e+17
19209.0	6.612452668080128e+17
19210.0	6.61119152685056e+17
19211.0	6.609932320593236e+17
19212.0	6.608660195879593e+17
19213.0	6.607272249655296e+17
19214.0	6.60597761900544e+17
19215.0	6.60482310607121e+17
19216.0	6.603556131263827e+17
19217.0	6.602123691163647e+17
19218.0	6.60023078429218e+17
19219.0	6.599439928699561e+17
19220.0	6.598305310048255e+17
19221.0	6.596825471516672e+17
19222.0	6.595769645662207e+17
19223.0	6.594506538003114e+17
19224.0	6.593211341821267e+17
19225.0	6.591811243999231e+17
19226.0	6.590590066797226e+17
19227.0	6.589318783740585e+17
19228.0	6.588072538581673e+17
19229.0	6.586799157673983e+17
19230.0	6.585524280098815e+17
19231.0	6.584241399791615e+17
19232.0	6.582972724893012e+17
19233.0	6.581644121079807e+17
19234.0	6.580414425246378e+17
19235.0	6.579129441495721e+17
19236.0	6.57788065948194e+17
19237.0	6.576592828497919e+17
19238.0	6.575242905736531e+17
19239.0	6.57405364019746e+17
19240.0	6.572769325438292e+17
19241.0	6.57147739312401e+17
19242.0	6.570207192197801e+17
19243.0	6.568795852941993e+17
19244.0	6.567665249637716e+17
19245.0	6.566379581516458e+17
19246.0	6.565091382132733e+17
19247.0	6.563822329047722e+17
19248.0	6.562542432288767e+17
19249.0	6.561258452374868e+17
19250.0	6.559774041352874e+17
19251.0	6.558360741259945e+17
19252.0	6.556904883661481e+17
19253.0	6.555864375405225e+17
19254.0	6.554599244693503e+17
19255.0	6.553139645076819e+17
19256.0	6.552006607678121e+17
19257.0	6.550739507740671e+17
19258.0	6.549450060551508e+17
19259.0	6.548090799172266e+17
19260.0	6.546658468123988e+17
19261.0	6.545564348973053e+17
19262.0	6.544231104162474e+17
19263.0	6.542921312501759e+17
19264.0	6.541259136390482e+17
19265.0	6.540233557759316e+17
19266.0	6.538935535315626e+17
19267.0	6.537809393352703e+17
19268.0	6.536511858147327e+17
19269.0	6.535211415590228e+17
19270.0	6.533894806088361e+17
19271.0	6.532184526902612e+17
19272.0	6.531113962962943e+17
19273.0	6.529415700458153e+17
19274.0	6.528077005149524e+17
19275.0	6.527231300643497e+17
19276.0	6.525909186117632e+17
19277.0	6.524604291306835e+17
19278.0	6.523296359819945e+17
19279.0	6.521964984270847e+17
19280.0	6.520608645622441e+17
19281.0	6.519341201752063e+17
19282.0	6.518031982613844e+17
19283.0	6.516647135980202e+17
19284.0	6.515327461141161e+17
19285.0	6.513943818971817e+17
19286.0	6.51270156329506e+17
19287.0	6.511379847927124e+17
19288.0	6.507111675942226e+17
19289.0	6.502028048771743e+17
19290.0	6.507382201559721e+17
19291.0	6.505866453494442e+17
19292.0	6.504588233058985e+17
19293.0	6.503247218300244e+17
19294.0	6.501903563227135e+17
19295.0	6.500572980401492e+17
19296.0	6.499210191612585e+17
19297.0	6.497861814452223e+17
19298.0	6.496506686559572e+17
19299.0	6.495157798393171e+17
19300.0	6.493818557125972e+17
19301.0	6.49245975712017e+17
19302.0	6.491089444448938e+17
19303.0	6.489672088464041e+17
19304.0	6.488343696463187e+17
19305.0	6.486980393872041e+17
19306.0	6.485610577526783e+17
19307.0	6.484190958015828e+17
19308.0	6.482817149392212e+17
19309.0	6.48122463298082e+17
19310.0	6.479731414619475e+17
19311.0	6.478610277160276e+17
19312.0	6.477280888313172e+17
19313.0	6.475872369027753e+17
19314.0	6.46420200196232e+17
19315.0	6.463688049426447e+17
19316.0	6.471589795900073e+17
19317.0	6.470250372879699e+17
19318.0	6.468544336232447e+17
19319.0	6.467140718690303e+17
19320.0	6.465704061217449e+17
19321.0	6.464257316443476e+17
19322.0	6.462712777976489e+17
19323.0	6.461180750419284e+17
19324.0	6.459783664107519e+17
19325.0	6.458192215845545e+17
19326.0	6.456878589192874e+17
19327.0	6.455429587184297e+17
19328.0	6.453941507544403e+17
19329.0	6.452498910238036e+17
19330.0	6.450985555023188e+17
19331.0	6.449479044912467e+17
19332.0	6.448018593852074e+17
19333.0	6.446057290465279e+17
19334.0	6.44453709783586e+17
19335.0	6.4429510637213e+17
19336.0	6.441481964705108e+17
19337.0	6.439939440203092e+17
19338.0	6.438211893067775e+17
19339.0	6.436832156494506e+17
19340.0	6.435181568546131e+17
19341.0	6.433625813811197e+17
19342.0	6.431670350293673e+17
19343.0	6.429855485438633e+17
19344.0	6.428212022913706e+17
19345.0	6.425063258237608e+17
19346.0	6.424227724219732e+17
19347.0	6.423275801062057e+17
19348.0	6.421719839408128e+17
19349.0	6.420024566743039e+17
19350.0	6.417743712616447e+17
19351.0	6.415796664270847e+17
19352.0	6.414032886737577e+17
19353.0	6.412415462451882e+17
19354.0	6.410689483287209e+17
19355.0	6.408861407772671e+17
19356.0	6.40680910197009e+17
19357.0	6.404289879954772e+17
19358.0	6.402494162796543e+17
19359.0	6.400646471221247e+17
19360.0	6.398517702557695e+17
19361.0	6.396596563826004e+17
19362.0	6.393420816493225e+17
19363.0	6.391529109192703e+17
19364.0	6.38961528742434e+17
19365.0	6.387679579777705e+17
19366.0	6.384131961257981e+17
19367.0	6.382003941277695e+17
19368.0	6.379999662353065e+17
19369.0	6.377631452058964e+17
19370.0	6.374826386827946e+17
19371.0	6.372742162371924e+17
19372.0	6.370686283022335e+17
19373.0	6.368540256195924e+17
19374.0	6.365960541831168e+17
19375.0	6.36360165757201e+17
19376.0	6.361382575057578e+17
19377.0	6.359119837528063e+17
19378.0	6.356835520304468e+17
19379.0	6.354517504644435e+17
19380.0	6.352154749042687e+17
19381.0	6.349745568787112e+17
19382.0	6.346753130714452e+17
19383.0	6.343711667519487e+17
19384.0	6.341247797734057e+17
19385.0	6.338664667807743e+17
19386.0	6.336024159103657e+17
19387.0	6.33332196057634e+17
19388.0	6.330257321754623e+17
19389.0	6.326230438991188e+17
19390.0	6.323301908130474e+17
19391.0	6.311738959287625e+17
19392.0	6.317039225754963e+17
19393.0	6.312494259066196e+17
19394.0	6.309017706736298e+17
19395.0	6.305739921773908e+17
19396.0	6.301487126806525e+17
19397.0	6.295992793388372e+17
19398.0	6.292312560762879e+17
19399.0	6.286736655821481e+17
19400.0	6.281068372033536e+17
19401.0	6.277144545416532e+17
19402.0	6.269255593667238e+17
19403.0	6.264130373681151e+17
19404.0	6.256439647535105e+17
19405.0	6.249715043663871e+17
19406.0	6.241062356691625e+17
19407.0	6.233676555048275e+17
19408.0	6.221667636346884e+17
19409.0	6.215057498527058e+17
19410.0	6.206716462323028e+17
19411.0	6.201365121815892e+17
19412.0	6.195739525556906e+17
19413.0	6.189239595870889e+17
19414.0	6.183089362086569e+17
19415.0	6.176950185186644e+17
19416.0	6.170032525890899e+17
19417.0	6.162527800350035e+17
19418.0	6.155871646121983e+17
19419.0	6.147390620827647e+17
19420.0	6.139384304762879e+17
19421.0	6.12975657073596e+17
19422.0	6.120570478045865e+17
19423.0	6.108348069969919e+17
19424.0	6.096794354188289e+17
19425.0	6.083527436490062e+17
19426.0	6.067510632426153e+17
19427.0	6.049669914296323e+17
19428.0	6.030242565062646e+17
19429.0	6.008279878598659e+17
19430.0	5.983320744307382e+17
19431.0	5.960674662416387e+17
19432.0	5.945806304925011e+17
19433.0	5.9288512364544e+17
19434.0	5.910689289863168e+17
19435.0	5.891083712069631e+17
19436.0	5.869673857941504e+17
19437.0	5.847067737980927e+17
19438.0	5.810855362953213e+17
19439.0	5.794417861809494e+17
19440.0	5.762820172589739e+17
19441.0	5.725943282794493e+17
19442.0	5.683123107572397e+17
19443.0	5.6343564746315066e+17
19444.0	5.577075503136766e+17
19445.0	5.50850394901709e+17
19446.0	5.428097539812012e+17
19447.0	5.3267682813105434e+17
19448.0	5.19633483892873e+17
19449.0	5.011890602945195e+17
19450.0	4.7059151146188736e+17
19451.0	4.511916869287957e+17
19452.0	4.882549712442711e+17
19453.0	5.11267083404357e+17
19454.0	5.2628580830194285e+17
19455.0	5.3741134897916563e+17
19456.0	5.462356749101742e+17
19457.0	5.533343791011156e+17
19458.0	5.5734449758099104e+17
19459.0	5.643731876533594e+17
19460.0	5.687971668470442e+17
19461.0	5.725645692032341e+17
19462.0	5.757564784476158e+17
19463.0	5.785006360930984e+17
19464.0	5.808933175645524e+17
19465.0	5.830166941007871e+17
19466.0	5.850030706174633e+17
19467.0	5.867891050151935e+17
19468.0	5.884500218565974e+17
19469.0	5.899530038586025e+17
19470.0	5.913985253638144e+17
19471.0	5.930377243088211e+17
19472.0	5.951324722735796e+17
19473.0	5.972694703013884e+17
19474.0	5.991223109440852e+17
19475.0	6.006745624565075e+17
19476.0	6.021050441662459e+17
19477.0	6.032980838099625e+17
19478.0	6.044500087887187e+17
19479.0	6.053353163325437e+17
19480.0	6.060880868059818e+17
19481.0	6.068994775012691e+17
19482.0	6.074593562678612e+17
19483.0	6.081194291975508e+17
19484.0	6.086095882158079e+17
19485.0	6.090713750044671e+17
19486.0	6.095912287862783e+17
19487.0	6.09986647494929e+17
19488.0	6.103603227918335e+17
19489.0	6.107587952334164e+17
19490.0	6.110368050271571e+17
19491.0	6.114487867626836e+17
19492.0	6.118721726010711e+17
19493.0	6.124299046529706e+17
19494.0	6.131958200751442e+17
19495.0	6.137035525980159e+17
19496.0	6.14464794586863e+17
19497.0	6.147800121212928e+17
19498.0	6.15340709685931e+17
19499.0	6.143525499087523e+17
19500.0	6.16208297833267e+17
19501.0	6.165244704806228e+17
19502.0	6.167314057658368e+17
19503.0	6.1717433824925e+17
19504.0	6.173019337304746e+17
19505.0	6.174760787858771e+17
19506.0	6.178126926533972e+17
19507.0	6.179055593674067e+17
19508.0	6.179926215142057e+17
19509.0	6.181983805068628e+17
19510.0	6.18317383676723e+17
19511.0	6.165313668950683e+17
19512.0	6.1821339345879e+17
19513.0	6.181163831219535e+17
19514.0	6.183860974911483e+17
19515.0	6.186797758065321e+17
19516.0	6.18754068324898e+17
19517.0	6.187773125285203e+17
19518.0	6.188022355023188e+17
19519.0	6.188169388447059e+17
19520.0	6.189078582831785e+17
19521.0	6.1893136351232e+17
19522.0	6.189307328288084e+17
19523.0	6.189310996206931e+17
19524.0	6.189238287947092e+17
19525.0	6.189156132017492e+17
19526.0	6.189038421671935e+17
19527.0	6.188878442528768e+17
19528.0	6.188929673854975e+17
19529.0	6.189034376265727e+17
19530.0	6.188792099285674e+17
19531.0	6.188521036797267e+17
19532.0	6.188337797442217e+17
19533.0	6.18888453755153e+17
19534.0	6.188535454018218e+17
19535.0	6.188154397305514e+17
19536.0	6.188473702678527e+17
19537.0	6.188971421160788e+17
19538.0	6.188400486208852e+17
19539.0	6.187647619126614e+17
19540.0	6.187855541261652e+17
19541.0	6.188394422643369e+17
19542.0	6.18786753487394e+17
19543.0	6.18746265940787e+17
19544.0	6.187030123905023e+17
19545.0	6.186046247141375e+17
19546.0	6.185976770592765e+17
19547.0	6.186278656322217e+17
19548.0	6.185659817525248e+17
19549.0	6.184932155413843e+17
19550.0	6.184362225696767e+17
19551.0	6.18369551311394e+17
19552.0	6.183264732228266e+17
19553.0	6.183094697241258e+17
19554.0	6.182379965470036e+17
19555.0	6.181681763450879e+17
19556.0	6.180967449012905e+17
19557.0	6.180225073283071e+17
19558.0	6.17947624251938e+17
19559.0	6.178717755768831e+17
19560.0	6.178227102591657e+17
19561.0	6.177716824266068e+17
19562.0	6.176942757773312e+17
19563.0	6.1761525397149e+17
19564.0	6.175344003033769e+17
19565.0	6.174526761773738e+17
19566.0	6.1736759080605e+17
19567.0	6.172865051230207e+17
19568.0	6.171999999098879e+17
19569.0	6.171156077172052e+17
19570.0	6.170408309664425e+17
19571.0	6.169851345939114e+17
19572.0	6.168953441222655e+17
19573.0	6.168091102106963e+17
19574.0	6.16713518387473e+17
19575.0	6.166329770551977e+17
19576.0	6.165433059814058e+17
19577.0	6.16451297841425e+17
19578.0	6.163592319598591e+17
19579.0	6.162685684438356e+17
19580.0	6.161770511073279e+17
19581.0	6.160860434486612e+17
19582.0	6.15994651591748e+17
19583.0	6.159014632445267e+17
19584.0	6.158076216344576e+17
19585.0	6.157035696204457e+17
19586.0	6.156145087479808e+17
19587.0	6.155547096470868e+17
19588.0	6.15429031661841e+17
19589.0	6.153673024820566e+17
19590.0	6.152656814866432e+17
19591.0	6.151769032403624e+17
19592.0	6.150806733935955e+17
19593.0	6.149817369624573e+17
19594.0	6.148645018315433e+17
19595.0	6.147857090347007e+17
19596.0	6.146674454604457e+17
19597.0	6.145896866993492e+17
19598.0	6.144617613361151e+17
19599.0	6.14392429351185e+17
19600.0	6.142939500991827e+17
19601.0	6.141883862482943e+17
19602.0	6.14087867446067e+17
19603.0	6.139533659734015e+17
19604.0	6.1389848182784e+17
19605.0	6.137793933737983e+17
19606.0	6.137034869571583e+17
19607.0	6.136032136615252e+17
19608.0	6.135002916629161e+17
19609.0	6.133957185765375e+17
19610.0	6.132969784388266e+17
19611.0	6.131940730776233e+17
19612.0	6.130940999543465e+17
19613.0	6.129906707944788e+17
19614.0	6.128853098779988e+17
19615.0	6.127856058193236e+17
19616.0	6.126843561596243e+17
19617.0	6.125919724197204e+17
19618.0	6.124429469111635e+17
19619.0	6.123269021936297e+17
19620.0	6.122299379242324e+17
19621.0	6.121770882957312e+17
19622.0	6.120763925637801e+17
19623.0	6.119723432760662e+17
19624.0	6.118670749138941e+17
19625.0	6.117632224089427e+17
19626.0	6.116580408688637e+17
19627.0	6.115510115281578e+17
19628.0	6.114288688518484e+17
19629.0	6.113177776772435e+17
19630.0	6.110991084770644e+17
19631.0	6.10406107324962e+17
19632.0	6.110039932665855e+17
19633.0	6.109132938193578e+17
19634.0	6.108156996354047e+17
19635.0	6.107163686600703e+17
19636.0	6.106161430396927e+17
19637.0	6.104788944377172e+17
19638.0	6.104073946267647e+17
19639.0	6.103013327022761e+17
19640.0	6.101874861495635e+17
19641.0	6.100195374093654e+17
19642.0	6.099830935213398e+17
19643.0	6.098767419102548e+17
19644.0	6.097650753470463e+17
19645.0	6.096432222874281e+17
19646.0	6.095554339667967e+17
19647.0	6.094519821576873e+17
19648.0	6.093454246761812e+17
19649.0	6.092384967677268e+17
19650.0	6.091318822436863e+17
19651.0	6.090244139690666e+17
19652.0	6.089178520835411e+17
19653.0	6.088108933469524e+17
19654.0	6.087031691498836e+17
19655.0	6.08595767075362e+17
19656.0	6.084890711818239e+17
19657.0	6.083823689968297e+17
19658.0	6.082750631815849e+17
19659.0	6.081820818931712e+17
19660.0	6.080794992137556e+17
19661.0	6.079720186358442e+17
19662.0	6.078643599398227e+17
19663.0	6.077527749558271e+17
19664.0	6.07646158754065e+17
19665.0	6.075416125112319e+17
