# Flux units: erg / (cm m2 s)
# Wavelength units: Angstrom
wave	flux
19000.0	6.700604917284863e+17
19001.0	6.699311148564479e+17
19002.0	6.69809934143761e+17
19003.0	6.696845429790036e+17
19004.0	6.695591719469056e+17
19005.0	6.694339733007017e+17
19006.0	6.693086454699348e+17
19007.0	6.691806636933119e+17
19008.0	6.690554070259028e+17
19009.0	6.689295497341609e+17
19010.0	6.68788182884898e+17
19011.0	6.686805074815658e+17
19012.0	6.685491627819007e+17
19013.0	6.684312831262719e+17
19014.0	6.683030009675775e+17
19015.0	6.681786044121087e+17
19016.0	6.68052758654703e+17
19017.0	6.679284339616425e+17
19018.0	6.678035308740605e+17
19019.0	6.676785186646698e+17
19020.0	6.67551862427921e+17
19021.0	6.674279031286441e+17
19022.0	6.673032437301247e+17
19023.0	6.671761034706943e+17
19024.0	6.670514131042304e+17
19025.0	6.66926687785233e+17
19026.0	6.668001660458326e+17
19027.0	6.666719005245439e+17
19028.0	6.665513532915711e+17
19029.0	6.664253662560255e+17
19030.0	6.663007627116543e+17
19031.0	6.661754815774719e+17
19032.0	6.660501994646185e+17
19033.0	6.659212089578835e+17
19034.0	6.657996400623615e+17
19035.0	6.656728108804778e+17
19036.0	6.652213480215891e+17
19037.0	6.654238369251327e+17
19038.0	6.652976373082793e+17
19039.0	6.651734494893396e+17
19040.0	6.650482346950655e+17
19041.0	6.64923004871202e+17
19042.0	6.647944659511978e+17
19043.0	6.646726511995561e+17
19044.0	6.645473695061331e+17
19045.0	6.644222937530368e+17
19046.0	6.642950549274623e+17
19047.0	6.64171485209122e+17
19048.0	6.64038377853201e+17
19049.0	6.639190702467753e+17
19050.0	6.637948431411882e+17
19051.0	6.63620701930564e+17
19052.0	6.635389957701631e+17
19053.0	6.634206189497002e+17
19054.0	6.632961939428691e+17
19055.0	6.631606139748352e+17
19056.0	6.630451960261289e+17
19057.0	6.629206779057491e+17
19058.0	6.627955593707519e+17
19059.0	6.626709938547369e+17
19060.0	6.625450213594452e+17
19061.0	6.624210336787114e+17
19062.0	6.622958543962111e+17
19063.0	6.621709796201812e+17
19064.0	6.620413274619904e+17
19065.0	6.619138301274793e+17
19066.0	6.617937244149075e+17
19067.0	6.616712724785833e+17
19068.0	6.615464166468265e+17
19069.0	6.614215656385193e+17
19070.0	6.612956803148458e+17
19071.0	6.611718523671891e+17
19072.0	6.610470066716672e+17
19073.0	6.609219541969578e+17
19074.0	6.607973645636948e+17
19075.0	6.606725631180799e+17
19076.0	6.605468887678975e+17
19077.0	6.604224916531882e+17
19078.0	6.602970109400403e+17
19079.0	6.601734975651839e+17
19080.0	6.600484824197801e+17
19081.0	6.599224163915091e+17
19082.0	6.597974349403476e+17
19083.0	6.596700103071059e+17
19084.0	6.595401617855827e+17
19085.0	6.594253287325695e+17
19086.0	6.592850924579497e+17
19087.0	6.591661607310676e+17
19088.0	6.590483346227199e+17
19089.0	6.589142291622569e+17
19090.0	6.588010054636884e+17
19091.0	6.586765466927104e+17
19092.0	6.585489781249366e+17
19093.0	6.584286292126377e+17
19094.0	6.583034061695658e+17
19095.0	6.581787287355391e+17
19096.0	6.580543142843732e+17
19097.0	6.579305291885225e+17
19098.0	6.578062019788799e+17
19099.0	6.576817451652435e+17
19100.0	6.575571327429289e+17
19101.0	6.574328708246185e+17
19102.0	6.573046293506728e+17
19103.0	6.571841781672617e+17
19104.0	6.570598104825855e+17
19105.0	6.569354560099668e+17
19106.0	6.568093311216297e+17
19107.0	6.566861860765695e+17
19108.0	6.565624685090132e+17
19109.0	6.564089162279594e+17
19110.0	6.563133816569855e+17
19111.0	6.561897016284499e+17
19112.0	6.560654773889706e+17
19113.0	6.559412594409471e+17
19114.0	6.558170515592532e+17
19115.0	6.556908009816063e+17
19116.0	6.555677332515497e+17
19117.0	6.55443652387362e+17
19118.0	6.55315631743522e+17
19119.0	6.550505848657234e+17
19120.0	6.55069462798882e+17
19121.0	6.549460562389674e+17
19122.0	6.548239629156351e+17
19123.0	6.546997864912212e+17
19124.0	6.54574159536674e+17
19125.0	6.544515264064169e+17
19126.0	6.543273831170047e+17
19127.0	6.541330981322751e+17
19128.0	6.540650763780095e+17
19129.0	6.539523217424383e+17
19130.0	6.538314829354323e+17
19131.0	6.537077910230356e+17
19132.0	6.535837614691668e+17
19133.0	6.534472519734612e+17
19134.0	6.533289291896148e+17
19135.0	6.532121606051156e+17
19136.0	6.530883948030633e+17
19137.0	6.529578842805588e+17
19138.0	6.528392459452413e+17
19139.0	6.527167977837908e+17
19140.0	6.525930545610751e+17
19141.0	6.524692515695274e+17
19142.0	6.523444451606527e+17
19143.0	6.5221952550557e+17
19144.0	6.520968892295849e+17
19145.0	6.519741836077738e+17
19146.0	6.518267139063808e+17
19147.0	6.517229276714323e+17
19148.0	6.516028443983871e+17
19149.0	6.51479203586594e+17
19150.0	6.513552320539305e+17
19151.0	6.512319852270931e+17
19152.0	6.511079864314537e+17
19153.0	6.50983839576883e+17
19154.0	6.50855792648738e+17
19155.0	6.507374344230228e+17
19156.0	6.506136940664148e+17
19157.0	6.504897761509376e+17
19158.0	6.503463441661951e+17
19159.0	6.502422067281917e+17
19160.0	6.501188905555284e+17
19161.0	6.499944124208468e+17
19162.0	6.498268317308244e+17
19163.0	6.49748078010914e+17
19164.0	6.496253895857492e+17
19165.0	6.495009812862292e+17
19166.0	6.493729260393812e+17
19167.0	6.492506358633812e+17
19168.0	6.491289416979795e+17
19169.0	6.490057604420948e+17
19170.0	6.488844635471872e+17
19171.0	6.487583549467306e+17
19172.0	6.486376187603625e+17
19173.0	6.485141499849385e+17
19174.0	6.483885129640616e+17
19175.0	6.482674605970772e+17
19176.0	6.481440608878591e+17
19177.0	6.480144823397033e+17
19178.0	6.478962848257364e+17
19179.0	6.477701149884415e+17
19180.0	6.476487329491625e+17
19181.0	6.475226829990569e+17
19182.0	6.474023708568233e+17
19183.0	6.472802402740905e+17
19184.0	6.471548863687338e+17
19185.0	6.470334270843561e+17
19186.0	6.469103343282857e+17
19187.0	6.467844983575891e+17
19188.0	6.466636225708031e+17
19189.0	6.465398759926442e+17
19190.0	6.464162605563903e+17
19191.0	6.462926716141568e+17
19192.0	6.461704409972735e+17
19193.0	6.460463379731796e+17
19194.0	6.459230617862141e+17
19195.0	6.458005739186857e+17
19196.0	6.456767928773289e+17
19197.0	6.455534263730175e+17
19198.0	6.454299585762644e+17
19199.0	6.450381180982611e+17
19200.0	6.450029268391254e+17
19201.0	6.450602164180308e+17
19202.0	6.449374484409002e+17
19203.0	6.44813637619985e+17
19204.0	6.446899700345514e+17
19205.0	6.445677321475412e+17
19206.0	6.444438749096617e+17
19207.0	6.443171781279743e+17
19208.0	6.44189470728738e+17
19209.0	6.440746009755647e+17
19210.0	6.43951276134673e+17
19211.0	6.438279139644756e+17
19212.0	6.437046480535551e+17
19213.0	6.435764074883753e+17
19214.0	6.434512068149247e+17
19215.0	6.433335975520937e+17
19216.0	6.432109171660116e+17
19217.0	6.430879201798825e+17
19218.0	6.429310224520531e+17
19219.0	6.428347343044607e+17
19220.0	6.427167937615188e+17
19221.0	6.425811391348735e+17
19222.0	6.424708076186282e+17
19223.0	6.423474217506134e+17
19224.0	6.422223806704298e+17
19225.0	6.420945843519487e+17
19226.0	6.419764810700116e+17
19227.0	6.418528455710036e+17
19228.0	6.417302754252116e+17
19229.0	6.416067364651008e+17
19230.0	6.414830415467859e+17
19231.0	6.413590788221609e+17
19232.0	6.412352795355817e+17
19233.0	6.411095372376746e+17
19234.0	6.409878690769577e+17
19235.0	6.408643040422569e+17
19236.0	6.407415618600959e+17
19237.0	6.406172166149459e+17
19238.0	6.40490144862481e+17
19239.0	6.40370505416704e+17
19240.0	6.402419893556564e+17
19241.0	6.401205302110889e+17
19242.0	6.399983808238931e+17
19243.0	6.398681817284607e+17
19244.0	6.397513616938323e+17
19245.0	6.396275049452884e+17
19246.0	6.395028940608852e+17
19247.0	6.393794967983444e+17
19248.0	6.392555528781823e+17
19249.0	6.391313780615849e+17
19250.0	6.390065312475817e+17
19251.0	6.388781766672383e+17
19252.0	6.387472035829075e+17
19253.0	6.386338337827497e+17
19254.0	6.385098052075519e+17
19255.0	6.383785364247892e+17
19256.0	6.382602978765482e+17
19257.0	6.381374328012799e+17
19258.0	6.380129023776084e+17
19259.0	6.378854202824019e+17
19260.0	6.377581667068585e+17
19261.0	6.376391673118719e+17
19262.0	6.37512440680721e+17
19263.0	6.373873447250602e+17
19264.0	6.372432999525033e+17
19265.0	6.371321780196691e+17
19266.0	6.370079326688596e+17
19267.0	6.368900022621524e+17
19268.0	6.367648921856682e+17
19269.0	6.366397154197503e+17
19270.0	6.365144008709459e+17
19271.0	6.363756446263977e+17
19272.0	6.36262214148642e+17
19273.0	6.360033782661117e+17
19274.0	6.359366631074472e+17
19275.0	6.358868904203604e+17
19276.0	6.357603193978879e+17
19277.0	6.356346253344768e+17
19278.0	6.355093389574143e+17
19279.0	6.353830881001471e+17
19280.0	6.352538978746367e+17
19281.0	6.3513002784413e+17
19282.0	6.350043838327466e+17
19283.0	6.348737480403626e+17
19284.0	6.347457563372202e+17
19285.0	6.346159927503529e+17
19286.0	6.344961802196308e+17
19287.0	6.343722419617791e+17
19288.0	6.341564364925608e+17
19289.0	6.339054582191442e+17
19290.0	6.339916283073876e+17
19291.0	6.338533012100435e+17
19292.0	6.337363713545556e+17
19293.0	6.336081621767508e+17
19294.0	6.334804879824212e+17
19295.0	6.333522986576553e+17
19296.0	6.332239403024383e+17
19297.0	6.330953076397395e+17
19298.0	6.329659306977961e+17
19299.0	6.328377885589501e+17
19300.0	6.327086202836307e+17
19301.0	6.325790833289897e+17
19302.0	6.324492219449343e+17
19303.0	6.323167558980948e+17
19304.0	6.321882585017001e+17
19305.0	6.320592084358484e+17
19306.0	6.319296577798143e+17
19307.0	6.317965853065215e+17
19308.0	6.316666467472724e+17
19309.0	6.315275725744809e+17
19310.0	6.313924058152959e+17
19311.0	6.312716766194346e+17
19312.0	6.311414181746004e+17
19313.0	6.310088248306345e+17
19314.0	6.306559688004948e+17
19315.0	6.305366342107137e+17
19316.0	6.306109717479423e+17
19317.0	6.304783258353663e+17
19318.0	6.303437799030783e+17
19319.0	6.302104494800895e+17
19320.0	6.300757250102611e+17
19321.0	6.299411825732265e+17
19322.0	6.298014941446144e+17
19323.0	6.296661105399124e+17
19324.0	6.295342925130409e+17
19325.0	6.293893983240191e+17
19326.0	6.292610227022505e+17
19327.0	6.29123179487778e+17
19328.0	6.289861233344511e+17
19329.0	6.288154778664959e+17
19330.0	6.286311881179133e+17
19331.0	6.28491741490927e+17
19332.0	6.283536386490368e+17
19333.0	6.282134696929962e+17
19334.0	6.280722369915561e+17
19335.0	6.279311385777492e+17
19336.0	6.277889513226239e+17
19337.0	6.276460773900287e+17
19338.0	6.274943682958676e+17
19339.0	6.273590423628457e+17
19340.0	6.272116167715497e+17
19341.0	6.270680676958207e+17
19342.0	6.269070592005459e+17
19343.0	6.267758180302847e+17
19344.0	6.266282172568916e+17
19345.0	6.264009335155369e+17
19346.0	6.262969015642793e+17
19347.0	6.261770727456767e+17
19348.0	6.260288669439316e+17
19349.0	6.258756707592874e+17
19350.0	6.257224726173012e+17
19351.0	6.255683693445119e+17
19352.0	6.254111970994858e+17
19353.0	6.252580211174056e+17
19354.0	6.251007359756969e+17
19355.0	6.249387944574976e+17
19356.0	6.247824242333012e+17
19357.0	6.246214312569513e+17
19358.0	6.244579239351636e+17
19359.0	6.242882866380799e+17
19360.0	6.241286886173353e+17
19361.0	6.239622417874941e+17
19362.0	6.237958819894611e+17
19363.0	6.235765225466538e+17
19364.0	6.233478270724778e+17
19365.0	6.231746374096212e+17
19366.0	6.229995384995839e+17
19367.0	6.228226100341418e+17
19368.0	6.226437482042707e+17
19369.0	6.224592840425471e+17
19370.0	6.222644108765866e+17
19371.0	6.220923228476756e+17
19372.0	6.219069518774271e+17
19373.0	6.217162710581247e+17
19374.0	6.21524812964386e+17
19375.0	6.213298645805738e+17
19376.0	6.211324233820842e+17
19377.0	6.208459696854358e+17
19378.0	6.205861976342527e+17
19379.0	6.203791883894783e+17
19380.0	6.201689105935018e+17
19381.0	6.199552245060948e+17
19382.0	6.19734693244655e+17
19383.0	6.195075863631188e+17
19384.0	6.192670008759636e+17
19385.0	6.189405888839679e+17
19386.0	6.186220514181119e+17
19387.0	6.183830140485631e+17
19388.0	6.181391776961875e+17
19389.0	6.178903420130644e+17
19390.0	6.176195707491666e+17
19391.0	6.16866865846681e+17
19392.0	6.168803376715091e+17
19393.0	6.166107879287465e+17
19394.0	6.163236388164948e+17
19395.0	6.157698813569706e+17
19396.0	6.154728893317119e+17
19397.0	6.151687544766463e+17
19398.0	6.145707520731818e+17
19399.0	6.141777741698388e+17
19400.0	6.137450698462546e+17
19401.0	6.131441826704041e+17
19402.0	6.126854614286333e+17
19403.0	6.119713333575679e+17
19404.0	6.113704106000387e+17
19405.0	6.106750323261437e+17
19406.0	6.100076869626538e+17
19407.0	6.095263187861501e+17
19408.0	6.09038426369775e+17
19409.0	6.085665206829056e+17
19410.0	6.08036411548194e+17
19411.0	6.075226484550314e+17
19412.0	6.06988653437474e+17
19413.0	6.064331329721683e+17
19414.0	6.058538737947988e+17
19415.0	6.052529628512255e+17
19416.0	6.045694201342634e+17
19417.0	6.038691469677907e+17
19418.0	6.031920744540842e+17
19419.0	6.024856291595604e+17
19420.0	6.016204758056957e+17
19421.0	6.00813036773922e+17
19422.0	5.999027620063913e+17
19423.0	5.989281336131581e+17
19424.0	5.978396394433193e+17
19425.0	5.966828892673363e+17
19426.0	5.953634000961535e+17
19427.0	5.938418011166039e+17
19428.0	5.920845473338705e+17
19429.0	5.898424389293388e+17
19430.0	5.871110616776707e+17
19431.0	5.843486107850065e+17
19432.0	5.825293173041833e+17
19433.0	5.806195545036118e+17
19434.0	5.785575960696147e+17
19435.0	5.7630928680605e+17
19436.0	5.739697539470677e+17
19437.0	5.714258017561256e+17
19438.0	5.682745168625664e+17
19439.0	5.6552117327189344e+17
19440.0	5.619100239091032e+17
19441.0	5.572692408620373e+17
19442.0	5.506492190250319e+17
19443.0	5.4444259492058445e+17
19444.0	5.38537201535112e+17
19445.0	5.317242504522415e+17
19446.0	5.228613264386726e+17
19447.0	5.104895452162715e+17
19448.0	4.969813691946333e+17
19449.0	4.7649747583194445e+17
19450.0	4.4075768834512064e+17
19451.0	4.305787279813277e+17
19452.0	4.5977803329372224e+17
19453.0	4.88001267651926e+17
19454.0	5.0389880584273875e+17
19455.0	5.163190383367503e+17
19456.0	5.268933012269742e+17
19457.0	5.342602918363132e+17
19458.0	5.3999747349872685e+17
19459.0	5.458096902111236e+17
19460.0	5.5259844736013536e+17
19461.0	5.578616024159574e+17
19462.0	5.6167732014830944e+17
19463.0	5.647553761989969e+17
19464.0	5.675013355776681e+17
19465.0	5.699371567939584e+17
19466.0	5.721360961634301e+17
19467.0	5.7419830632557216e+17
19468.0	5.761333464487253e+17
19469.0	5.778702840015529e+17
19470.0	5.795194305074516e+17
19471.0	5.814853394497536e+17
19472.0	5.841950032090444e+17
19473.0	5.863638991284902e+17
19474.0	5.881424710205441e+17
19475.0	5.894998225933654e+17
19476.0	5.906773760977577e+17
19477.0	5.91710407098368e+17
19478.0	5.92609088530022e+17
19479.0	5.933307648802815e+17
19480.0	5.941307075723264e+17
19481.0	5.947022810371412e+17
19482.0	5.95327290843682e+17
19483.0	5.958754243007827e+17
19484.0	5.963387046111914e+17
19485.0	5.967742772794708e+17
19486.0	5.97273446711296e+17
19487.0	5.976661510062079e+17
19488.0	5.980251041562623e+17
19489.0	5.983576036212735e+17
19490.0	5.986223977223507e+17
19491.0	5.989651794537129e+17
19492.0	5.992396395380735e+17
19493.0	5.995469344516777e+17
19494.0	5.997874878524074e+17
19495.0	6.000069470497449e+17
19496.0	6.003498850888362e+17
19497.0	6.006705400490669e+17
19498.0	6.012854204017324e+17
19499.0	6.010902323833508e+17
19500.0	6.020260873022121e+17
19501.0	6.021551829461672e+17
19502.0	6.026233191421267e+17
19503.0	6.027220813698388e+17
19504.0	6.029369293493583e+17
19505.0	6.031993941437098e+17
19506.0	6.032683011757398e+17
19507.0	6.033720788123649e+17
19508.0	6.036426698610003e+17
19509.0	6.036875029162665e+17
19510.0	6.037179899838463e+17
19511.0	6.033114704904187e+17
19512.0	6.039283726374227e+17
19513.0	6.038807475038888e+17
19514.0	6.039385670331049e+17
19515.0	6.040200840303956e+17
19516.0	6.040459432427519e+17
19517.0	6.040901707104253e+17
19518.0	6.0421447890589e+17
19519.0	6.04205598445841e+17
19520.0	6.041922328068096e+17
19521.0	6.041964605953364e+17
19522.0	6.041789050563242e+17
19523.0	6.041571851326806e+17
19524.0	6.041308939070121e+17
19525.0	6.041004834553853e+17
19526.0	6.041483332638038e+17
19527.0	6.041668971834025e+17
19528.0	6.041283986456575e+17
19529.0	6.040879934472191e+17
19530.0	6.040452771872767e+17
19531.0	6.040000097419263e+17
19532.0	6.039525100879872e+17
19533.0	6.03902891401762e+17
19534.0	6.038510841277097e+17
19535.0	6.03797069111842e+17
19536.0	6.037403866584403e+17
19537.0	6.036847305512275e+17
19538.0	6.036218576546474e+17
19539.0	6.035430729667924e+17
19540.0	6.035013508268031e+17
19541.0	6.034384978531668e+17
19542.0	6.034561880992428e+17
19543.0	6.034047992070144e+17
19544.0	6.033363780151978e+17
19545.0	6.032481706136915e+17
19546.0	6.031598602420223e+17
19547.0	6.03123274027281e+17
19548.0	6.030498759442432e+17
19549.0	6.029714207888724e+17
19550.0	6.02899950477858e+17
19551.0	6.028234727970131e+17
19552.0	6.027458345522516e+17
19553.0	6.026663437533183e+17
19554.0	6.025862694567933e+17
19555.0	6.025067683119103e+17
19556.0	6.024261008708947e+17
19557.0	6.023437842994516e+17
19558.0	6.022609092564307e+17
19559.0	6.02176845058321e+17
19560.0	6.020915943615146e+17
19561.0	6.020068788578986e+17
19562.0	6.019216388565673e+17
19563.0	6.018349849553578e+17
19564.0	6.017477665008298e+17
19565.0	6.016598724138324e+17
19566.0	6.015705376533161e+17
19567.0	6.014821759713279e+17
19568.0	6.013914412919465e+17
19569.0	6.013019941240831e+17
19570.0	6.012115629725012e+17
19571.0	6.011201011406164e+17
19572.0	6.010272463104682e+17
19573.0	6.009353091940351e+17
19574.0	6.008396304089087e+17
19575.0	6.007502444778836e+17
19576.0	6.006566717926057e+17
19577.0	6.005614478098431e+17
19578.0	6.00466427810065e+17
19579.0	6.00372325524002e+17
19580.0	6.002771887128576e+17
19581.0	6.001818815430655e+17
19582.0	6.000866146385919e+17
19583.0	5.999903176130559e+17
19584.0	5.998934741396137e+17
19585.0	5.997922390201684e+17
19586.0	5.996935553657514e+17
19587.0	5.995999411568639e+17
19588.0	5.994848850367828e+17
19589.0	5.994048712081407e+17
19590.0	5.993040990000467e+17
19591.0	5.992087194086058e+17
19592.0	5.991560234314409e+17
19593.0	5.990772652376064e+17
19594.0	5.989690925995347e+17
19595.0	5.988773245135529e+17
19596.0	5.987420921135103e+17
19597.0	5.986772598478164e+17
19598.0	5.98565237817344e+17
19599.0	5.984777322627072e+17
19600.0	5.983769227952127e+17
19601.0	5.982731055923199e+17
19602.0	5.981727470125055e+17
19603.0	5.980531913129981e+17
19604.0	5.979693020173654e+17
19605.0	5.978577871481514e+17
19606.0	5.977678775582719e+17
19607.0	5.976660462185129e+17
19608.0	5.975634107607721e+17
19609.0	5.974592148122282e+17
19610.0	5.973589227820371e+17
19611.0	5.972560067952639e+17
19612.0	5.971534651501225e+17
19613.0	5.970504674443264e+17
19614.0	5.969457319684777e+17
19615.0	5.968441948591444e+17
19616.0	5.967384677100201e+17
19617.0	5.966373270323199e+17
19618.0	5.965115748078931e+17
19619.0	5.964024860639231e+17
19620.0	5.962998466914986e+17
19621.0	5.962226333996374e+17
19622.0	5.961186630347433e+17
19623.0	5.960145867636735e+17
19624.0	5.959104167499091e+17
19625.0	5.958061122387967e+17
19626.0	5.957017794161321e+17
19627.0	5.955973136340308e+17
19628.0	5.954864599269375e+17
19629.0	5.953845438622378e+17
19630.0	5.952704724948308e+17
19631.0	5.948869861616297e+17
19632.0	5.950736633080489e+17
19633.0	5.94967831580945e+17
19634.0	5.948639935463424e+17
19635.0	5.947573252653055e+17
19636.0	5.946538750640127e+17
19637.0	5.945330145165312e+17
19638.0	5.94443115831842e+17
19639.0	5.943374824254121e+17
19640.0	5.942290663079936e+17
19641.0	5.940982153478144e+17
19642.0	5.940218874036223e+17
19643.0	5.939157240468819e+17
19644.0	5.938082729689087e+17
19645.0	5.936941793716906e+17
19646.0	5.935995811790847e+17
19647.0	5.934938773083476e+17
19648.0	5.933881258322601e+17
19649.0	5.932822190970195e+17
19650.0	5.931764997073578e+17
19651.0	5.930706259673087e+17
19652.0	5.929647142688084e+17
19653.0	5.928586852696063e+17
19654.0	5.927527820995242e+17
19655.0	5.926465732345855e+17
19656.0	5.925404260259156e+17
19657.0	5.924346263153321e+17
19658.0	5.923285178340692e+17
19659.0	5.92222306172928e+17
19660.0	5.921162020956842e+17
19661.0	5.92010007421474e+17
19662.0	5.9190378758144e+17
19663.0	5.917957136493226e+17
19664.0	5.91690172867106e+17
19665.0	5.915849657417727e+17
