# Flux units: erg / (cm m2 s)
# Wavelength units: Angstrom
wave	flux
19000.0	6.612595658893994e+17
19001.0	6.61131504980241e+17
19002.0	6.610126635007997e+17
19003.0	6.608890870715732e+17
19004.0	6.607655226660179e+17
19005.0	6.606421665775615e+17
19006.0	6.605186601233065e+17
19007.0	6.603924196119891e+17
19008.0	6.602687350396244e+17
19009.0	6.601448355091796e+17
19010.0	6.600026433606996e+17
19011.0	6.598994499207167e+17
19012.0	6.597690364963497e+17
19013.0	6.596540165171882e+17
19014.0	6.595272126409385e+17
19015.0	6.594047112817321e+17
19016.0	6.592805867268777e+17
19017.0	6.591585269579775e+17
19018.0	6.590351956858195e+17
19019.0	6.589120535767722e+17
19020.0	6.587871493707092e+17
19021.0	6.586651407024127e+17
19022.0	6.585422756271444e+17
19023.0	6.584167389200383e+17
19024.0	6.582938905520809e+17
19025.0	6.581710811911508e+17
19026.0	6.580461889388543e+17
19027.0	6.57919284678929e+17
19028.0	6.578006377452884e+17
19029.0	6.576769510757716e+17
19030.0	6.575542347584852e+17
19031.0	6.574307542390102e+17
19032.0	6.573072742088701e+17
19033.0	6.571796097313449e+17
19034.0	6.570596703229268e+17
19035.0	6.569350932725759e+17
19036.0	6.564395449232041e+17
19037.0	6.566898851730771e+17
19038.0	6.565653806142804e+17
19039.0	6.564431116195156e+17
19040.0	6.5631969359517e+17
19041.0	6.56196262568482e+17
19042.0	6.560690858186067e+17
19043.0	6.559494948869459e+17
19044.0	6.558259969611091e+17
19045.0	6.557027219625302e+17
19046.0	6.555770021041491e+17
19047.0	6.554554924881236e+17
19048.0	6.553229837292884e+17
19049.0	6.552063499916627e+17
19050.0	6.550839931262291e+17
19051.0	6.549042118350163e+17
19052.0	6.548314148656467e+17
19053.0	6.547153396695037e+17
19054.0	6.545927257631401e+17
19055.0	6.544575925583872e+17
19056.0	6.543451736069459e+17
19057.0	6.542225199245994e+17
19058.0	6.540991669119657e+17
19059.0	6.539764379418623e+17
19060.0	6.538521172333907e+17
19061.0	6.537300445320532e+17
19062.0	6.536066219638783e+17
19063.0	6.534835372468905e+17
19064.0	6.533550770399914e+17
19065.0	6.532290560305833e+17
19066.0	6.531113238047402e+17
19067.0	6.529909595133268e+17
19068.0	6.528678692039338e+17
19069.0	6.527448044797951e+17
19070.0	6.526205588493652e+17
19071.0	6.524986443431935e+17
19072.0	6.523755703216809e+17
19073.0	6.522522582734164e+17
19074.0	6.521294631731199e+17
19075.0	6.520064359180969e+17
19076.0	6.518824327883433e+17
19077.0	6.517598626425514e+17
19078.0	6.516360780360361e+17
19079.0	6.515144674071891e+17
19080.0	6.513912107237375e+17
19081.0	6.512667139943082e+17
19082.0	6.511434513689257e+17
19083.0	6.510175658355369e+17
19084.0	6.50888833208593e+17
19085.0	6.507769032430934e+17
19086.0	6.506365455433727e+17
19087.0	6.50520006037777e+17
19088.0	6.504048814107305e+17
19089.0	6.502712453627903e+17
19090.0	6.501612368778579e+17
19091.0	6.500385882985812e+17
19092.0	6.499123541486249e+17
19093.0	6.497942999400447e+17
19094.0	6.496709021881684e+17
19095.0	6.495479939115689e+17
19096.0	6.494251810553855e+17
19097.0	6.493032536866815e+17
19098.0	6.491806855681363e+17
19099.0	6.49057976730692e+17
19100.0	6.489345074659327e+17
19101.0	6.488126110651732e+17
19102.0	6.486855351184042e+17
19103.0	6.485674284111187e+17
19104.0	6.484448191184895e+17
19105.0	6.483222098258602e+17
19106.0	6.481976080291156e+17
19107.0	6.480763709030399e+17
19108.0	6.47954484498705e+17
19109.0	6.477992298195625e+17
19110.0	6.477088968845993e+17
19111.0	6.475869636438697e+17
19112.0	6.474644912952659e+17
19113.0	6.473420210438143e+17
19114.0	6.472195633752746e+17
19115.0	6.470947765398185e+17
19116.0	6.469736257465001e+17
19117.0	6.468513215195817e+17
19118.0	6.467245400129533e+17
19119.0	6.464336685957116e+17
19120.0	6.464820532477952e+17
19121.0	6.463605108462931e+17
19122.0	6.462404277829632e+17
19123.0	6.461180024105642e+17
19124.0	6.45993879114001e+17
19125.0	6.458732158386175e+17
19126.0	6.457508022801748e+17
19127.0	6.455488377345364e+17
19128.0	6.454914743358803e+17
19129.0	6.453805161207123e+17
19130.0	6.452618600994134e+17
19131.0	6.451398921857706e+17
19132.0	6.450175969067007e+17
19133.0	6.448827143815167e+17
19134.0	6.447655852266836e+17
19135.0	6.446509325986473e+17
19136.0	6.445291846063444e+17
19137.0	6.443995269256531e+17
19138.0	6.442834803905876e+17
19139.0	6.441627834908671e+17
19140.0	6.440407719564628e+17
19141.0	6.43918698975505e+17
19142.0	6.437954847943338e+17
19143.0	6.436721065459711e+17
19144.0	6.43551412232738e+17
19145.0	6.43430420054016e+17
19146.0	6.432811362462378e+17
19147.0	6.431822920897876e+17
19148.0	6.430643537139027e+17
19149.0	6.429424443108009e+17
19150.0	6.428201590980607e+17
19151.0	6.426986847141887e+17
19152.0	6.425764067715753e+17
19153.0	6.424538662655316e+17
19154.0	6.423269773148159e+17
19155.0	6.422110144561151e+17
19156.0	6.420889765675007e+17
19157.0	6.419667495856809e+17
19158.0	6.418227892584447e+17
19159.0	6.417225400800596e+17
19160.0	6.416010155043497e+17
19161.0	6.414782348044969e+17
19162.0	6.413070751148714e+17
19163.0	6.412353778221055e+17
19164.0	6.411144096907264e+17
19165.0	6.409915987918845e+17
19166.0	6.408645978532522e+17
19167.0	6.407442852216832e+17
19168.0	6.406248389236051e+17
19169.0	6.405032316502015e+17
19170.0	6.403837362787667e+17
19171.0	6.402589877512873e+17
19172.0	6.401403079622655e+17
19173.0	6.400185401868287e+17
19174.0	6.398943086772223e+17
19175.0	6.397752768462847e+17
19176.0	6.396535745019904e+17
19177.0	6.395249068867583e+17
19178.0	6.394091112409769e+17
19179.0	6.392842092718762e+17
19180.0	6.391651059280553e+17
19181.0	6.390399812414121e+17
19182.0	6.389220915893587e+17
19183.0	6.388016698359808e+17
19184.0	6.386780237813076e+17
19185.0	6.385582182410921e+17
19186.0	6.384368188653565e+17
19187.0	6.383117990363135e+17
19188.0	6.381934827536383e+17
19189.0	6.380714368958463e+17
19190.0	6.379495007890089e+17
19191.0	6.378268421434026e+17
19192.0	6.377071044111017e+17
19193.0	6.375847425125033e+17
19194.0	6.374630459004243e+17
19195.0	6.373422831501311e+17
19196.0	6.372201177546751e+17
19197.0	6.370984382693376e+17
19198.0	6.369766254051327e+17
19199.0	6.365550490593961e+17
19200.0	6.36533413650978e+17
19201.0	6.366119510147072e+17
19202.0	6.364909187104767e+17
19203.0	6.363687237451775e+17
19204.0	6.362466671919103e+17
19205.0	6.36126265081856e+17
19206.0	6.360040174081364e+17
19207.0	6.358786172955306e+17
19208.0	6.357517329585492e+17
19209.0	6.356392051649193e+17
19210.0	6.355181943914496e+17
19211.0	6.353964930957311e+17
19212.0	6.352748977061887e+17
19213.0	6.351476915961855e+17
19214.0	6.350239866115412e+17
19215.0	6.349087409089193e+17
19216.0	6.347878597394431e+17
19217.0	6.346665025863679e+17
19218.0	6.345069555963219e+17
19219.0	6.344158787316394e+17
19220.0	6.343002389741568e+17
19221.0	6.341646147562153e+17
19222.0	6.340577139709268e+17
19223.0	6.339359488518826e+17
19224.0	6.338117508268032e+17
19225.0	6.336856924181844e+17
19226.0	6.335698944655359e+17
19227.0	6.334479062095188e+17
19228.0	6.333270984403625e+17
19229.0	6.332052021095082e+17
19230.0	6.330825250788692e+17
19231.0	6.329607724728319e+17
19232.0	6.328386932703231e+17
19233.0	6.327142321225727e+17
19234.0	6.325944266522623e+17
19235.0	6.324725277349204e+17
19236.0	6.323515343678121e+17
19237.0	6.322287489843199e+17
19238.0	6.321028778513748e+17
19239.0	6.319854045538985e+17
19240.0	6.318585882345472e+17
19241.0	6.317386397384704e+17
19242.0	6.316181073952767e+17
19243.0	6.314887701594111e+17
19244.0	6.313744269311999e+17
19245.0	6.312521979221332e+17
19246.0	6.311291329882793e+17
19247.0	6.310074435065172e+17
19248.0	6.308851203353257e+17
19249.0	6.307625578790911e+17
19250.0	6.306392310109526e+17
19251.0	6.305121340926633e+17
19252.0	6.303817150758911e+17
19253.0	6.302713580442964e+17
19254.0	6.301490881407657e+17
19255.0	6.300183950262272e+17
19256.0	6.299026928435199e+17
19257.0	6.297815312848211e+17
19258.0	6.296586121030314e+17
19259.0	6.295323389460479e+17
19260.0	6.294061987485012e+17
19261.0	6.29289676509457e+17
19262.0	6.291643010733396e+17
19263.0	6.29040781127407e+17
19264.0	6.288956722599252e+17
19265.0	6.287879971362131e+17
19266.0	6.286651722563583e+17
19267.0	6.285500726553258e+17
19268.0	6.284265563444563e+17
19269.0	6.28302960271906e+17
19270.0	6.281792215930196e+17
19271.0	6.280402357802326e+17
19272.0	6.279300061156692e+17
19273.0	6.276730674566482e+17
19274.0	6.276072227558739e+17
19275.0	6.275595851093332e+17
19276.0	6.274344778290516e+17
19277.0	6.273103762729642e+17
19278.0	6.271867022562644e+17
19279.0	6.270613631008768e+17
19280.0	6.269343181919571e+17
19281.0	6.26814892515874e+17
19282.0	6.266908793197908e+17
19283.0	6.265612089163776e+17
19284.0	6.264346944471039e+17
19285.0	6.263061075722239e+17
19286.0	6.26188624138513e+17
19287.0	6.260647970297172e+17
19288.0	6.258386540691453e+17
19289.0	6.255678324735994e+17
19290.0	6.256875927852371e+17
19291.0	6.255494879161002e+17
19292.0	6.254353991423316e+17
19293.0	6.253086710431743e+17
19294.0	6.251825519569577e+17
19295.0	6.250558754477396e+17
19296.0	6.249290252943359e+17
19297.0	6.248018951711402e+17
19298.0	6.246739291231571e+17
19299.0	6.245473855034707e+17
19300.0	6.244197008233812e+17
19301.0	6.242916187329876e+17
19302.0	6.241632350022314e+17
19303.0	6.240318877859839e+17
19304.0	6.239051145980585e+17
19305.0	6.237775737825961e+17
19306.0	6.236489978129066e+17
19307.0	6.235177139306495e+17
19308.0	6.233893873123327e+17
19309.0	6.232507968126975e+17
19310.0	6.231166099827369e+17
19311.0	6.229986892229289e+17
19312.0	6.228700759239337e+17
19313.0	6.227390755766271e+17
19314.0	6.22338575958016e+17
19315.0	6.222244206346241e+17
19316.0	6.223452699273898e+17
19317.0	6.221901672218623e+17
19318.0	6.22016414753314e+17
19319.0	6.218845979847337e+17
19320.0	6.217512836399103e+17
19321.0	6.216181146277204e+17
19322.0	6.214794591862784e+17
19323.0	6.2134529570461e+17
19324.0	6.212153546287784e+17
19325.0	6.210707352365738e+17
19326.0	6.209448121641642e+17
19327.0	6.208082512882346e+17
19328.0	6.20672596381969e+17
19329.0	6.205357611286527e+17
19330.0	6.203965395260756e+17
19331.0	6.202584453524138e+17
19332.0	6.201219312429737e+17
19333.0	6.199831205423785e+17
19334.0	6.198432657397076e+17
19335.0	6.197035677341012e+17
19336.0	6.195627393635668e+17
19337.0	6.194212121520809e+17
19338.0	6.192697879909716e+17
19339.0	6.191369502588927e+17
19340.0	6.189902772655443e+17
19341.0	6.188485470497449e+17
19342.0	6.186865411489791e+17
19343.0	6.185588508764842e+17
19344.0	6.184125246821716e+17
19345.0	6.181753790136317e+17
19346.0	6.180807256659284e+17
19347.0	6.179654564052991e+17
19348.0	6.178189815229098e+17
19349.0	6.176670363593385e+17
19350.0	6.175151962630825e+17
19351.0	6.173624707492521e+17
19352.0	6.172064533359274e+17
19353.0	6.170550371439956e+17
19354.0	6.168990812471296e+17
19355.0	6.167380139616938e+17
19356.0	6.165834166697983e+17
19357.0	6.164237943919956e+17
19358.0	6.162617067023018e+17
19359.0	6.160934397542399e+17
19360.0	6.15935245427234e+17
19361.0	6.157703737682601e+17
19362.0	6.156058449237332e+17
19363.0	6.154377471459327e+17
19364.0	6.15267980943906e+17
19365.0	6.150967535162707e+17
19366.0	6.148992808605011e+17
19367.0	6.14653015237154e+17
19368.0	6.144760516793684e+17
19369.0	6.14292927737583e+17
19370.0	6.141007968075776e+17
19371.0	6.139304462690986e+17
19372.0	6.137475528742228e+17
19373.0	6.135590470112596e+17
19374.0	6.133699280808618e+17
19375.0	6.131772957917183e+17
19376.0	6.129823430737919e+17
19377.0	6.127844091144874e+17
19378.0	6.125841955509588e+17
19379.0	6.123810180825087e+17
19380.0	6.121747870908415e+17
19381.0	6.119653833179133e+17
19382.0	6.116299655959892e+17
19383.0	6.113975132837204e+17
19384.0	6.111822966248788e+17
19385.0	6.109578975161002e+17
19386.0	6.107298322361001e+17
19387.0	6.104974199794344e+17
19388.0	6.102606525672106e+17
19389.0	6.100193227309055e+17
19390.0	6.096601841227092e+17
19391.0	6.090189206891172e+17
19392.0	6.090843505732265e+17
19393.0	6.088250234677929e+17
19394.0	6.085559699111935e+17
19395.0	6.082198990662314e+17
19396.0	6.077761736496467e+17
19397.0	6.07486295932928e+17
19398.0	6.071872305233919e+17
19399.0	6.067479876993023e+17
19400.0	6.062903249600512e+17
19401.0	6.059665592243539e+17
19402.0	6.055076456737449e+17
19403.0	6.049523589010772e+17
19404.0	6.045887150511443e+17
19405.0	6.038011310855506e+17
19406.0	6.033938030002177e+17
19407.0	6.025470033614164e+17
19408.0	6.019077074758309e+17
19409.0	6.011505330530985e+17
19410.0	6.001317413650435e+17
19411.0	5.99370705596143e+17
19412.0	5.987361375999316e+17
19413.0	5.981857025185108e+17
19414.0	5.976107253060948e+17
19415.0	5.970128752257705e+17
19416.0	5.963819613771092e+17
19417.0	5.957334486482943e+17
19418.0	5.950112129176916e+17
19419.0	5.942796172481876e+17
19420.0	5.935401480312148e+17
19421.0	5.927665719225002e+17
19422.0	5.919574258089983e+17
19423.0	5.910018542359892e+17
19424.0	5.90113275904e+17
19425.0	5.891173367414783e+17
19426.0	5.880389555978237e+17
19427.0	5.868673008926719e+17
19428.0	5.856063657432403e+17
19429.0	5.841621971806885e+17
19430.0	5.824829014583976e+17
19431.0	5.804804324458491e+17
19432.0	5.780189671150934e+17
19433.0	5.7475333081442906e+17
19434.0	5.714306419130362e+17
19435.0	5.6917229183522125e+17
19436.0	5.667882196620629e+17
19437.0	5.642548131397631e+17
19438.0	5.6107774662847136e+17
19439.0	5.585227085425322e+17
19440.0	5.5523868350436685e+17
19441.0	5.51545154725478e+17
19442.0	5.469262258197851e+17
19443.0	5.40276424913715e+17
19444.0	5.3247115092732563e+17
19445.0	5.2569567196610586e+17
19446.0	5.177093473523028e+17
19447.0	5.062786420484769e+17
19448.0	4.917013828861959e+17
19449.0	4.7132885500559334e+17
19450.0	4.3332612286054266e+17
19451.0	4.2237386481991494e+17
19452.0	4.5364994333737075e+17
19453.0	4.8305782055239795e+17
19454.0	4.987952168610474e+17
19455.0	5.121224335512922e+17
19456.0	5.2114563709009946e+17
19457.0	5.281859120398333e+17
19458.0	5.3450393000782566e+17
19459.0	5.425192108381535e+17
19460.0	5.47734653239296e+17
19461.0	5.5154444071512755e+17
19462.0	5.5481306336023904e+17
19463.0	5.57742534374195e+17
19464.0	5.603415501570047e+17
19465.0	5.628010982014977e+17
19466.0	5.6502172988211174e+17
19467.0	5.670829386541737e+17
19468.0	5.69512737828591e+17
19469.0	5.728439053058045e+17
19470.0	5.754702970312016e+17
19471.0	5.774149543439016e+17
19472.0	5.79009841166199e+17
19473.0	5.802964408423764e+17
19474.0	5.814168494014464e+17
19475.0	5.824205358628863e+17
19476.0	5.832683066228737e+17
19477.0	5.841466324680704e+17
19478.0	5.848318306069161e+17
19479.0	5.855264976666623e+17
19480.0	5.861825301534038e+17
19481.0	5.867470315323392e+17
19482.0	5.872771696776532e+17
19483.0	5.877757733677738e+17
19484.0	5.882937783702866e+17
19485.0	5.887467441881087e+17
19486.0	5.891571181071018e+17
19487.0	5.895425926103037e+17
19488.0	5.899012895582889e+17
19489.0	5.902320887223638e+17
19490.0	5.904878826859176e+17
19491.0	5.910924065330518e+17
19492.0	5.917294555299841e+17
19493.0	5.922596795187194e+17
19494.0	5.929281075718826e+17
19495.0	5.93296487070651e+17
19496.0	5.937115467262633e+17
19497.0	5.940360516381356e+17
19498.0	5.943971801639596e+17
19499.0	5.940303016667814e+17
19500.0	5.949767656581802e+17
19501.0	5.950909427919532e+17
19502.0	5.951841669305684e+17
19503.0	5.955049359758674e+17
19504.0	5.95603295969826e+17
19505.0	5.956695821210963e+17
19506.0	5.957284585450153e+17
19507.0	5.959731113885697e+17
19508.0	5.960350809718783e+17
19509.0	5.960724531991892e+17
19510.0	5.960955087989418e+17
19511.0	5.955739828180305e+17
19512.0	5.961252025139199e+17
19513.0	5.961769925913256e+17
19514.0	5.962383832208722e+17
19515.0	5.9632624613021e+17
19516.0	5.96352057877026e+17
19517.0	5.96347695800866e+17
19518.0	5.963443890814976e+17
19519.0	5.963343882529449e+17
19520.0	5.963197219602431e+17
19521.0	5.963649341805908e+17
19522.0	5.964072399579818e+17
19523.0	5.96384974774818e+17
19524.0	5.963581879921321e+17
19525.0	5.963276210929663e+17
19526.0	5.962964617483603e+17
19527.0	5.962618329453908e+17
19528.0	5.96224225976866e+17
19529.0	5.961848216092671e+17
19530.0	5.96143107019025e+17
19531.0	5.960989039482195e+17
19532.0	5.960525570288298e+17
19533.0	5.960041562985811e+17
19534.0	5.959536229744639e+17
19535.0	5.959008970080255e+17
19536.0	5.95845465645602e+17
19537.0	5.957914626534057e+17
19538.0	5.957400151807316e+17
19539.0	5.957380443471872e+17
19540.0	5.957007545379498e+17
19541.0	5.956393724368212e+17
19542.0	5.955751781946708e+17
19543.0	5.955098806408532e+17
19544.0	5.954432556597247e+17
19545.0	5.953550532214781e+17
19546.0	5.952655245443071e+17
19547.0	5.952359567982591e+17
19548.0	5.951644137160703e+17
19549.0	5.950872655757312e+17
19550.0	5.950180813701119e+17
19551.0	5.949434154188799e+17
19552.0	5.948675723362304e+17
19553.0	5.947897870811135e+17
19554.0	5.947114056755882e+17
19555.0	5.946338740360531e+17
19556.0	5.945550962688e+17
19557.0	5.94474571923456e+17
19558.0	5.943935260164095e+17
19559.0	5.943113303807316e+17
19560.0	5.942277641164116e+17
19561.0	5.941443226326356e+17
19562.0	5.940615852326912e+17
19563.0	5.939767516594176e+17
19564.0	5.9389134241792e+17
19565.0	5.938052615285418e+17
19566.0	5.937176244125695e+17
19567.0	5.936311694611796e+17
19568.0	5.935421057925119e+17
19569.0	5.934545508848979e+17
19570.0	5.933659964746409e+17
19571.0	5.9327634224797e+17
19572.0	5.931851578692948e+17
19573.0	5.930951149704531e+17
19574.0	5.930008472890025e+17
19575.0	5.929137786410324e+17
19576.0	5.928220004188159e+17
19577.0	5.927285070757887e+17
19578.0	5.926351137669119e+17
19579.0	5.925428774567935e+17
19580.0	5.924495348290902e+17
19581.0	5.923560109375487e+17
19582.0	5.922626147625642e+17
19583.0	5.921680896207529e+17
19584.0	5.920730136270164e+17
19585.0	5.919729361354751e+17
19586.0	5.91875899793954e+17
19587.0	5.917845615542271e+17
19588.0	5.916689886259882e+17
19589.0	5.915930981477034e+17
19590.0	5.914936080684372e+17
19591.0	5.914004794900479e+17
19592.0	5.913031661846527e+17
19593.0	5.912047814443007e+17
19594.0	5.910971985952768e+17
19595.0	5.910084078359892e+17
19596.0	5.908740698712745e+17
19597.0	5.908120243011583e+17
19598.0	5.906996368069972e+17
19599.0	5.90616018952738e+17
19600.0	5.90516968366626e+17
19601.0	5.904145514321238e+17
19602.0	5.903161090200916e+17
19603.0	5.901958027498836e+17
19604.0	5.901161589287593e+17
19605.0	5.90005003231778e+17
19606.0	5.899184095887359e+17
19607.0	5.898183183258964e+17
19608.0	5.89717366252066e+17
19609.0	5.896146534094163e+17
19610.0	5.895163759034367e+17
19611.0	5.894151421820927e+17
19612.0	5.89314343829504e+17
19613.0	5.892125662467412e+17
19614.0	5.891098501884586e+17
19615.0	5.890102261710847e+17
19616.0	5.889058514752852e+17
19617.0	5.88806729446195e+17
19618.0	5.886798306388648e+17
19619.0	5.885715030911657e+17
19620.0	5.884708578306729e+17
19621.0	5.883989095787178e+17
19622.0	5.882966288192852e+17
19623.0	5.881942408953855e+17
19624.0	5.880917573413545e+17
19625.0	5.879891301324116e+17
19626.0	5.878864792256512e+17
19627.0	5.877836917942954e+17
19628.0	5.876737590864554e+17
19629.0	5.875738072842239e+17
19630.0	5.874617305879892e+17
19631.0	5.870444478813524e+17
19632.0	5.872683596819113e+17
19633.0	5.871634263048191e+17
19634.0	5.87062032011537e+17
19635.0	5.869568369797801e+17
19636.0	5.868552429677225e+17
19637.0	5.867723737967274e+17
19638.0	5.867033650528255e+17
19639.0	5.865993487603028e+17
19640.0	5.864922793639935e+17
19641.0	5.863580585601706e+17
19642.0	5.86288640172578e+17
19643.0	5.861840286384127e+17
19644.0	5.860779330895871e+17
19645.0	5.859642575945727e+17
19646.0	5.858727685696169e+17
19647.0	5.857686708376916e+17
19648.0	5.856645242421248e+17
19649.0	5.855602009964544e+17
19650.0	5.854560962740224e+17
19651.0	5.853518204239872e+17
19652.0	5.852475059863551e+17
19653.0	5.851430636923561e+17
19654.0	5.850387608589652e+17
19655.0	5.849341206637225e+17
19656.0	5.848295479268692e+17
19657.0	5.847253786820607e+17
19658.0	5.846208586536276e+17
19659.0	5.845162209749674e+17
19660.0	5.844117170946047e+17
19661.0	5.843071036030976e+17
19662.0	5.842024620097535e+17
19663.0	5.840957505273855e+17
19664.0	5.839918815248383e+17
19665.0	5.838883875629737e+17
