# Flux units: erg / (cm m2 s)
# Wavelength units: Angstrom
wave	flux
19000.0	7.583979856549204e+17
19001.0	7.582232668886358e+17
19002.0	7.581186851340289e+17
19003.0	7.579767371639464e+17
19004.0	7.578363159205203e+17
19005.0	7.576951485104127e+17
19006.0	7.575542944148136e+17
19007.0	7.57392441536239e+17
19008.0	7.572510070887763e+17
19009.0	7.57103667061282e+17
19010.0	7.568335352889339e+17
19011.0	7.56839070511923e+17
19012.0	7.566476957450237e+17
19013.0	7.56566960705809e+17
19014.0	7.564041298553513e+17
19015.0	7.562727214721706e+17
19016.0	7.561284417486845e+17
19017.0	7.559872676276904e+17
19018.0	7.558566547641684e+17
19019.0	7.557171537510399e+17
19020.0	7.555669220305577e+17
19021.0	7.554350907217235e+17
19022.0	7.552969226584063e+17
19023.0	7.551415639605247e+17
19024.0	7.550084354932733e+17
19025.0	7.548697027368276e+17
19026.0	7.54720662757922e+17
19027.0	7.545558610040147e+17
19028.0	7.544493340710227e+17
19029.0	7.543021167968253e+17
19030.0	7.541705551817385e+17
19031.0	7.5403130582685e+17
19032.0	7.538890972506793e+17
19033.0	7.537147988934655e+17
19034.0	7.535996171539795e+17
19035.0	7.534496458997757e+17
19036.0	7.506771856501413e+17
19037.0	7.531756416663551e+17
19038.0	7.530311492916564e+17
19039.0	7.528968763386538e+17
19040.0	7.527573319843837e+17
19041.0	7.526127431406935e+17
19042.0	7.524410590931625e+17
19043.0	7.523330922556074e+17
19044.0	7.521865058047318e+17
19045.0	7.520480185548799e+17
19046.0	7.518849975626409e+17
19047.0	7.517600670023679e+17
19048.0	7.515498859550036e+17
19049.0	7.514562502153554e+17
19050.0	7.513219824353279e+17
19051.0	7.507686042806949e+17
19052.0	7.509836494624083e+17
19053.0	7.509091745617238e+17
19054.0	7.507722653488468e+17
19055.0	7.505395490051414e+17
19056.0	7.504799216609961e+17
19057.0	7.503446840180735e+17
19058.0	7.501957202356904e+17
19059.0	7.500630335684607e+17
19060.0	7.499142231577939e+17
19061.0	7.497815464170838e+17
19062.0	7.496370600542208e+17
19063.0	7.494968430733993e+17
19064.0	7.493068616542889e+17
19065.0	7.491468014212435e+17
19066.0	7.490490714816511e+17
19067.0	7.489244508804436e+17
19068.0	7.487865642549247e+17
19069.0	7.486455444843177e+17
19070.0	7.484930823727786e+17
19071.0	7.483590683481428e+17
19072.0	7.482203793522688e+17
19073.0	7.480755099096403e+17
19074.0	7.479370862733994e+17
19075.0	7.477951687819263e+17
19076.0	7.476456576428713e+17
19077.0	7.475070157630121e+17
19078.0	7.473531074554536e+17
19079.0	7.472257949499391e+17
19080.0	7.470789079072768e+17
19081.0	7.469276495609855e+17
19082.0	7.467838798648662e+17
19083.0	7.466152580786857e+17
19084.0	7.464272955179007e+17
19085.0	7.463698258635433e+17
19086.0	7.46087617990929e+17
19087.0	7.46006735871454e+17
19088.0	7.459141941460991e+17
19089.0	7.456962562927276e+17
19090.0	7.45652378280482e+17
19091.0	7.455118161084415e+17
19092.0	7.453413992999593e+17
19093.0	7.452374194279764e+17
19094.0	7.450958485258239e+17
19095.0	7.449544681848832e+17
19096.0	7.448073525526527e+17
19097.0	7.446708464123903e+17
19098.0	7.445283025715199e+17
19099.0	7.443857285316608e+17
19100.0	7.442404353245183e+17
19101.0	7.441018524445353e+17
19102.0	7.439292055246163e+17
19103.0	7.438174666096639e+17
19104.0	7.436781934870527e+17
19105.0	7.43534594359296e+17
19106.0	7.433787844941138e+17
19107.0	7.432444814819327e+17
19108.0	7.431089931594409e+17
19109.0	7.427073347245394e+17
19110.0	7.42816610464563e+17
19111.0	7.426829667969706e+17
19112.0	7.425421092061181e+17
19113.0	7.423996491115177e+17
19114.0	7.42256165187311e+17
19115.0	7.420945470499497e+17
19116.0	7.419656131663186e+17
19117.0	7.418223330852861e+17
19118.0	7.41648741188676e+17
19119.0	7.4056332368063e+17
19120.0	7.413771096730281e+17
19121.0	7.41247047381811e+17
19122.0	7.411223649845249e+17
19123.0	7.409783250354175e+17
19124.0	7.408230296715264e+17
19125.0	7.406926144995327e+17
19126.0	7.405510156353535e+17
19127.0	7.398121531943593e+17
19128.0	7.401218903812777e+17
19129.0	7.400963575556778e+17
19130.0	7.399782581185193e+17
19131.0	7.398382802130259e+17
19132.0	7.396999615741951e+17
19133.0	7.39447349968896e+17
19134.0	7.393503006250326e+17
19135.0	7.392729280195241e+17
19136.0	7.39133927386863e+17
19137.0	7.38934801965602e+17
19138.0	7.388379475170644e+17
19139.0	7.387067155742719e+17
19140.0	7.385658860852566e+17
19141.0	7.384238519921322e+17
19142.0	7.382719658983423e+17
19143.0	7.381190013091839e+17
19144.0	7.379828349075455e+17
19145.0	7.378528327346858e+17
19146.0	7.374999362994177e+17
19147.0	7.37536788013602e+17
19148.0	7.374264645364394e+17
19149.0	7.37283450793711e+17
19150.0	7.371406304083965e+17
19151.0	7.370003650532691e+17
19152.0	7.368547911073791e+17
19153.0	7.367110756575913e+17
19154.0	7.365305649769129e+17
19155.0	7.364328920798547e+17
19156.0	7.36290005843968e+17
19157.0	7.361399829998249e+17
19158.0	7.358297652854781e+17
19159.0	7.358551099266387e+17
19160.0	7.357123893657599e+17
19161.0	7.35563888075298e+17
19162.0	7.35031908281003e+17
19163.0	7.352809411663187e+17
19164.0	7.351529449892522e+17
19165.0	7.350010769309696e+17
19166.0	7.348240083757736e+17
19167.0	7.346882921627649e+17
19168.0	7.345609435862355e+17
19169.0	7.344222713675775e+17
19170.0	7.342987151409151e+17
19171.0	7.341334226534399e+17
19172.0	7.340103213689514e+17
19173.0	7.33871538840098e+17
19174.0	7.337093403508735e+17
19175.0	7.335876950491135e+17
19176.0	7.33443536261393e+17
19177.0	7.33248764387874e+17
19178.0	7.331496761928361e+17
19179.0	7.329858707259392e+17
19180.0	7.328585645118803e+17
19181.0	7.326969748957864e+17
19182.0	7.3257645534522e+17
19183.0	7.324452684212905e+17
19184.0	7.322832488890365e+17
19185.0	7.321558991940264e+17
19186.0	7.320186496832851e+17
19187.0	7.318457392212649e+17
19188.0	7.317309155355305e+17
19189.0	7.315848098917033e+17
19190.0	7.314401718348457e+17
19191.0	7.312896996409343e+17
19192.0	7.311607316436308e+17
19193.0	7.310082473022804e+17
19194.0	7.308656933950803e+17
19195.0	7.307296846992723e+17
19196.0	7.305807051183444e+17
19197.0	7.304374641841492e+17
19198.0	7.302810598462804e+17
19199.0	7.277946234470392e+17
19200.0	7.283573987999752e+17
19201.0	7.298546856361981e+17
19202.0	7.297259188256768e+17
19203.0	7.295806021304317e+17
19204.0	7.29434027143987e+17
19205.0	7.29296033284096e+17
19206.0	7.291503635682644e+17
19207.0	7.289771368557225e+17
19208.0	7.288027087547049e+17
19209.0	7.287212135677951e+17
19210.0	7.285793606686035e+17
19211.0	7.284406125330432e+17
19212.0	7.282962069804372e+17
19213.0	7.281064572267177e+17
19214.0	7.279441680007165e+17
19215.0	7.278561375289343e+17
19216.0	7.277189519114239e+17
19217.0	7.27574827237376e+17
19218.0	7.271443651188047e+17
19219.0	7.2723043740986e+17
19220.0	7.271354743128063e+17
19221.0	7.268846290687318e+17
19222.0	7.268549016595113e+17
19223.0	7.267035181831508e+17
19224.0	7.265466598817791e+17
19225.0	7.263685968571049e+17
19226.0	7.262688926586195e+17
19227.0	7.26123773235473e+17
19228.0	7.259891760627711e+17
19229.0	7.258451133246122e+17
19230.0	7.256903443458729e+17
19231.0	7.255455854930602e+17
19232.0	7.254027418992637e+17
19233.0	7.252379401453565e+17
19234.0	7.250659183165439e+17
19235.0	7.248952031532374e+17
19236.0	7.247638150425258e+17
19237.0	7.246114705113088e+17
19238.0	7.244377238448808e+17
19239.0	7.243274309861375e+17
19240.0	7.2414048302749e+17
19241.0	7.240137765989033e+17
19242.0	7.238815048881492e+17
19243.0	7.236774132711423e+17
19244.0	7.235969419138386e+17
19245.0	7.234485436634451e+17
19246.0	7.232973301962067e+17
19247.0	7.231531997899432e+17
19248.0	7.23010813235473e+17
19249.0	7.228618487540394e+17
19250.0	7.227091333065385e+17
19251.0	7.225211453003091e+17
19252.0	7.223164782247935e+17
19253.0	7.2226623731357e+17
19254.0	7.221205576712191e+17
19255.0	7.219110675655336e+17
19256.0	7.218128789088938e+17
19257.0	7.216814798929919e+17
19258.0	7.215339646834003e+17
19259.0	7.213595785254228e+17
19260.0	7.211878823144105e+17
19261.0	7.210829841694719e+17
19262.0	7.209178219850408e+17
19263.0	7.207697729803603e+17
19264.0	7.204580827856892e+17
19265.0	7.204264272549203e+17
19266.0	7.202899900410538e+17
19267.0	7.201920481492991e+17
19268.0	7.200391190719145e+17
19269.0	7.198890878391636e+17
19270.0	7.197400225546239e+17
19271.0	7.194733721944064e+17
19272.0	7.194240292836691e+17
19273.0	7.181717180426911e+17
19274.0	7.184911966404599e+17
19275.0	7.189832652554237e+17
19276.0	7.188247230808063e+17
19277.0	7.186738124423165e+17
19278.0	7.1852224427677e+17
19279.0	7.18357589463313e+17
19280.0	7.181861479863636e+17
19281.0	7.180604757333332e+17
19282.0	7.179120997127508e+17
19283.0	7.177229352042493e+17
19284.0	7.175445262893055e+17
19285.0	7.173752211111935e+17
19286.0	7.17281115050257e+17
19287.0	7.171397660267859e+17
19288.0	7.162439099482102e+17
19289.0	7.151403780800485e+17
19290.0	7.166723603387731e+17
19291.0	7.164201305549484e+17
19292.0	7.163583691489279e+17
19293.0	7.16198759244322e+17
19294.0	7.160395779975849e+17
19295.0	7.158855596594516e+17
19296.0	7.157244790920531e+17
19297.0	7.155570034693459e+17
19298.0	7.15396817686801e+17
19299.0	7.1524755191453e+17
19300.0	7.150867094437888e+17
19301.0	7.14923659091422e+17
19302.0	7.147578497258836e+17
19303.0	7.145739054481408e+17
19304.0	7.144234675077117e+17
19305.0	7.141862256498004e+17
19306.0	7.140157357206185e+17
19307.0	7.138355672951466e+17
19308.0	7.136780113412093e+17
19309.0	7.134407199905106e+17
19310.0	7.132383711068156e+17
19311.0	7.13172166255138e+17
19312.0	7.130203254598313e+17
19313.0	7.128495217967104e+17
19314.0	7.113142149928283e+17
19315.0	7.11210031557292e+17
19316.0	7.12342923972881e+17
19317.0	7.121767415939072e+17
19318.0	7.120035517912403e+17
19319.0	7.118367741007186e+17
19320.0	7.116627984252927e+17
19321.0	7.114901238229674e+17
19322.0	7.112763551077716e+17
19323.0	7.111001209394516e+17
19324.0	7.109583836632403e+17
19325.0	7.107156023880361e+17
19326.0	7.106041848965802e+17
19327.0	7.104232082287274e+17
19328.0	7.102523778618708e+17
19329.0	7.100733522444288e+17
19330.0	7.098378079611561e+17
19331.0	7.095661802203817e+17
19332.0	7.093947513263444e+17
19333.0	7.092036209475583e+17
19334.0	7.090200682779987e+17
19335.0	7.088341965777578e+17
19336.0	7.086433902788607e+17
19337.0	7.084516968846675e+17
19338.0	7.081869039020713e+17
19339.0	7.080657540874237e+17
19340.0	7.078502820653738e+17
19341.0	7.076674989107881e+17
19342.0	7.073367260310185e+17
19343.0	7.072733951164416e+17
19344.0	7.070475391161683e+17
19345.0	7.060658422721181e+17
19346.0	7.06217882576486e+17
19347.0	7.062678219172522e+17
19348.0	7.060816835990867e+17
19349.0	7.058572770104659e+17
19350.0	7.056465523813033e+17
19351.0	7.054276090134527e+17
19352.0	7.051965688534356e+17
19353.0	7.049894058874195e+17
19354.0	7.046041703896403e+17
19355.0	7.042888420556799e+17
19356.0	7.040946407473151e+17
19357.0	7.038630153420799e+17
19358.0	7.03617769214225e+17
19359.0	7.033360857694207e+17
19360.0	7.031397698327891e+17
19361.0	7.026758753364652e+17
19362.0	7.024091303247871e+17
19363.0	7.021596119487828e+17
19364.0	7.019064655697235e+17
19365.0	7.016487655047167e+17
19366.0	7.012161132604072e+17
19367.0	7.008117206286336e+17
19368.0	7.00543018344994e+17
19369.0	7.002337011477161e+17
19370.0	6.997469674078203e+17
19371.0	6.993167414285652e+17
19372.0	6.990457750596265e+17
19373.0	6.987434835312639e+17
19374.0	6.980935316668412e+17
19375.0	6.977077353906175e+17
19376.0	6.973964658846378e+17
19377.0	6.968761933714772e+17
19378.0	6.964981872459775e+17
19379.0	6.961673422940841e+17
19380.0	6.958295965936297e+17
19381.0	6.954773966924457e+17
19382.0	6.950571727301289e+17
19383.0	6.946862761596244e+17
19384.0	6.943572116897791e+17
19385.0	6.939825663202644e+17
19386.0	6.936013020594175e+17
19387.0	6.932091498048169e+17
19388.0	6.928086636079785e+17
19389.0	6.924011563559593e+17
19390.0	6.919829181868712e+17
19391.0	6.894483945816032e+17
19392.0	6.910353924773201e+17
19393.0	6.905855694514857e+17
19394.0	6.90123155055138e+17
19395.0	6.896493102017193e+17
19396.0	6.89166698623795e+17
19397.0	6.88677033345024e+17
19398.0	6.880980076505769e+17
19399.0	6.872993168184659e+17
19400.0	6.869520975134719e+17
19401.0	6.864147505479679e+17
19402.0	6.857735750549504e+17
19403.0	6.850684693512192e+17
19404.0	6.844625841029119e+17
19405.0	6.837338512556033e+17
19406.0	6.829456185709908e+17
19407.0	6.822756193315496e+17
19408.0	6.810714626850819e+17
19409.0	6.805239450916183e+17
19410.0	6.794532553927337e+17
19411.0	6.784535513530372e+17
19412.0	6.773502645021356e+17
19413.0	6.760326726243668e+17
19414.0	6.745687750344698e+17
19415.0	6.729771506117292e+17
19416.0	6.711484797157372e+17
19417.0	6.695433335559506e+17
19418.0	6.684121276000938e+17
19419.0	6.672051093198166e+17
19420.0	6.659573263892479e+17
19421.0	6.646506111107071e+17
19422.0	6.632678217831764e+17
19423.0	6.61829258907921e+17
19424.0	6.603197022644908e+17
19425.0	6.587972334561962e+17
19426.0	6.571966421707433e+17
19427.0	6.554644882216276e+17
19428.0	6.537159462879232e+17
19429.0	6.517695500167849e+17
19430.0	6.496307854879405e+17
19431.0	6.470756373015214e+17
19432.0	6.448709632699052e+17
19433.0	6.419624624477524e+17
19434.0	6.384780814494383e+17
19435.0	6.340343211491327e+17
19436.0	6.29715358589474e+17
19437.0	6.264510369933994e+17
19438.0	6.208159750291461e+17
19439.0	6.186860817328812e+17
19440.0	6.142761293403475e+17
19441.0	6.091948190334973e+17
19442.0	6.032797735758505e+17
19443.0	5.961192697408169e+17
19444.0	5.879360926689957e+17
19445.0	5.798548812245677e+17
19446.0	5.701493220267349e+17
19447.0	5.584098353479673e+17
19448.0	5.4443671422675686e+17
19449.0	5.2724941532255584e+17
19450.0	5.035902701141959e+17
19451.0	4.957246741370202e+17
19452.0	5.157860906369028e+17
19453.0	5.363404238400177e+17
19454.0	5.5132453671185005e+17
19455.0	5.6396857740711245e+17
19456.0	5.743754262609924e+17
19457.0	5.829259838182737e+17
19458.0	5.893470934444726e+17
19459.0	5.982891414650881e+17
19460.0	6.045275108584102e+17
19461.0	6.097515906596861e+17
19462.0	6.14267572121327e+17
19463.0	6.182472512787794e+17
19464.0	6.218657639519572e+17
19465.0	6.251075721319764e+17
19466.0	6.28495067224474e+17
19467.0	6.328656869720068e+17
19468.0	6.365016653561855e+17
19469.0	6.392990770309805e+17
19470.0	6.418415422013441e+17
19471.0	6.440049383396691e+17
19472.0	6.459187680073041e+17
19473.0	6.476401380513107e+17
19474.0	6.492849299608916e+17
19475.0	6.505530043050662e+17
19476.0	6.521410856594089e+17
19477.0	6.534553708178089e+17
19478.0	6.547078420015785e+17
19479.0	6.559411243144532e+17
19480.0	6.570831731752959e+17
19481.0	6.581675207163904e+17
19482.0	6.591884859626835e+17
19483.0	6.601634029939369e+17
19484.0	6.610783519637503e+17
19485.0	6.621637525547688e+17
19486.0	6.63650196765628e+17
19487.0	6.651035906998268e+17
19488.0	6.663409454721702e+17
19489.0	6.673741102011727e+17
19490.0	6.679104766083066e+17
19491.0	6.692315485001043e+17
19492.0	6.699055839881896e+17
19493.0	6.705785325223933e+17
19494.0	6.711605842673664e+17
19495.0	6.717253672239104e+17
19496.0	6.720387061295781e+17
19497.0	6.727224705854124e+17
19498.0	6.728379137698476e+17
19499.0	6.701674664034289e+17
19500.0	6.739184621103785e+17
19501.0	6.742187512780116e+17
19502.0	6.745011069299368e+17
19503.0	6.747718228290217e+17
19504.0	6.751367071443628e+17
19505.0	6.753877179935401e+17
19506.0	6.756175894107476e+17
19507.0	6.7582422417408e+17
19508.0	6.760321887414953e+17
19509.0	6.762204980314111e+17
19510.0	6.76399826267887e+17
19511.0	6.736364041142259e+17
19512.0	6.762674889162744e+17
19513.0	6.759308448497647e+17
19514.0	6.76388365332206e+17
19515.0	6.770585084362755e+17
19516.0	6.773454527965865e+17
19517.0	6.774467345427112e+17
19518.0	6.775711429820415e+17
19519.0	6.776672474191187e+17
19520.0	6.777498421428223e+17
19521.0	6.778807999179434e+17
19522.0	6.779543183775059e+17
19523.0	6.78038278836497e+17
19524.0	6.781021533328724e+17
19525.0	6.78268419597926e+17
19526.0	6.784474568895145e+17
19527.0	6.784902844383231e+17
19528.0	6.787088682145107e+17
19529.0	6.789729641037823e+17
19530.0	6.790038085959679e+17
19531.0	6.790277803016191e+17
19532.0	6.79325434118144e+17
19533.0	6.79406224871697e+17
19534.0	6.794109416461652e+17
19535.0	6.794072688339626e+17
19536.0	6.795242659381244e+17
19537.0	6.796991834445139e+17
19538.0	6.796562096543062e+17
19539.0	6.795020486399322e+17
19540.0	6.796493108630867e+17
19541.0	6.796382243389439e+17
19542.0	6.798316097153702e+17
19543.0	6.798264793126227e+17
19544.0	6.797982401822719e+17
19545.0	6.796116074255698e+17
19546.0	6.794433692084906e+17
19547.0	6.79693732876561e+17
19548.0	6.79653995061794e+17
19549.0	6.796945188192255e+17
19550.0	6.7976003860125e+17
19551.0	6.797135046858067e+17
19552.0	6.796643128399187e+17
19553.0	6.796243489521663e+17
19554.0	6.795647285985279e+17
19555.0	6.795174923468799e+17
19556.0	6.794641394718035e+17
19557.0	6.79403993571874e+17
19558.0	6.793423561774419e+17
19559.0	6.793437155513682e+17
19560.0	6.793560576404138e+17
19561.0	6.792895436685311e+17
19562.0	6.792292353791316e+17
19563.0	6.791621414748159e+17
19564.0	6.79090702061841e+17
19565.0	6.790175322188457e+17
19566.0	6.789340157968383e+17
19567.0	6.788700551075155e+17
19568.0	6.787829614335316e+17
19569.0	6.78708496179746e+17
19570.0	6.78637626073634e+17
19571.0	6.785571193443668e+17
19572.0	6.784649301502634e+17
19573.0	6.783878584860672e+17
19574.0	6.782793461792765e+17
19575.0	6.782686146330623e+17
19576.0	6.782551588863999e+17
19577.0	6.781581472213674e+17
19578.0	6.780677109667155e+17
19579.0	6.779847787413503e+17
19580.0	6.778965824547497e+17
19581.0	6.778120133323433e+17
19582.0	6.777273175419562e+17
19583.0	6.776362057247402e+17
19584.0	6.775411985874943e+17
19585.0	6.774119948703059e+17
19586.0	6.773062762496e+17
19587.0	6.772476829412009e+17
19588.0	6.77008814042863e+17
19589.0	6.770631495734612e+17
19590.0	6.769491760731475e+17
19591.0	6.768780878632276e+17
19592.0	6.767832305325396e+17
19593.0	6.766780136204969e+17
19594.0	6.765012009877501e+17
19595.0	6.76472833511697e+17
19596.0	6.760595769174701e+17
19597.0	6.762743470926506e+17
19598.0	6.760874177986559e+17
19599.0	6.76084173574417e+17
19600.0	6.75984859865634e+17
19601.0	6.758591821600084e+17
19602.0	6.757631656635049e+17
19603.0	6.755075944873981e+17
19604.0	6.755509742862336e+17
19605.0	6.753622509486081e+17
19606.0	6.753619957252096e+17
19607.0	6.752678694617087e+17
19608.0	6.752287057073491e+17
19609.0	6.751089114917545e+17
19610.0	6.750229545440596e+17
19611.0	6.749139199066111e+17
19612.0	6.748108583774889e+17
19613.0	6.746995903430655e+17
19614.0	6.745811274694655e+17
19615.0	6.744874799857663e+17
19616.0	6.74360838918417e+17
19617.0	6.742711746254163e+17
19618.0	6.739740611051516e+17
19619.0	6.738235056543055e+17
19620.0	6.73719715644484e+17
19621.0	6.738332914548735e+17
19622.0	6.737252533141504e+17
19623.0	6.73616041746978e+17
19624.0	6.735020086176425e+17
19625.0	6.733948702949375e+17
19626.0	6.732799609754964e+17
19627.0	6.731723090602666e+17
19628.0	6.73001065274846e+17
19629.0	6.729154656818516e+17
19630.0	6.726863254716415e+17
19631.0	6.70220100165086e+17
19632.0	6.726071461696852e+17
19633.0	6.724826532151295e+17
19634.0	6.723884842396329e+17
19635.0	6.722609184680617e+17
19636.0	6.721590197398185e+17
19637.0	6.719041779531776e+17
19638.0	6.719328724451327e+17
19639.0	6.718160763879423e+17
19640.0	6.716769211951785e+17
19641.0	6.713846916623022e+17
19642.0	6.714772775676585e+17
19643.0	6.713600285955412e+17
19644.0	6.712305820281513e+17
19645.0	6.710455659659261e+17
19646.0	6.710239165764948e+17
19647.0	6.709091476963327e+17
19648.0	6.707924548889257e+17
19649.0	6.706763152403113e+17
19650.0	6.705638105852585e+17
19651.0	6.704460775205545e+17
19652.0	6.703293743671978e+17
19653.0	6.702155660525567e+17
19654.0	6.700969705690452e+17
19655.0	6.699797181016745e+17
19656.0	6.698665898934272e+17
19657.0	6.697502782084436e+17
19658.0	6.696362198433791e+17
19659.0	6.695194944602111e+17
19660.0	6.694046149902335e+17
19661.0	6.692863604337321e+17
19662.0	6.691714134354602e+17
19663.0	6.690369060907689e+17
19664.0	6.689257437528061e+17
19665.0	6.688209524228095e+17
19666.0	6.686980832231424e+17
