# Flux units: erg / (cm m2 s)
# Wavelength units: Angstrom
wave	flux
19000.0	6.234003863852371e+17
19001.0	6.2327721309853e+17
19002.0	6.23168138125858e+17
19003.0	6.230518218970452e+17
19004.0	6.229355909524138e+17
19005.0	6.228196158603263e+17
19006.0	6.227034356667731e+17
19007.0	6.225850694019754e+17
19008.0	6.224667491347114e+17
19009.0	6.223466783746729e+17
19010.0	6.222068682413395e+17
19011.0	6.221194628606634e+17
19012.0	6.219935736922112e+17
19013.0	6.218892914109097e+17
19014.0	6.217692128914089e+17
19015.0	6.216544441510569e+17
19016.0	6.215372240497321e+17
19017.0	6.214244036334932e+17
19018.0	6.213076978237439e+17
19019.0	6.21191892111633e+17
19020.0	6.210743744244393e+17
19021.0	6.209597304646314e+17
19022.0	6.208446296053076e+17
19023.0	6.207256642540884e+17
19024.0	6.206104947479891e+17
19025.0	6.204951243347284e+17
19026.0	6.203771589055827e+17
19027.0	6.20255441461794e+17
19028.0	6.201471250989055e+17
19029.0	6.200307537849001e+17
19030.0	6.199157512820052e+17
19031.0	6.197996920941228e+17
19032.0	6.196833254637565e+17
19033.0	6.195610832426324e+17
19034.0	6.194504848288425e+17
19035.0	6.193320819337898e+17
19036.0	6.186175551941289e+17
19037.0	6.191030135160831e+17
19038.0	6.189855307115177e+17
19039.0	6.188712487900499e+17
19040.0	6.187552464349865e+17
19041.0	6.186390518409897e+17
19042.0	6.185175759891113e+17
19043.0	6.184072681007786e+17
19044.0	6.182911329959935e+17
19045.0	6.181753250469203e+17
19046.0	6.180556948985172e+17
19047.0	6.17941640028706e+17
19048.0	6.178165872743763e+17
19049.0	6.177118861918207e+17
19050.0	6.175979024853673e+17
19051.0	6.173989467936084e+17
19052.0	6.173496291186004e+17
19053.0	6.172524628934655e+17
19054.0	6.171370803866281e+17
19055.0	6.170033766705834e+17
19056.0	6.16904075195187e+17
19057.0	6.167890803119444e+17
19058.0	6.166727294801236e+17
19059.0	6.165579218026495e+17
19060.0	6.164406245960364e+17
19061.0	6.163264789195433e+17
19062.0	6.162103358455808e+17
19063.0	6.160946954589524e+17
19064.0	6.159708129853439e+17
19065.0	6.15851123417634e+17
19066.0	6.157436696832681e+17
19067.0	6.156316545733972e+17
19068.0	6.155162077538985e+17
19069.0	6.154005279408127e+17
19070.0	6.152831928456532e+17
19071.0	6.151692738712916e+17
19072.0	6.150536205522259e+17
19073.0	6.149376142125737e+17
19074.0	6.148223823511551e+17
19075.0	6.147067767772499e+17
19076.0	6.145897712844799e+17
19077.0	6.144744486163795e+17
19078.0	6.143581264456362e+17
19079.0	6.142443195290963e+17
19080.0	6.141276520273236e+17
19081.0	6.140106582086995e+17
19082.0	6.138948510285823e+17
19083.0	6.137748663915859e+17
19084.0	6.136508434786986e+17
19085.0	6.135515129227946e+17
19086.0	6.134107760579924e+17
19087.0	6.133031110705151e+17
19088.0	6.131993023261354e+17
19089.0	6.130690285021865e+17
19090.0	6.129723760093865e+17
19091.0	6.128569554042879e+17
19092.0	6.127368501810515e+17
19093.0	6.126283818445482e+17
19094.0	6.125127833310548e+17
19095.0	6.123974037602303e+17
19096.0	6.122812849433257e+17
19097.0	6.121669388490067e+17
19098.0	6.120519682228223e+17
19099.0	6.11936690573585e+17
19100.0	6.118200868951379e+17
19101.0	6.117058206324052e+17
19102.0	6.115839482090835e+17
19103.0	6.11475900211746e+17
19104.0	6.113607290279252e+17
19105.0	6.11245551133218e+17
19106.0	6.111273299214335e+17
19107.0	6.110142249915732e+17
19108.0	6.109001174133418e+17
19109.0	6.107382964114771e+17
19110.0	6.106679615684607e+17
19111.0	6.105549574417065e+17
19112.0	6.104399369033043e+17
19113.0	6.103249137784148e+17
19114.0	6.102097147024724e+17
19115.0	6.100907105539412e+17
19116.0	6.099783055136084e+17
19117.0	6.098632337347924e+17
19118.0	6.097413808149844e+17
19119.0	6.092970407930534e+17
19120.0	6.095145334210559e+17
19121.0	6.094014274426195e+17
19122.0	6.092903342407679e+17
19123.0	6.091753900386986e+17
19124.0	6.090579041583103e+17
19125.0	6.089451636435626e+17
19126.0	6.08830421606946e+17
19127.0	6.085904742132393e+17
19128.0	6.085861823916713e+17
19129.0	6.084810880232105e+17
19130.0	6.083699928640169e+17
19131.0	6.082566650768041e+17
19132.0	6.08141847892241e+17
19133.0	6.080141614645247e+17
19134.0	6.079050435002368e+17
19135.0	6.077974946250751e+17
19136.0	6.076834060610217e+17
19137.0	6.075573261216425e+17
19138.0	6.074522745350825e+17
19139.0	6.073393240954196e+17
19140.0	6.072248316198911e+17
19141.0	6.071101780830889e+17
19142.0	6.06993894150417e+17
19143.0	6.068773371685546e+17
19144.0	6.067636646095529e+17
19145.0	6.066518479601663e+17
19146.0	6.064970846437376e+17
19147.0	6.064144855859199e+17
19148.0	6.063080140876457e+17
19149.0	6.061935792138921e+17
19150.0	6.060786395556521e+17
19151.0	6.059648202659156e+17
19152.0	6.058498365674835e+17
19153.0	6.057345479431508e+17
19154.0	6.056123444494335e+17
19155.0	6.055070130328916e+17
19156.0	6.053923761334953e+17
19157.0	6.052773211318953e+17
19158.0	6.051311254503423e+17
19159.0	6.050479588332883e+17
19160.0	6.049342250374484e+17
19161.0	6.048190393133738e+17
19162.0	6.04633376489472e+17
19163.0	6.045889676181504e+17
19164.0	6.04477669314833e+17
19165.0	6.043618208208212e+17
19166.0	6.042390575972351e+17
19167.0	6.041278810685439e+17
19168.0	6.040182641917952e+17
19169.0	6.039034769266003e+17
19170.0	6.037918518170964e+17
19171.0	6.036731597247828e+17
19172.0	6.035633725592916e+17
19173.0	6.034491250311167e+17
19174.0	6.033309900122793e+17
19175.0	6.03220922737186e+17
19176.0	6.03106740150818e+17
19177.0	6.029818333582676e+17
19178.0	6.028762679694676e+17
19179.0	6.02758073810944e+17
19180.0	6.026485278878378e+17
19181.0	6.025278322464084e+17
19182.0	6.024194252865535e+17
19183.0	6.023073453746857e+17
19184.0	6.021915075761491e+17
19185.0	6.020787502841855e+17
19186.0	6.019649574185642e+17
19187.0	6.018460199594665e+17
19188.0	6.017365646333268e+17
19189.0	6.016222072143871e+17
19190.0	6.015076787377492e+17
19191.0	6.013918208764586e+17
19192.0	6.012804058316799e+17
19193.0	6.011657622213971e+17
19194.0	6.010512919756797e+17
19195.0	6.00644794991684e+17
19196.0	6.004917797213524e+17
19197.0	6.003776125140991e+17
19198.0	6.002631514958505e+17
19199.0	5.99810273338982e+17
19200.0	5.997949528746666e+17
19201.0	5.999212308550995e+17
19202.0	5.998081238979924e+17
19203.0	5.996931841698473e+17
19204.0	5.995785367846911e+17
19205.0	5.994653685907455e+17
19206.0	5.993510249431039e+17
19207.0	5.992302671560701e+17
19208.0	5.991098089122474e+17
19209.0	5.990092503340372e+17
19210.0	5.988961084243967e+17
19211.0	5.987820134290772e+17
19212.0	5.98667965829393e+17
19213.0	5.9854606565376e+17
19214.0	5.984279732071082e+17
19215.0	5.983239475473065e+17
19216.0	5.982113495689897e+17
19217.0	5.98097480716561e+17
19218.0	5.979251773800445e+17
19219.0	5.978588146128212e+17
19220.0	5.97753482706944e+17
19221.0	5.976187969645225e+17
19222.0	5.975257529013588e+17
19223.0	5.974117998133245e+17
19224.0	5.972949184020479e+17
19225.0	5.971739657895935e+17
19226.0	5.970685560094719e+17
19227.0	5.96954168042018e+17
19228.0	5.968417105029801e+17
19229.0	5.967274589203114e+17
19230.0	5.966129445644969e+17
19231.0	5.964980543990442e+17
19232.0	5.963836860749139e+17
19233.0	5.962654285824e+17
19234.0	5.961543836150441e+17
19235.0	5.960401613925033e+17
19236.0	5.959272694633812e+17
19237.0	5.958117479153663e+17
19238.0	5.956916658307071e+17
19239.0	5.955840533419348e+17
19240.0	5.954658689002153e+17
19241.0	5.953523289511251e+17
19242.0	5.952391562133503e+17
19243.0	5.951149256125097e+17
19244.0	5.950116491253076e+17
19245.0	5.948970526310399e+17
19246.0	5.947813224164009e+17
19247.0	5.946676671239507e+17
19248.0	5.945530714685437e+17
19249.0	5.944380876303018e+17
19250.0	5.943221852394836e+17
19251.0	5.941990485131263e+17
19252.0	5.940756186049193e+17
19253.0	5.93977330962705e+17
19254.0	5.938635134905002e+17
19255.0	5.937372953488041e+17
19256.0	5.936305589802324e+17
19257.0	5.935191054876671e+17
19258.0	5.934039501023914e+17
19259.0	5.932842122302803e+17
19260.0	5.931616083902463e+17
19261.0	5.93057987760401e+17
19262.0	5.929397179645951e+17
19263.0	5.928226220845737e+17
19264.0	5.926742763328852e+17
19265.0	5.925825418013354e+17
19266.0	5.924669289573034e+17
19267.0	5.923656541317801e+17
19268.0	5.922499769051818e+17
19269.0	5.921342339678207e+17
19270.0	5.920181475169619e+17
19271.0	5.918787899490304e+17
19272.0	5.917840432081578e+17
19273.0	5.915500977935699e+17
19274.0	5.91475870147106e+17
19275.0	5.91438173839906e+17
19276.0	5.91320518369826e+17
19277.0	5.912044881226409e+17
19278.0	5.910882386531667e+17
19279.0	5.909713860427775e+17
19280.0	5.908498166579199e+17
19281.0	5.90633641251089e+17
19282.0	5.90243413762594e+17
19283.0	5.901193438735017e+17
19284.0	5.900022614851583e+17
19285.0	5.898777105093972e+17
19286.0	5.897710006348457e+17
19287.0	5.896556660828841e+17
19288.0	5.893538821352104e+17
19289.0	5.890502798868474e+17
19290.0	5.893016143964842e+17
19291.0	5.89165540339439e+17
19292.0	5.890647686206804e+17
19293.0	5.889456775801514e+17
19294.0	5.888266907680767e+17
19295.0	5.887085136663892e+17
19296.0	5.8858931762845e+17
19297.0	5.884691982144851e+17
19298.0	5.883493675783508e+17
19299.0	5.882309282627583e+17
19300.0	5.881106782661289e+17
19301.0	5.879904983143764e+17
19302.0	5.878692107168425e+17
19303.0	5.877449936076799e+17
19304.0	5.876265903631017e+17
19305.0	5.875070113153023e+17
19306.0	5.873864690455892e+17
19307.0	5.872619897924265e+17
19308.0	5.871416346585769e+17
19309.0	5.87005753889041e+17
19310.0	5.868789719629823e+17
19311.0	5.867734358644052e+17
19312.0	5.866540650637994e+17
19313.0	5.864473750055593e+17
19314.0	5.856301514315098e+17
19315.0	5.85534011971994e+17
19316.0	5.859404754015572e+17
19317.0	5.858168013149524e+17
19318.0	5.856911978485076e+17
19319.0	5.855669412429823e+17
19320.0	5.854410609524735e+17
19321.0	5.853150674157567e+17
19322.0	5.851816357003264e+17
19323.0	5.850550330807635e+17
19324.0	5.84933924999441e+17
19325.0	5.847917464824489e+17
19326.0	5.846777303400447e+17
19327.0	5.845480887375188e+17
19328.0	5.844198053904383e+17
19329.0	5.842901758115839e+17
19330.0	5.841572570595325e+17
19331.0	5.840259289273684e+17
19332.0	5.838972225847295e+17
19333.0	5.837656769079978e+17
19334.0	5.836328888085162e+17
19335.0	5.834999510422867e+17
19336.0	5.833659074478079e+17
19337.0	5.832311257956351e+17
19338.0	5.830816654076586e+17
19339.0	5.829601665570132e+17
19340.0	5.82817528554018e+17
19341.0	5.826835863917908e+17
19342.0	5.825212743767379e+17
19343.0	5.824086903794346e+17
19344.0	5.822689767849983e+17
19345.0	5.819984493499731e+17
19346.0	5.819189698756605e+17
19347.0	5.818393909264383e+17
19348.0	5.817009377902591e+17
19349.0	5.815545799988564e+17
19350.0	5.814087227976362e+17
19351.0	5.812619959074815e+17
19352.0	5.811108790490452e+17
19353.0	5.809668134447786e+17
19354.0	5.808166738591744e+17
19355.0	5.806584107455828e+17
19356.0	5.805120347788628e+17
19357.0	5.803578462917972e+17
19358.0	5.802009193436499e+17
19359.0	5.800382382997501e+17
19360.0	5.798831227316906e+17
19361.0	5.797233342196393e+17
19362.0	5.795640203629908e+17
19363.0	5.794001894506495e+17
19364.0	5.792345229710676e+17
19365.0	5.790672263752361e+17
19366.0	5.788978470977535e+17
19367.0	5.787264916739412e+17
19368.0	5.785530653125289e+17
19369.0	5.783722072735743e+17
19370.0	5.781865062116009e+17
19371.0	5.780158485102591e+17
19372.0	5.778365910177108e+17
19373.0	5.776500909408256e+17
19374.0	5.77463398834722e+17
19375.0	5.772723759000234e+17
19376.0	5.770788556767231e+17
19377.0	5.768818408991402e+17
19378.0	5.766820790621524e+17
19379.0	5.764788532893011e+17
19380.0	5.762721469431807e+17
19381.0	5.760618601294505e+17
19382.0	5.75842742907699e+17
19383.0	5.7562184800010234e+17
19384.0	5.7540737918566394e+17
19385.0	5.751814693584896e+17
19386.0	5.749512238792703e+17
19387.0	5.747164246441982e+17
19388.0	5.744773272961024e+17
19389.0	5.7423332988245325e+17
19390.0	5.7398413719415456e+17
19391.0	5.7321794424886534e+17
19392.0	5.7345100927904403e+17
19393.0	5.7320429018152954e+17
19394.0	5.729320779644928e+17
19395.0	5.726540078426794e+17
19396.0	5.723519551100245e+17
19397.0	5.720389983054506e+17
19398.0	5.7173953422731936e+17
19399.0	5.713879779420841e+17
19400.0	5.711175450886143e+17
19401.0	5.708053831745535e+17
19402.0	5.704794637336575e+17
19403.0	5.7014382448257683e+17
19404.0	5.698023459913726e+17
19405.0	5.694501349053779e+17
19406.0	5.690908508946432e+17
19407.0	5.687222568572245e+17
19408.0	5.6829147639098016e+17
19409.0	5.679535964727977e+17
19410.0	5.6753119832309754e+17
19411.0	5.670714830312789e+17
19412.0	5.666548129726463e+17
19413.0	5.66227071209745e+17
19414.0	5.657853313766741e+17
19415.0	5.653353852480171e+17
19416.0	5.647724483444736e+17
19417.0	5.6426050306266445e+17
19418.0	5.6377413870114125e+17
19419.0	5.631960890212352e+17
19420.0	5.625489503464105e+17
19421.0	5.619726945004202e+17
19422.0	5.61187212440371e+17
19423.0	5.6045359714358605e+17
19424.0	5.5961113266749414e+17
19425.0	5.585968372034216e+17
19426.0	5.573819994821972e+17
19427.0	5.5589469341177146e+17
19428.0	5.5407432828627546e+17
19429.0	5.516047085993976e+17
19430.0	5.495558029093547e+17
19431.0	5.4816477890478074e+17
19432.0	5.4684072115787085e+17
19433.0	5.453321870158507e+17
19434.0	5.436886468263934e+17
19435.0	5.419753834632531e+17
19436.0	5.4014814254530554e+17
19437.0	5.3818409853037216e+17
19438.0	5.352849124185432e+17
19439.0	5.336988397862914e+17
19440.0	5.309374053832016e+17
19441.0	5.270610295564972e+17
19442.0	5.206699789691572e+17
19443.0	5.147266275519145e+17
19444.0	5.096556806711977e+17
19445.0	5.0409639684778675e+17
19446.0	4.971904391009616e+17
19447.0	4.855238255181835e+17
19448.0	4.72081247712052e+17
19449.0	4.5170972842175194e+17
19450.0	4.0587434984297683e+17
19451.0	3.910463488262121e+17
19452.0	4.314682413634918e+17
19453.0	4.639281222691509e+17
19454.0	4.783164001441091e+17
19455.0	4.917602148504922e+17
19456.0	5.0013144144500045e+17
19457.0	5.059719854380369e+17
19458.0	5.099537809014795e+17
19459.0	5.1581620832611066e+17
19460.0	5.227385523798026e+17
19461.0	5.273889057101144e+17
19462.0	5.3040167504226976e+17
19463.0	5.3268533767482e+17
19464.0	5.3472578009825274e+17
19465.0	5.3654705273132365e+17
19466.0	5.382341954371582e+17
19467.0	5.397847216226303e+17
19468.0	5.4124568201134086e+17
19469.0	5.425978793437866e+17
19470.0	5.4386547427901434e+17
19471.0	5.450218249475413e+17
19472.0	5.462902116974589e+17
19473.0	5.48614872463223e+17
19474.0	5.504811004155226e+17
19475.0	5.518931177504768e+17
19476.0	5.5301129123485005e+17
19477.0	5.5387700452829856e+17
19478.0	5.5455775125230925e+17
19479.0	5.552397292841642e+17
19480.0	5.5569804647464954e+17
19481.0	5.5619374036637005e+17
19482.0	5.565414795553452e+17
19483.0	5.5701475195617274e+17
19484.0	5.573050790925653e+17
19485.0	5.5757601973643936e+17
19486.0	5.5792659490406406e+17
19487.0	5.5820716909527034e+17
19488.0	5.584408657876308e+17
19489.0	5.58650358829329e+17
19490.0	5.587797025663657e+17
19491.0	5.59067395400226e+17
19492.0	5.593360549019647e+17
19493.0	5.595155428715177e+17
19494.0	5.5968495255770445e+17
19495.0	5.5984439049584634e+17
19496.0	5.599678228507306e+17
19497.0	5.601338553532415e+17
19498.0	5.601729659098451e+17
19499.0	5.595852213059582e+17
19500.0	5.6050763676603725e+17
19501.0	5.606154686868138e+17
19502.0	5.6071506537130656e+17
19503.0	5.6080899848710816e+17
19504.0	5.608952879033002e+17
19505.0	5.609748298727423e+17
19506.0	5.610546313297919e+17
19507.0	5.611513291210751e+17
19508.0	5.6121161839629645e+17
19509.0	5.6126497637444256e+17
19510.0	5.612984229429247e+17
19511.0	5.603046132285437e+17
19512.0	5.6124432991300256e+17
19513.0	5.611766855062866e+17
19514.0	5.612686719756967e+17
19515.0	5.614343642502484e+17
19516.0	5.614855969046526e+17
19517.0	5.6149603023585274e+17
19518.0	5.615090443922089e+17
19519.0	5.615134333818196e+17
19520.0	5.615123755084458e+17
19521.0	5.6151139348206925e+17
19522.0	5.6150254734540794e+17
19523.0	5.614945997684735e+17
19524.0	5.614811215123795e+17
19525.0	5.614632061020842e+17
19526.0	5.6144446532266643e+17
19527.0	5.6142156470244685e+17
19528.0	5.6139561859809274e+17
19529.0	5.613676957881684e+17
19530.0	5.613372482169513e+17
19531.0	5.613038937833471e+17
19532.0	5.61267964256802e+17
19533.0	5.6123002447025485e+17
19534.0	5.611896079471956e+17
19535.0	5.611468777062399e+17
19536.0	5.611005100250452e+17
19537.0	5.6105710897506976e+17
19538.0	5.609992779814228e+17
19539.0	5.6092322588262406e+17
19540.0	5.609054257457834e+17
19541.0	5.6085380064433485e+17
19542.0	5.607986821070847e+17
19543.0	5.607423505771177e+17
19544.0	5.6068445065707514e+17
19545.0	5.605894207307775e+17
19546.0	5.6050516681031654e+17
19547.0	5.6050268832617805e+17
19548.0	5.6043902704025594e+17
19549.0	5.6036854896175776e+17
19550.0	5.6030921228288e+17
19551.0	5.602425847152639e+17
19552.0	5.601746265047039e+17
19553.0	5.601038814587562e+17
19554.0	5.600332802774356e+17
19555.0	5.5996388097392634e+17
19556.0	5.598930875536724e+17
19557.0	5.5982003612986016e+17
19558.0	5.597465296240639e+17
19559.0	5.596718928931498e+17
19560.0	5.5959509644520096e+17
19561.0	5.595189459200681e+17
19562.0	5.594441881135785e+17
19563.0	5.593666668199936e+17
19564.0	5.592884830360917e+17
19565.0	5.59209608450321e+17
19566.0	5.5912869438423034e+17
19567.0	5.5904978351773005e+17
19568.0	5.5896741381843616e+17
19569.0	5.588871721691817e+17
19570.0	5.5880589410740896e+17
19571.0	5.5872298949454496e+17
19572.0	5.5863850055325e+17
19573.0	5.585551612706815e+17
19574.0	5.584669993773737e+17
19575.0	5.5838838476854605e+17
19576.0	5.583035864973311e+17
19577.0	5.582169326660266e+17
19578.0	5.581293192478719e+17
19579.0	5.580445426472276e+17
19580.0	5.579578825244671e+17
19581.0	5.578715065658026e+17
19582.0	5.5778525182252365e+17
19583.0	5.57697517957939e+17
19584.0	5.576086473670655e+17
19585.0	5.575136904216575e+17
19586.0	5.574224487208277e+17
19587.0	5.57340371783953e+17
19588.0	5.572208856399871e+17
19589.0	5.5716267953575245e+17
19590.0	5.570677957110441e+17
19591.0	5.5698387013468154e+17
19592.0	5.568932197608106e+17
19593.0	5.5680114940532045e+17
19594.0	5.5669628432547834e+17
19595.0	5.566165413789694e+17
19596.0	5.564929736878762e+17
19597.0	5.564339542381908e+17
19598.0	5.563187357985449e+17
19599.0	5.562524121781588e+17
19600.0	5.561605800591358e+17
19601.0	5.560632266282323e+17
19602.0	5.5597084799139834e+17
19603.0	5.558486214290089e+17
19604.0	5.557840866093738e+17
19605.0	5.558453744085674e+17
19606.0	5.557956417071785e+17
19607.0	5.557019308195839e+17
19608.0	5.5560695423085216e+17
19609.0	5.555097452238164e+17
19610.0	5.5541888247835296e+17
19611.0	5.5532382361135776e+17
19612.0	5.552295031515817e+17
19613.0	5.551338805002239e+17
19614.0	5.550368082274985e+17
19615.0	5.5494422092404045e+17
19616.0	5.5484477446553594e+17
19617.0	5.547533582117547e+17
19618.0	5.5461716231017805e+17
19619.0	5.5451359774419616e+17
19620.0	5.5442026287595514e+17
19621.0	5.54371125486114e+17
19622.0	5.542752221659135e+17
19623.0	5.541791992381439e+17
19624.0	5.540830775345151e+17
19625.0	5.539868163702783e+17
19626.0	5.5389053318594554e+17
19627.0	5.537940209926142e+17
19628.0	5.536872712721749e+17
19629.0	5.535948427231231e+17
19630.0	5.5346396456987296e+17
19631.0	5.529469772453205e+17
19632.0	5.533104505268906e+17
19633.0	5.532111341617151e+17
19634.0	5.5311708143834445e+17
19635.0	5.530175556375892e+17
19636.0	5.5292313304651085e+17
19637.0	5.528010110621011e+17
19638.0	5.5272812566282234e+17
19639.0	5.526303361641131e+17
19640.0	5.5252406627205114e+17
19641.0	5.523789940348246e+17
19642.0	5.523394215455402e+17
19643.0	5.522412077230762e+17
19644.0	5.5213989207299405e+17
19645.0	5.520277005926399e+17
19646.0	5.519494334119935e+17
19647.0	5.518517912032595e+17
19648.0	5.517540963560106e+17
19649.0	5.5165616508982605e+17
19650.0	5.5155858404802554e+17
19651.0	5.514607658183337e+17
19652.0	5.5136291731974816e+17
19653.0	5.512710167636649e+17
19654.0	5.5117385256577696e+17
19655.0	5.510755287826432e+17
19656.0	5.509773727716692e+17
19657.0	5.5087980522154643e+17
19658.0	5.5078172540709536e+17
19659.0	5.506835096971945e+17
19660.0	5.5058548755442336e+17
19661.0	5.5048732161693e+17
19662.0	5.503891269484543e+17
