# Flux units: erg / (cm m2 s)
# Wavelength units: Angstrom
wave	flux
19000.0	3.588311610294272e+17
19001.0	3.5877745876882765e+17
19002.0	3.587178317043029e+17
19003.0	3.586608812348757e+17
19004.0	3.5857554811999565e+17
19005.0	3.5853398116925434e+17
19006.0	3.5847831506561696e+17
19007.0	3.5842276032075085e+17
19008.0	3.583649135285589e+17
19009.0	3.5830909216576845e+17
19010.0	3.5823827113301325e+17
19011.0	3.581748430503936e+17
19012.0	3.5809770085198496e+17
19013.0	3.580728163958784e+17
19014.0	3.5799401716776954e+17
19015.0	3.579333857771519e+17
19016.0	3.5788328076137805e+17
19017.0	3.5783628442391885e+17
19018.0	3.577709178738005e+17
19019.0	3.5771493510021114e+17
19020.0	3.5765374370010445e+17
19021.0	3.575956749593258e+17
19022.0	3.575432805526186e+17
19023.0	3.574709922125142e+17
19024.0	3.5742160435281914e+17
19025.0	3.573582851123882e+17
19026.0	3.5730197497337165e+17
19027.0	3.5724285842554874e+17
19028.0	3.5717460738266445e+17
19029.0	3.571100891305301e+17
19030.0	3.570448305837397e+17
19031.0	3.5700360190361594e+17
19032.0	3.5695263999153485e+17
19033.0	3.5687504341019296e+17
19034.0	3.5682603205918714e+17
19035.0	3.567744345702399e+17
19036.0	3.56662668112691e+17
19037.0	3.566503667083946e+17
19038.0	3.565918951047168e+17
19039.0	3.5653254521378125e+17
19040.0	3.5647062239696205e+17
19041.0	3.564155123881301e+17
19042.0	3.561323196929362e+17
19043.0	3.5629857099830605e+17
19044.0	3.5625147197030394e+17
19045.0	3.561842170047146e+17
19046.0	3.5612176116176205e+17
19047.0	3.5605984463639885e+17
19048.0	3.5598366558999885e+17
19049.0	3.554731699994616e+17
19050.0	3.558951876558847e+17
19051.0	3.5581744979640314e+17
19052.0	3.5576945766126925e+17
19053.0	3.5571539741682336e+17
19054.0	3.5564476778414074e+17
19055.0	3.5552709462807885e+17
19056.0	3.5552424522765645e+17
19057.0	3.5548517801219405e+17
19058.0	3.5517989042257875e+17
19059.0	3.552489687220223e+17
19060.0	3.553086475862016e+17
19061.0	3.5524083365969914e+17
19062.0	3.5517032237629434e+17
19063.0	3.551344015179776e+17
19064.0	3.5507471412538016e+17
19065.0	3.5501351517552634e+17
19066.0	3.548703310042454e+17
19067.0	3.5486912164659194e+17
19068.0	3.548441160450047e+17
19069.0	3.5478203740979194e+17
19070.0	3.54706458218769e+17
19071.0	3.5465457971145376e+17
19072.0	3.5451475902245523e+17
19073.0	3.5455579518402554e+17
19074.0	3.5447245023914656e+17
19075.0	3.5443257401234765e+17
19076.0	3.5436905973678074e+17
19077.0	3.543127024118442e+17
19078.0	3.54254426612258e+17
19079.0	3.5418873248699725e+17
19080.0	3.5413926255875405e+17
19081.0	3.5408473891362125e+17
19082.0	3.5403030971023354e+17
19083.0	3.539615592655531e+17
19084.0	3.5390748280313165e+17
19085.0	3.53847022260497e+17
19086.0	3.53662841004578e+17
19087.0	3.535431014547453e+17
19088.0	3.5355667666916666e+17
19089.0	3.5361514736407885e+17
19090.0	3.535601512306006e+17
19091.0	3.5348652959115955e+17
19092.0	3.532585850372102e+17
19093.0	3.5337923873559885e+17
19094.0	3.5332547265167354e+17
19095.0	3.5325653129625594e+17
19096.0	3.5320887141990394e+17
19097.0	3.5314838039866016e+17
19098.0	3.5300558482964454e+17
19099.0	3.5292039823578464e+17
19100.0	3.5298049918675616e+17
19101.0	3.529174567004842e+17
19102.0	3.528606670826154e+17
19103.0	3.527931508118868e+17
19104.0	3.5275022315902285e+17
19105.0	3.524788900681053e+17
19106.0	3.526294995555668e+17
19107.0	3.525211603337214e+17
19108.0	3.524304579504811e+17
19109.0	3.5244843711419725e+17
19110.0	3.5239095124186445e+17
19111.0	3.522601339409747e+17
19112.0	3.522030661009406e+17
19113.0	3.522258593819306e+17
19114.0	3.521203504764244e+17
19115.0	3.5210274187946656e+17
19116.0	3.520363953302186e+17
19117.0	3.519866875849386e+17
19118.0	3.519334018187263e+17
19119.0	3.5162321793843155e+17
19120.0	3.5181847107338234e+17
19121.0	3.5174876334871885e+17
19122.0	3.5170898610749434e+17
19123.0	3.5165482785614496e+17
19124.0	3.51592604832017e+17
19125.0	3.5153361250549754e+17
19126.0	3.5147247982564685e+17
19127.0	3.513913869423956e+17
19128.0	3.5135048779475616e+17
19129.0	3.5130475250974714e+17
19130.0	3.5124812835717114e+17
19131.0	3.511878914058922e+17
19132.0	3.511233697633621e+17
19133.0	3.5107405079511034e+17
19134.0	3.510132860955306e+17
19135.0	3.5096204267574605e+17
19136.0	3.5089585278375245e+17
19137.0	3.508261796271445e+17
19138.0	3.5078290468590925e+17
19139.0	3.507316587145898e+17
19140.0	3.5067500481740794e+17
19141.0	3.506151202575701e+17
19142.0	3.5055374500713805e+17
19143.0	3.5049275423457274e+17
19144.0	3.504296765860522e+17
19145.0	3.5037665069192525e+17
19146.0	3.503212731214506e+17
19147.0	3.502628112695296e+17
19148.0	3.501325232198999e+17
19149.0	3.5004783987261434e+17
19150.0	3.500972346878634e+17
19151.0	3.500330787536896e+17
19152.0	3.499834423115776e+17
19153.0	3.49755323868774e+17
19154.0	3.498519133072043e+17
19155.0	3.4981199954138445e+17
19156.0	3.4974882930360314e+17
19157.0	3.4963916922552326e+17
19158.0	3.4951588014107315e+17
19159.0	3.4956220378207565e+17
19160.0	3.4951061307392e+17
19161.0	3.4945979995477325e+17
19162.0	3.493989421066922e+17
19163.0	3.493457381643605e+17
19164.0	3.492868744631636e+17
19165.0	3.4904301228086586e+17
19166.0	3.49159468634385e+17
19167.0	3.4912143573428896e+17
19168.0	3.4905742268607136e+17
19169.0	3.490013081064789e+17
19170.0	3.4894565416632314e+17
19171.0	3.488823595674282e+17
19172.0	3.4882894279912096e+17
19173.0	3.4877929443819514e+17
19174.0	3.4871566363088205e+17
19175.0	3.4865537267793914e+17
19176.0	3.486047101692586e+17
19177.0	3.4854505349993805e+17
19178.0	3.484872357533013e+17
19179.0	3.4843021544871245e+17
19180.0	3.4837598372713805e+17
19181.0	3.483167080753834e+17
19182.0	3.48250388369681e+17
19183.0	3.482006917393066e+17
19184.0	3.4814757290639354e+17
19185.0	3.4808572534237856e+17
19186.0	3.4802930143286605e+17
19187.0	3.479771260037802e+17
19188.0	3.479211442787669e+17
19189.0	3.4786520208506874e+17
19190.0	3.47804944371985e+17
19191.0	3.477507390046208e+17
19192.0	3.4769381855941965e+17
19193.0	3.476120473174016e+17
19194.0	3.4754904069242874e+17
19195.0	3.4752565073674234e+17
19196.0	3.474655345464661e+17
19197.0	3.473969723910826e+17
19198.0	3.4733417362882566e+17
19199.0	3.4725407556457805e+17
19200.0	3.472100275082581e+17
19201.0	3.4717863586911565e+17
19202.0	3.47125907525905e+17
19203.0	3.470640141740714e+17
19204.0	3.470166353160874e+17
19205.0	3.469549069751637e+17
19206.0	3.4689679387962016e+17
19207.0	3.468139167743999e+17
19208.0	3.4677809927072416e+17
19209.0	3.4672510965732685e+17
19210.0	3.4665894594478074e+17
19211.0	3.466101730749099e+17
19212.0	3.4655291593195514e+17
19213.0	3.4649791144482125e+17
19214.0	3.4644103528447994e+17
19215.0	3.463843123210922e+17
19216.0	3.463278530745685e+17
19217.0	3.4627834406939296e+17
19218.0	3.4620321237565434e+17
19219.0	3.4615075854964045e+17
19220.0	3.4610477331906554e+17
19221.0	3.460403450347519e+17
19222.0	3.45975212736512e+17
19223.0	3.4592739005125965e+17
19224.0	3.458672065424042e+17
19225.0	3.4581895677214714e+17
19226.0	3.45767058411793e+17
19227.0	3.45705574039552e+17
19228.0	3.4565089765184845e+17
19229.0	3.4556557586158925e+17
19230.0	3.4553036562322765e+17
19231.0	3.4548798459303245e+17
19232.0	3.4542908915493536e+17
19233.0	3.4536534359845536e+17
19234.0	3.4530676972366496e+17
19235.0	3.45253113495552e+17
19236.0	3.451982612966058e+17
19237.0	3.4512922857526605e+17
19238.0	3.450792016784042e+17
19239.0	3.4502796049558176e+17
19240.0	3.4496304997116576e+17
19241.0	3.4491907800651085e+17
19242.0	3.4483888770252794e+17
19243.0	3.4480260609911456e+17
19244.0	3.447414534264149e+17
19245.0	3.446916357903701e+17
19246.0	3.4463708561626445e+17
19247.0	3.4458257116364794e+17
19248.0	3.4451974741032954e+17
19249.0	3.4444930627665914e+17
19250.0	3.443708182309547e+17
19251.0	3.4432350735564794e+17
19252.0	3.4429902125356365e+17
19253.0	3.442365154284885e+17
19254.0	3.441842467110912e+17
19255.0	3.4412253105793696e+17
19256.0	3.4406015113188685e+17
19257.0	3.440109501284352e+17
19258.0	3.4395100237441696e+17
19259.0	3.439075711604053e+17
19260.0	3.438421804930389e+17
19261.0	3.4379050257831245e+17
19262.0	3.4373347210253645e+17
19263.0	3.4366806490262176e+17
19264.0	3.4361148692234234e+17
19265.0	3.4355271815222605e+17
19266.0	3.4350227458621434e+17
19267.0	3.4345237082712736e+17
19268.0	3.433829266096128e+17
19269.0	3.433356354475349e+17
19270.0	3.4328091082533536e+17
19271.0	3.432106148145834e+17
19272.0	3.431712480908629e+17
19273.0	3.4311863082680314e+17
19274.0	3.4306012954842445e+17
19275.0	3.4300514187345914e+17
19276.0	3.42949279371537e+17
19277.0	3.4289560045922976e+17
19278.0	3.428354948246186e+17
19279.0	3.427825165707946e+17
19280.0	3.4272920032597325e+17
19281.0	3.4267068073246714e+17
19282.0	3.426144955837098e+17
19283.0	3.42552322052369e+17
19284.0	3.4250539495587834e+17
19285.0	3.4244049568617805e+17
19286.0	3.423809348217514e+17
19287.0	3.4231936135550285e+17
19288.0	3.4227170825994234e+17
19289.0	3.421844230810281e+17
19290.0	3.421643694145536e+17
19291.0	3.421067076261205e+17
19292.0	3.4205061531129165e+17
19293.0	3.4199189114060794e+17
19294.0	3.419437583215274e+17
19295.0	3.4187736923504634e+17
19296.0	3.4172762992585414e+17
19297.0	3.417557901333845e+17
19298.0	3.4171066742647456e+17
19299.0	3.415552151606614e+17
19300.0	3.4161028371578874e+17
19301.0	3.4154913590149114e+17
19302.0	3.4149463682798925e+17
19303.0	3.4142768622906016e+17
19304.0	3.4137648370373965e+17
19305.0	3.4131986133374285e+17
19306.0	3.412701088142676e+17
19307.0	3.4121315977789434e+17
19308.0	3.4115697372037114e+17
19309.0	3.410949155323903e+17
19310.0	3.4103573337866234e+17
19311.0	3.40979088883712e+17
19312.0	3.4091905801256954e+17
19313.0	3.4086032807471776e+17
19314.0	3.4035627206901754e+17
19315.0	3.4031819747054957e+17
19316.0	3.405685150012759e+17
19317.0	3.4065660150196896e+17
19318.0	3.405997471170559e+17
19319.0	3.4053071142475085e+17
19320.0	3.404568613705044e+17
19321.0	3.4034765102667085e+17
19322.0	3.4037944870939296e+17
19323.0	3.403301830437546e+17
19324.0	3.4026938901899936e+17
19325.0	3.402176159984298e+17
19326.0	3.401563511980031e+17
19327.0	3.4010880019879245e+17
19328.0	3.398571417490775e+17
19329.0	3.3999548957327354e+17
19330.0	3.3994302194100896e+17
19331.0	3.398881716294997e+17
19332.0	3.3982752157422925e+17
19333.0	3.397809107981653e+17
19334.0	3.396991092872533e+17
19335.0	3.3927423160483885e+17
19336.0	3.396007346481834e+17
19337.0	3.395507981036202e+17
19338.0	3.3949253320922445e+17
19339.0	3.3942883679600634e+17
19340.0	3.3936584303356576e+17
19341.0	3.3919151664442054e+17
19342.0	3.3923453845940915e+17
19343.0	3.3922062581323085e+17
19344.0	3.390241328070657e+17
19345.0	3.390235620321963e+17
19346.0	3.390399478846805e+17
19347.0	3.3882412885387936e+17
19348.0	3.3894683430092794e+17
19349.0	3.3888854343679994e+17
19350.0	3.3876830913385805e+17
19351.0	3.387778706090666e+17
19352.0	3.385349493839185e+17
19353.0	3.386645237377706e+17
19354.0	3.3861586659573754e+17
19355.0	3.385596455856811e+17
19356.0	3.384984310120448e+17
19357.0	3.3844875874358605e+17
19358.0	3.3839248086575776e+17
19359.0	3.3830019789400723e+17
19360.0	3.3813225020238496e+17
19361.0	3.3822707202129914e+17
19362.0	3.3817052001075194e+17
19363.0	3.381154713436159e+17
19364.0	3.3806389674857805e+17
19365.0	3.3800581248887456e+17
19366.0	3.3792998988840954e+17
19367.0	3.3789252059791354e+17
19368.0	3.3784093464330234e+17
19369.0	3.3779205716049914e+17
19370.0	3.3773819541149005e+17
19371.0	3.3767027134955514e+17
19372.0	3.376233198561962e+17
19373.0	3.3755801384386554e+17
19374.0	3.374992283664383e+17
19375.0	3.3745559082762234e+17
19376.0	3.37403302641664e+17
19377.0	3.37350048682257e+17
19378.0	3.372958649505109e+17
19379.0	3.3724041436419405e+17
19380.0	3.371627679405397e+17
19381.0	3.3711418605131085e+17
19382.0	3.3706947309294925e+17
19383.0	3.370114458757802e+17
19384.0	3.3693829787811834e+17
19385.0	3.3690913781841914e+17
19386.0	3.3684943190097914e+17
19387.0	3.367900930899967e+17
19388.0	3.3673468591472634e+17
19389.0	3.366859363232426e+17
19390.0	3.366290164372821e+17
19391.0	3.365170549096446e+17
19392.0	3.3652036718646605e+17
19393.0	3.364626962754218e+17
19394.0	3.364117163977386e+17
19395.0	3.363023351709697e+17
19396.0	3.362888602703189e+17
19397.0	3.3623841541106336e+17
19398.0	3.36143685971695e+17
19399.0	3.360543041650687e+17
19400.0	3.360428390001322e+17
19401.0	3.3602097881197216e+17
19402.0	3.359743294483115e+17
19403.0	3.359201957336405e+17
19404.0	3.358510325344938e+17
19405.0	3.357938121965568e+17
19406.0	3.357517592308394e+17
19407.0	3.356243631188649e+17
19408.0	3.356358069627563e+17
19409.0	3.3558667974410234e+17
19410.0	3.3553191275943245e+17
19411.0	3.354737548896938e+17
19412.0	3.354160038674431e+17
19413.0	3.35295069360401e+17
19414.0	3.3531522211730765e+17
19415.0	3.352547005475498e+17
19416.0	3.351910566330367e+17
19417.0	3.3514692346729805e+17
19418.0	3.350898779968852e+17
19419.0	3.350330567120213e+17
19420.0	3.349768072156501e+17
19421.0	3.349198435691178e+17
19422.0	3.3485699594321914e+17
19423.0	3.3481233314174285e+17
19424.0	3.347555520173397e+17
19425.0	3.346929153649322e+17
19426.0	3.3464568470568954e+17
19427.0	3.3458757667826336e+17
19428.0	3.3451418219533645e+17
19429.0	3.3447411628113914e+17
19430.0	3.3440726162691405e+17
19431.0	3.343296669679616e+17
19432.0	3.342869499390634e+17
19433.0	3.3422356820350285e+17
19434.0	3.3417235984110925e+17
19435.0	3.341002222163285e+17
19436.0	3.340245060463274e+17
19437.0	3.3397583803405645e+17
19438.0	3.337971598098431e+17
19439.0	3.3385237544523085e+17
19440.0	3.337755801507157e+17
19441.0	3.336993582175573e+17
19442.0	3.336167197682346e+17
19443.0	3.3352743467526816e+17
19444.0	3.3342283911441056e+17
19445.0	3.3331579013038074e+17
19446.0	3.3318625072906234e+17
19447.0	3.33042906300416e+17
19448.0	3.328745618975402e+17
19449.0	3.3272293057276576e+17
19450.0	3.325646316677803e+17
19451.0	3.3248902203310074e+17
19452.0	3.3249393202517325e+17
19453.0	3.325472729115306e+17
19454.0	3.3258855643217914e+17
19455.0	3.3263669463394976e+17
19456.0	3.326527342466389e+17
19457.0	3.326163027318101e+17
19458.0	3.310988055369057e+17
19459.0	3.3231322201019757e+17
19460.0	3.326009151935829e+17
19461.0	3.326124230355626e+17
19462.0	3.3258548578222074e+17
19463.0	3.3255126721713485e+17
19464.0	3.3250820646502394e+17
19465.0	3.324681763072682e+17
19466.0	3.324284022117717e+17
19467.0	3.323811236326058e+17
19468.0	3.3233818815037434e+17
19469.0	3.32152481530948e+17
19470.0	3.3224168972834125e+17
19471.0	3.321886618419199e+17
19472.0	3.321457292957013e+17
19473.0	3.3209453596289696e+17
19474.0	3.3189151165644774e+17
19475.0	3.3196646764380154e+17
19476.0	3.3193878558692685e+17
19477.0	3.3188189596986016e+17
19478.0	3.318365270922581e+17
19479.0	3.3164633501422906e+17
19480.0	3.3173309995963725e+17
19481.0	3.31666125033745e+17
19482.0	3.3161084886056954e+17
19483.0	3.315713705334101e+17
19484.0	3.3150764989808634e+17
19485.0	3.314675321492821e+17
19486.0	3.312606123829935e+17
19487.0	3.3135187509029536e+17
19488.0	3.3130712910178976e+17
19489.0	3.312584324983466e+17
19490.0	3.3117957248778234e+17
19491.0	3.31141538783778e+17
19492.0	3.3109228164655776e+17
19493.0	3.3103181848248314e+17
19494.0	3.3097962459845965e+17
19495.0	3.309397168794282e+17
19496.0	3.308719945984682e+17
19497.0	3.3083571404363085e+17
19498.0	3.3078335871385594e+17
19499.0	3.306414515683326e+17
19500.0	3.306715570241536e+17
19501.0	3.3062740190822394e+17
19502.0	3.30569736065297e+17
19503.0	3.3051750960551245e+17
19504.0	3.304600032509952e+17
19505.0	3.3039903652577274e+17
19506.0	3.303548027316906e+17
19507.0	3.3030402215335245e+17
19508.0	3.302452608281258e+17
19509.0	3.3018995333748045e+17
19510.0	3.3009081757204474e+17
19511.0	3.294733837970088e+17
19512.0	3.2997903164593485e+17
19513.0	3.299364349935615e+17
19514.0	3.2990062776593056e+17
19515.0	3.298702344410453e+17
19516.0	3.297976791334911e+17
19517.0	3.297643526619136e+17
19518.0	3.296755302006782e+17
19519.0	3.2962099460177914e+17
19520.0	3.294784725712894e+17
19521.0	3.2956033689190394e+17
19522.0	3.2948303083601914e+17
19523.0	3.2942893336712544e+17
19524.0	3.2929646969705837e+17
19525.0	3.293445741696341e+17
19526.0	3.292808677599915e+17
19527.0	3.2923649918894074e+17
19528.0	3.291673989043541e+17
19529.0	3.291125884736853e+17
19530.0	3.2907491803135994e+17
19531.0	3.290177163930282e+17
19532.0	3.2896183281472845e+17
19533.0	3.2889797901025274e+17
19534.0	3.288624590924458e+17
19535.0	3.2881315172843514e+17
19536.0	3.2875424874059085e+17
19537.0	3.287039391476394e+17
19538.0	3.285306611946839e+17
19539.0	3.285960426695338e+17
19540.0	3.285489761124351e+17
19541.0	3.284627999424512e+17
19542.0	3.2842243626762234e+17
19543.0	3.2825502418862086e+17
19544.0	3.2831597948436474e+17
19545.0	3.2827762054703776e+17
19546.0	3.2821274920441165e+17
19547.0	3.2817768468316154e+17
19548.0	3.281228083669674e+17
19549.0	3.2806260989842765e+17
19550.0	3.2799713282839885e+17
19551.0	3.2796303900890445e+17
19552.0	3.2789827077625165e+17
19553.0	3.2785614933852154e+17
19554.0	3.2779094577206605e+17
19555.0	3.277231981505195e+17
19556.0	3.276775745738068e+17
19557.0	3.27640508600593e+17
19558.0	3.2758720291143674e+17
19559.0	3.275333113479167e+17
19560.0	3.274347659307689e+17
19561.0	3.2742836528305485e+17
19562.0	3.2734015644849485e+17
19563.0	3.273254110582101e+17
19564.0	3.2724341021300045e+17
19565.0	3.2720894526750714e+17
19566.0	3.2714605534904314e+17
19567.0	3.2711251696025594e+17
19568.0	3.270586255714986e+17
19569.0	3.2700865299087354e+17
19570.0	3.2695560703399245e+17
19571.0	3.268985366424235e+17
19572.0	3.268465964438869e+17
19573.0	3.267828278886399e+17
19574.0	3.267370777488042e+17
19575.0	3.2669096197051725e+17
19576.0	3.266348382683136e+17
19577.0	3.265725741050538e+17
19578.0	3.265316838353578e+17
19579.0	3.2648363053329056e+17
19580.0	3.264184538453333e+17
19581.0	3.263538121758036e+17
19582.0	3.2631943261934925e+17
19583.0	3.26273619530001e+17
19584.0	3.2620870883082234e+17
19585.0	3.2616534731216205e+17
19586.0	3.2611356481945594e+17
19587.0	3.260632135281322e+17
19588.0	3.259996763936085e+17
19589.0	3.2595760689534285e+17
19590.0	3.2590154474455034e+17
19591.0	3.258475433601706e+17
19592.0	3.2579364190508365e+17
19593.0	3.2573345678841165e+17
19594.0	3.2568141963154765e+17
19595.0	3.2563700265123834e+17
19596.0	3.2557131275523405e+17
19597.0	3.2553428190931616e+17
19598.0	3.2545093651005434e+17
19599.0	3.254253452438186e+17
19600.0	3.253648390182229e+17
19601.0	3.2531853264377165e+17
19602.0	3.252644318194346e+17
19603.0	3.2520744332165114e+17
19604.0	3.251649138480469e+17
19605.0	3.251008276092245e+17
19606.0	3.250483423958357e+17
19607.0	3.2500680522465274e+17
19608.0	3.2492959392508576e+17
19609.0	3.248977142437205e+17
19610.0	3.2478865223843846e+17
19611.0	3.246933860330155e+17
19612.0	3.2474372246951245e+17
19613.0	3.246738519359488e+17
19614.0	3.2463564112745805e+17
19615.0	3.245891258067626e+17
19616.0	3.244769368779436e+17
19617.0	3.243912797181269e+17
19618.0	3.244127779028991e+17
19619.0	3.2435706559201274e+17
19620.0	3.242837020420776e+17
19621.0	3.241102805390676e+17
19622.0	3.2421941535047674e+17
19623.0	3.241664006062079e+17
19624.0	3.241047436034048e+17
19625.0	3.2406438608022176e+17
19626.0	3.2400141545635834e+17
19627.0	3.2395923778000205e+17
19628.0	3.2390742508830714e+17
19629.0	3.235381030245715e+17
19630.0	3.2380306217151136e+17
19631.0	3.237074449028437e+17
19632.0	3.2370052091084794e+17
19633.0	3.2364878099032736e+17
19634.0	3.2359346822184954e+17
19635.0	3.2352374780941645e+17
19636.0	3.2332314581838483e+17
19637.0	3.2327209701430586e+17
19638.0	3.2336739677416096e+17
19639.0	3.2332293917900794e+17
19640.0	3.2327535382145696e+17
19641.0	3.2320043977714355e+17
19642.0	3.2317228739898016e+17
19643.0	3.231193897806506e+17
19644.0	3.230706727299754e+17
19645.0	3.2302136281442976e+17
19646.0	3.2279857956126694e+17
19647.0	3.2289101600959136e+17
19648.0	3.2286501307241805e+17
19649.0	3.2280687757230074e+17
19650.0	3.227556605067264e+17
19651.0	3.227056542318591e+17
19652.0	3.226577122536106e+17
