# Flux units: erg / (cm m2 s)
# Wavelength units: Angstrom
wave	flux
19000.0	7.478285060887892e+17
19001.0	7.476539998339071e+17
19002.0	7.475478905137833e+17
19003.0	7.474051716306262e+17
19004.0	7.472641180259668e+17
19005.0	7.471218164760575e+17
19006.0	7.469810877901481e+17
19007.0	7.468271594897408e+17
19008.0	7.466743130401449e+17
19009.0	7.46545351893538e+17
19010.0	7.462515778082129e+17
19011.0	7.462668048094548e+17
19012.0	7.460946164667731e+17
19013.0	7.459912066007039e+17
19014.0	7.458280980873215e+17
19015.0	7.4569689858048e+17
19016.0	7.455531604814505e+17
19017.0	7.453547149568681e+17
19018.0	7.452819077114538e+17
19019.0	7.451413161792854e+17
19020.0	7.449791627089236e+17
19021.0	7.448493041210708e+17
19022.0	7.447212464275455e+17
19023.0	7.445654807423657e+17
19024.0	7.444325660448083e+17
19025.0	7.442960737457492e+17
19026.0	7.441481554635433e+17
19027.0	7.440090632552447e+17
19028.0	7.438750976049152e+17
19029.0	7.437282238442152e+17
19030.0	7.435970703349075e+17
19031.0	7.434578882286931e+17
19032.0	7.433160196707667e+17
19033.0	7.43142409039599e+17
19034.0	7.430277183133012e+17
19035.0	7.428804076459348e+17
19036.0	7.417498149672269e+17
19037.0	7.426073110598996e+17
19038.0	7.424623092170752e+17
19039.0	7.423278216555178e+17
19040.0	7.421887541936127e+17
19041.0	7.420459975617193e+17
19042.0	7.418754154976595e+17
19043.0	7.417656023274835e+17
19044.0	7.416218273185791e+17
19045.0	7.414850974821033e+17
19046.0	7.413221435987283e+17
19047.0	7.412024696198484e+17
19048.0	7.409881176167764e+17
19049.0	7.408959093385897e+17
19050.0	7.407633525549738e+17
19051.0	7.404762868394662e+17
19052.0	7.404859175206911e+17
19053.0	7.403543031971839e+17
19054.0	7.402151529676799e+17
19055.0	7.399867602523482e+17
19056.0	7.399268717428735e+17
19057.0	7.397928333912745e+17
19058.0	7.396449868316671e+17
19059.0	7.395127910378153e+17
19060.0	7.393658396824918e+17
19061.0	7.392339875419475e+17
19062.0	7.390909395457364e+17
19063.0	7.389522649503062e+17
19064.0	7.387654875600212e+17
19065.0	7.386051036665172e+17
19066.0	7.38507716960802e+17
19067.0	7.383856153187667e+17
19068.0	7.382493579007316e+17
19069.0	7.381094585685332e+17
19070.0	7.379587600220157e+17
19071.0	7.378269069028008e+17
19072.0	7.376886369178964e+17
19073.0	7.375452789626195e+17
19074.0	7.374084210600616e+17
19075.0	7.37268416590643e+17
19076.0	7.371200513354412e+17
19077.0	7.369844103402835e+17
19078.0	7.368218163281917e+17
19079.0	7.367058906589864e+17
19080.0	7.36561246310673e+17
19081.0	7.364080019614378e+17
19082.0	7.362630071091199e+17
19083.0	7.36102881305122e+17
19084.0	7.35915871690206e+17
19085.0	7.358605232351913e+17
19086.0	7.355825103656275e+17
19087.0	7.355550417289215e+17
19088.0	7.354179722936317e+17
19089.0	7.352218079111852e+17
19090.0	7.351523236730195e+17
19091.0	7.350141542116008e+17
19092.0	7.348556510440105e+17
19093.0	7.347428997638825e+17
19094.0	7.346018822302377e+17
19095.0	7.344633200421545e+17
19096.0	7.343172374669994e+17
19097.0	7.341845573708458e+17
19098.0	7.340432719609855e+17
19099.0	7.339013611803987e+17
19100.0	7.337625477535059e+17
19101.0	7.336251076815529e+17
19102.0	7.334549751070717e+17
19103.0	7.333433014834516e+17
19104.0	7.332062822399999e+17
19105.0	7.330642914880169e+17
19106.0	7.329198052649641e+17
19107.0	7.327795116681897e+17
19108.0	7.326470526118568e+17
19109.0	7.323985867964415e+17
19110.0	7.323667236476242e+17
19111.0	7.322276926761641e+17
19112.0	7.320884265440595e+17
19113.0	7.319477804859391e+17
19114.0	7.318073357544105e+17
19115.0	7.316515906213203e+17
19116.0	7.315211958616063e+17
19117.0	7.313827883035306e+17
19118.0	7.312167620924755e+17
19119.0	7.303169340080114e+17
19120.0	7.309577689934506e+17
19121.0	7.308267712326313e+17
19122.0	7.306925595164671e+17
19123.0	7.305460807193939e+17
19124.0	7.304069454495743e+17
19125.0	7.302715587690493e+17
19126.0	7.301302065299453e+17
19127.0	7.294236495970295e+17
19128.0	7.297594531250172e+17
19129.0	7.296830303895551e+17
19130.0	7.295715703958186e+17
19131.0	7.294343294134953e+17
19132.0	7.292965742095017e+17
19133.0	7.289428974938798e+17
19134.0	7.289726566399999e+17
19135.0	7.288789572867412e+17
19136.0	7.28742079111714e+17
19137.0	7.285468838931114e+17
19138.0	7.284473544572927e+17
19139.0	7.28323817664239e+17
19140.0	7.281849197920255e+17
19141.0	7.280457966856872e+17
19142.0	7.278972628194644e+17
19143.0	7.27746646900736e+17
19144.0	7.276134859975338e+17
19145.0	7.274878981898239e+17
19146.0	7.271443112919041e+17
19147.0	7.271809384710143e+17
19148.0	7.270710330261501e+17
19149.0	7.269309492843859e+17
19150.0	7.267896961706666e+17
19151.0	7.266532831439529e+17
19152.0	7.265077374397098e+17
19153.0	7.263697016367785e+17
19154.0	7.261944216726185e+17
19155.0	7.260997966364671e+17
19156.0	7.2595973093021e+17
19157.0	7.258187978418858e+17
19158.0	7.256052613513212e+17
19159.0	7.255373469013331e+17
19160.0	7.253916770456918e+17
19161.0	7.252552336801791e+17
19162.0	7.249565173066412e+17
19163.0	7.24986623042082e+17
19164.0	7.248505742207657e+17
19165.0	7.247061984477181e+17
19166.0	7.245355772368211e+17
19167.0	7.244179078556329e+17
19168.0	7.242391803133951e+17
19169.0	7.241253224360617e+17
19170.0	7.240177129532074e+17
19171.0	7.23869219492113e+17
19172.0	7.237382006199636e+17
19173.0	7.236019241877504e+17
19174.0	7.234432413641386e+17
19175.0	7.233241737418068e+17
19176.0	7.231840431636479e+17
19177.0	7.229951827421866e+17
19178.0	7.229060897133906e+17
19179.0	7.227575604609024e+17
19180.0	7.226063548230314e+17
19181.0	7.224578018028202e+17
19182.0	7.223171175765332e+17
19183.0	7.222133197373439e+17
19184.0	7.22026855941188e+17
19185.0	7.219314646056957e+17
19186.0	7.217996583228756e+17
19187.0	7.216305280472404e+17
19188.0	7.215210305683455e+17
19189.0	7.213804658797225e+17
19190.0	7.212417268318207e+17
19191.0	7.210944197995178e+17
19192.0	7.20967672406562e+17
19193.0	7.208106850604372e+17
19194.0	7.206773737215318e+17
19195.0	7.205503861347667e+17
19196.0	7.204077739267412e+17
19197.0	7.20272366973747e+17
19198.0	7.201331436235433e+17
19199.0	7.189684287438845e+17
19200.0	7.191869654040579e+17
19201.0	7.197166032388093e+17
19202.0	7.195802864014675e+17
19203.0	7.194404815809194e+17
19204.0	7.192941390987263e+17
19205.0	7.191604910970198e+17
19206.0	7.190201773675859e+17
19207.0	7.188566955611475e+17
19208.0	7.186771323737427e+17
19209.0	7.186044597654868e+17
19210.0	7.184673156715859e+17
19211.0	7.183318883063126e+17
19212.0	7.181955423884627e+17
19213.0	7.180204645897555e+17
19214.0	7.178762276481706e+17
19215.0	7.177776310255615e+17
19216.0	7.176280698344787e+17
19217.0	7.175005701231956e+17
19218.0	7.17085200648328e+17
19219.0	7.171678762521938e+17
19220.0	7.170788443204265e+17
19221.0	7.168343291199488e+17
19222.0	7.168103797839187e+17
19223.0	7.166631984409258e+17
19224.0	7.164945874201257e+17
19225.0	7.163370975963816e+17
19226.0	7.162461148938239e+17
19227.0	7.161070257613481e+17
19228.0	7.159786778219859e+17
19229.0	7.158400524397225e+17
19230.0	7.156925871423487e+17
19231.0	7.155530176222548e+17
19232.0	7.154024240731475e+17
19233.0	7.152593202926932e+17
19234.0	7.151371100181844e+17
19235.0	7.149940883062783e+17
19236.0	7.148695072713385e+17
19237.0	7.147239798822228e+17
19238.0	7.14559915486959e+17
19239.0	7.144539563229181e+17
19240.0	7.142061223094952e+17
19241.0	7.141372405131945e+17
19242.0	7.140251520729087e+17
19243.0	7.138303813178708e+17
19244.0	7.137571416397139e+17
19245.0	7.136168028842665e+17
19246.0	7.134736245850111e+17
19247.0	7.133342856118271e+17
19248.0	7.132023033080489e+17
19249.0	7.130625514755411e+17
19250.0	7.129164094810794e+17
19251.0	7.12747863192371e+17
19252.0	7.125235016226131e+17
19253.0	7.124977132240893e+17
19254.0	7.123496682739028e+17
19255.0	7.121527319997096e+17
19256.0	7.120775163849385e+17
19257.0	7.119464575270911e+17
19258.0	7.118067114267987e+17
19259.0	7.116389496127487e+17
19260.0	7.115099795182931e+17
19261.0	7.113837470460585e+17
19262.0	7.11226239746048e+17
19263.0	7.110913972065619e+17
19264.0	7.107914639256232e+17
19265.0	7.107644853234344e+17
19266.0	7.106431441087148e+17
19267.0	7.105485810084522e+17
19268.0	7.104054192067923e+17
19269.0	7.102650452191914e+17
19270.0	7.101251888087039e+17
19271.0	7.098737998430212e+17
19272.0	7.098319820729002e+17
19273.0	7.070223594509619e+17
19274.0	7.082387308194456e+17
19275.0	7.094227916466858e+17
19276.0	7.092750183475881e+17
19277.0	7.091340610721108e+17
19278.0	7.089946271678463e+17
19279.0	7.088349813320361e+17
19280.0	7.08680101204241e+17
19281.0	7.085683223035904e+17
19282.0	7.084318569878867e+17
19283.0	7.082742986571775e+17
19284.0	7.081070267378345e+17
19285.0	7.079250936288595e+17
19286.0	7.078514447264425e+17
19287.0	7.077219834789887e+17
19288.0	7.073314557482323e+17
19289.0	7.067408574797126e+17
19290.0	7.072839133123923e+17
19291.0	7.070459146622295e+17
19292.0	7.069971446934185e+17
19293.0	7.068513705394173e+17
19294.0	7.067062708294995e+17
19295.0	7.065668201480192e+17
19296.0	7.06420452500002e+17
19297.0	7.062677476780713e+17
19298.0	7.061229489793705e+17
19299.0	7.059887478887764e+17
19300.0	7.058441654763519e+17
19301.0	7.056957654084265e+17
19302.0	7.055486648756905e+17
19303.0	7.053726290979497e+17
19304.0	7.052378669492905e+17
19305.0	7.051087177580543e+17
19306.0	7.049650466280787e+17
19307.0	7.048021563583145e+17
19308.0	7.046639242619561e+17
19309.0	7.044929543645865e+17
19310.0	7.043241765502975e+17
19311.0	7.042183190282237e+17
19312.0	7.040743352827904e+17
19313.0	7.038897503950166e+17
19314.0	7.034142401931941e+17
19315.0	7.032790818226182e+17
19316.0	7.034787350970368e+17
19317.0	7.033259535892479e+17
19318.0	7.031740132491261e+17
19319.0	7.030292562138452e+17
19320.0	7.028671781710505e+17
19321.0	7.02726729315123e+17
19322.0	7.025246714462207e+17
19323.0	7.02403288637986e+17
19324.0	7.022676842031785e+17
19325.0	7.020912766003881e+17
19326.0	7.019607820162387e+17
19327.0	7.018017168818175e+17
19328.0	7.01653852566323e+17
19329.0	7.014933181672106e+17
19330.0	7.01315555664418e+17
19331.0	7.011581736342867e+17
19332.0	7.010147218664105e+17
19333.0	7.008510151753727e+17
19334.0	7.006825213853693e+17
19335.0	7.005375502308691e+17
19336.0	7.003767650822825e+17
19337.0	7.002130382585855e+17
19338.0	6.999813739162281e+17
19339.0	6.998902139344212e+17
19340.0	6.997091626079571e+17
19341.0	6.99560192324403e+17
19342.0	6.99254614488951e+17
19343.0	6.992299001118719e+17
19344.0	6.990566727701844e+17
19345.0	6.982081251551898e+17
19346.0	6.985242822137174e+17
19347.0	6.985305970879146e+17
19348.0	6.983678137729023e+17
19349.0	6.981780009648127e+17
19350.0	6.980071394902013e+17
19351.0	6.978260921483263e+17
19352.0	6.976375244892841e+17
19353.0	6.974863789697705e+17
19354.0	6.973050996828841e+17
19355.0	6.970895917296298e+17
19356.0	6.9694022746112e+17
19357.0	6.967523865351508e+17
19358.0	6.9654241345536e+17
19359.0	6.962202077211308e+17
19360.0	6.961513536771412e+17
19361.0	6.959556271101267e+17
19362.0	6.957801824496297e+17
19363.0	6.955716287922175e+17
19364.0	6.953648744213162e+17
19365.0	6.951622982063444e+17
19366.0	6.949600820723711e+17
19367.0	6.947351449042943e+17
19368.0	6.945161148541609e+17
19369.0	6.942453354812756e+17
19370.0	6.937546009346045e+17
19371.0	6.938505675887955e+17
19372.0	6.936480275147433e+17
19373.0	6.93385191943919e+17
19374.0	6.931566095761407e+17
19375.0	6.929240396835497e+17
19376.0	6.926862440377001e+17
19377.0	6.924329836434772e+17
19378.0	6.921586420482047e+17
19379.0	6.918845631561727e+17
19380.0	6.916297089264297e+17
19381.0	6.913541675504979e+17
19382.0	6.910501545399636e+17
19383.0	6.907722925255337e+17
19384.0	6.905339651817472e+17
19385.0	6.902497102790655e+17
19386.0	6.899608393351167e+17
19387.0	6.896509536698365e+17
19388.0	6.893228019504468e+17
19389.0	6.890115157371561e+17
19390.0	6.886911117361151e+17
19391.0	6.875065410912242e+17
19392.0	6.880191919248723e+17
19393.0	6.876391419849385e+17
19394.0	6.872681934749695e+17
19395.0	6.86898384277777e+17
19396.0	6.865161662322004e+17
19397.0	6.860828614240937e+17
19398.0	6.856394123422378e+17
19399.0	6.850016703064741e+17
19400.0	6.847408105324543e+17
19401.0	6.842612738686973e+17
19402.0	6.837966221606911e+17
19403.0	6.832218545236649e+17
19404.0	6.827177049150804e+17
19405.0	6.820985074352127e+17
19406.0	6.815296397858132e+17
19407.0	6.808480305031849e+17
19408.0	6.799562951884805e+17
19409.0	6.79405077659648e+17
19410.0	6.786558834595156e+17
19411.0	6.778910954662568e+17
19412.0	6.771841952994644e+17
19413.0	6.7645168156672e+17
19414.0	6.756407108610729e+17
19415.0	6.74828636004898e+17
19416.0	6.739374269355347e+17
19417.0	6.73056024568354e+17
19418.0	6.72095443947793e+17
19419.0	6.710960835614035e+17
19420.0	6.699833551224831e+17
19421.0	6.688472914635433e+17
19422.0	6.676005610935636e+17
19423.0	6.662538691346428e+17
19424.0	6.648171627981484e+17
19425.0	6.63253625811763e+17
19426.0	6.614961603564882e+17
19427.0	6.595493482201085e+17
19428.0	6.574433433725612e+17
19429.0	6.55225211986466e+17
19430.0	6.532438154368342e+17
19431.0	6.510220246603096e+17
19432.0	6.489360018265427e+17
19433.0	6.465046619444566e+17
19434.0	6.438679860652714e+17
19435.0	6.409761977270271e+17
19436.0	6.376970587034963e+17
19437.0	6.340851442297516e+17
19438.0	6.290578494980095e+17
19439.0	6.251698347573252e+17
19440.0	6.208280950996991e+17
19441.0	6.16042847430246e+17
19442.0	6.106535965665964e+17
19443.0	6.04462247907601e+17
19444.0	5.971686585969318e+17
19445.0	5.895465808341677e+17
19446.0	5.80986985460531e+17
19447.0	5.7086290567714074e+17
19448.0	5.593525521481732e+17
19449.0	5.444022071285077e+17
19450.0	5.140356409240193e+17
19451.0	5.0170226945993395e+17
19452.0	5.3151527065354285e+17
19453.0	5.524951626241371e+17
19454.0	5.649378145817936e+17
19455.0	5.754175425434964e+17
19456.0	5.845473457165656e+17
19457.0	5.922362992798374e+17
19458.0	5.992309637600603e+17
19459.0	6.060627615285248e+17
19460.0	6.115586588628307e+17
19461.0	6.163914235226793e+17
19462.0	6.206688537346049e+17
19463.0	6.248729394806781e+17
19464.0	6.292002125643771e+17
19465.0	6.328768616464384e+17
19466.0	6.360225790907731e+17
19467.0	6.388315155245738e+17
19468.0	6.413382196396032e+17
19469.0	6.433034978983933e+17
19470.0	6.456743786359466e+17
19471.0	6.476018203579734e+17
19472.0	6.493418989551613e+17
19473.0	6.511350489896275e+17
19474.0	6.531322852584106e+17
19475.0	6.547121295589373e+17
19476.0	6.564315365987668e+17
19477.0	6.57827920364612e+17
19478.0	6.590740196316499e+17
19479.0	6.602005842406056e+17
19480.0	6.612002669592573e+17
19481.0	6.621610112275795e+17
19482.0	6.630007050862592e+17
19483.0	6.638109568182953e+17
19484.0	6.645096651598506e+17
19485.0	6.652040731514195e+17
19486.0	6.658161758961663e+17
19487.0	6.663875529277439e+17
19488.0	6.669422050323114e+17
19489.0	6.674389428163924e+17
19490.0	6.674930490583715e+17
19491.0	6.683594046395731e+17
19492.0	6.688638444240896e+17
19493.0	6.693469421218474e+17
19494.0	6.698390793136809e+17
19495.0	6.701957952219816e+17
19496.0	6.704619538699602e+17
19497.0	6.709029013990057e+17
19498.0	6.711595707138049e+17
19499.0	6.70084836517477e+17
19500.0	6.717333826087593e+17
19501.0	6.719275867133268e+17
19502.0	6.721716028615338e+17
19503.0	6.723448339780947e+17
19504.0	6.724889132138495e+17
19505.0	6.726755577146025e+17
19506.0	6.728306980989609e+17
19507.0	6.729364484565673e+17
19508.0	6.730453392293887e+17
19509.0	6.731524647594665e+17
19510.0	6.73199379587618e+17
19511.0	6.723054935736312e+17
19512.0	6.732165182128119e+17
19513.0	6.729593855672311e+17
19514.0	6.732274562585937e+17
19515.0	6.733916567590235e+17
19516.0	6.735957050348886e+17
19517.0	6.736034396809897e+17
19518.0	6.736420755122858e+17
19519.0	6.736525883255466e+17
19520.0	6.736491831798442e+17
19521.0	6.736693669396479e+17
19522.0	6.736631404254547e+17
19523.0	6.736705683281235e+17
19524.0	6.736666089051476e+17
19525.0	6.736603583436116e+17
19526.0	6.736727490865833e+17
19527.0	6.736438924148735e+17
19528.0	6.73616126681634e+17
19529.0	6.735806472738134e+17
19530.0	6.735668450077353e+17
19531.0	6.735394504703997e+17
19532.0	6.734945942066516e+17
19533.0	6.7344884301824e+17
19534.0	6.73398985396497e+17
19535.0	6.733383203815423e+17
19536.0	6.732880406031017e+17
19537.0	6.732583525504339e+17
19538.0	6.731836810067969e+17
19539.0	6.729493113383602e+17
19540.0	6.730615717451092e+17
19541.0	6.730051902330196e+17
19542.0	6.729448306333012e+17
19543.0	6.72877770842658e+17
19544.0	6.728064202091177e+17
19545.0	6.726263977454243e+17
19546.0	6.72370269216222e+17
19547.0	6.725959820509184e+17
19548.0	6.7252279850653e+17
19549.0	6.724036277742249e+17
19550.0	6.723594721689599e+17
19551.0	6.722772537442303e+17
19552.0	6.721915045543933e+17
19553.0	6.72099630911761e+17
19554.0	6.720046608941055e+17
19555.0	6.719253402441043e+17
19556.0	6.718401656040105e+17
19557.0	6.717492163859796e+17
19558.0	6.716644858527741e+17
19559.0	6.715699372228607e+17
19560.0	6.714775883655849e+17
19561.0	6.713828227503444e+17
19562.0	6.712947028699817e+17
19563.0	6.711991403369812e+17
19564.0	6.711037390749695e+17
19565.0	6.71004210827537e+17
19566.0	6.708972534191444e+17
19567.0	6.708069144723455e+17
19568.0	6.706968399271252e+17
19569.0	6.705995091454633e+17
19570.0	6.705063393230847e+17
19571.0	6.704038640178516e+17
19572.0	6.702880262193152e+17
19573.0	6.701933906274985e+17
19574.0	6.700581155154601e+17
19575.0	6.699877399177897e+17
19576.0	6.698847133412009e+17
19577.0	6.697520714132138e+17
19578.0	6.69659512980548e+17
19579.0	6.695574636767913e+17
19580.0	6.694523786756095e+17
19581.0	6.693487393811113e+17
19582.0	6.692469583730003e+17
19583.0	6.691451122133674e+17
19584.0	6.690412079786665e+17
19585.0	6.688926090308265e+17
19586.0	6.687700997024428e+17
19587.0	6.686998816707923e+17
19588.0	6.684374586097664e+17
19589.0	6.684797722864298e+17
19590.0	6.683553404289023e+17
19591.0	6.682693267182931e+17
19592.0	6.681603840060074e+17
19593.0	6.680412914974719e+17
19594.0	6.678489834280275e+17
19595.0	6.678157530759168e+17
19596.0	6.674863745925121e+17
19597.0	6.675934558027775e+17
19598.0	6.673983513908563e+17
19599.0	6.67371499037218e+17
19600.0	6.672607534732627e+17
19601.0	6.671245095469056e+17
19602.0	6.67019915698722e+17
19603.0	6.667751867984552e+17
19604.0	6.667879361544191e+17
19605.0	6.665832063041536e+17
19606.0	6.665699575463935e+17
19607.0	6.664592597275988e+17
19608.0	6.663411632264531e+17
19609.0	6.662108967425363e+17
19610.0	6.661163223875583e+17
19611.0	6.659974328134314e+17
19612.0	6.658862211224916e+17
19613.0	6.657652634069673e+17
19614.0	6.656393041936383e+17
19615.0	6.655378011280724e+17
19616.0	6.654148093848233e+17
19617.0	6.653049631495508e+17
19618.0	6.650205097164796e+17
19619.0	6.648467070560932e+17
19620.0	6.647410889588732e+17
19621.0	6.648355033011539e+17
19622.0	6.64721716936704e+17
19623.0	6.646056188116991e+17
19624.0	6.644846510997503e+17
19625.0	6.643706034301609e+17
19626.0	6.642493746926931e+17
19627.0	6.641360910155775e+17
19628.0	6.63998227878161e+17
19629.0	6.638779604751699e+17
19630.0	6.637717194539008e+17
19631.0	6.626116919885819e+17
19632.0	6.635529472136532e+17
19633.0	6.634205870729897e+17
19634.0	6.633192922546176e+17
19635.0	6.631863220524372e+17
19636.0	6.630795465370282e+17
19637.0	6.628179572337324e+17
19638.0	6.628423799668736e+17
19639.0	6.627232398529875e+17
19640.0	6.625866547899049e+17
19641.0	6.623026731461297e+17
19642.0	6.623683288935082e+17
19643.0	6.622422184056147e+17
19644.0	6.621141508554751e+17
19645.0	6.619287329090216e+17
19646.0	6.618982501056511e+17
19647.0	6.617798737745236e+17
19648.0	6.616592736234154e+17
19649.0	6.615393251972436e+17
19650.0	6.614227988338004e+17
19651.0	6.613012615353684e+17
19652.0	6.611810144048468e+17
19653.0	6.610648779718655e+17
19654.0	6.609423355783849e+17
19655.0	6.608209834584746e+17
19656.0	6.607051992072191e+17
19657.0	6.60585293423138e+17
19658.0	6.604684203305642e+17
19659.0	6.603484770773673e+17
19660.0	6.602313175837353e+17
19661.0	6.601102306137428e+17
19662.0	6.599925705998335e+17
19663.0	6.598572391443113e+17
19664.0	6.597466834425171e+17
19665.0	6.596342690349055e+17
