# Flux units: erg / (cm m2 s)
# Wavelength units: Angstrom
wave	flux
19000.0	5.476576381282985e+17
19001.0	5.4755036614710605e+17
19002.0	5.4745384248934394e+17
19003.0	5.473514614860458e+17
19004.0	5.4724928893965645e+17
19005.0	5.471476631207935e+17
19006.0	5.470459869702825e+17
19007.0	5.4693273370187085e+17
19008.0	5.4683879128869536e+17
19009.0	5.4673937446993914e+17
19010.0	5.4660898439386445e+17
19011.0	5.4653501770301434e+17
19012.0	5.464018786101929e+17
19013.0	5.4633280960812365e+17
19014.0	5.462281406119935e+17
19015.0	5.4612729178794656e+17
19016.0	5.4602473923761485e+17
19017.0	5.4592508089685325e+17
19018.0	5.45821734085154e+17
19019.0	5.4572202282625696e+17
19020.0	5.4561910278498976e+17
19021.0	5.4551853805513376e+17
19022.0	5.454172449144831e+17
19023.0	5.4531372480812365e+17
19024.0	5.4521285550189216e+17
19025.0	5.4511013748626765e+17
19026.0	5.450066158419967e+17
19027.0	5.448840411523753e+17
19028.0	5.4480778730755405e+17
19029.0	5.4470490899961165e+17
19030.0	5.44605010534946e+17
19031.0	5.445038393786368e+17
19032.0	5.4440210478749e+17
19033.0	5.4429581035874976e+17
19034.0	5.441983766069248e+17
19035.0	5.440958021763071e+17
19036.0	5.422307486990317e+17
19037.0	5.4389430795195725e+17
19038.0	5.437923365923498e+17
19039.0	5.436920102387711e+17
19040.0	5.4359091744604154e+17
19041.0	5.434891214782462e+17
19042.0	5.4338248297676794e+17
19043.0	5.432869846865236e+17
19044.0	5.4318500256153594e+17
19045.0	5.430833249430185e+17
19046.0	5.4297962532044794e+17
19047.0	5.4288172676983456e+17
19048.0	5.427678219162963e+17
19049.0	5.426742421007017e+17
19050.0	5.4257548350805325e+17
19051.0	5.4218531117465536e+17
19052.0	5.423621134614528e+17
19053.0	5.4227189503098874e+17
19054.0	5.421736122122239e+17
19055.0	5.420585140791978e+17
19056.0	5.4196968962566816e+17
19057.0	5.4186974795967136e+17
19058.0	5.417650356223999e+17
19059.0	5.4166768631589536e+17
19060.0	5.415655854921045e+17
19061.0	5.414662254362623e+17
19062.0	5.413649652208979e+17
19063.0	5.412641720412842e+17
19064.0	5.411561295664468e+17
19065.0	5.4105296912165536e+17
19066.0	5.40957960306688e+17
19067.0	5.4085982631581005e+17
19068.0	5.407596320129024e+17
19069.0	5.4065886078347936e+17
19070.0	5.4055632927457274e+17
19071.0	5.404557035874985e+17
19072.0	5.4035596101113165e+17
19073.0	5.402553204342784e+17
19074.0	5.401548523831294e+17
19075.0	5.4005411065364474e+17
19076.0	5.399521052502698e+17
19077.0	5.398520710299647e+17
19078.0	5.3974946108757325e+17
19079.0	5.396512032948223e+17
19080.0	5.395499652393641e+17
19081.0	5.3944747623273805e+17
19082.0	5.3934652185204045e+17
19083.0	5.392436724148905e+17
19084.0	5.391361054343167e+17
19085.0	5.3904686574469114e+17
19086.0	5.389255431946239e+17
19087.0	5.3879494137610234e+17
19088.0	5.3874159898678605e+17
19089.0	5.386091776791892e+17
19090.0	5.3854336422597965e+17
19091.0	5.384435400703999e+17
19092.0	5.3832876426963616e+17
19093.0	5.382438393304405e+17
19094.0	5.381432845271039e+17
19095.0	5.380428529663998e+17
19096.0	5.379411247366143e+17
19097.0	5.378423327293439e+17
19098.0	5.377415426954581e+17
19099.0	5.376411014179497e+17
19100.0	5.3753843653017594e+17
19101.0	5.3744024242094074e+17
19102.0	5.373349452578815e+17
19103.0	5.372404623387306e+17
19104.0	5.371406476902399e+17
19105.0	5.370395395183958e+17
19106.0	5.3693072620038816e+17
19107.0	5.3683887269041485e+17
19108.0	5.3673967851929594e+17
19109.0	5.364925107710632e+17
19110.0	5.365393803706367e+17
19111.0	5.3643891287872845e+17
19112.0	5.3633946019867296e+17
19113.0	5.362395586581845e+17
19114.0	5.3613931318476794e+17
19115.0	5.360332260245503e+17
19116.0	5.359385684126377e+17
19117.0	5.3583885288953165e+17
19118.0	5.357271419366059e+17
19119.0	5.353623080927227e+17
19120.0	5.355237306357076e+17
19121.0	5.3543077912685216e+17
19122.0	5.3534032532602874e+17
19123.0	5.352403997381973e+17
19124.0	5.3513155139775136e+17
19125.0	5.3504041008059725e+17
19126.0	5.3493977516605434e+17
19127.0	5.3474448438722534e+17
19128.0	5.346694628289193e+17
19129.0	5.3463711349036365e+17
19130.0	5.345414506435925e+17
19131.0	5.344398713115988e+17
19132.0	5.343425615713619e+17
19133.0	5.3422476433380685e+17
19134.0	5.341073201867435e+17
19135.0	5.340430543618046e+17
19136.0	5.3394431695039136e+17
19137.0	5.3383566140811936e+17
19138.0	5.3374082106436256e+17
19139.0	5.336455956834985e+17
19140.0	5.3354613915866445e+17
19141.0	5.334466432073726e+17
19142.0	5.3334525017238176e+17
19143.0	5.332441416510122e+17
19144.0	5.3314651901569696e+17
19145.0	5.3304835559478605e+17
19146.0	5.329148223771989e+17
19147.0	5.328447550608724e+17
19148.0	5.32749422235921e+17
19149.0	5.326500274372606e+17
19150.0	5.325513926464852e+17
19151.0	5.324523344407209e+17
19152.0	5.323513114132479e+17
19153.0	5.322522852939091e+17
19154.0	5.3214776987921056e+17
19155.0	5.3205501759979514e+17
19156.0	5.3195614184625485e+17
19157.0	5.318557023163731e+17
19158.0	5.316584939017554e+17
19159.0	5.316573469693268e+17
19160.0	5.3155681914934605e+17
19161.0	5.314538713557673e+17
19162.0	5.311342116339712e+17
19163.0	5.312614612249258e+17
19164.0	5.311631112273919e+17
19165.0	5.3105859560297805e+17
19166.0	5.3095286719556256e+17
19167.0	5.308444447167828e+17
19168.0	5.307643660861439e+17
19169.0	5.3066231370656403e+17
19170.0	5.3056889152689485e+17
19171.0	5.304554910384128e+17
19172.0	5.3036995477940896e+17
19173.0	5.30271427362816e+17
19174.0	5.301698964051283e+17
19175.0	5.3007427270519456e+17
19176.0	5.299752149887657e+17
19177.0	5.2986847645313696e+17
19178.0	5.297755767439359e+17
19179.0	5.296568304052907e+17
19180.0	5.2957293852317e+17
19181.0	5.294740227140265e+17
19182.0	5.293809921425407e+17
19183.0	5.2928300327458125e+17
19184.0	5.291817782214655e+17
19185.0	5.29085583467042e+17
19186.0	5.2898748890262176e+17
19187.0	5.288846054916096e+17
19188.0	5.2878907448579405e+17
19189.0	5.286885161872041e+17
19190.0	5.2858899674781e+17
19191.0	5.2848973455906125e+17
19192.0	5.283954730292564e+17
19193.0	5.2829397793286816e+17
19194.0	5.281961955644757e+17
19195.0	5.2809915579760634e+17
19196.0	5.28000143659281e+17
19197.0	5.2790188488785914e+17
19198.0	5.2780291077789e+17
19199.0	5.2637387281749286e+17
19200.0	5.267862804146864e+17
19201.0	5.275076083580926e+17
19202.0	5.274099942511957e+17
19203.0	5.2730829929622176e+17
19204.0	5.272112296099839e+17
19205.0	5.271143800548011e+17
19206.0	5.270155289078442e+17
19207.0	5.2691347394177683e+17
19208.0	5.2680628207179085e+17
19209.0	5.267199639945215e+17
19210.0	5.266223156341419e+17
19211.0	5.2652472138028365e+17
19212.0	5.264262314328062e+17
19213.0	5.2631157558913683e+17
19214.0	5.2620778690751136e+17
19215.0	5.261269689608874e+17
19216.0	5.2603284060023456e+17
19217.0	5.25934448939281e+17
19218.0	5.2579125749787296e+17
19219.0	5.2573033921686176e+17
19220.0	5.256379145125887e+17
19221.0	5.2552279505851725e+17
19222.0	5.2544363463092896e+17
19223.0	5.253442167635967e+17
19224.0	5.2524443357238605e+17
19225.0	5.251407467424425e+17
19226.0	5.25049425699362e+17
19227.0	5.2495137706257056e+17
19228.0	5.248546758459391e+17
19229.0	5.2475650494518605e+17
19230.0	5.2465539726267725e+17
19231.0	5.2455762489070925e+17
19232.0	5.244612260134911e+17
19233.0	5.243598196965375e+17
19234.0	5.2426439655423994e+17
19235.0	5.2416588011274234e+17
19236.0	5.240696460017662e+17
19237.0	5.239705014632447e+17
19238.0	5.2386651683771725e+17
19239.0	5.237755399372798e+17
19240.0	5.236724387719849e+17
19241.0	5.2357700954794656e+17
19242.0	5.2348095173754874e+17
19243.0	5.2337517551506765e+17
19244.0	5.2328612624684365e+17
19245.0	5.2318781218051405e+17
19246.0	5.230891409691988e+17
19247.0	5.2299160515597645e+17
19248.0	5.2289371017052154e+17
19249.0	5.2279524580829856e+17
19250.0	5.226967361475925e+17
19251.0	5.225955488432126e+17
19252.0	5.2248468150463136e+17
19253.0	5.224025392065194e+17
19254.0	5.2230502960769696e+17
19255.0	5.221968092244649e+17
19256.0	5.2210734297251834e+17
19257.0	5.2201161616261114e+17
19258.0	5.219137515159551e+17
19259.0	5.2181163384504314e+17
19260.0	5.21684250595601e+17
19261.0	5.216190279800149e+17
19262.0	5.215184902335147e+17
19263.0	5.214207501576873e+17
19264.0	5.2129623721028256e+17
19265.0	5.212160809151145e+17
19266.0	5.2111724927167136e+17
19267.0	5.2103145646107296e+17
19268.0	5.209329838500521e+17
19269.0	5.208350959250089e+17
19270.0	5.207371662666411e+17
19271.0	5.206202700354901e+17
19272.0	5.205390712460628e+17
19273.0	5.202963898651986e+17
19274.0	5.202645318893566e+17
19275.0	5.202465929909589e+17
19276.0	5.2014733912091296e+17
19277.0	5.2004930292722336e+17
19278.0	5.19951322517777e+17
19279.0	5.198498602068649e+17
19280.0	5.197502699536383e+17
19281.0	5.196564628067668e+17
19282.0	5.1941657581103795e+17
19283.0	5.1919636751100576e+17
19284.0	5.190950844366847e+17
19285.0	5.190099269932372e+17
19286.0	5.1892039244404045e+17
19287.0	5.188238053823828e+17
19288.0	5.1836245626934624e+17
19289.0	5.1734959686505504e+17
19290.0	5.1852850205381965e+17
19291.0	5.1841633776653664e+17
19292.0	5.1833153061737805e+17
19293.0	5.1823251239731194e+17
19294.0	5.181337426897577e+17
19295.0	5.180356935636308e+17
19296.0	5.1793627744392525e+17
19297.0	5.1783613298333005e+17
19298.0	5.177377334930089e+17
19299.0	5.1764024039178234e+17
19300.0	5.175415531722068e+17
19301.0	5.1744236396434765e+17
19302.0	5.173434459182419e+17
19303.0	5.172393973994836e+17
19304.0	5.171432605963605e+17
19305.0	5.1704535952916474e+17
19306.0	5.1694555089250976e+17
19307.0	5.16843192328738e+17
19308.0	5.1674597045917e+17
19309.0	5.166021240771925e+17
19310.0	5.164827899767465e+17
19311.0	5.164453163171839e+17
19312.0	5.163495655298388e+17
19313.0	5.1624965476188154e+17
19314.0	5.143304686884132e+17
19315.0	5.144353505454805e+17
19316.0	5.1594706313106765e+17
19317.0	5.158502908209834e+17
19318.0	5.157499692908543e+17
19319.0	5.15650576659251e+17
19320.0	5.1554995362856954e+17
19321.0	5.154495545737215e+17
19322.0	5.1534351802477216e+17
19323.0	5.15225544486639e+17
19324.0	5.151464341110782e+17
19325.0	5.1500156886275405e+17
19326.0	5.1494532583260154e+17
19327.0	5.1484337977862816e+17
19328.0	5.147423105439059e+17
19329.0	5.146414069841919e+17
19330.0	5.145373545507498e+17
19331.0	5.1443538640677536e+17
19332.0	5.1433527172573856e+17
19333.0	5.142114078468776e+17
19334.0	5.1385561398640634e+17
19335.0	5.1375186612933965e+17
19336.0	5.136492125661866e+17
19337.0	5.1354647162170016e+17
19338.0	5.1343196362724685e+17
19339.0	5.133389883506687e+17
19340.0	5.1322870108433056e+17
19341.0	5.13130250773026e+17
19342.0	5.1300330289233914e+17
19343.0	5.1292195981885434e+17
19344.0	5.1281602484196685e+17
19345.0	5.1258418923219584e+17
19346.0	5.1257803003658234e+17
19347.0	5.124957925976746e+17
19348.0	5.12393673318946e+17
19349.0	5.1228467929634125e+17
19350.0	5.121776265374378e+17
19351.0	5.120701501538303e+17
19352.0	5.119603105595391e+17
19353.0	5.1185664798665363e+17
19354.0	5.116989258683731e+17
19355.0	5.1147770107876685e+17
19356.0	5.1137282166838605e+17
19357.0	5.1126241794020685e+17
19358.0	5.111500119911081e+17
19359.0	5.110318536938836e+17
19360.0	5.1092507685027834e+17
19361.0	5.1081228593397754e+17
19362.0	5.1070177916573005e+17
19363.0	5.105876449536681e+17
19364.0	5.104725666736811e+17
19365.0	5.1035739660834125e+17
19366.0	5.102411156815872e+17
19367.0	5.101237874371241e+17
19368.0	5.099826998586026e+17
19369.0	5.098230560500394e+17
19370.0	5.0969103879372794e+17
19371.0	5.0958421154856954e+17
19372.0	5.0946539782143994e+17
19373.0	5.0934088969748474e+17
19374.0	5.0921814548807674e+17
19375.0	5.0909289979576314e+17
19376.0	5.08966806294801e+17
19377.0	5.0883840173233485e+17
19378.0	5.0870946889727994e+17
19379.0	5.085789232824319e+17
19380.0	5.0844685478570656e+17
19381.0	5.0831272436913485e+17
19382.0	5.0817296750346234e+17
19383.0	5.080344415961088e+17
19384.0	5.079008821641215e+17
19385.0	5.0775960765945165e+17
19386.0	5.076164835366228e+17
19387.0	5.0747067820496205e+17
19388.0	5.0732294146621434e+17
19389.0	5.0717248031730336e+17
19390.0	5.0701894621156685e+17
19391.0	5.0519394372375616e+17
19392.0	5.067027045679103e+17
19393.0	5.065427743582889e+17
19394.0	5.0637663741760845e+17
19395.0	5.062046047535104e+17
19396.0	5.060325764934313e+17
19397.0	5.058600656087721e+17
19398.0	5.056772819648511e+17
19399.0	5.054525840119123e+17
19400.0	5.0530212167461536e+17
19401.0	5.0510993230397434e+17
19402.0	5.0491022023939405e+17
19403.0	5.047040743920981e+17
19404.0	5.0449378813760845e+17
19405.0	5.042750941910357e+17
19406.0	5.0405114562041165e+17
19407.0	5.0372593368869536e+17
19408.0	5.034400028819456e+17
19409.0	5.032344951980032e+17
19410.0	5.029810412366506e+17
19411.0	5.027161391322453e+17
19412.0	5.024409124689236e+17
19413.0	5.0215586463307085e+17
19414.0	5.018579792909653e+17
19415.0	5.014766957363198e+17
19416.0	5.01074953764864e+17
19417.0	5.007289408815103e+17
19418.0	5.004058458849279e+17
19419.0	4.999823072340649e+17
19420.0	4.9947475164091725e+17
19421.0	4.9907317576389965e+17
19422.0	4.985022374565204e+17
19423.0	4.979686875944276e+17
19424.0	4.97276398914765e+17
19425.0	4.966084436295681e+17
19426.0	4.957705491972095e+17
19427.0	4.9476450826321946e+17
19428.0	4.9357020697285965e+17
19429.0	4.921312965995175e+17
19430.0	4.901314298729806e+17
19431.0	4.88200418169106e+17
19432.0	4.874114659516414e+17
19433.0	4.862492559802368e+17
19434.0	4.8499338831899296e+17
19435.0	4.836185181869396e+17
19436.0	4.820419961247059e+17
19437.0	4.8056256954367974e+17
19438.0	4.761306375301794e+17
19439.0	4.77014142222336e+17
19440.0	4.749669492064254e+17
19441.0	4.7251360558612486e+17
19442.0	4.691273722101767e+17
19443.0	4.633147515863048e+17
19444.0	4.572226210758653e+17
19445.0	4.523954039422978e+17
19446.0	4.467242539767123e+17
19447.0	4.3898685291670125e+17
19448.0	4.2537455413712294e+17
19449.0	4.0802877031055443e+17
19450.0	3.612158645152427e+17
19451.0	3.466758381196623e+17
19452.0	3.8784018978351917e+17
19453.0	4.184308384268295e+17
19454.0	4.323227891400701e+17
19455.0	4.428459928802643e+17
19456.0	4.4898038659590835e+17
19457.0	4.5399971711330963e+17
19458.0	4.548975042494524e+17
19459.0	4.654621443577173e+17
19460.0	4.6953949843947475e+17
19461.0	4.7216074466263014e+17
19462.0	4.742000223977471e+17
19463.0	4.759794418188286e+17
19464.0	4.775385075373396e+17
19465.0	4.790268002478762e+17
19466.0	4.8033588125368294e+17
19467.0	4.81589464347443e+17
19468.0	4.8270864117923834e+17
19469.0	4.8370370394193894e+17
19470.0	4.8466202103644154e+17
19471.0	4.857144646041597e+17
19472.0	4.875432980993367e+17
19473.0	4.8900267283141965e+17
19474.0	4.901597376501082e+17
19475.0	4.909782866941268e+17
19476.0	4.917067782291456e+17
19477.0	4.923029623319209e+17
19478.0	4.928130210157906e+17
19479.0	4.931679590285311e+17
19480.0	4.936035314870956e+17
19481.0	4.9386866357917e+17
19482.0	4.940926992515073e+17
19483.0	4.944441255832234e+17
19484.0	4.946129054247594e+17
19485.0	4.947659651547135e+17
19486.0	4.9490885977920845e+17
19487.0	4.951402423342419e+17
19488.0	4.952905171861504e+17
19489.0	4.9539330349902496e+17
19490.0	4.9540397415792614e+17
19491.0	4.955680007345492e+17
19492.0	4.9564387038112416e+17
19493.0	4.9570637599648416e+17
19494.0	4.957627528948394e+17
19495.0	4.958110721157802e+17
19496.0	4.959167628443647e+17
19497.0	4.9597906706322765e+17
19498.0	4.959601865435821e+17
19499.0	4.9325696747219264e+17
19500.0	4.960447327371264e+17
19501.0	4.9605483653584205e+17
19502.0	4.960589230462292e+17
19503.0	4.960607184879615e+17
19504.0	4.9605588525165216e+17
19505.0	4.9604877534713165e+17
19506.0	4.9603686904627194e+17
19507.0	4.960193627204266e+17
19508.0	4.960010385053013e+17
19509.0	4.9597790552063994e+17
19510.0	4.9594074636397216e+17
19511.0	4.923866415628251e+17
19512.0	4.955947927601135e+17
19513.0	4.950907420671985e+17
19514.0	4.9532313670778816e+17
19515.0	4.957301068791809e+17
19516.0	4.9573690081279994e+17
19517.0	4.9568907400314874e+17
19518.0	4.95647107195426e+17
19519.0	4.955979450591914e+17
19520.0	4.955473742659583e+17
19521.0	4.954979978007892e+17
19522.0	4.954428082399913e+17
19523.0	4.9539013393339725e+17
19524.0	4.9533353263977805e+17
19525.0	4.952750013371732e+17
19526.0	4.9521742004442445e+17
19527.0	4.9515703143410336e+17
19528.0	4.950954434625534e+17
19529.0	4.950328743034879e+17
19530.0	4.9497008340555085e+17
19531.0	4.9490549524834976e+17
19532.0	4.9483992897945594e+17
19533.0	4.9477343059640314e+17
19534.0	4.9470595829596154e+17
19535.0	4.9463659303621965e+17
19536.0	4.9456656179090765e+17
19537.0	4.9449895925732685e+17
19538.0	4.944265220194304e+17
19539.0	4.943228640602796e+17
19540.0	4.9428365682496845e+17
19541.0	4.942125253438122e+17
19542.0	4.94139014713617e+17
19543.0	4.9406497979542176e+17
19544.0	4.9399118709828256e+17
19545.0	4.938982132198057e+17
19546.0	4.937847145147051e+17
19547.0	4.937653668894037e+17
19548.0	4.936891968607572e+17
19549.0	4.93606927475234e+17
19550.0	4.935352168306004e+17
19551.0	4.935107623605589e+17
19552.0	4.934346042856789e+17
19553.0	4.933552567222271e+17
19554.0	4.932748918303402e+17
19555.0	4.93197647290914e+17
19556.0	4.932557910398294e+17
19557.0	4.9318210662563834e+17
19558.0	4.931017903876778e+17
19559.0	4.930209205714943e+17
19560.0	4.9293896464029e+17
19561.0	4.928579627035307e+17
19562.0	4.927775839704404e+17
19563.0	4.9269655532994554e+17
19564.0	4.9261477486045856e+17
19565.0	4.9253256629234336e+17
19566.0	4.924487620012713e+17
19567.0	4.923679673330346e+17
19568.0	4.9228398492385274e+17
19569.0	4.9220128422406816e+17
19570.0	4.921195094168917e+17
19571.0	4.920361906864128e+17
19572.0	4.91950946071347e+17
19573.0	4.918686716526591e+17
19574.0	4.9178041748466336e+17
19575.0	4.9170175673849165e+17
19576.0	4.9161772329861114e+17
19577.0	4.9153085255188474e+17
19578.0	4.9144716416341325e+17
19579.0	4.9136365151627936e+17
19580.0	4.912794994475008e+17
19581.0	4.9119514276659194e+17
19582.0	4.9111150016593914e+17
19583.0	4.9102668329997645e+17
19584.0	4.9094112124600314e+17
19585.0	4.908505725840043e+17
19586.0	4.907636770908842e+17
19587.0	4.906775432833706e+17
19588.0	4.90574989824273e+17
19589.0	4.905136976909651e+17
19590.0	4.9042395971802445e+17
19591.0	4.9034420964119885e+17
19592.0	4.9025890378929485e+17
19593.0	4.901722482103637e+17
19594.0	4.9007228892829e+17
19595.0	4.901029938899628e+17
19596.0	4.900099415780011e+17
19597.0	4.900751040752298e+17
19598.0	4.899687796572159e+17
19599.0	4.899033529887402e+17
19600.0	4.898175342433619e+17
19601.0	4.8972747946065914e+17
19602.0	4.8964248678345376e+17
19603.0	4.8951290446042426e+17
19604.0	4.8946893151709856e+17
19605.0	4.893683586782549e+17
19606.0	4.892980102037503e+17
19607.0	4.8921190247082656e+17
19608.0	4.891242995384319e+17
19609.0	4.890351640073556e+17
19610.0	4.889515191697408e+17
19611.0	4.8886395706190496e+17
19612.0	4.8877815635203405e+17
19613.0	4.8869061633419936e+17
19614.0	4.8860225444249594e+17
19615.0	4.885174824555862e+17
19616.0	4.884155356326569e+17
19617.0	4.8834292125532154e+17
19618.0	4.882279559419221e+17
19619.0	4.881284564953769e+17
19620.0	4.8804548386488314e+17
19621.0	4.879946681242964e+17
19622.0	4.879085441034922e+17
19623.0	4.878214755254271e+17
19624.0	4.8773387091531085e+17
19625.0	4.8764706280352416e+17
19626.0	4.875597138362368e+17
19627.0	4.8747294997435725e+17
19628.0	4.873532752964268e+17
19629.0	4.872926108407124e+17
19630.0	4.871991492345856e+17
19631.0	4.856388833858889e+17
19632.0	4.8703634956178765e+17
19633.0	4.869459224646996e+17
19634.0	4.86862596673809e+17
19635.0	4.8677324150101325e+17
19636.0	4.8668691713228794e+17
19637.0	4.865811039999317e+17
19638.0	4.865129659935402e+17
19639.0	4.864252997271551e+17
19640.0	4.863358983471103e+17
19641.0	4.861994600147628e+17
19642.0	4.861640201033045e+17
19643.0	4.860759784467113e+17
19644.0	4.859866220156244e+17
19645.0	4.8588743979827194e+17
19646.0	4.858148662454955e+17
19647.0	4.8572815012877645e+17
19648.0	4.856406396108798e+17
19649.0	4.8555318201111885e+17
19650.0	4.8546623422900896e+17
19651.0	4.853786451378175e+17
19652.0	4.852913281870506e+17
19653.0	4.852036860379134e+17
19654.0	4.851167170745685e+17
19655.0	4.850291168684714e+17
