# Flux units: erg / (cm m2 s)
# Wavelength units: Angstrom
wave	flux
19000.0	6.957602274192042e+17
19001.0	6.956262005320361e+17
19002.0	6.955067076072787e+17
19003.0	6.953792580878335e+17
19004.0	6.952518969283924e+17
19005.0	6.951252605446826e+17
19006.0	6.949983402065919e+17
19007.0	6.948691541753855e+17
19008.0	6.947417475776511e+17
19009.0	6.946058103947263e+17
19010.0	6.94473144349491e+17
19011.0	6.943514291426644e+17
19012.0	6.942032006916777e+17
19013.0	6.941093512522409e+17
19014.0	6.939808281307817e+17
19015.0	6.938553410562729e+17
19016.0	6.937301448567465e+17
19017.0	6.936041032952489e+17
19018.0	6.934758475606697e+17
19019.0	6.933495985209343e+17
19020.0	6.932216063284564e+17
19021.0	6.930957276457641e+17
19022.0	6.929679693556394e+17
19023.0	6.928377881559039e+17
19024.0	6.927100996310355e+17
19025.0	6.92578165072418e+17
19026.0	6.924437022572543e+17
19027.0	6.92304793899281e+17
19028.0	6.921959010992127e+17
19029.0	6.920712275798697e+17
19030.0	6.919455692379476e+17
19031.0	6.918155983825578e+17
19032.0	6.916822503434922e+17
19033.0	6.915356233476777e+17
19034.0	6.913728697423187e+17
19035.0	6.909840293101567e+17
19036.0	6.892614908029609e+17
19037.0	6.907912207903401e+17
19038.0	6.908701157184852e+17
19039.0	6.907808131842047e+17
19040.0	6.906661795004415e+17
19041.0	6.90544138256384e+17
19042.0	6.90390559830835e+17
19043.0	6.902950569268563e+17
19044.0	6.901677554663423e+17
19045.0	6.900389358774953e+17
19046.0	6.89911628894481e+17
19047.0	6.897811276693503e+17
19048.0	6.896429074568532e+17
19049.0	6.894625291064659e+17
19050.0	6.893504940736511e+17
19051.0	6.890155816954537e+17
19052.0	6.889773727044948e+17
19053.0	6.889876348381866e+17
19054.0	6.888864675266559e+17
19055.0	6.887437924739754e+17
19056.0	6.88639885582882e+17
19057.0	6.885183923945472e+17
19058.0	6.88366789206562e+17
19059.0	6.882574576123903e+17
19060.0	6.881391581768361e+17
19061.0	6.88013362471458e+17
19062.0	6.878864034758655e+17
19063.0	6.877590858672809e+17
19064.0	6.876282234426708e+17
19065.0	6.874952765887828e+17
19066.0	6.87366013592098e+17
19067.0	6.872519614485844e+17
19068.0	6.871256924159999e+17
19069.0	6.869988395362985e+17
19070.0	6.868707865264127e+17
19071.0	6.867431124718932e+17
19072.0	6.866089150163625e+17
19073.0	6.864912078864383e+17
19074.0	6.863643468977491e+17
19075.0	6.862373112162985e+17
19076.0	6.861098493236564e+17
19077.0	6.859822761421481e+17
19078.0	6.858548059308031e+17
19079.0	6.857290769148585e+17
19080.0	6.85601029497378e+17
19081.0	6.854712609472511e+17
19082.0	6.8534600218269e+17
19083.0	6.85211671208482e+17
19084.0	6.85074281538082e+17
19085.0	6.849604971309738e+17
19086.0	6.847858027615571e+17
19087.0	6.846695669235711e+17
19088.0	6.84548840174387e+17
19089.0	6.844292133814271e+17
19090.0	6.843188186710015e+17
19091.0	6.841947364087124e+17
19092.0	6.84049154773265e+17
19093.0	6.839491230695423e+17
19094.0	6.838247437107199e+17
19095.0	6.836993570897919e+17
19096.0	6.835731299303423e+17
19097.0	6.834471361839104e+17
19098.0	6.833102826853716e+17
19099.0	6.831817504762538e+17
19100.0	6.830618003024553e+17
19101.0	6.829376344337066e+17
19102.0	6.828098193107625e+17
19103.0	6.82686187446818e+17
19104.0	6.825588120966484e+17
19105.0	6.82406512094959e+17
19106.0	6.822980285191507e+17
19107.0	6.8216095782557e+17
19108.0	6.82016303620642e+17
19109.0	6.818572676366335e+17
19110.0	6.817574336943444e+17
19111.0	6.816494902749866e+17
19112.0	6.815324505986388e+17
19113.0	6.814182353666047e+17
19114.0	6.812872924113578e+17
19115.0	6.811604739948543e+17
19116.0	6.81038563053841e+17
19117.0	6.809109348570452e+17
19118.0	6.807658418580137e+17
19119.0	6.804274433141416e+17
19120.0	6.805089740827305e+17
19121.0	6.803928240182612e+17
19122.0	6.802817393448276e+17
19123.0	6.801581204133203e+17
19124.0	6.800113519995561e+17
19125.0	6.799030712882515e+17
19126.0	6.797669057953791e+17
19127.0	6.795947324822868e+17
19128.0	6.795000780860073e+17
19129.0	6.793933916995583e+17
19130.0	6.792746273953108e+17
19131.0	6.791502695672489e+17
19132.0	6.790242732343295e+17
19133.0	6.788941271968425e+17
19134.0	6.78765487333922e+17
19135.0	6.786456179703805e+17
19136.0	6.785189895558484e+17
19137.0	6.783892932875604e+17
19138.0	6.782658584859987e+17
19139.0	6.781414095716351e+17
19140.0	6.780156815343615e+17
19141.0	6.778895879634944e+17
19142.0	6.77760672534801e+17
19143.0	6.776354747973631e+17
19144.0	6.775079171347796e+17
19145.0	6.773843337150461e+17
19146.0	6.772162471919615e+17
19147.0	6.771291763769343e+17
19148.0	6.769970112015017e+17
19149.0	6.768691504305492e+17
19150.0	6.767513241124863e+17
19151.0	6.766231935079764e+17
19152.0	6.764923027019092e+17
19153.0	6.763501371872595e+17
19154.0	6.762357068573353e+17
19155.0	6.761091959532202e+17
19156.0	6.759794397063849e+17
19157.0	6.758371829656234e+17
19158.0	6.756914183886164e+17
19159.0	6.755855154282495e+17
19160.0	6.754569372915027e+17
19161.0	6.753091609165823e+17
19162.0	6.751190682086057e+17
19163.0	6.75036668240418e+17
19164.0	6.749519709820244e+17
19165.0	6.74820984545826e+17
19166.0	6.747126873369257e+17
19167.0	6.745879165796351e+17
19168.0	6.744686835619155e+17
19169.0	6.743471726875987e+17
19170.0	6.742230773530623e+17
19171.0	6.740967567305385e+17
19172.0	6.739705041955498e+17
19173.0	6.738474817639764e+17
19174.0	6.737215793135615e+17
19175.0	6.735971250864127e+17
19176.0	6.734711472084308e+17
19177.0	6.733338681977514e+17
19178.0	6.732150808947369e+17
19179.0	6.730879395867306e+17
19180.0	6.729641092623017e+17
19181.0	6.728357246227796e+17
19182.0	6.727118691325267e+17
19183.0	6.725887411443028e+17
19184.0	6.724622940635135e+17
19185.0	6.723349496812884e+17
19186.0	6.722082063428265e+17
19187.0	6.720744957061801e+17
19188.0	6.719513552748543e+17
19189.0	6.718220083221844e+17
19190.0	6.716908680948394e+17
19191.0	6.715572607778815e+17
19192.0	6.714256900052308e+17
19193.0	6.712848910647295e+17
19194.0	6.711376373699923e+17
19195.0	6.709860918536874e+17
19196.0	6.708059075597652e+17
19197.0	6.705783878189055e+17
19198.0	6.702357054925481e+17
19199.0	6.696077569469097e+17
19200.0	6.695362186881706e+17
19201.0	6.698818691836585e+17
19202.0	6.699603697074173e+17
19203.0	6.699244173219155e+17
19204.0	6.698550323489449e+17
19205.0	6.69759635141427e+17
19206.0	6.696526397046783e+17
19207.0	6.69529714930483e+17
19208.0	6.694141013174953e+17
19209.0	6.693002470053203e+17
19210.0	6.69179127529472e+17
19211.0	6.69055622263603e+17
19212.0	6.689288312498857e+17
19213.0	6.687934767256916e+17
19214.0	6.686685067389609e+17
19215.0	6.685519094917802e+17
19216.0	6.684297201887914e+17
19217.0	6.683015071662079e+17
19218.0	6.681589377400831e+17
19219.0	6.680397360398335e+17
19220.0	6.679275451187199e+17
19221.0	6.677996089202003e+17
19222.0	6.676787514485417e+17
19223.0	6.675552652667562e+17
19224.0	6.674277171112617e+17
19225.0	6.673026123475625e+17
19226.0	6.671787236524031e+17
19227.0	6.67053472367684e+17
19228.0	6.6692980946589e+17
19229.0	6.668038657015808e+17
19230.0	6.66677362696738e+17
19231.0	6.665504270494378e+17
19232.0	6.664249007581866e+17
19233.0	6.662946424531626e+17
19234.0	6.66172692435217e+17
19235.0	6.660447568658431e+17
19236.0	6.65920483762722e+17
19237.0	6.657934269000362e+17
19238.0	6.6566188709533e+17
19239.0	6.655411562217471e+17
19240.0	6.654151386376873e+17
19241.0	6.652873384744276e+17
19242.0	6.651611780743168e+17
19243.0	6.650243347819177e+17
19244.0	6.64909279011362e+17
19245.0	6.647820938029736e+17
19246.0	6.646554079264765e+17
19247.0	6.645289582591999e+17
19248.0	6.644015084601343e+17
19249.0	6.642729821929472e+17
19250.0	6.641430315401215e+17
19251.0	6.640096840602964e+17
19252.0	6.638710475631274e+17
19253.0	6.637640075968511e+17
19254.0	6.636381677114708e+17
19255.0	6.634969592670889e+17
19256.0	6.633820214962858e+17
19257.0	6.632558490025983e+17
19258.0	6.631275493676372e+17
19259.0	6.629891414600362e+17
19260.0	6.628260119052287e+17
19261.0	6.627383118746964e+17
19262.0	6.626100234245459e+17
19263.0	6.624792555814911e+17
19264.0	6.623393154247337e+17
19265.0	6.622207620240724e+17
19266.0	6.620942997738836e+17
19267.0	6.619762720593235e+17
19268.0	6.618485462051498e+17
19269.0	6.617197894609578e+17
19270.0	6.615881101257385e+17
19271.0	6.614517137364308e+17
19272.0	6.613306589227689e+17
19273.0	6.611888144121855e+17
19274.0	6.610476661560659e+17
19275.0	6.60946841379362e+17
19276.0	6.608168219399507e+17
19277.0	6.606877007806463e+17
19278.0	6.605570684835155e+17
19279.0	6.604245615422121e+17
19280.0	6.602950244477609e+17
19281.0	6.601647405574825e+17
19282.0	6.600336008194729e+17
19283.0	6.598989045213866e+17
19284.0	6.597605384869204e+17
19285.0	6.596269013204991e+17
19286.0	6.594791071896916e+17
19287.0	6.592838476584276e+17
19288.0	6.583534329615697e+17
19289.0	6.578542984123727e+17
19290.0	6.588716989896022e+17
19291.0	6.588087234024788e+17
19292.0	6.587164686374227e+17
19293.0	6.58593569448482e+17
19294.0	6.584625230337363e+17
19295.0	6.583334624821247e+17
19296.0	6.581906230127274e+17
19297.0	6.580670263809364e+17
19298.0	6.579379879892307e+17
19299.0	6.577940013077844e+17
19300.0	6.576745842300243e+17
19301.0	6.575416758239231e+17
19302.0	6.574071361830911e+17
19303.0	6.572691179962365e+17
19304.0	6.571389775511551e+17
19305.0	6.570030501549396e+17
19306.0	6.568662516017833e+17
19307.0	6.567257853394943e+17
19308.0	6.565830282881706e+17
19309.0	6.564246537459028e+17
19310.0	6.562760262767956e+17
19311.0	6.561570022053203e+17
19312.0	6.560214928414035e+17
19313.0	6.558322656979625e+17
19314.0	6.53059410344892e+17
19315.0	6.530929604427795e+17
19316.0	6.554064349298687e+17
19317.0	6.553431440009898e+17
19318.0	6.552157429257556e+17
19319.0	6.550838571608746e+17
19320.0	6.549420370471593e+17
19321.0	6.547960977074857e+17
19322.0	6.546618317449897e+17
19323.0	6.545191463463593e+17
19324.0	6.543782078753449e+17
19325.0	6.542346496420521e+17
19326.0	6.541002856726527e+17
19327.0	6.5396236891805e+17
19328.0	6.538022510133247e+17
19329.0	6.536811457282047e+17
19330.0	6.535375717662719e+17
19331.0	6.53391622709794e+17
19332.0	6.532495928808788e+17
19333.0	6.531032303359315e+17
19334.0	6.529573398598995e+17
19335.0	6.527644899562836e+17
19336.0	6.526537494254931e+17
19337.0	6.525078710430378e+17
19338.0	6.523461502151337e+17
19339.0	6.522091785071274e+17
19340.0	6.520546776143188e+17
19341.0	6.518883794725545e+17
19342.0	6.517380809228287e+17
19343.0	6.516015070445567e+17
19344.0	6.514277154990762e+17
19345.0	6.512210527737172e+17
19346.0	6.510863379507882e+17
19347.0	6.509602835267583e+17
19348.0	6.508262905435476e+17
19349.0	6.506605080215551e+17
19350.0	6.504955145879551e+17
19351.0	6.503427479699455e+17
19352.0	6.501591684568403e+17
19353.0	6.500222818233001e+17
19354.0	6.498589186457599e+17
19355.0	6.496873549048489e+17
19356.0	6.49527389463074e+17
19357.0	6.493595391492095e+17
19358.0	6.491886603381417e+17
19359.0	6.490111802518185e+17
19360.0	6.488095413938858e+17
19361.0	6.486495966440106e+17
19362.0	6.484749753952938e+17
19363.0	6.48297322713361e+17
19364.0	6.481178313883647e+17
19365.0	6.479365734225235e+17
19366.0	6.477535785953961e+17
19367.0	6.475687403017556e+17
19368.0	6.473818765787135e+17
19369.0	6.471897846557353e+17
19370.0	6.469901235519487e+17
19371.0	6.467888242229247e+17
19372.0	6.465985299087359e+17
19373.0	6.464006671826943e+17
19374.0	6.462039000787625e+17
19375.0	6.460034723960148e+17
19376.0	6.45799778259217e+17
19377.0	6.45583403553041e+17
19378.0	6.453720353778346e+17
19379.0	6.451572575130964e+17
19380.0	6.449377328846164e+17
19381.0	6.44707163185698e+17
19382.0	6.444761773419177e+17
19383.0	6.442483075863892e+17
19384.0	6.440178296029183e+17
19385.0	6.437809073509716e+17
19386.0	6.435378218489172e+17
19387.0	6.432864211391828e+17
19388.0	6.430253274628095e+17
19389.0	6.427385429753853e+17
19390.0	6.423477286338559e+17
19391.0	6.40662282104558e+17
19392.0	6.415109854680404e+17
19393.0	6.416161521882452e+17
19394.0	6.413748114467497e+17
19395.0	6.410905101271039e+17
19396.0	6.408043805103444e+17
19397.0	6.405068413381289e+17
19398.0	6.40185687745058e+17
19399.0	6.398503446118399e+17
19400.0	6.395406774697983e+17
19401.0	6.392223667060736e+17
19402.0	6.388673270513664e+17
19403.0	6.385081390202879e+17
19404.0	6.381450771999402e+17
19405.0	6.377714794976596e+17
19406.0	6.373815909788329e+17
19407.0	6.369704697746772e+17
19408.0	6.365416886632447e+17
19409.0	6.361294087826089e+17
19410.0	6.356911838461951e+17
19411.0	6.352274829170004e+17
19412.0	6.347495584038911e+17
19413.0	6.342377115484159e+17
19414.0	6.337315905470463e+17
19415.0	6.331986597642239e+17
19416.0	6.326381182276948e+17
19417.0	6.320812058127017e+17
19418.0	6.315034989472425e+17
19419.0	6.308929632643754e+17
19420.0	6.302564203801257e+17
19421.0	6.295801595341482e+17
19422.0	6.288683926465193e+17
19423.0	6.281269078567593e+17
19424.0	6.273473002689875e+17
19425.0	6.265292211967316e+17
19426.0	6.256606458500435e+17
19427.0	6.247415424221183e+17
19428.0	6.237684400564905e+17
19429.0	6.227343625770324e+17
19430.0	6.215817783235924e+17
19431.0	6.203674470645759e+17
19432.0	6.193331791637161e+17
19433.0	6.180744337205929e+17
19434.0	6.166870704346452e+17
19435.0	6.151210262331391e+17
19436.0	6.134601690207572e+17
19437.0	6.116626755747839e+17
19438.0	6.075233921051309e+17
19439.0	6.072570598828713e+17
19440.0	6.057579460777299e+17
19441.0	6.033957132959741e+17
19442.0	6.007118161947306e+17
19443.0	5.976781696445098e+17
19444.0	5.942017081911976e+17
19445.0	5.901991346350764e+17
19446.0	5.85466053132288e+17
19447.0	5.797483826730321e+17
19448.0	5.7259640655708186e+17
19449.0	5.631183638145706e+17
19450.0	5.487141120726348e+17
19451.0	5.385881916888406e+17
19452.0	5.568706444787712e+17
19453.0	5.679610080176814e+17
19454.0	5.7586501277450195e+17
19455.0	5.819876281854634e+17
19456.0	5.869123356939606e+17
19457.0	5.909274023340713e+17
19458.0	5.88373237152706e+17
19459.0	5.966922810130446e+17
19460.0	6.001405076002131e+17
19461.0	6.025544679642451e+17
19462.0	6.046585284023638e+17
19463.0	6.065609768260948e+17
19464.0	6.082599801847805e+17
19465.0	6.097972692167338e+17
19466.0	6.112058623219027e+17
19467.0	6.125163427572393e+17
19468.0	6.137103681323007e+17
19469.0	6.147918632670547e+17
19470.0	6.158251713014442e+17
19471.0	6.167689428991999e+17
19472.0	6.176000039714815e+17
19473.0	6.183906473323178e+17
19474.0	6.19132319048226e+17
19475.0	6.198201283510271e+17
19476.0	6.204995843478867e+17
19477.0	6.211125820172969e+17
19478.0	6.216760317444095e+17
19479.0	6.221885872974505e+17
19480.0	6.226907239896404e+17
19481.0	6.231482071427754e+17
19482.0	6.235735690575871e+17
19483.0	6.23959431324194e+17
19484.0	6.243251229032447e+17
19485.0	6.246599771204265e+17
19486.0	6.249646359139668e+17
19487.0	6.252806932878676e+17
19488.0	6.255622955029844e+17
19489.0	6.258122852488532e+17
19490.0	6.260449695061331e+17
19491.0	6.263133090523818e+17
19492.0	6.265385374449663e+17
19493.0	6.267356518372691e+17
19494.0	6.269139820391082e+17
19495.0	6.270723322544128e+17
19496.0	6.271910541961897e+17
19497.0	6.272565421714089e+17
19498.0	6.265462405638825e+17
19499.0	6.251992470345044e+17
19500.0	6.275294808418985e+17
19501.0	6.278154800857088e+17
19502.0	6.279448666046463e+17
19503.0	6.280424239486292e+17
19504.0	6.281287694985897e+17
19505.0	6.282011592709459e+17
19506.0	6.282644842435924e+17
19507.0	6.28315701518882e+17
19508.0	6.283552977758889e+17
19509.0	6.283641692880895e+17
19510.0	6.28216339505698e+17
19511.0	6.240843806889285e+17
19512.0	6.275412783005695e+17
19513.0	6.276267922598566e+17
19514.0	6.278085659153746e+17
19515.0	6.284816657241428e+17
19516.0	6.285638067639636e+17
19517.0	6.285891773399039e+17
19518.0	6.285949124913834e+17
19519.0	6.28592301187618e+17
19520.0	6.285756260330153e+17
19521.0	6.285822614219434e+17
19522.0	6.285711830067881e+17
19523.0	6.285523018579965e+17
19524.0	6.285225569725098e+17
19525.0	6.285069059970388e+17
19526.0	6.284846059312468e+17
19527.0	6.284518092002644e+17
19528.0	6.2841320126109e+17
19529.0	6.283739113979903e+17
19530.0	6.283356113207296e+17
19531.0	6.282929072242687e+17
19532.0	6.282559428231167e+17
19533.0	6.282179819252393e+17
19534.0	6.281694071313748e+17
19535.0	6.281179675579731e+17
19536.0	6.280637374442153e+17
19537.0	6.280102061015039e+17
19538.0	6.279299318065833e+17
19539.0	6.278811924561919e+17
19540.0	6.278356944639316e+17
19541.0	6.277739970210473e+17
19542.0	6.277138119043753e+17
19543.0	6.276512207252137e+17
19544.0	6.275992658815657e+17
19545.0	6.275087414766249e+17
19546.0	6.274357517789865e+17
19547.0	6.273941213544447e+17
19548.0	6.273267254602409e+17
19549.0	6.272483400701268e+17
19550.0	6.271817008982697e+17
19551.0	6.271069126830761e+17
19552.0	6.270308011649706e+17
19553.0	6.269527534862335e+17
19554.0	6.268760655309482e+17
19555.0	6.268036700263764e+17
19556.0	6.267250380810921e+17
19557.0	6.266440215341737e+17
19558.0	6.265616426773162e+17
19559.0	6.264783388366163e+17
19560.0	6.263860967243775e+17
19561.0	6.263072308767401e+17
19562.0	6.262175042284201e+17
19563.0	6.261373327638527e+17
19564.0	6.260503891760468e+17
19565.0	6.259627215814656e+17
19566.0	6.258732214954665e+17
19567.0	6.257856275109204e+17
19568.0	6.256987338353322e+17
19569.0	6.256129213115049e+17
19570.0	6.255236973505194e+17
19571.0	6.254347773367636e+17
19572.0	6.253414454045353e+17
19573.0	6.252487826735104e+17
19574.0	6.251517772999338e+17
19575.0	6.25066518843665e+17
19576.0	6.249717380590249e+17
19577.0	6.248740133623124e+17
19578.0	6.247837075505151e+17
19579.0	6.246879816493738e+17
19580.0	6.245931447309652e+17
19581.0	6.244990713156947e+17
19582.0	6.244034875315539e+17
19583.0	6.243067626870099e+17
19584.0	6.242080044438868e+17
19585.0	6.241034047935828e+17
19586.0	6.240044286563667e+17
19587.0	6.239146121800364e+17
19588.0	6.23805688971264e+17
19589.0	6.237178154363562e+17
19590.0	6.236173785628671e+17
19591.0	6.235244046144852e+17
19592.0	6.234259055094442e+17
19593.0	6.233228204922195e+17
19594.0	6.232168642641919e+17
19595.0	6.231375225028607e+17
19596.0	6.230079588444842e+17
19597.0	6.229345864865108e+17
19598.0	6.228160613274963e+17
19599.0	6.227309216399359e+17
19600.0	6.226300684118698e+17
19601.0	6.225233028229802e+17
19602.0	6.224156085452799e+17
19603.0	6.222987174171987e+17
19604.0	6.222063776475818e+17
19605.0	6.220991779482282e+17
19606.0	6.220128455404201e+17
19607.0	6.219113588326399e+17
19608.0	6.218072543898282e+17
19609.0	6.217022179726676e+17
19610.0	6.215930540807508e+17
19611.0	6.214861061794473e+17
19612.0	6.213953346600957e+17
19613.0	6.212898986655743e+17
19614.0	6.211825054689962e+17
19615.0	6.21076167139874e+17
19616.0	6.209528269198676e+17
19617.0	6.208528419826345e+17
19618.0	6.207326115594237e+17
19619.0	6.206172059140095e+17
19620.0	6.205215872472404e+17
19621.0	6.204252282858153e+17
19622.0	6.203374044534099e+17
19623.0	6.202291556887209e+17
19624.0	6.201171280658431e+17
19625.0	6.200088765049514e+17
19626.0	6.198915321823231e+17
19627.0	6.197612557718868e+17
19628.0	6.196063724983636e+17
19629.0	6.193671037430441e+17
19630.0	6.189438222729215e+17
19631.0	6.185104023311702e+17
19632.0	6.189980450466473e+17
19633.0	6.19057616257024e+17
19634.0	6.190134491873279e+17
19635.0	6.189267269189632e+17
19636.0	6.188192466206719e+17
19637.0	6.186954290189652e+17
19638.0	6.186331519232682e+17
19639.0	6.185290502766591e+17
19640.0	6.184115396498771e+17
19641.0	6.182821213940394e+17
19642.0	6.182101690875903e+17
19643.0	6.181036427837439e+17
19644.0	6.17994501890594e+17
19645.0	6.178849799449258e+17
19646.0	6.177672142345556e+17
19647.0	6.176793587351551e+17
19648.0	6.175727389682346e+17
19649.0	6.174654040025769e+17
19650.0	6.173579888558079e+17
19651.0	6.172499477091667e+17
19652.0	6.171426112055978e+17
19653.0	6.170338945662976e+17
19654.0	6.16926532477474e+17
19655.0	6.168185922038442e+17
19656.0	6.167111367917567e+17
19657.0	6.166033290581334e+17
19658.0	6.164950727436969e+17
19659.0	6.163871322603519e+17
19660.0	6.162789879338324e+17
19661.0	6.161708607340541e+17
19662.0	6.160619639493972e+17
19663.0	6.159520387213993e+17
19664.0	6.15843824280098e+17
19665.0	6.157385604617556e+17
