# Flux units: erg / (cm m2 s)
# Wavelength units: Angstrom
wave	flux
19000.0	7.013780384907264e+17
19001.0	7.01240362349363e+17
19002.0	7.011194219702953e+17
19003.0	7.009893518497108e+17
19004.0	7.008594713116672e+17
19005.0	7.007304419377151e+17
19006.0	7.006015100813311e+17
19007.0	7.00469244801843e+17
19008.0	7.003498007407274e+17
19009.0	7.002161541371219e+17
19010.0	7.000588069896191e+17
19011.0	6.999604310573055e+17
19012.0	6.997929787129855e+17
19013.0	6.997048321987923e+17
19014.0	6.99570539602466e+17
19015.0	6.99442521055778e+17
19016.0	6.993123425124352e+17
19017.0	6.991861565270697e+17
19018.0	6.990542948095316e+17
19019.0	6.989259530917204e+17
19020.0	6.987949355477674e+17
19021.0	6.986667791482879e+17
19022.0	6.985371239841791e+17
19023.0	6.984034863284223e+17
19024.0	6.982752253509631e+17
19025.0	6.981426114549075e+17
19026.0	6.980095889637375e+17
19027.0	6.978495541062313e+17
19028.0	6.977559108168362e+17
19029.0	6.976262768339625e+17
19030.0	6.974976171879081e+17
19031.0	6.973673235808255e+17
19032.0	6.972364249453908e+17
19033.0	6.970976684911273e+17
19034.0	6.96969722785519e+17
19035.0	6.968020164061865e+17
19036.0	6.942945569669112e+17
19037.0	6.965541207364948e+17
19038.0	6.964493117205162e+17
19039.0	6.963251795460095e+17
19040.0	6.961963914144426e+17
19041.0	6.960661747029331e+17
19042.0	6.959227065073661e+17
19043.0	6.958072805195775e+17
19044.0	6.956761223266304e+17
19045.0	6.955454599004159e+17
19046.0	6.954129732315817e+17
19047.0	6.952843710474921e+17
19048.0	6.951387043375785e+17
19049.0	6.950057028878336e+17
19050.0	6.94886723555601e+17
19051.0	6.943881634862415e+17
19052.0	6.945404855080275e+17
19053.0	6.945012040335359e+17
19054.0	6.943750891416233e+17
19055.0	6.942224536655188e+17
19056.0	6.941127897426602e+17
19057.0	6.939852899614719e+17
19058.0	6.938472945636691e+17
19059.0	6.937231800751444e+17
19060.0	6.9359416915613e+17
19061.0	6.934657440415743e+17
19062.0	6.933352575664127e+17
19063.0	6.932051718569983e+17
19064.0	6.930658790910633e+17
19065.0	6.929300819279871e+17
19066.0	6.928103116199252e+17
19067.0	6.927057965547519e+17
19068.0	6.925756948370772e+17
19069.0	6.92445644919057e+17
19070.0	6.923135752339456e+17
19071.0	6.92184018915601e+17
19072.0	6.920525063738708e+17
19073.0	6.919248658038784e+17
19074.0	6.917951408046079e+17
19075.0	6.91665010635571e+17
19076.0	6.91533410013457e+17
19077.0	6.914035073854121e+17
19078.0	6.912720297962153e+17
19079.0	6.911444373908138e+17
19080.0	6.910131605689684e+17
19081.0	6.908803639410687e+17
19082.0	6.907508609602899e+17
19083.0	6.906141349685929e+17
19084.0	6.904733639901183e+17
19085.0	6.903619110567935e+17
19086.0	6.90189569761826e+17
19087.0	6.900445675694761e+17
19088.0	6.899455049596928e+17
19089.0	6.897968561695402e+17
19090.0	6.896847875822932e+17
19091.0	6.895563517023572e+17
19092.0	6.894097969883817e+17
19093.0	6.893009190780928e+17
19094.0	6.891725586956287e+17
19095.0	6.890429679140863e+17
19096.0	6.889120144031743e+17
19097.0	6.887830616451753e+17
19098.0	6.886504645263359e+17
19099.0	6.885199794492756e+17
19100.0	6.883888316022784e+17
19101.0	6.882615752305321e+17
19102.0	6.881256251151699e+17
19103.0	6.8800341868544e+17
19104.0	6.878731853365247e+17
19105.0	6.877354399891453e+17
19106.0	6.876023552125609e+17
19107.0	6.874772851916797e+17
19108.0	6.873426288792916e+17
19109.0	6.870538920831656e+17
19110.0	6.870637558278825e+17
19111.0	6.8695778422074e+17
19112.0	6.868297272262655e+17
19113.0	6.867025679526569e+17
19114.0	6.865712284259668e+17
19115.0	6.86433684754705e+17
19116.0	6.863109223699796e+17
19117.0	6.86179922162483e+17
19118.0	6.860360320898388e+17
19119.0	6.855855113415332e+17
19120.0	6.857695667683327e+17
19121.0	6.856471065832106e+17
19122.0	6.855341024564564e+17
19123.0	6.854046017126397e+17
19124.0	6.852597292640938e+17
19125.0	6.851437072657066e+17
19126.0	6.850119111191209e+17
19127.0	6.847500207347027e+17
19128.0	6.847253167035732e+17
19129.0	6.846181306357075e+17
19130.0	6.844947295283881e+17
19131.0	6.843657121781076e+17
19132.0	6.842362552647679e+17
19133.0	6.840979435465385e+17
19134.0	6.839640006852607e+17
19135.0	6.838464023975252e+17
19136.0	6.837173215734441e+17
19137.0	6.835757390670505e+17
19138.0	6.834563526077097e+17
19139.0	6.833282816322218e+17
19140.0	6.831988054250836e+17
19141.0	6.830690903523327e+17
19142.0	6.829364102561791e+17
19143.0	6.828054860354899e+17
19144.0	6.826764268120746e+17
19145.0	6.825498995501737e+17
19146.0	6.823693172867072e+17
19147.0	6.822837844530516e+17
19148.0	6.821573776375807e+17
19149.0	6.820269238779903e+17
19150.0	6.819006677778431e+17
19151.0	6.817713009721343e+17
19152.0	6.816384860291071e+17
19153.0	6.815049689595903e+17
19154.0	6.813712579035133e+17
19155.0	6.812494206424403e+17
19156.0	6.811180004453033e+17
19157.0	6.809707330491732e+17
19158.0	6.807599106927273e+17
19159.0	6.807179180900351e+17
19160.0	6.805939624258217e+17
19161.0	6.804568742559743e+17
19162.0	6.800781331486038e+17
19163.0	6.801690281203028e+17
19164.0	6.80077740282129e+17
19165.0	6.799421138272255e+17
19166.0	6.798077451042815e+17
19167.0	6.796678728952489e+17
19168.0	6.795593161987411e+17
19169.0	6.794300933974697e+17
19170.0	6.793032779868841e+17
19171.0	6.791628161985193e+17
19172.0	6.790412934403412e+17
19173.0	6.78915024687377e+17
19174.0	6.787826234425343e+17
19175.0	6.786571873288191e+17
19176.0	6.785272741451091e+17
19177.0	6.783836804000426e+17
19178.0	6.782568343710378e+17
19179.0	6.781191311764138e+17
19180.0	6.780045237070505e+17
19181.0	6.778687068307455e+17
19182.0	6.777463454913875e+17
19183.0	6.776187416914602e+17
19184.0	6.7748842976925e+17
19185.0	6.773586166895956e+17
19186.0	6.772288648467795e+17
19187.0	6.770921415114751e+17
19188.0	6.769679926296575e+17
19189.0	6.768372295401472e+17
19190.0	6.767051076359508e+17
19191.0	6.765599986985641e+17
19192.0	6.764177722966015e+17
19193.0	6.762842339060393e+17
19194.0	6.761505348037289e+17
19195.0	6.760184630913705e+17
19196.0	6.758780797364905e+17
19197.0	6.757266911570602e+17
19198.0	6.755068777507497e+17
19199.0	6.737910455861244e+17
19200.0	6.740024277423448e+17
19201.0	6.751306161760936e+17
19202.0	6.750797138930346e+17
19203.0	6.74964866998818e+17
19204.0	6.748456540438527e+17
19205.0	6.747215010376361e+17
19206.0	6.745939136653993e+17
19207.0	6.744565554522793e+17
19208.0	6.743203390685183e+17
19209.0	6.742061625638911e+17
19210.0	6.740766921588735e+17
19211.0	6.739472286045524e+17
19212.0	6.738159687696383e+17
19213.0	6.73665896222993e+17
19214.0	6.735284432186026e+17
19215.0	6.734173328201044e+17
19216.0	6.732948816527359e+17
19217.0	6.731638088138751e+17
19218.0	6.729726624268284e+17
19219.0	6.728890225524733e+17
19220.0	6.727709085051561e+17
19221.0	6.726202932854783e+17
19222.0	6.725105995830612e+17
19223.0	6.723803465908223e+17
19224.0	6.722472675464532e+17
19225.0	6.721059745868457e+17
19226.0	6.719778717346474e+17
19227.0	6.718469329037994e+17
19228.0	6.717184462727849e+17
19229.0	6.715873226828458e+17
19230.0	6.71455040905762e+17
19231.0	6.713232632840191e+17
19232.0	6.711929537385812e+17
19233.0	6.710562844398932e+17
19234.0	6.709296992965972e+17
19235.0	6.707973740385619e+17
19236.0	6.706684786027178e+17
19237.0	6.705357382483968e+17
19238.0	6.703956429722963e+17
19239.0	6.702737767006207e+17
19240.0	6.701413659486889e+17
19241.0	6.70008354152994e+17
19242.0	6.698773535959722e+17
19243.0	6.697327047737343e+17
19244.0	6.696150012089684e+17
19245.0	6.694823767572479e+17
19246.0	6.693494754814633e+17
19247.0	6.692184200489642e+17
19248.0	6.690856901804031e+17
19249.0	6.689526514013524e+17
19250.0	6.688184710725631e+17
19251.0	6.686791757900457e+17
19252.0	6.685307822232916e+17
19253.0	6.684213317905065e+17
19254.0	6.682903576575999e+17
19255.0	6.681408841274708e+17
19256.0	6.680217017210195e+17
19257.0	6.678912269899091e+17
19258.0	6.677578565113172e+17
19259.0	6.676174707097597e+17
19260.0	6.674430332414634e+17
19261.0	6.673556655396179e+17
19262.0	6.672182474178559e+17
19263.0	6.670830694738602e+17
19264.0	6.669138004366675e+17
19265.0	6.668054380063401e+17
19266.0	6.666554885625172e+17
19267.0	6.665262539472895e+17
19268.0	6.663917531037695e+17
19269.0	6.662569525073235e+17
19270.0	6.661209095580329e+17
19271.0	6.659613651544746e+17
19272.0	6.658483178962943e+17
19273.0	6.656702943679827e+17
19274.0	6.655336657540435e+17
19275.0	6.654448795385855e+17
19276.0	6.653077007018665e+17
19277.0	6.651720894163625e+17
19278.0	6.650361271375188e+17
19279.0	6.648963820158975e+17
19280.0	6.647570161991679e+17
19281.0	6.646245376393215e+17
19282.0	6.64486785581056e+17
19283.0	6.643333907262122e+17
19284.0	6.641985665018538e+17
19285.0	6.640627020901033e+17
19286.0	6.639322301551955e+17
19287.0	6.637905062308521e+17
19288.0	6.629672896954362e+17
19289.0	6.619335915208678e+17
19290.0	6.633726404460543e+17
19291.0	6.632213495939072e+17
19292.0	6.631059403134292e+17
19293.0	6.629667087843327e+17
19294.0	6.628266662865576e+17
19295.0	6.626806410335572e+17
19296.0	6.625038429410644e+17
19297.0	6.623633316599123e+17
19298.0	6.622227966110378e+17
19299.0	6.620799730100906e+17
19300.0	6.619413575543466e+17
19301.0	6.617991138159274e+17
19302.0	6.616556925965652e+17
19303.0	6.615076291215359e+17
19304.0	6.613678728151039e+17
19305.0	6.61224656347682e+17
19306.0	6.610796690451113e+17
19307.0	6.6093053392541e+17
19308.0	6.607844215706964e+17
19309.0	6.60585561858594e+17
19310.0	6.604153955199657e+17
19311.0	6.603368645175978e+17
19312.0	6.602033321388713e+17
19313.0	6.600065363039571e+17
19314.0	6.576522982151498e+17
19315.0	6.576908897965431e+17
19316.0	6.595373455900671e+17
19317.0	6.594056118687059e+17
19318.0	6.592580188547753e+17
19319.0	6.591101245500074e+17
19320.0	6.589578973893972e+17
19321.0	6.588041491644415e+17
19322.0	6.5864208482304e+17
19323.0	6.584792083245737e+17
19324.0	6.583260689028436e+17
19325.0	6.580709689567914e+17
19326.0	6.5795303421597e+17
19327.0	6.578027722964991e+17
19328.0	6.576430770378068e+17
19329.0	6.574920867075412e+17
19330.0	6.573070277236052e+17
19331.0	6.571454999734954e+17
19332.0	6.569890069260969e+17
19333.0	6.567380556360362e+17
19334.0	6.565629554677075e+17
19335.0	6.563893978245801e+17
19336.0	6.562356574289919e+17
19337.0	6.560721029212842e+17
19338.0	6.558896564994047e+17
19339.0	6.5573942736541e+17
19340.0	6.554416531024553e+17
19341.0	6.552630463561727e+17
19342.0	6.550690393838931e+17
19343.0	6.549294795106985e+17
19344.0	6.547526919738708e+17
19345.0	6.54435100603187e+17
19346.0	6.541864245832362e+17
19347.0	6.540597546450943e+17
19348.0	6.538946709640534e+17
19349.0	6.537134638191956e+17
19350.0	6.535324618457088e+17
19351.0	6.532820474964649e+17
19352.0	6.530605762914985e+17
19353.0	6.528875253901993e+17
19354.0	6.526515358116521e+17
19355.0	6.524523378988372e+17
19356.0	6.522700057717417e+17
19357.0	6.52078220522291e+17
19358.0	6.518830702526463e+17
19359.0	6.516836689859923e+17
19360.0	6.514827925826217e+17
19361.0	6.512880576888831e+17
19362.0	6.510888194408447e+17
19363.0	6.508844303777791e+17
19364.0	6.506777451429887e+17
19365.0	6.504692858574164e+17
19366.0	6.501724978850474e+17
19367.0	6.499537139706538e+17
19368.0	6.497373025643178e+17
19369.0	6.495134682884777e+17
19370.0	6.492904250583722e+17
19371.0	6.490664902590464e+17
19372.0	6.488426580104532e+17
19373.0	6.485807072280575e+17
19374.0	6.482350699446271e+17
19375.0	6.479952442556415e+17
19376.0	6.477520069197823e+17
19377.0	6.475035904573439e+17
19378.0	6.472521452879871e+17
19379.0	6.469912999843156e+17
19380.0	6.465349813796864e+17
19381.0	6.462668855225001e+17
19382.0	6.459892212695037e+17
19383.0	6.457124524305065e+17
19384.0	6.453218306774358e+17
19385.0	6.448726978942291e+17
19386.0	6.445753537571497e+17
19387.0	6.442730932666365e+17
19388.0	6.436933828520618e+17
19389.0	6.432937011926356e+17
19390.0	6.429533840343039e+17
19391.0	6.403302902202342e+17
19392.0	6.417685242620584e+17
19393.0	6.414844688684375e+17
19394.0	6.40602699010321e+17
19395.0	6.402215163985919e+17
19396.0	6.394296067773778e+17
19397.0	6.388034796781567e+17
19398.0	6.379844463318356e+17
19399.0	6.371441235372714e+17
19400.0	6.364810650320895e+17
19401.0	6.358822815793151e+17
19402.0	6.354244537942013e+17
19403.0	6.349561691897855e+17
19404.0	6.34482708115183e+17
19405.0	6.339911769303721e+17
19406.0	6.334325602997588e+17
19407.0	6.32927501296162e+17
19408.0	6.323504908948822e+17
19409.0	6.318574819868672e+17
19410.0	6.31212772233489e+17
19411.0	6.305992043484499e+17
19412.0	6.300100842225663e+17
19413.0	6.29285997196083e+17
19414.0	6.285697122041855e+17
19415.0	6.278833352562003e+17
19416.0	6.269475652719956e+17
19417.0	6.261783114634577e+17
19418.0	6.25153107034112e+17
19419.0	6.241467401327953e+17
19420.0	6.230701394012846e+17
19421.0	6.216275507631444e+17
19422.0	6.202221064617978e+17
19423.0	6.186281531517612e+17
19424.0	6.167711482642436e+17
19425.0	6.146798917080413e+17
19426.0	6.125630876461738e+17
19427.0	6.109227677035178e+17
19428.0	6.095718383790761e+17
19429.0	6.081404474141353e+17
19430.0	6.065866786821462e+17
19431.0	6.047328191031982e+17
19432.0	6.03397981156147e+17
19433.0	6.016599486103552e+17
19434.0	5.996963940706986e+17
19435.0	5.976056285975891e+17
19436.0	5.952317422217897e+17
19437.0	5.929604035728726e+17
19438.0	5.875447042670593e+17
19439.0	5.869133344975533e+17
19440.0	5.833979821293567e+17
19441.0	5.792674927170899e+17
19442.0	5.7468399113994285e+17
19443.0	5.693600782352382e+17
19444.0	5.632757982035962e+17
19445.0	5.5618025463043437e+17
19446.0	5.477982357422079e+17
19447.0	5.373836040776355e+17
19448.0	5.23920439998328e+17
19449.0	5.052508272940372e+17
19450.0	4.754333549723633e+17
19451.0	4.575072482230288e+17
19452.0	4.9244097842162336e+17
19453.0	5.154109241251165e+17
19454.0	5.307776390310564e+17
19455.0	5.422868138906964e+17
19456.0	5.5136203728486426e+17
19457.0	5.58764435998856e+17
19458.0	5.611624706605122e+17
19459.0	5.7052843188333344e+17
19460.0	5.752979343452839e+17
19461.0	5.794255844933633e+17
19462.0	5.830870761297238e+17
19463.0	5.862230057462441e+17
19464.0	5.88942743035358e+17
19465.0	5.913351878781612e+17
19466.0	5.933952310531412e+17
19467.0	5.953232682265258e+17
19468.0	5.971067086569471e+17
19469.0	5.986996263234216e+17
19470.0	6.001748164476927e+17
19471.0	6.015730639525206e+17
19472.0	6.028826706444287e+17
19473.0	6.041121226489855e+17
19474.0	6.052712827322367e+17
19475.0	6.063850431796566e+17
19476.0	6.081483212412244e+17
19477.0	6.10074344379733e+17
19478.0	6.117738516141395e+17
19479.0	6.132753249249962e+17
19480.0	6.146208649183232e+17
19481.0	6.156755435607379e+17
19482.0	6.165824217109847e+17
19483.0	6.175774377071956e+17
19484.0	6.182302818238461e+17
19485.0	6.18944600735744e+17
19486.0	6.194985265266687e+17
19487.0	6.200957610229759e+17
19488.0	6.204975871601321e+17
19489.0	6.210522180834643e+17
19490.0	6.213401961999016e+17
19491.0	6.217734486491135e+17
19492.0	6.222094894716244e+17
19493.0	6.225416604527274e+17
19494.0	6.22837791527185e+17
19495.0	6.231128535640746e+17
19496.0	6.233708174508031e+17
19497.0	6.236762915471359e+17
19498.0	6.236292622843904e+17
19499.0	6.210557222147395e+17
19500.0	6.243612391462227e+17
19501.0	6.245944369960275e+17
19502.0	6.251747172068006e+17
19503.0	6.254278417055747e+17
19504.0	6.263233597232471e+17
19505.0	6.264982832414719e+17
19506.0	6.272023615504376e+17
19507.0	6.273995208916991e+17
19508.0	6.278018398595753e+17
19509.0	6.281521737848148e+17
19510.0	6.282300576759807e+17
19511.0	6.246290743274121e+17
19512.0	6.283193999163383e+17
19513.0	6.280206573983048e+17
19514.0	6.285713109330595e+17
19515.0	6.293562882785279e+17
19516.0	6.294714910594388e+17
19517.0	6.295311983749801e+17
19518.0	6.298357137932287e+17
19519.0	6.298707913168211e+17
19520.0	6.298987861988692e+17
19521.0	6.299337774596095e+17
19522.0	6.300243713501865e+17
19523.0	6.301620899938303e+17
19524.0	6.301719456994644e+17
19525.0	6.301822193674921e+17
19526.0	6.301867334172671e+17
19527.0	6.301862877724671e+17
19528.0	6.301951880855551e+17
19529.0	6.303052141166591e+17
19530.0	6.302945629612714e+17
19531.0	6.302796032070995e+17
19532.0	6.302614675259392e+17
19533.0	6.302403855559337e+17
19534.0	6.30216319967778e+17
19535.0	6.301888613974015e+17
19536.0	6.301730381059412e+17
19537.0	6.302127276862122e+17
19538.0	6.301647263935146e+17
19539.0	6.301022685233152e+17
19540.0	6.301014367229268e+17
19541.0	6.300623586721792e+17
19542.0	6.300198603762345e+17
19543.0	6.299711339582804e+17
19544.0	6.299277229118804e+17
19545.0	6.29841535906611e+17
19546.0	6.29762195263761e+17
19547.0	6.297764365336575e+17
19548.0	6.297230859654484e+17
19549.0	6.296901438319274e+17
19550.0	6.296578310537215e+17
19551.0	6.296519843337558e+17
19552.0	6.296303456397993e+17
19553.0	6.295658899526996e+17
19554.0	6.295006639117652e+17
19555.0	6.294362377246036e+17
19556.0	6.294019996909567e+17
19557.0	6.294544526082047e+17
19558.0	6.293852979724287e+17
19559.0	6.293150145096361e+17
19560.0	6.292394283281065e+17
19561.0	6.291684693027498e+17
19562.0	6.29102467944721e+17
19563.0	6.291441374461951e+17
19564.0	6.290686078178643e+17
19565.0	6.289920389109076e+17
19566.0	6.289121107858772e+17
19567.0	6.288358690346324e+17
19568.0	6.287542167710378e+17
19569.0	6.286744824228521e+17
19570.0	6.28681067270417e+17
19571.0	6.286067198765737e+17
19572.0	6.285212294053887e+17
19573.0	6.284382316090708e+17
19574.0	6.283473634110121e+17
19575.0	6.282814585219754e+17
19576.0	6.28207145521425e+17
19577.0	6.281186817081344e+17
19578.0	6.280449865984682e+17
19579.0	6.2801240405661e+17
19580.0	6.27923691381282e+17
19581.0	6.278352893640701e+17
19582.0	6.277463991298729e+17
19583.0	6.276556395642879e+17
19584.0	6.275631295758336e+17
19585.0	6.274626608955391e+17
19586.0	6.273660295140692e+17
19587.0	6.272777907251881e+17
19588.0	6.271578270597119e+17
19589.0	6.270967033277098e+17
19590.0	6.269967355871231e+17
19591.0	6.269467433981268e+17
19592.0	6.268656179391146e+17
19593.0	6.267678372484436e+17
19594.0	6.266526822825983e+17
19595.0	6.265752022330025e+17
19596.0	6.264201229456724e+17
19597.0	6.263813961678847e+17
19598.0	6.262573798959785e+17
19599.0	6.261867055939583e+17
19600.0	6.26089134059247e+17
19601.0	6.259846995946153e+17
19602.0	6.258849506568873e+17
19603.0	6.257364200762026e+17
19604.0	6.256811003521706e+17
19605.0	6.255671698434732e+17
19606.0	6.254909564037802e+17
19607.0	6.253912347989332e+17
19608.0	6.25288898814498e+17
19609.0	6.251849039828308e+17
19610.0	6.251007184994303e+17
19611.0	6.250273940264276e+17
19612.0	6.249328870599337e+17
19613.0	6.248296565003604e+17
19614.0	6.247245052990803e+17
19615.0	6.246241899205972e+17
19616.0	6.245013066700116e+17
19617.0	6.244145978933247e+17
19618.0	6.242694647687849e+17
19619.0	6.241539407740924e+17
19620.0	6.240552836136959e+17
19621.0	6.239985168547837e+17
19622.0	6.238990822801408e+17
19623.0	6.237945522552831e+17
19624.0	6.236887324819455e+17
19625.0	6.235840451007828e+17
19626.0	6.234776647587156e+17
19627.0	6.233673530955092e+17
19628.0	6.232196255143252e+17
19629.0	6.231173595747667e+17
19630.0	6.22738325774882e+17
19631.0	6.211687422798508e+17
19632.0	6.227917491142655e+17
19633.0	6.227217270265171e+17
19634.0	6.226291781708457e+17
19635.0	6.225221458242217e+17
19636.0	6.224159129119401e+17
19637.0	6.222795688815274e+17
19638.0	6.222081390455465e+17
19639.0	6.221016517487274e+17
19640.0	6.219878560869033e+17
19641.0	6.218245372990806e+17
19642.0	6.217811143688191e+17
19643.0	6.216733283057663e+17
19644.0	6.215747444757844e+17
19645.0	6.214610148043433e+17
19646.0	6.213691385053183e+17
19647.0	6.212666861988521e+17
19648.0	6.21159119987234e+17
19649.0	6.21051109249297e+17
19650.0	6.209433728188415e+17
19651.0	6.208347876709716e+17
19652.0	6.207270418033321e+17
19653.0	6.206179462086655e+17
19654.0	6.205099874800979e+17
19655.0	6.204013754187775e+17
19656.0	6.202934045966335e+17
19657.0	6.201854149001215e+17
19658.0	6.200768191266815e+17
19659.0	6.19968033001745e+17
19660.0	6.198594096158035e+17
19661.0	6.197505647706111e+17
19662.0	6.196414926640468e+17
19663.0	6.195276436646569e+17
19664.0	6.194169165556393e+17
19665.0	6.193144690726228e+17
