# Flux units: erg / (cm m2 s)
# Wavelength units: Angstrom
wave	flux
19000.0	7.237828784859817e+17
19001.0	7.236501888827392e+17
19002.0	7.235188460705108e+17
19003.0	7.233867554138793e+17
19004.0	7.232550553867604e+17
19005.0	7.231231984926717e+17
19006.0	7.229975588154024e+17
19007.0	7.228728100083028e+17
19008.0	7.227402010755071e+17
19009.0	7.226071089588905e+17
19010.0	7.224734778742102e+17
19011.0	7.223430842329769e+17
19012.0	7.222105405915135e+17
19013.0	7.220784629372244e+17
19014.0	7.219459763382953e+17
19015.0	7.218134423437311e+17
19016.0	7.216806260725075e+17
19017.0	7.215482369212415e+17
19018.0	7.214156779006633e+17
19019.0	7.2128305051293e+17
19020.0	7.211503807627263e+17
19021.0	7.210176933964457e+17
19022.0	7.20884983800354e+17
19023.0	7.207522367351464e+17
19024.0	7.206194208833535e+17
19025.0	7.204866318751062e+17
19026.0	7.203537045946368e+17
19027.0	7.202206703594153e+17
19028.0	7.200882047320061e+17
19029.0	7.199553652523007e+17
19030.0	7.198224880238591e+17
19031.0	7.196895885656063e+17
19032.0	7.195566492614655e+17
19033.0	7.194230418046973e+17
19034.0	7.192905426228564e+17
19035.0	7.191561737601024e+17
19036.0	7.189982924679849e+17
19037.0	7.188906023146836e+17
19038.0	7.187586636316671e+17
19039.0	7.186258139458217e+17
19040.0	7.18492840108578e+17
19041.0	7.183598289420288e+17
19042.0	7.182267926096552e+17
19043.0	7.180937390806355e+17
19044.0	7.179606631819944e+17
19045.0	7.178275675701247e+17
19046.0	7.176942226767871e+17
19047.0	7.175610401030143e+17
19048.0	7.174273013645311e+17
19049.0	7.172950608314368e+17
19050.0	7.171617952104445e+17
19051.0	7.170252001509375e+17
19052.0	7.168940209165651e+17
19053.0	7.167624771971753e+17
19054.0	7.16629455405056e+17
19055.0	7.164950985659731e+17
19056.0	7.163631874255529e+17
19057.0	7.162300196716543e+17
19058.0	7.160968509390847e+17
19059.0	7.159636381663232e+17
19060.0	7.158303951945727e+17
19061.0	7.156972965068799e+17
19062.0	7.155640791203839e+17
19063.0	7.154308579590143e+17
19064.0	7.15297206182434e+17
19065.0	7.15164098966323e+17
19066.0	7.150312824154793e+17
19067.0	7.148981017990483e+17
19068.0	7.14764898533376e+17
19069.0	7.146316839430825e+17
19070.0	7.144984332817748e+17
19071.0	7.143652576985088e+17
19072.0	7.142320456247978e+17
19073.0	7.140988125795667e+17
19074.0	7.139656112712361e+17
19075.0	7.138323852165119e+17
19076.0	7.136990769534291e+17
19077.0	7.135658253134505e+17
19078.0	7.134325879341055e+17
19079.0	7.132994923222356e+17
19080.0	7.131662733978281e+17
19081.0	7.130330297270271e+17
19082.0	7.128996421915987e+17
19083.0	7.127664720609279e+17
19084.0	7.126316900592297e+17
19085.0	7.125001153019904e+17
19086.0	7.123645316289876e+17
19087.0	7.122333377145513e+17
19088.0	7.12100233154833e+17
19089.0	7.119658353513811e+17
19090.0	7.118339474194432e+17
19091.0	7.117002612495699e+17
19092.0	7.115668867164841e+17
19093.0	7.114337491615743e+17
19094.0	7.113005380665343e+17
19095.0	7.111673401136467e+17
19096.0	7.110341090257578e+17
19097.0	7.109009584685055e+17
19098.0	7.107677932311892e+17
19099.0	7.106345998920361e+17
19100.0	7.10501399003136e+17
19101.0	7.103681173039785e+17
19102.0	7.102344912524627e+17
19103.0	7.101018136728918e+17
19104.0	7.099686305398783e+17
19105.0	7.098354209827498e+17
19106.0	7.097021626318845e+17
19107.0	7.095689314041855e+17
19108.0	7.094356473282559e+17
19109.0	7.093013527046825e+17
19110.0	7.091689955699369e+17
19111.0	7.090362764667561e+17
19112.0	7.089031875657727e+17
19113.0	7.087700412028244e+17
19114.0	7.086368679963305e+17
19115.0	7.085035563778045e+17
19116.0	7.083705043866964e+17
19117.0	7.082372468746921e+17
19118.0	7.081034450818387e+17
19119.0	7.079478706569215e+17
19120.0	7.078373556398761e+17
19121.0	7.077045171388415e+17
19122.0	7.07571606495778e+17
19123.0	7.074384739740329e+17
19124.0	7.07305305940514e+17
19125.0	7.071720589142697e+17
19126.0	7.070382423015423e+17
19127.0	7.068969166263636e+17
19128.0	7.067717882347517e+17
19129.0	7.066394699672233e+17
19130.0	7.065064683077632e+17
19131.0	7.063733570371583e+17
19132.0	7.062402067595263e+17
19133.0	7.061070074085373e+17
19134.0	7.059739754102783e+17
19135.0	7.058408465235968e+17
19136.0	7.057076459143165e+17
19137.0	7.0557383014045e+17
19138.0	7.054412621720234e+17
19139.0	7.053082894532608e+17
19140.0	7.051751820973398e+17
19141.0	7.050420504144556e+17
19142.0	7.04908889371443e+17
19143.0	7.047755152577876e+17
19144.0	7.04642506887441e+17
19145.0	7.045094617470292e+17
19146.0	7.043721477838163e+17
19147.0	7.042427958678867e+17
19148.0	7.041099987506516e+17
19149.0	7.039768537858047e+17
19150.0	7.038436811385514e+17
19151.0	7.037105304414892e+17
19152.0	7.035773603807231e+17
19153.0	7.034441324385619e+17
19154.0	7.033104169085609e+17
19155.0	7.031777010909183e+17
19156.0	7.030445304010068e+17
19157.0	7.029111505551359e+17
19158.0	7.027775242239999e+17
19159.0	7.026447176695807e+17
19160.0	7.025116666571434e+17
19161.0	7.023782313765545e+17
19162.0	7.022432324594345e+17
19163.0	7.021113574599336e+17
19164.0	7.019788101834067e+17
19165.0	7.018456320835583e+17
19166.0	7.017118258866857e+17
19167.0	7.015789957742591e+17
19168.0	7.01445898904098e+17
19169.0	7.013126713813673e+17
19170.0	7.011794321145855e+17
19171.0	7.010460984759636e+17
19172.0	7.009128490729471e+17
19173.0	7.007795424176809e+17
19174.0	7.006459637618003e+17
19175.0	7.00512874860817e+17
19176.0	7.003795517079551e+17
19177.0	7.002451401332054e+17
19178.0	7.001127105069055e+17
19179.0	6.999792920035328e+17
19180.0	6.998459452227583e+17
19181.0	6.997119655215104e+17
19182.0	6.995789653999615e+17
19183.0	6.99445672096563e+17
19184.0	6.993120279396352e+17
19185.0	6.991722682777599e+17
19186.0	6.990387824558079e+17
19187.0	6.989052536422399e+17
19188.0	6.987717177682601e+17
19189.0	6.986381785388371e+17
19190.0	6.98504572899601e+17
19191.0	6.983709451703636e+17
19192.0	6.982373075845119e+17
19193.0	6.981036033092266e+17
19194.0	6.979698373776723e+17
19195.0	6.978359590387711e+17
19196.0	6.977018681884671e+17
19197.0	6.97567389295138e+17
19198.0	6.974312075143849e+17
19199.0	6.972851679308457e+17
19200.0	6.971530205812052e+17
19201.0	6.970300702916607e+17
19202.0	6.968983785832447e+17
19203.0	6.967651773448191e+17
19204.0	6.966314300080127e+17
19205.0	6.964976902209535e+17
19206.0	6.963637296037887e+17
19207.0	6.962294336520192e+17
19208.0	6.960946807308287e+17
19209.0	6.959616202113023e+17
19210.0	6.958274995814399e+17
19211.0	6.956933045026815e+17
19212.0	6.955590228115455e+17
19213.0	6.954241170079743e+17
19214.0	6.952897906475007e+17
19215.0	6.951559155242323e+17
19216.0	6.950215184198313e+17
19217.0	6.948867102736383e+17
19218.0	6.94748768702737e+17
19219.0	6.946163715822931e+17
19220.0	6.944832846386516e+17
19221.0	6.943474065954131e+17
19222.0	6.942137068639571e+17
19223.0	6.940793193365504e+17
19224.0	6.939444486952276e+17
19225.0	6.938090812385961e+17
19226.0	6.936747501944831e+17
19227.0	6.935398250272084e+17
19228.0	6.934026489866922e+17
19229.0	6.93260184068642e+17
19230.0	6.931250033983487e+17
19231.0	6.929897837210281e+17
19232.0	6.92854412419618e+17
19233.0	6.927189649915901e+17
19234.0	6.925835370670761e+17
19235.0	6.924480957207892e+17
19236.0	6.923124787729748e+17
19237.0	6.92176732430882e+17
19238.0	6.920408384492884e+17
19239.0	6.919052196839423e+17
19240.0	6.917693077367465e+17
19241.0	6.916333469259094e+17
19242.0	6.914973039766185e+17
19243.0	6.913599792480255e+17
19244.0	6.912248951166292e+17
19245.0	6.910885466821972e+17
19246.0	6.909520424293716e+17
19247.0	6.908155347511978e+17
19248.0	6.906789006147583e+17
19249.0	6.905421362451796e+17
19250.0	6.904052286401194e+17
19251.0	6.902676308623359e+17
19252.0	6.901290321139027e+17
19253.0	6.899939177835177e+17
19254.0	6.898566314328063e+17
19255.0	6.89717754602018e+17
19256.0	6.895719431187113e+17
19257.0	6.894305918582783e+17
19258.0	6.8929273738909e+17
19259.0	6.891547219984383e+17
19260.0	6.890160834740223e+17
19261.0	6.888783031042045e+17
19262.0	6.887398537428991e+17
19263.0	6.885962340630527e+17
19264.0	6.884548610621439e+17
19265.0	6.883174546844329e+17
19266.0	6.881785206713002e+17
19267.0	6.880403451980457e+17
19268.0	6.879009375780863e+17
19269.0	6.87761342472738e+17
19270.0	6.876213285661353e+17
19271.0	6.874799472465235e+17
19272.0	6.873411575873536e+17
19273.0	6.871986012334762e+17
19274.0	6.870428963657044e+17
19275.0	6.869020614939987e+17
19276.0	6.867612475938132e+17
19277.0	6.866201712001023e+17
19278.0	6.864788530047657e+17
19279.0	6.863372558882131e+17
19280.0	6.861951949515434e+17
19281.0	6.860534594229587e+17
19282.0	6.859112333705215e+17
19283.0	6.857687339892736e+17
19284.0	6.856259937850708e+17
19285.0	6.85482804580625e+17
19286.0	6.853400370435412e+17
19287.0	6.851963641659391e+17
19288.0	6.850320697830057e+17
19289.0	6.848807646702249e+17
19290.0	6.847529646467753e+17
19291.0	6.846070393580201e+17
19292.0	6.844641115286186e+17
19293.0	6.843189895888896e+17
19294.0	6.841735593678163e+17
19295.0	6.840277704638461e+17
19296.0	6.838816201506815e+17
19297.0	6.837351105953791e+17
19298.0	6.835882401202175e+17
19299.0	6.83440988103202e+17
19300.0	6.832933380467368e+17
19301.0	6.831378684794195e+17
19302.0	6.829872705262931e+17
19303.0	6.828382789915987e+17
19304.0	6.826889305915391e+17
19305.0	6.825391914920617e+17
19306.0	6.823889853568339e+17
19307.0	6.822381953744893e+17
19308.0	6.8208703846045e+17
19309.0	6.819348795271849e+17
19310.0	6.817810163782996e+17
19311.0	6.816273788130644e+17
19312.0	6.814742416282964e+17
19313.0	6.813202041361748e+17
19314.0	6.811404283674623e+17
19315.0	6.809874604927657e+17
19316.0	6.808550292586495e+17
19317.0	6.806989150268074e+17
19318.0	6.805415907382612e+17
19319.0	6.803835404156928e+17
19320.0	6.802247969144831e+17
19321.0	6.80065322975232e+17
19322.0	6.798903610791252e+17
19323.0	6.797280285818879e+17
19324.0	6.795665938754217e+17
19325.0	6.794041689636861e+17
19326.0	6.792412856844287e+17
19327.0	6.790774454747135e+17
19328.0	6.78912837357841e+17
19329.0	6.787473339667795e+17
19330.0	6.785807870328831e+17
19331.0	6.784136022851583e+17
19332.0	6.782456098542932e+17
19333.0	6.780766210665129e+17
19334.0	6.779066582215336e+17
19335.0	6.777357485823316e+17
19336.0	6.775430203834367e+17
19337.0	6.773669901981012e+17
19338.0	6.77192174543394e+17
19339.0	6.770190527583571e+17
19340.0	6.768429559534932e+17
19341.0	6.766661744285011e+17
19342.0	6.764872055739731e+17
19343.0	6.763094749478911e+17
19344.0	6.761284719957331e+17
19345.0	6.759360351611562e+17
19346.0	6.757375863510355e+17
19347.0	6.755383302772051e+17
19348.0	6.753509885433172e+17
19349.0	6.751614959004329e+17
19350.0	6.749702036215124e+17
19351.0	6.747706080886783e+17
19352.0	6.745728458861225e+17
19353.0	6.743760046828201e+17
19354.0	6.741771160300201e+17
19355.0	6.7393167046301e+17
19356.0	6.737260533077331e+17
19357.0	6.735214719358292e+17
19358.0	6.7331457300125e+17
19359.0	6.731047398714025e+17
19360.0	6.728912423878656e+17
19361.0	6.726753649164287e+17
19362.0	6.72413319832098e+17
19363.0	6.721764042910378e+17
19364.0	6.719536628411049e+17
19365.0	6.717283119049386e+17
19366.0	6.715002824862378e+17
19367.0	6.712692588937215e+17
19368.0	6.709938660660566e+17
19369.0	6.707044950911657e+17
19370.0	6.704657177684649e+17
19371.0	6.70224088109329e+17
19372.0	6.699792502270633e+17
19373.0	6.697312642400255e+17
19374.0	6.694030726747476e+17
19375.0	6.691388849302185e+17
19376.0	6.688835373804202e+17
19377.0	6.686249362391039e+17
19378.0	6.683585852822868e+17
19379.0	6.680408980717568e+17
19380.0	6.677208239527252e+17
19381.0	6.674383005985449e+17
19382.0	6.671492505578153e+17
19383.0	6.66848863523089e+17
19384.0	6.665500302682793e+17
19385.0	6.662441609286995e+17
19386.0	6.659316285177855e+17
19387.0	6.656122069625513e+17
19388.0	6.652320673344169e+17
19389.0	6.648973731299327e+17
19390.0	6.645550599722323e+17
19391.0	6.641823015501823e+17
19392.0	6.638368132344489e+17
19393.0	6.634660487845203e+17
19394.0	6.630611074678783e+17
19395.0	6.626173085810687e+17
19396.0	6.622180141957119e+17
19397.0	6.618095960107689e+17
19398.0	6.613914898224468e+17
19399.0	6.609608953036797e+17
19400.0	6.604594589903529e+17
19401.0	6.599613952469674e+17
19402.0	6.595082308987561e+17
19403.0	6.590402775744511e+17
19404.0	6.585432402471594e+17
19405.0	6.58007001276962e+17
19406.0	6.57383532597521e+17
19407.0	6.568351598553769e+17
19408.0	6.562653965822633e+17
19409.0	6.556474394279935e+17
19410.0	6.550151341888851e+17
19411.0	6.542836720380584e+17
19412.0	6.536110479332692e+17
19413.0	6.529329062215679e+17
19414.0	6.522224748702377e+17
19415.0	6.514794470659412e+17
19416.0	6.506263625422164e+17
19417.0	6.497017752016212e+17
19418.0	6.488338841556308e+17
19419.0	6.479557898360147e+17
19420.0	6.470425189373268e+17
19421.0	6.460980662545065e+17
19422.0	6.449935478860457e+17
19423.0	6.439229251562152e+17
19424.0	6.428018025168896e+17
19425.0	6.416221456389459e+17
19426.0	6.403776511126185e+17
19427.0	6.3905827127296e+17
19428.0	6.375440825100968e+17
19429.0	6.360187645810003e+17
19430.0	6.343756382994431e+17
19431.0	6.326845347725311e+17
19432.0	6.309015961206783e+17
19433.0	6.289957409434282e+17
19434.0	6.269154849980415e+17
19435.0	6.246620548388178e+17
19436.0	6.221813187084288e+17
19437.0	6.195376639967231e+17
19438.0	6.16639366378291e+17
19439.0	6.135508667902634e+17
19440.0	6.101176241444179e+17
19441.0	6.06294696473395e+17
19442.0	6.02085154357248e+17
19443.0	5.973155285128532e+17
19444.0	5.919287387269798e+17
19445.0	5.857158327435265e+17
19446.0	5.784418947956735e+17
19447.0	5.6972276536442835e+17
19448.0	5.588896387694596e+17
19449.0	5.446576070372009e+17
19450.0	5.2357843756864685e+17
19451.0	5.099383116092763e+17
19452.0	5.3549598622351334e+17
19453.0	5.521530927360688e+17
19454.0	5.6419301426462675e+17
19455.0	5.7361357211347616e+17
19456.0	5.813162445460822e+17
19457.0	5.877736664989692e+17
19458.0	5.932814677573631e+17
19459.0	5.981315878879232e+17
19460.0	6.023910438294867e+17
19461.0	6.061496443688276e+17
19462.0	6.095489394365782e+17
19463.0	6.12574602548565e+17
19464.0	6.153147644903423e+17
19465.0	6.178370841389738e+17
19466.0	6.20154661004902e+17
19467.0	6.222748010064553e+17
19468.0	6.242030054626646e+17
19469.0	6.259444386802345e+17
19470.0	6.275461925568511e+17
19471.0	6.29039430771234e+17
19472.0	6.304607308698963e+17
19473.0	6.317927416463359e+17
19474.0	6.330849457515178e+17
19475.0	6.342411735269375e+17
19476.0	6.352787275950762e+17
19477.0	6.362454692287828e+17
19478.0	6.371493541139795e+17
19479.0	6.380006771698345e+17
19480.0	6.388425735274496e+17
19481.0	6.396150584180735e+17
19482.0	6.402977048122708e+17
19483.0	6.409470274611882e+17
19484.0	6.415610747551744e+17
19485.0	6.422300593225728e+17
19486.0	6.428709217107967e+17
19487.0	6.434097607300435e+17
19488.0	6.438886150504447e+17
19489.0	6.443335175285417e+17
19490.0	6.447456162851497e+17
19491.0	6.452270731711827e+17
19492.0	6.456355569270783e+17
19493.0	6.460361880371199e+17
19494.0	6.463701506151766e+17
19495.0	6.46678949466385e+17
19496.0	6.470048737307305e+17
19497.0	6.473550206599168e+17
19498.0	6.476064106042708e+17
19499.0	6.478149807592788e+17
19500.0	6.480579961465514e+17
19501.0	6.482638445477887e+17
19502.0	6.485590067380223e+17
19503.0	6.487530469152084e+17
19504.0	6.48927440343313e+17
19505.0	6.490920118998356e+17
19506.0	6.492471869571071e+17
19507.0	6.494073838545578e+17
19508.0	6.496034379268095e+17
19509.0	6.497325856500393e+17
19510.0	6.498507533145428e+17
19511.0	6.499167367768746e+17
19512.0	6.500512427234643e+17
19513.0	6.501365905883135e+17
19514.0	6.5024547094528e+17
19515.0	6.503536838486697e+17
19516.0	6.504230983914835e+17
19517.0	6.504837352346964e+17
19518.0	6.505380233696596e+17
19519.0	6.505859063829843e+17
19520.0	6.506348806143999e+17
19521.0	6.506715447732906e+17
19522.0	6.507085748852052e+17
19523.0	6.508009168917844e+17
19524.0	6.508337659816617e+17
19525.0	6.508470792617983e+17
19526.0	6.508555795780947e+17
19527.0	6.508615854718976e+17
19528.0	6.509137240959657e+17
19529.0	6.509492624337577e+17
19530.0	6.509470985923241e+17
19531.0	6.509418158664362e+17
19532.0	6.509335019170474e+17
19533.0	6.509223429013503e+17
19534.0	6.509887229351252e+17
19535.0	6.509805303409321e+17
19536.0	6.509612212333226e+17
19537.0	6.509391336090282e+17
19538.0	6.509133912080383e+17
19539.0	6.508847491448831e+17
19540.0	6.508921967607805e+17
19541.0	6.508822967353343e+17
19542.0	6.508482510105257e+17
19543.0	6.508112436876627e+17
19544.0	6.507705658594643e+17
19545.0	6.5072465969152e+17
19546.0	6.506784685206186e+17
19547.0	6.506501009746602e+17
19548.0	6.506311611056127e+17
19549.0	6.50579891331618e+17
19550.0	6.505280403668991e+17
19551.0	6.504736340224682e+17
19552.0	6.504242392421716e+17
19553.0	6.503675995007657e+17
19554.0	6.503079350370303e+17
19555.0	6.502468895987027e+17
19556.0	6.502042981193044e+17
19557.0	6.501521530639699e+17
19558.0	6.500858738333012e+17
19559.0	6.500174829802836e+17
19560.0	6.499478289427113e+17
19561.0	6.498770032263167e+17
19562.0	6.498050632930644e+17
19563.0	6.497320157140307e+17
19564.0	6.496579050886484e+17
19565.0	6.495827563730259e+17
19566.0	6.495065040661162e+17
19567.0	6.494513040195583e+17
19568.0	6.493742452178943e+17
19569.0	6.492956091482111e+17
19570.0	6.492161249902592e+17
19571.0	6.491357477950804e+17
19572.0	6.490545404073299e+17
19573.0	6.48972466266658e+17
19574.0	6.488896019890176e+17
19575.0	6.488058844501332e+17
19576.0	6.487213781723817e+17
19577.0	6.486360717612372e+17
19578.0	6.485498920260948e+17
19579.0	6.484633230595412e+17
19580.0	6.483758409930067e+17
19581.0	6.482919808477866e+17
19582.0	6.482131133923327e+17
19583.0	6.481236599330132e+17
19584.0	6.480335550982825e+17
19585.0	6.479421087154175e+17
19586.0	6.478499107831807e+17
19587.0	6.477582531472042e+17
19588.0	6.476632130147667e+17
19589.0	6.47571727065634e+17
19590.0	6.474775111139327e+17
19591.0	6.473832272145065e+17
19592.0	6.472880663560191e+17
19593.0	6.471924022509568e+17
19594.0	6.470945531232255e+17
19595.0	6.469995304670548e+17
19596.0	6.4690188727965e+17
19597.0	6.468059153126739e+17
19598.0	6.467078548619264e+17
19599.0	6.466110708077907e+17
19600.0	6.465122359487145e+17
19601.0	6.464127403469482e+17
19602.0	6.463126548862292e+17
19603.0	6.462112452837375e+17
19604.0	6.461179622850559e+17
19605.0	6.460186023690237e+17
19606.0	6.459192959303677e+17
19607.0	6.45817954345506e+17
19608.0	6.457162171678719e+17
19609.0	6.456154646031018e+17
19610.0	6.45530087657745e+17
19611.0	6.454273988624384e+17
19612.0	6.453244691043668e+17
19613.0	6.452212100934314e+17
19614.0	6.451191999365119e+17
19615.0	6.450236989199702e+17
19616.0	6.449194491445245e+17
19617.0	6.448151745527808e+17
19618.0	6.447072584663037e+17
19619.0	6.446015625647444e+17
19620.0	6.444976295990612e+17
19621.0	6.443957157713236e+17
19622.0	6.442905582785876e+17
19623.0	6.441850114146301e+17
19624.0	6.440792128924329e+17
19625.0	6.439731826349395e+17
19626.0	6.438669141409791e+17
19627.0	6.437603379948201e+17
19628.0	6.436532553165482e+17
19629.0	6.435589088520873e+17
19630.0	6.434486410193577e+17
19631.0	6.433321125587626e+17
19632.0	6.43238653399313e+17
19633.0	6.431325991643817e+17
19634.0	6.430252927199914e+17
19635.0	6.429176501720403e+17
19636.0	6.428097693876223e+17
19637.0	6.426990068367359e+17
19638.0	6.425933599386282e+17
19639.0	6.42484952769058e+17
19640.0	6.42375773777647e+17
19641.0	6.422633093879123e+17
19642.0	6.421587781047636e+17
19643.0	6.420498097373184e+17
19644.0	6.419403428069376e+17
19645.0	6.418301315973119e+17
19646.0	6.41723800957747e+17
19647.0	6.416175933510996e+17
19648.0	6.41517674893585e+17
19649.0	6.4140794134528e+17
19650.0	6.412981151028564e+17
19651.0	6.411881733073578e+17
19652.0	6.410781194540372e+17
19653.0	6.409679575973887e+17
19654.0	6.40857709547793e+17
19655.0	6.407473346205012e+17
19656.0	6.406368829374463e+17
19657.0	6.405263733729961e+17
19658.0	6.404157451097428e+17
19659.0	6.403050262495231e+17
19660.0	6.40194232520977e+17
19661.0	6.400833452594516e+17
19662.0	6.399723616687444e+17
19663.0	6.398611247420756e+17
19664.0	6.397501937898835e+17
19665.0	6.396391000986964e+17
