# Flux units: erg / (cm m2 s)
# Wavelength units: Angstrom
wave	flux
19000.0	8.307653425321298e+17
19001.0	8.306170892648445e+17
19002.0	8.304762435578537e+17
19003.0	8.303312597505364e+17
19004.0	8.301861013203624e+17
19005.0	8.3004084977664e+17
19006.0	8.298953126008148e+17
19007.0	8.297480897342121e+17
19008.0	8.296013411035817e+17
19009.0	8.294542997105321e+17
19010.0	8.292950161227775e+17
19011.0	8.291632124963497e+17
19012.0	8.290113294783828e+17
19013.0	8.288708249081172e+17
19014.0	8.287206984646653e+17
19015.0	8.285754026011306e+17
19016.0	8.284268653794643e+17
19017.0	8.282800604053501e+17
19018.0	8.281331711257258e+17
19019.0	8.279853069500416e+17
19020.0	8.278356513871187e+17
19021.0	8.27688465430391e+17
19022.0	8.275403140846931e+17
19023.0	8.273906565644288e+17
19024.0	8.27241721303313e+17
19025.0	8.270934035835564e+17
19026.0	8.269433631233364e+17
19027.0	8.267910220873727e+17
19028.0	8.266457839654227e+17
19029.0	8.264961720232617e+17
19030.0	8.26346417055334e+17
19031.0	8.261964913792339e+17
19032.0	8.26046407577873e+17
19033.0	8.258927040921599e+17
19034.0	8.257456652156925e+17
19035.0	8.255924893734227e+17
19036.0	8.251788267006633e+17
19037.0	8.25292924911616e+17
19038.0	8.251419129107796e+17
19039.0	8.24992073217911e+17
19040.0	8.24840956359475e+17
19041.0	8.246896999705258e+17
19042.0	8.245352001262931e+17
19043.0	8.243868269019136e+17
19044.0	8.24235102568448e+17
19045.0	8.240834034008063e+17
19046.0	8.239297253605373e+17
19047.0	8.237788426840748e+17
19048.0	8.236202106115411e+17
19049.0	8.234725033028266e+17
19050.0	8.23320934158609e+17
19051.0	8.231263532657322e+17
19052.0	8.230092857671679e+17
19053.0	8.228648702880425e+17
19054.0	8.227121756722515e+17
19055.0	8.225494207386964e+17
19056.0	8.224054286046547e+17
19057.0	8.222531539785043e+17
19058.0	8.220999110273706e+17
19059.0	8.219464843657215e+17
19060.0	8.217922536559956e+17
19061.0	8.216395400260264e+17
19062.0	8.214856989671424e+17
19063.0	8.213319900288339e+17
19064.0	8.211739711635455e+17
19065.0	8.210170986015402e+17
19066.0	8.208676453438802e+17
19067.0	8.207159890979498e+17
19068.0	8.205617659379712e+17
19069.0	8.204074421146964e+17
19070.0	8.202526355270313e+17
19071.0	8.200984449428136e+17
19072.0	8.199437980183209e+17
19073.0	8.197888709143209e+17
19074.0	8.196342375514111e+17
19075.0	8.194793084900692e+17
19076.0	8.193235400086867e+17
19077.0	8.191687272693757e+17
19078.0	8.190130324679337e+17
19079.0	8.188587382844073e+17
19080.0	8.187031003856896e+17
19081.0	8.185462104872275e+17
19082.0	8.183906974389587e+17
19083.0	8.182323226170706e+17
19084.0	8.180709023110484e+17
19085.0	8.179249011053908e+17
19086.0	8.177530660629161e+17
19087.0	8.176063934889983e+17
19088.0	8.174524028332713e+17
19089.0	8.172900719438505e+17
19090.0	8.171430045461161e+17
19091.0	8.169868243238911e+17
19092.0	8.1682828899997e+17
19093.0	8.16675084636433e+17
19094.0	8.165172220788735e+17
19095.0	8.163603145643347e+17
19096.0	8.16204667438148e+17
19097.0	8.160483908867412e+17
19098.0	8.158916012321449e+17
19099.0	8.157345766965245e+17
19100.0	8.15577490924066e+17
19101.0	8.154202130524842e+17
19102.0	8.152599534501885e+17
19103.0	8.151056761836883e+17
19104.0	8.149482310991872e+17
19105.0	8.147905758800553e+17
19106.0	8.146318028789075e+17
19107.0	8.144745830285311e+17
19108.0	8.143169542335145e+17
19109.0	8.141348374140243e+17
19110.0	8.139990605234173e+17
19111.0	8.138435800509097e+17
19112.0	8.13685676389171e+17
19113.0	8.135275343511552e+17
19114.0	8.133784784338944e+17
19115.0	8.132567653242196e+17
19116.0	8.130984552344234e+17
19117.0	8.129397378777085e+17
19118.0	8.127778139755859e+17
19119.0	8.125371039875071e+17
19120.0	8.12461612667153e+17
19121.0	8.123032287576064e+17
19122.0	8.121459301941247e+17
19123.0	8.119866611466239e+17
19124.0	8.11825764429551e+17
19125.0	8.116679001942698e+17
19126.0	8.115081174843391e+17
19127.0	8.112883709072723e+17
19128.0	8.111807754054314e+17
19129.0	8.110264171888637e+17
19130.0	8.108698798915581e+17
19131.0	8.107102518116351e+17
19132.0	8.105500851830783e+17
19133.0	8.103825775438506e+17
19134.0	8.102261063767378e+17
19135.0	8.100699581710335e+17
19136.0	8.099096613792424e+17
19137.0	8.09743592526097e+17
19138.0	8.09588088705297e+17
19139.0	8.09428179746816e+17
19140.0	8.092676002589353e+17
19141.0	8.091068261553494e+17
19142.0	8.089449988620285e+17
19143.0	8.087831571682644e+17
19144.0	8.086235422304936e+17
19145.0	8.084627426814634e+17
19146.0	8.082795887504042e+17
19147.0	8.081369585068713e+17
19148.0	8.079784503061161e+17
19149.0	8.078169005359103e+17
19150.0	8.076550361929044e+17
19151.0	8.074935115885225e+17
19152.0	8.073314081701885e+17
19153.0	8.071687813027155e+17
19154.0	8.070028536578047e+17
19155.0	8.068450502399315e+17
19156.0	8.066823919151786e+17
19157.0	8.065181509397162e+17
19158.0	8.063430846054399e+17
19159.0	8.06193155154466e+17
19160.0	8.060314837494441e+17
19161.0	8.058673477713919e+17
19162.0	8.056675442709844e+17
19163.0	8.055393589308073e+17
19164.0	8.053796977158825e+17
19165.0	8.052160078719657e+17
19166.0	8.050489244166824e+17
19167.0	8.048858616212137e+17
19168.0	8.047241808489126e+17
19169.0	8.04560656540194e+17
19170.0	8.043978205167615e+17
19171.0	8.042323081079466e+17
19172.0	8.040693921131177e+17
19173.0	8.039052165687977e+17
19174.0	8.037388545338026e+17
19175.0	8.035761703441747e+17
19176.0	8.034113684504575e+17
19177.0	8.032406047730345e+17
19178.0	8.030800375884458e+17
19179.0	8.029137502120616e+17
19180.0	8.027499408304812e+17
19181.0	8.025816545886207e+17
19182.0	8.024185808879616e+17
19183.0	8.022536084258815e+17
19184.0	8.020865371340799e+17
19185.0	8.019212808574292e+17
19186.0	8.017551798479528e+17
19187.0	8.01586037408836e+17
19188.0	8.014220181722451e+17
19189.0	8.012549484183551e+17
19190.0	8.010876446223016e+17
19191.0	8.009205741693609e+17
19192.0	8.007533015509673e+17
19193.0	8.00585082417971e+17
19194.0	8.004172829949952e+17
19195.0	8.002490293288957e+17
19196.0	8.000796342528681e+17
19197.0	7.999093945838252e+17
19198.0	7.997327065918122e+17
19199.0	7.993403999169194e+17
19200.0	7.992267960745983e+17
19201.0	7.992275646109011e+17
19202.0	7.99065729348403e+17
19203.0	7.988982939910143e+17
19204.0	7.987286239084543e+17
19205.0	7.985601121528488e+17
19206.0	7.983899567893161e+17
19207.0	7.982179357993642e+17
19208.0	7.980434049378986e+17
19209.0	7.978718692289194e+17
19210.0	7.976464388106922e+17
19211.0	7.974754437474985e+17
19212.0	7.973042096089769e+17
19213.0	7.971286649842345e+17
19214.0	7.969555449468244e+17
19215.0	7.967884010935636e+17
19216.0	7.966172026066259e+17
19217.0	7.964449159774208e+17
19218.0	7.962436885108051e+17
19219.0	7.960931282365098e+17
19220.0	7.959260415655935e+17
19221.0	7.957426818340182e+17
19222.0	7.955799249431209e+17
19223.0	7.954067442281128e+17
19224.0	7.95231530254336e+17
19225.0	7.950536776439124e+17
19226.0	7.948843832311808e+17
19227.0	7.947088068695379e+17
19228.0	7.945348834831017e+17
19229.0	7.943596655946409e+17
19230.0	7.94184091889391e+17
19231.0	7.940085328642047e+17
19232.0	7.938319627321344e+17
19233.0	7.936533797535743e+17
19234.0	7.934788019159039e+17
19235.0	7.933018755476138e+17
19236.0	7.931256054480896e+17
19237.0	7.929476089730386e+17
19238.0	7.927667932266496e+17
19239.0	7.92592422028356e+17
19240.0	7.924116704548179e+17
19241.0	7.922336110652076e+17
19242.0	7.920557479690237e+17
19243.0	7.918698808825172e+17
19244.0	7.91696677098837e+17
19245.0	7.915159286011219e+17
19246.0	7.91334247290197e+17
19247.0	7.911532366484819e+17
19248.0	7.909714032241322e+17
19249.0	7.907890543198207e+17
19250.0	7.906061688242175e+17
19251.0	7.904186810586454e+17
19252.0	7.902284095335081e+17
19253.0	7.900557419216896e+17
19254.0	7.898714492370943e+17
19255.0	7.896796508454911e+17
19256.0	7.895006457801385e+17
19257.0	7.893163716902911e+17
19258.0	7.891302630118739e+17
19259.0	7.889407993096872e+17
19260.0	7.887523187523581e+17
19261.0	7.884922225513812e+17
19262.0	7.882831177624233e+17
19263.0	7.880933496935764e+17
19264.0	7.878891637047293e+17
19265.0	7.877103224968531e+17
19266.0	7.875219326763008e+17
19267.0	7.873359399004841e+17
19268.0	7.871446390931455e+17
19269.0	7.869527362633727e+17
19270.0	7.86760035676979e+17
19271.0	7.86555909387059e+17
19272.0	7.863718346664616e+17
19273.0	7.861072033043794e+17
19274.0	7.859379671924736e+17
19275.0	7.857884770249386e+17
19276.0	7.855925387154769e+17
19277.0	7.85395715547682e+17
19278.0	7.851981620117503e+17
19279.0	7.84999736480017e+17
19280.0	7.847982335874387e+17
19281.0	7.846009605106344e+17
19282.0	7.844003483484157e+17
19283.0	7.841967174057984e+17
19284.0	7.839929888757076e+17
19285.0	7.83788940320222e+17
19286.0	7.834767517024253e+17
19287.0	7.832459481011539e+17
19288.0	7.829690415491753e+17
19289.0	7.826671015733926e+17
19290.0	7.826262792514217e+17
19291.0	7.824081326615209e+17
19292.0	7.82209097138176e+17
19293.0	7.819989625077757e+17
19294.0	7.817883421769727e+17
19295.0	7.815764959909203e+17
19296.0	7.813636304491859e+17
19297.0	7.811496659998034e+17
19298.0	7.809347704149332e+17
19299.0	7.807187286665897e+17
19300.0	7.805014982524927e+17
19301.0	7.802830287011839e+17
19302.0	7.79889974181888e+17
19303.0	7.796486494486528e+17
19304.0	7.794279193072979e+17
19305.0	7.792059526851241e+17
19306.0	7.789813830778879e+17
19307.0	7.787531981204138e+17
19308.0	7.785265007427583e+17
19309.0	7.782920145425747e+17
19310.0	7.780578287943679e+17
19311.0	7.778354572820479e+17
19312.0	7.776051623100415e+17
19313.0	7.772130912152234e+17
19314.0	7.767604582853288e+17
19315.0	7.765245551094442e+17
19316.0	7.763917245775871e+17
19317.0	7.761508796727293e+17
19318.0	7.759073294417919e+17
19319.0	7.756619791553875e+17
19320.0	7.754145595391999e+17
19321.0	7.751127754517158e+17
19322.0	7.74591119237666e+17
19323.0	7.743368905883647e+17
19324.0	7.740825826667177e+17
19325.0	7.738186446230868e+17
19326.0	7.735611139380563e+17
19327.0	7.7329714919069e+17
19328.0	7.727733696801453e+17
19329.0	7.723671292477437e+17
19330.0	7.720929150195028e+17
19331.0	7.718173602917033e+17
19332.0	7.715413833373012e+17
19333.0	7.711266202189824e+17
19334.0	7.705027332975273e+17
19335.0	7.702159441264639e+17
19336.0	7.699264043308372e+17
19337.0	7.696342952443901e+17
19338.0	7.690082144223228e+17
19339.0	7.684756661600252e+17
19340.0	7.681709256474624e+17
19341.0	7.678655933186045e+17
19342.0	7.674425000329212e+17
19343.0	7.669161779352915e+17
19344.0	7.665998703711572e+17
19345.0	7.662215110153554e+17
19346.0	7.659323459108863e+17
19347.0	7.656320358416381e+17
19348.0	7.653066329292799e+17
19349.0	7.649749477883901e+17
19350.0	7.646393980157951e+17
19351.0	7.642957549142015e+17
19352.0	7.639284030898173e+17
19353.0	7.635633939240274e+17
19354.0	7.632065745562281e+17
19355.0	7.628427023264424e+17
19356.0	7.624800261723475e+17
19357.0	7.621110807920637e+17
19358.0	7.617377062267561e+17
19359.0	7.613576273461247e+17
19360.0	7.609775811810644e+17
19361.0	7.605911318517076e+17
19362.0	7.602011865699667e+17
19363.0	7.59804851266082e+17
19364.0	7.594032303002966e+17
19365.0	7.589961340900692e+17
19366.0	7.585834808464722e+17
19367.0	7.581226673460566e+17
19368.0	7.576755355254781e+17
19369.0	7.572422939814569e+17
19370.0	7.568003712068268e+17
19371.0	7.563613095067645e+17
19372.0	7.559115561063763e+17
19373.0	7.554529538430292e+17
19374.0	7.549871843530067e+17
19375.0	7.545057789171025e+17
19376.0	7.539235619864573e+17
19377.0	7.534300260641449e+17
19378.0	7.529291660481876e+17
19379.0	7.524203971127978e+17
19380.0	7.519051425251325e+17
19381.0	7.513066280670547e+17
19382.0	7.506837789562196e+17
19383.0	7.501398897153363e+17
19384.0	7.495906711917908e+17
19385.0	7.490224419853654e+17
19386.0	7.482300168841897e+17
19387.0	7.476427439996925e+17
19388.0	7.470429937598463e+17
19389.0	7.463763158499328e+17
19390.0	7.455111211122688e+17
19391.0	7.446853746425853e+17
19392.0	7.441947042687654e+17
19393.0	7.431493694870866e+17
19394.0	7.424399033849172e+17
19395.0	7.41507543020339e+17
19396.0	7.405386657868458e+17
19397.0	7.396220623039145e+17
19398.0	7.38463000367377e+17
19399.0	7.374227831958179e+17
19400.0	7.3619702022144e+17
19401.0	7.349287665707685e+17
19402.0	7.337321793148244e+17
19403.0	7.320500620842326e+17
19404.0	7.30853227224542e+17
19405.0	7.296233198583807e+17
19406.0	7.28602894209297e+17
19407.0	7.27521528119296e+17
19408.0	7.264285618427219e+17
19409.0	7.253441523657386e+17
19410.0	7.242182377340927e+17
19411.0	7.230655655400787e+17
19412.0	7.218698983746217e+17
19413.0	7.20610097504802e+17
19414.0	7.193621757427711e+17
19415.0	7.180764816168276e+17
19416.0	7.166985121038335e+17
19417.0	7.15230402384145e+17
19418.0	7.137811382315692e+17
19419.0	7.12191858844194e+17
19420.0	7.105497597476861e+17
19421.0	7.088297841699498e+17
19422.0	7.069535672729599e+17
19423.0	7.049848747808086e+17
19424.0	7.029311426352468e+17
19425.0	7.006558782575959e+17
19426.0	6.983616503829844e+17
19427.0	6.959387883077632e+17
19428.0	6.933156189962234e+17
19429.0	6.904586075897856e+17
19430.0	6.873863503740929e+17
19431.0	6.841033263764823e+17
19432.0	6.807230209501862e+17
19433.0	6.773860231806976e+17
19434.0	6.741523144813225e+17
19435.0	6.70668651058517e+17
19436.0	6.668610112061441e+17
19437.0	6.626936985310548e+17
19438.0	6.581159918742185e+17
19439.0	6.534661923318444e+17
19440.0	6.481667528414548e+17
19441.0	6.424345752633339e+17
19442.0	6.362080122765313e+17
19443.0	6.293878757916671e+17
19444.0	6.219487254675452e+17
19445.0	6.138041536086019e+17
19446.0	6.048328776504659e+17
19447.0	5.9494307008785e+17
19448.0	5.840045731392174e+17
19449.0	5.7185072033300474e+17
19450.0	5.580569133274441e+17
19451.0	5.515091695545007e+17
19452.0	5.651314010750975e+17
19453.0	5.778713760585048e+17
19454.0	5.891547745397413e+17
19455.0	5.99318472040994e+17
19456.0	6.08491033906381e+17
19457.0	6.167941843604817e+17
19458.0	6.242821511402838e+17
19459.0	6.311942957651287e+17
19460.0	6.37482112087927e+17
19461.0	6.431724223332351e+17
19462.0	6.484468050515287e+17
19463.0	6.53222076638822e+17
19464.0	6.575704133074944e+17
19465.0	6.616106982703105e+17
19466.0	6.653348096070994e+17
19467.0	6.687307581095935e+17
19468.0	6.717769154996906e+17
19469.0	6.74815661065284e+17
19470.0	6.779354881895085e+17
19471.0	6.809952977595052e+17
19472.0	6.838788515605165e+17
19473.0	6.865456918254929e+17
19474.0	6.890052502159364e+17
19475.0	6.91227015407206e+17
19476.0	6.934068627243007e+17
19477.0	6.953731427926015e+17
19478.0	6.971873874498898e+17
19479.0	6.990303378538495e+17
19480.0	7.00592329448926e+17
19481.0	7.021703732745555e+17
19482.0	7.035075279454207e+17
19483.0	7.049110039997098e+17
19484.0	7.061185002209279e+17
19485.0	7.072906560755027e+17
19486.0	7.084553372609193e+17
19487.0	7.094950751633407e+17
19488.0	7.104802282536959e+17
19489.0	7.114457155108863e+17
19490.0	7.12378255950916e+17
19491.0	7.132931481578153e+17
19492.0	7.141529817361066e+17
19493.0	7.1498502022103e+17
19494.0	7.157912468193279e+17
19495.0	7.165874523865087e+17
19496.0	7.17347444892194e+17
19497.0	7.181284240173736e+17
19498.0	7.19176079507456e+17
19499.0	7.200920955082057e+17
19500.0	7.212559007831383e+17
19501.0	7.225275890095447e+17
19502.0	7.23236571508463e+17
19503.0	7.242295036346368e+17
19504.0	7.248891106470569e+17
19505.0	7.25740010218018e+17
19506.0	7.262330590418263e+17
19507.0	7.27073788404258e+17
19508.0	7.27497567179025e+17
19509.0	7.281037145713322e+17
19510.0	7.286464243739306e+17
19511.0	7.287750305426088e+17
19512.0	7.294230198921896e+17
19513.0	7.29888659358788e+17
19514.0	7.302354228827476e+17
19515.0	7.305882814294698e+17
19516.0	7.310082236743676e+17
19517.0	7.313888248856575e+17
19518.0	7.316598968811519e+17
19519.0	7.319193397493757e+17
19520.0	7.321726793460393e+17
19521.0	7.325629106793129e+17
19522.0	7.327930739501738e+17
19523.0	7.330163430435497e+17
19524.0	7.332320379229523e+17
19525.0	7.334395056750591e+17
19526.0	7.336749807523156e+17
19527.0	7.339286458269696e+17
19528.0	7.341086052362922e+17
19529.0	7.342811245095593e+17
19530.0	7.344464831272276e+17
19531.0	7.3460436959232e+17
19532.0	7.347550528995327e+17
19533.0	7.348992273459881e+17
19534.0	7.350370516161876e+17
19535.0	7.352062698323965e+17
19536.0	7.353527442953556e+17
19537.0	7.354734976084649e+17
19538.0	7.355841864095059e+17
19539.0	7.356798184980479e+17
19540.0	7.357978393619114e+17
19541.0	7.358970985447424e+17
19542.0	7.359907492440744e+17
19543.0	7.360795332924755e+17
19544.0	7.361634793510228e+17
19545.0	7.362287062308178e+17
19546.0	7.362925548623187e+17
19547.0	7.363912043331583e+17
19548.0	7.364589015181993e+17
19549.0	7.365189411624275e+17
19550.0	7.365904118229676e+17
19551.0	7.366660811216212e+17
19552.0	7.367145130295296e+17
19553.0	7.367553732400468e+17
19554.0	7.367932366203562e+17
19555.0	7.368295313309693e+17
19556.0	7.368616371901782e+17
19557.0	7.368906742169599e+17
19558.0	7.369170109508264e+17
19559.0	7.370027183374335e+17
19560.0	7.372629235903144e+17
19561.0	7.372797870691667e+17
19562.0	7.372928505085951e+17
19563.0	7.373031819182079e+17
19564.0	7.377694866014208e+17
19565.0	7.378307342052008e+17
19566.0	7.378290665499305e+17
19567.0	7.378260793666217e+17
19568.0	7.378691199161683e+17
19569.0	7.38245741851443e+17
19570.0	7.382325376232106e+17
19571.0	7.382168821039103e+17
19572.0	7.38198055550976e+17
19573.0	7.381784375328765e+17
19574.0	7.383770485926569e+17
19575.0	7.384883991150591e+17
19576.0	7.384595684480339e+17
19577.0	7.384282690136745e+17
19578.0	7.383934589468671e+17
19579.0	7.383577869505875e+17
19580.0	7.383198596770474e+17
19581.0	7.385573119492096e+17
19582.0	7.385244505560404e+17
19583.0	7.384790828668246e+17
19584.0	7.384317753120083e+17
19585.0	7.383790428443987e+17
19586.0	7.383272124317696e+17
19587.0	7.382789696869714e+17
19588.0	7.382112230091434e+17
19589.0	7.382163469107199e+17
19590.0	7.383357264494591e+17
19591.0	7.38278855881523e+17
19592.0	7.382230954060457e+17
19593.0	7.381645286615722e+17
19594.0	7.380932674366121e+17
19595.0	7.380362715987968e+17
19596.0	7.379454157040297e+17
19597.0	7.379020670129491e+17
19598.0	7.378258923006633e+17
19599.0	7.377644902066858e+17
19600.0	7.376934047230633e+17
19601.0	7.376889742797484e+17
19602.0	7.377146614557353e+17
19603.0	7.376253877922474e+17
19604.0	7.375632927992488e+17
19605.0	7.37478099214882e+17
19606.0	7.37410931490816e+17
19607.0	7.373321361773906e+17
19608.0	7.372520425870676e+17
19609.0	7.371696987526484e+17
19610.0	7.370895363757395e+17
19611.0	7.370069145987753e+17
19612.0	7.369237521760255e+17
19613.0	7.368395221630973e+17
19614.0	7.367528082833408e+17
19615.0	7.366684436332541e+17
19616.0	7.365797522789716e+17
19617.0	7.364939064803327e+17
19618.0	7.364466373733032e+17
19619.0	7.364136205112658e+17
19620.0	7.363245526482943e+17
19621.0	7.362555494967978e+17
19622.0	7.361638973833216e+17
19623.0	7.360714616340479e+17
19624.0	7.359783048839168e+17
19625.0	7.35884442931473e+17
19626.0	7.357899013619711e+17
19627.0	7.356944550810963e+17
19628.0	7.355930808505683e+17
19629.0	7.354978237328042e+17
19630.0	7.35377959891763e+17
19631.0	7.350575006657193e+17
19632.0	7.352068176084991e+17
19633.0	7.351105437914454e+17
19634.0	7.350118315458557e+17
19635.0	7.349105512677375e+17
19636.0	7.348119788322815e+17
19637.0	7.346953085343062e+17
19638.0	7.346095364156072e+17
19639.0	7.34507374215168e+17
19640.0	7.344029347872768e+17
19641.0	7.342834926135978e+17
19642.0	7.341994566571348e+17
19643.0	7.340955433347753e+17
19644.0	7.339890521931773e+17
19645.0	7.338775920596308e+17
19646.0	7.3382990198429e+17
19647.0	7.337570983739391e+17
19648.0	7.33650973954321e+17
19649.0	7.33544341185058e+17
19650.0	7.334374893333161e+17
19651.0	7.333301572337661e+17
19652.0	7.332225032912893e+17
19653.0	7.33114401816576e+17
19654.0	7.330060688162815e+17
19655.0	7.328971133812735e+17
19656.0	7.327878998567593e+17
19657.0	7.326786452280659e+17
19658.0	7.325687262216191e+17
19659.0	7.324582619556522e+17
19660.0	7.323473098921299e+17
19661.0	7.322359005096617e+17
19662.0	7.321241589383168e+17
19663.0	7.320105311884628e+17
19664.0	7.318989968157353e+17
19665.0	7.31787323052305e+17
19666.0	7.316739673729705e+17
