# Flux units: erg / (cm m2 s)
# Wavelength units: Angstrom
wave	flux
19000.0	7.317022989178195e+17
19001.0	7.314967103537151e+17
19002.0	7.314368383418368e+17
19003.0	7.312990894292991e+17
19004.0	7.311657579577343e+17
19005.0	7.310285041128787e+17
19006.0	7.308954185673386e+17
19007.0	7.30759103128098e+17
19008.0	7.305873774171475e+17
19009.0	7.304041416971604e+17
19010.0	7.300756589073746e+17
19011.0	7.302081620038995e+17
19012.0	7.300029191902546e+17
19013.0	7.299601778343936e+17
19014.0	7.297844998307837e+17
19015.0	7.296831729958911e+17
19016.0	7.29549712199953e+17
19017.0	7.294326290426536e+17
19018.0	7.292981554621097e+17
19019.0	7.291648477582676e+17
19020.0	7.290240644065961e+17
19021.0	7.289032002240511e+17
19022.0	7.287660947177471e+17
19023.0	7.286029683086675e+17
19024.0	7.284828498733738e+17
19025.0	7.283544131545769e+17
19026.0	7.282071893093033e+17
19027.0	7.28052647661841e+17
19028.0	7.279542400625322e+17
19029.0	7.278082728307369e+17
19030.0	7.27693769589828e+17
19031.0	7.275622711689215e+17
19032.0	7.274225547083775e+17
19033.0	7.272157046374397e+17
19034.0	7.271289987268607e+17
19035.0	7.269022666762921e+17
19036.0	7.237286157964622e+17
19037.0	7.266809139604138e+17
19038.0	7.265940313298259e+17
19039.0	7.264810739695615e+17
19040.0	7.263521330954239e+17
19041.0	7.262134584999935e+17
19042.0	7.260086518939645e+17
19043.0	7.259462975531689e+17
19044.0	7.258054196898474e+17
19045.0	7.256753094437545e+17
19046.0	7.254978358586025e+17
19047.0	7.253788549185533e+17
19048.0	7.251378335733075e+17
19049.0	7.250624912905555e+17
19050.0	7.249482487955455e+17
19051.0	7.243426863688357e+17
19052.0	7.245665881030655e+17
19053.0	7.245832687102633e+17
19054.0	7.2444978149021e+17
19055.0	7.241288161514843e+17
19056.0	7.241660162725204e+17
19057.0	7.240460088464723e+17
19058.0	7.238975696317097e+17
19059.0	7.237726238321322e+17
19060.0	7.236326192229033e+17
19061.0	7.235100847286953e+17
19062.0	7.233693051518975e+17
19063.0	7.232351970350419e+17
19064.0	7.230182202365271e+17
19065.0	7.228300648775681e+17
19066.0	7.227807644691113e+17
19067.0	7.226856593249619e+17
19068.0	7.225589438087168e+17
19069.0	7.224239009213097e+17
19070.0	7.222687860523008e+17
19071.0	7.221482954424319e+17
19072.0	7.220148746321919e+17
19073.0	7.218773736030207e+17
19074.0	7.217481823289343e+17
19075.0	7.216122315145215e+17
19076.0	7.214647216177151e+17
19077.0	7.213280559540905e+17
19078.0	7.211753059734867e+17
19079.0	7.210664282729129e+17
19080.0	7.209209858883583e+17
19081.0	7.2076066043549e+17
19082.0	7.20635613413376e+17
19083.0	7.204357317591037e+17
19084.0	7.202081601486847e+17
19085.0	7.202383838838783e+17
19086.0	7.198121391379795e+17
19087.0	7.199109260421802e+17
19088.0	7.197575762761044e+17
19089.0	7.195331671709014e+17
19090.0	7.195355180782931e+17
19091.0	7.194111836684288e+17
19092.0	7.192360885332649e+17
19093.0	7.19158954304034e+17
19094.0	7.190260197534377e+17
19095.0	7.188945125244927e+17
19096.0	7.187494836983122e+17
19097.0	7.186203199668223e+17
19098.0	7.18480367366963e+17
19099.0	7.183432220147711e+17
19100.0	7.182059058145961e+17
19101.0	7.180722526399145e+17
19102.0	7.178772292479657e+17
19103.0	7.178013685492393e+17
19104.0	7.176709240171178e+17
19105.0	7.175212620229289e+17
19106.0	7.173844607434752e+17
19107.0	7.172415332635987e+17
19108.0	7.171058858371753e+17
19109.0	7.167821055612244e+17
19110.0	7.168017507024896e+17
19111.0	7.167086743431849e+17
19112.0	7.165787458502656e+17
19113.0	7.164441159619923e+17
19114.0	7.163046601075369e+17
19115.0	7.161356419596287e+17
19116.0	7.160188335292415e+17
19117.0	7.158787857186815e+17
19118.0	7.156747413574995e+17
19119.0	7.131089710961971e+17
19120.0	7.154363073385811e+17
19121.0	7.153313588619945e+17
19122.0	7.152209414324223e+17
19123.0	7.150774510769492e+17
19124.0	7.14915828605474e+17
19125.0	7.147932530070867e+17
19126.0	7.146222805931348e+17
19127.0	7.134133752255827e+17
19128.0	7.142989232428371e+17
19129.0	7.141862042588499e+17
19130.0	7.141098064095913e+17
19131.0	7.139855108669439e+17
19132.0	7.13848572014319e+17
19133.0	7.136633582605651e+17
19134.0	7.135571024194217e+17
19135.0	7.134407932510208e+17
19136.0	7.133049767941462e+17
19137.0	7.130749917812051e+17
19138.0	7.130210677118292e+17
19139.0	7.128994751184893e+17
19140.0	7.127653098192896e+17
19141.0	7.126292797325311e+17
19142.0	7.124724840660991e+17
19143.0	7.12320936452642e+17
19144.0	7.121865942936233e+17
19145.0	7.120814119146836e+17
19146.0	7.114992569199282e+17
19147.0	7.117587771031551e+17
19148.0	7.116696021456211e+17
19149.0	7.115308365337939e+17
19150.0	7.113977844028755e+17
19151.0	7.112615967500969e+17
19152.0	7.111242338533375e+17
19153.0	7.109678921504083e+17
19154.0	7.107772253820244e+17
19155.0	7.107107388129279e+17
19156.0	7.105732355467945e+17
19157.0	7.104092525210281e+17
19158.0	7.101860701099347e+17
19159.0	7.101334486515711e+17
19160.0	7.10005335593233e+17
19161.0	7.098557658737322e+17
19162.0	7.094238284786348e+17
19163.0	7.095365621426858e+17
19164.0	7.094705327527251e+17
19165.0	7.093242088652797e+17
19166.0	7.091270628758866e+17
19167.0	7.090369223895722e+17
19168.0	7.089219096805373e+17
19169.0	7.087884490244093e+17
19170.0	7.086607526002687e+17
19171.0	7.085110209806335e+17
19172.0	7.083817923772415e+17
19173.0	7.082532091374249e+17
19174.0	7.080806653973844e+17
19175.0	7.079786698506239e+17
19176.0	7.078413971314003e+17
19177.0	7.075953937918633e+17
19178.0	7.075578480601769e+17
19179.0	7.074134996899156e+17
19180.0	7.072862749851647e+17
19181.0	7.070863989232978e+17
19182.0	7.070081747342675e+17
19183.0	7.068874853143891e+17
19184.0	7.067460264001535e+17
19185.0	7.066036736797356e+17
19186.0	7.064755149034835e+17
19187.0	7.062801176592383e+17
19188.0	7.061981753595219e+17
19189.0	7.060618216123049e+17
19190.0	7.059225466721619e+17
19191.0	7.057602426262867e+17
19192.0	7.056472568845652e+17
19193.0	7.055005910215338e+17
19194.0	7.053472072815956e+17
19195.0	7.052121564250111e+17
19196.0	7.050434724233215e+17
19197.0	7.048660068073471e+17
19198.0	7.04542758089523e+17
19199.0	7.024711953984166e+17
19200.0	7.027005293155671e+17
19201.0	7.041599116673024e+17
19202.0	7.041888052488874e+17
19203.0	7.040902711214079e+17
19204.0	7.039609466082644e+17
19205.0	7.038388288880639e+17
19206.0	7.037051052490751e+17
19207.0	7.034932203356159e+17
19208.0	7.033152042871465e+17
19209.0	7.032990448921257e+17
19210.0	7.031654055586474e+17
19211.0	7.030390306198868e+17
19212.0	7.028965570336084e+17
19213.0	7.026832663991635e+17
19214.0	7.02537595494946e+17
19215.0	7.024730585082538e+17
19216.0	7.023426617212927e+17
19217.0	7.021788152900265e+17
19218.0	7.015664296394747e+17
19219.0	7.017782750565714e+17
19220.0	7.01765232169233e+17
19221.0	7.014633257478826e+17
19222.0	7.014843243211432e+17
19223.0	7.013581243547647e+17
19224.0	7.011986825718442e+17
19225.0	7.010115128743252e+17
19226.0	7.009400715739135e+17
19227.0	7.008042389689684e+17
19228.0	7.006849977723561e+17
19229.0	7.005453050795348e+17
19230.0	7.004017771850409e+17
19231.0	7.002576570548223e+17
19232.0	7.001226605144745e+17
19233.0	6.999353766619817e+17
19234.0	6.998284986657449e+17
19235.0	6.996654300681556e+17
19236.0	6.995537364516863e+17
19237.0	6.994019152997033e+17
19238.0	6.99207910494481e+17
19239.0	6.991349078644052e+17
19240.0	6.989861978374143e+17
19241.0	6.988345246045524e+17
19242.0	6.987011257445034e+17
19243.0	6.984418805678077e+17
19244.0	6.984323224480426e+17
19245.0	6.982868149818707e+17
19246.0	6.98139906618163e+17
19247.0	6.979985884228265e+17
19248.0	6.978665918584148e+17
19249.0	6.977240793350143e+17
19250.0	6.975678061390504e+17
19251.0	6.973621304732326e+17
19252.0	6.970730280037034e+17
19253.0	6.971405828620287e+17
19254.0	6.970145544426836e+17
19255.0	6.967245369158312e+17
19256.0	6.967124668274004e+17
19257.0	6.965859131413843e+17
19258.0	6.964445571274068e+17
19259.0	6.962412527113556e+17
19260.0	6.960841728109224e+17
19261.0	6.960020258291711e+17
19262.0	6.958215663889066e+17
19263.0	6.956602038943743e+17
19264.0	6.952318219408721e+17
19265.0	6.952988016203091e+17
19266.0	6.95167750172399e+17
19267.0	6.951468164011348e+17
19268.0	6.949969685293738e+17
19269.0	6.94850666242594e+17
19270.0	6.946885770149885e+17
19271.0	6.943235729522692e+17
19272.0	6.943586456524116e+17
19273.0	6.938642963147432e+17
19274.0	6.936928746908323e+17
19275.0	6.939505511279273e+17
19276.0	6.937938475264681e+17
19277.0	6.936491535455572e+17
19278.0	6.935048905293823e+17
19279.0	6.933353106942634e+17
19280.0	6.93153353957376e+17
19281.0	6.93050234896384e+17
19282.0	6.929114816577533e+17
19283.0	6.927446057506132e+17
19284.0	6.925664747083091e+17
19285.0	6.923679897572691e+17
19286.0	6.922748370616319e+17
19287.0	6.921446223773693e+17
19288.0	6.910274179170295e+17
19289.0	6.898190496301028e+17
19290.0	6.916643187851263e+17
19291.0	6.913129141239816e+17
19292.0	6.913576304377855e+17
19293.0	6.912052229920084e+17
19294.0	6.910470829812394e+17
19295.0	6.909031588648276e+17
19296.0	6.907416917923156e+17
19297.0	6.905726173009236e+17
19298.0	6.904169990455293e+17
19299.0	6.902792311887188e+17
19300.0	6.901263451728553e+17
19301.0	6.899689554531667e+17
19302.0	6.898017767172778e+17
19303.0	6.896015984558079e+17
19304.0	6.894765402488832e+17
19305.0	6.892947915494739e+17
19306.0	6.891196912413353e+17
19307.0	6.889293744177151e+17
19308.0	6.887770574989993e+17
19309.0	6.885608657343827e+17
19310.0	6.883561573449727e+17
19311.0	6.882730236532052e+17
19312.0	6.881414591720104e+17
19313.0	6.879821218272595e+17
19314.0	6.852401749994145e+17
19315.0	6.852808949104676e+17
19316.0	6.874574167037268e+17
19317.0	6.872557729524394e+17
19318.0	6.87090537018163e+17
19319.0	6.869357587420499e+17
19320.0	6.867663016602281e+17
19321.0	6.865908209287167e+17
19322.0	6.863750948017492e+17
19323.0	6.862185681999187e+17
19324.0	6.860645659399508e+17
19325.0	6.85805856166161e+17
19326.0	6.856389783715839e+17
19327.0	6.8543631603357e+17
19328.0	6.852557527842815e+17
19329.0	6.850860741733034e+17
19330.0	6.848857943397715e+17
19331.0	6.846926253894313e+17
19332.0	6.844861900652541e+17
19333.0	6.842505774847314e+17
19334.0	6.840774175315286e+17
19335.0	6.838814984459604e+17
19336.0	6.837056147117396e+17
19337.0	6.835186146738175e+17
19338.0	6.831518863327228e+17
19339.0	6.830747172208639e+17
19340.0	6.828284310454271e+17
19341.0	6.826484031291391e+17
19342.0	6.822630057312252e+17
19343.0	6.822810698295978e+17
19344.0	6.820530210471935e+17
19345.0	6.806322436986181e+17
19346.0	6.809683001431377e+17
19347.0	6.813610927980543e+17
19348.0	6.812140659452585e+17
19349.0	6.809868947510612e+17
19350.0	6.807848453406719e+17
19351.0	6.805673428560553e+17
19352.0	6.803272892066473e+17
19353.0	6.8017075009181e+17
19354.0	6.799543083466751e+17
19355.0	6.796623683605847e+17
19356.0	6.794829867166378e+17
19357.0	6.791720744255487e+17
19358.0	6.789370022810964e+17
19359.0	6.786827126745769e+17
19360.0	6.784391340621824e+17
19361.0	6.782161318663508e+17
19362.0	6.779987680034815e+17
19363.0	6.777544628677289e+17
19364.0	6.774915993348778e+17
19365.0	6.770869349122047e+17
19366.0	6.768297535427923e+17
19367.0	6.765646028559699e+17
19368.0	6.762952570961919e+17
19369.0	6.75987465507089e+17
19370.0	6.757090376810496e+17
19371.0	6.752891498222932e+17
19372.0	6.749653924752042e+17
19373.0	6.746602310642346e+17
19374.0	6.743568648852819e+17
19375.0	6.740630543794175e+17
19376.0	6.736288515009193e+17
19377.0	6.731691435491327e+17
19378.0	6.728621676123475e+17
19379.0	6.725507820639572e+17
19380.0	6.722006061241681e+17
19381.0	6.71555444154914e+17
19382.0	6.711773661670058e+17
19383.0	6.708336214933501e+17
19384.0	6.704319601923407e+17
19385.0	6.697622946097834e+17
19386.0	6.693733507181225e+17
19387.0	6.689706025331368e+17
19388.0	6.681972611656365e+17
19389.0	6.676969071225513e+17
19390.0	6.672770312874665e+17
19391.0	6.640010528118068e+17
19392.0	6.657544947411624e+17
19393.0	6.654723245473791e+17
19394.0	6.646802393945427e+17
19395.0	6.64218308182016e+17
19396.0	6.637883344202409e+17
19397.0	6.633486350461609e+17
19398.0	6.628545562411005e+17
19399.0	6.618676009981266e+17
19400.0	6.616980847766185e+17
19401.0	6.612726442885119e+17
19402.0	6.60737175672149e+17
19403.0	6.600040631326036e+17
19404.0	6.594727373002067e+17
19405.0	6.588989745485139e+17
19406.0	6.580395187372032e+17
19407.0	6.573814936065364e+17
19408.0	6.563448979368626e+17
19409.0	6.556647129699668e+17
19410.0	6.550229088206847e+17
19411.0	6.54019143995665e+17
19412.0	6.53098752217361e+17
19413.0	6.520867220269738e+17
19414.0	6.509749229759146e+17
19415.0	6.498550902248791e+17
19416.0	6.485135284589907e+17
19417.0	6.472906954855771e+17
19418.0	6.459699334829396e+17
19419.0	6.443507444438354e+17
19420.0	6.43090632286754e+17
19421.0	6.415595692796582e+17
19422.0	6.404232583664979e+17
19423.0	6.392782220427263e+17
19424.0	6.380761050862934e+17
19425.0	6.368095511773183e+17
19426.0	6.354917709753001e+17
19427.0	6.340994430315178e+17
19428.0	6.326486937458003e+17
19429.0	6.311597158957055e+17
19430.0	6.294453891366913e+17
19431.0	6.273104568735064e+17
19432.0	6.258550360418985e+17
19433.0	6.238079046123519e+17
19434.0	6.215078785318911e+17
19435.0	6.190449238736892e+17
19436.0	6.16225944109056e+17
19437.0	6.13564864860433e+17
19438.0	6.073290329511255e+17
19439.0	6.066152819479894e+17
19440.0	6.030017089765375e+17
19441.0	5.987546146974376e+17
19442.0	5.93944094109423e+17
19443.0	5.884393203695615e+17
19444.0	5.822761558256294e+17
19445.0	5.751155556614146e+17
19446.0	5.666588604760063e+17
19447.0	5.564887583424506e+17
19448.0	5.437751764363952e+17
19449.0	5.2695724115449165e+17
19450.0	5.0203327023021926e+17
19451.0	4.867231909412875e+17
19452.0	5.1610420461786464e+17
19453.0	5.3592958840777446e+17
19454.0	5.501397480330575e+17
19455.0	5.611955026919424e+17
19456.0	5.701918096272045e+17
19457.0	5.77706827151223e+17
19458.0	5.80017672368954e+17
19459.0	5.895405740315999e+17
19460.0	5.946236915941372e+17
19461.0	5.988906526135635e+17
19462.0	6.027084554742442e+17
19463.0	6.061339167074985e+17
19464.0	6.093236126176595e+17
19465.0	6.12033802272768e+17
19466.0	6.14540295763831e+17
19467.0	6.168561989626537e+17
19468.0	6.189371041163946e+17
19469.0	6.208007490764797e+17
19470.0	6.225829112228522e+17
19471.0	6.241987339834708e+17
19472.0	6.256769466630143e+17
19473.0	6.269626473600339e+17
19474.0	6.281845975722666e+17
19475.0	6.289879633756156e+17
19476.0	6.304435263941289e+17
19477.0	6.31535604736546e+17
19478.0	6.325376393412607e+17
19479.0	6.334648494500521e+17
19480.0	6.34348554560034e+17
19481.0	6.354723389745838e+17
19482.0	6.364597916620116e+17
19483.0	6.379387419099141e+17
19484.0	6.388421246670167e+17
19485.0	6.40225355375138e+17
19486.0	6.409586700801366e+17
19487.0	6.421595317512874e+17
19488.0	6.427743205283156e+17
19489.0	6.4367143419904e+17
19490.0	6.435662610475685e+17
19491.0	6.451605777940476e+17
19492.0	6.456683808511316e+17
19493.0	6.462955330382504e+17
19494.0	6.468660201084244e+17
19495.0	6.472330901454847e+17
19496.0	6.475767196854949e+17
19497.0	6.481716132708351e+17
19498.0	6.48010698518255e+17
19499.0	6.450990410629101e+17
19500.0	6.492481467536723e+17
19501.0	6.495384736803497e+17
19502.0	6.497824677385556e+17
19503.0	6.500792748649128e+17
19504.0	6.503809664679935e+17
19505.0	6.505804475662335e+17
19506.0	6.507772047436457e+17
19507.0	6.509412964717908e+17
19508.0	6.513600085972305e+17
19509.0	6.516933232252244e+17
19510.0	6.517107937596755e+17
19511.0	6.47706896551113e+17
19512.0	6.51942861663982e+17
19513.0	6.514974030211739e+17
19514.0	6.524193328507555e+17
19515.0	6.533083438951086e+17
19516.0	6.537368880982698e+17
19517.0	6.539411792243366e+17
19518.0	6.543818455952041e+17
19519.0	6.544704525740714e+17
19520.0	6.545287956223316e+17
19521.0	6.547663534511442e+17
19522.0	6.549996886644052e+17
19523.0	6.550878260909396e+17
19524.0	6.55142421668386e+17
19525.0	6.551963379782995e+17
19526.0	6.555176759809364e+17
19527.0	6.555547439813971e+17
19528.0	6.555991889237334e+17
19529.0	6.556515569762301e+17
19530.0	6.55690509197858e+17
19531.0	6.558866026965674e+17
19532.0	6.559516833349632e+17
19533.0	6.559745630535679e+17
19534.0	6.559901176299519e+17
19535.0	6.559877025497087e+17
19536.0	6.559843522095785e+17
19537.0	6.560463264765268e+17
19538.0	6.560546486048086e+17
19539.0	6.558357999583238e+17
19540.0	6.56117211402513e+17
19541.0	6.561270088073215e+17
19542.0	6.561073254279849e+17
19543.0	6.560798624535891e+17
19544.0	6.560548746078889e+17
19545.0	6.557013282652156e+17
19546.0	6.55574978981615e+17
19547.0	6.56075825226274e+17
19548.0	6.56051921887778e+17
19549.0	6.559409896772947e+17
19550.0	6.559792368364201e+17
19551.0	6.559397549441023e+17
19552.0	6.558949781624148e+17
19553.0	6.558343912314195e+17
19554.0	6.557772457268564e+17
19555.0	6.557420431430996e+17
19556.0	6.557010300502015e+17
19557.0	6.556474943733759e+17
19558.0	6.556439512350719e+17
19559.0	6.555996140164436e+17
19560.0	6.555224247020201e+17
19561.0	6.554668192759808e+17
19562.0	6.55422754197777e+17
19563.0	6.553678242643967e+17
19564.0	6.553492589466964e+17
19565.0	6.552940763764052e+17
19566.0	6.552085532595539e+17
19567.0	6.55160530575906e+17
19568.0	6.550700719516329e+17
19569.0	6.550056487703891e+17
19570.0	6.550066261131263e+17
19571.0	6.549693244899327e+17
19572.0	6.548680821702656e+17
19573.0	6.548119848222719e+17
19574.0	6.546741546800466e+17
19575.0	6.546678336542036e+17
19576.0	6.545977250239827e+17
19577.0	6.545558184045226e+17
19578.0	6.545151155503103e+17
19579.0	6.544389062350163e+17
19580.0	6.543587927916543e+17
19581.0	6.542878837484201e+17
19582.0	6.542142962226516e+17
19583.0	6.541294535617193e+17
19584.0	6.540419980591101e+17
19585.0	6.538728140264787e+17
19586.0	6.537973249430871e+17
19587.0	6.538198603792383e+17
19588.0	6.534634878446253e+17
19589.0	6.536342721440425e+17
19590.0	6.535100945312425e+17
19591.0	6.534784105491113e+17
19592.0	6.533934203185833e+17
19593.0	6.532870425630036e+17
19594.0	6.530283004231676e+17
19595.0	6.530966831671978e+17
19596.0	6.529326751154176e+17
19597.0	6.529180337788246e+17
19598.0	6.526352382842194e+17
19599.0	6.527748346478591e+17
19600.0	6.526865104349866e+17
19601.0	6.52544107872256e+17
19602.0	6.524374531528019e+17
19603.0	6.521274285861544e+17
19604.0	6.522468042801151e+17
19605.0	6.51989758037197e+17
19606.0	6.520977854824447e+17
19607.0	6.520023731055273e+17
19608.0	6.518974905494185e+17
19609.0	6.517711054744234e+17
19610.0	6.517053682177364e+17
19611.0	6.515985932615679e+17
19612.0	6.515105869769385e+17
19613.0	6.51409782612514e+17
19614.0	6.513060314699091e+17
19615.0	6.512312866657619e+17
19616.0	6.511041264833876e+17
19617.0	6.510121630826495e+17
19618.0	6.505373545179813e+17
19619.0	6.503597927825402e+17
19620.0	6.50327738303556e+17
19621.0	6.506264317482324e+17
19622.0	6.505439886486185e+17
19623.0	6.504435575772499e+17
19624.0	6.503316586495999e+17
19625.0	6.502332353915561e+17
19626.0	6.501161196584959e+17
19627.0	6.500084197184852e+17
19628.0	6.498381889972906e+17
19629.0	6.496704052330493e+17
19630.0	6.491326140208467e+17
19631.0	6.473373341887148e+17
19632.0	6.493674663138644e+17
19633.0	6.493203876282367e+17
19634.0	6.492788984119295e+17
19635.0	6.491576839350953e+17
19636.0	6.490709552354644e+17
19637.0	6.486841981840046e+17
19638.0	6.488612956798975e+17
19639.0	6.487537991636307e+17
19640.0	6.485756422564522e+17
19641.0	6.480446639221431e+17
19642.0	6.48427895591185e+17
19643.0	6.483166616005289e+17
19644.0	6.481646461823657e+17
19645.0	6.479431269526184e+17
19646.0	6.479953048633343e+17
19647.0	6.478961655676928e+17
19648.0	6.47784078455603e+17
19649.0	6.476731000378708e+17
19650.0	6.475679176589311e+17
19651.0	6.474538404194985e+17
19652.0	6.473408402074282e+17
19653.0	6.47236416578082e+17
19654.0	6.471196442886143e+17
19655.0	6.470044251499177e+17
19656.0	6.469017907407529e+17
19657.0	6.46789243932945e+17
19658.0	6.466832189183316e+17
19659.0	6.465709672497151e+17
19660.0	6.464640884845226e+17
19661.0	6.463492802478079e+17
19662.0	6.462399836760745e+17
19663.0	6.460978303948116e+17
19664.0	6.460032201785343e+17
19665.0	6.459061492340052e+17
