# Flux units: erg / (cm m2 s)
# Wavelength units: Angstrom
wave	flux
19000.0	6.150230048593235e+17
19001.0	6.148973705647444e+17
19002.0	6.147947735547904e+17
19003.0	6.146803806939818e+17
19004.0	6.145660816457727e+17
19005.0	6.144511956746239e+17
19006.0	6.143380744568831e+17
19007.0	6.142238378338986e+17
19008.0	6.14102173028625e+17
19009.0	6.139850403785386e+17
19010.0	6.138247347088041e+17
19011.0	6.1376338867869e+17
19012.0	6.136396869795839e+17
19013.0	6.13537859904034e+17
19014.0	6.134177756523178e+17
19015.0	6.133053227270141e+17
19016.0	6.131899038695423e+17
19017.0	6.130819969406292e+17
19018.0	6.129667267013289e+17
19019.0	6.128534066735785e+17
19020.0	6.12737793200401e+17
19021.0	6.126259235629737e+17
19022.0	6.125114233279827e+17
19023.0	6.123936202883071e+17
19024.0	6.122817003891369e+17
19025.0	6.121700948530516e+17
19026.0	6.12053232525858e+17
19027.0	6.119378224764243e+17
19028.0	6.118293701481812e+17
19029.0	6.11725839905587e+17
19030.0	6.116152972061353e+17
19031.0	6.11501427794466e+17
19032.0	6.113869371364692e+17
19033.0	6.112631290418516e+17
19034.0	6.111579830834516e+17
19035.0	6.110390231149225e+17
19036.0	6.10545628820275e+17
19037.0	6.108150130278399e+17
19038.0	6.1070174584832e+17
19039.0	6.105910531325951e+17
19040.0	6.104774404822356e+17
19041.0	6.103628416811007e+17
19042.0	6.102361922251433e+17
19043.0	6.101364870479872e+17
19044.0	6.100214795818324e+17
19045.0	6.099091329821353e+17
19046.0	6.097895709911721e+17
19047.0	6.096797048329556e+17
19048.0	6.095429995331583e+17
19049.0	6.094405087789055e+17
19050.0	6.093350290238121e+17
19051.0	6.091634025780564e+17
19052.0	6.091029760092841e+17
19053.0	6.090005325108563e+17
19054.0	6.088872408645632e+17
19055.0	6.087434269185366e+17
19056.0	6.086565762345641e+17
19057.0	6.085460751286271e+17
19058.0	6.08428953243921e+17
19059.0	6.083182063517695e+17
19060.0	6.082041262462292e+17
19061.0	6.080934889652223e+17
19062.0	6.079795704102912e+17
19063.0	6.078664181547007e+17
19064.0	6.077390748909567e+17
19065.0	6.076200487223295e+17
19066.0	6.075189544615935e+17
19067.0	6.074121509142528e+17
19068.0	6.073003753690452e+17
19069.0	6.071873266428585e+17
19070.0	6.070706518010538e+17
19071.0	6.069603016201556e+17
19072.0	6.068465832034303e+17
19073.0	6.067341448882858e+17
19074.0	6.06621614088738e+17
19075.0	6.065085053140991e+17
19076.0	6.063931195916287e+17
19077.0	6.062805489461929e+17
19078.0	6.061652513740115e+17
19079.0	6.060561606027945e+17
19080.0	6.059416512102399e+17
19081.0	6.058250819949908e+17
19082.0	6.057124722726228e+17
19083.0	6.055928251372884e+17
19084.0	6.054660984362324e+17
19085.0	6.05377711378705e+17
19086.0	6.052223163301887e+17
19087.0	6.051409132082516e+17
19088.0	6.050287236852394e+17
19089.0	6.049018733920255e+17
19090.0	6.048006110795092e+17
19091.0	6.046854244466688e+17
19092.0	6.04565947879697e+17
19093.0	6.044629704463699e+17
19094.0	6.043503503081472e+17
19095.0	6.042376543928319e+17
19096.0	6.041230968356863e+17
19097.0	6.040120040532649e+17
19098.0	6.038982518024874e+17
19099.0	6.037853568674474e+17
19100.0	6.036725927946921e+17
19101.0	6.035614532457812e+17
19102.0	6.034359819698173e+17
19103.0	6.033362714798761e+17
19104.0	6.032241718547795e+17
19105.0	6.031084378652671e+17
19106.0	6.029973687107583e+17
19107.0	6.02883505590545e+17
19108.0	6.027724922901844e+17
19109.0	6.026364942199466e+17
19110.0	6.025471118540799e+17
19111.0	6.02435881148962e+17
19112.0	6.023234640849578e+17
19113.0	6.022118234565289e+17
19114.0	6.020990350568105e+17
19115.0	6.019816583681364e+17
19116.0	6.018725579500201e+17
19117.0	6.017604254695424e+17
19118.0	6.016384679018495e+17
19119.0	6.008224953488713e+17
19120.0	6.014201420753577e+17
19121.0	6.013111719602857e+17
19122.0	6.012017091543037e+17
19123.0	6.010895781418324e+17
19124.0	6.009754289700863e+17
19125.0	6.008648399934803e+17
19126.0	6.007506242022057e+17
19127.0	6.004378365678931e+17
19128.0	6.005245741454676e+17
19129.0	6.004070988207444e+17
19130.0	6.003030910566399e+17
19131.0	6.001926429387434e+17
19132.0	6.000804688647508e+17
19133.0	5.999615082670761e+17
19134.0	5.99855897509888e+17
19135.0	5.997445351036243e+17
19136.0	5.996330895802368e+17
19137.0	5.995030240034815e+17
19138.0	5.994076816015359e+17
19139.0	5.992975436524202e+17
19140.0	5.991859052609536e+17
19141.0	5.99074088821282e+17
19142.0	5.989593321745065e+17
19143.0	5.988438094381055e+17
19144.0	5.98734207590946e+17
19145.0	5.986269417613993e+17
19146.0	5.984447121850368e+17
19147.0	5.983929114121556e+17
19148.0	5.982905383780351e+17
19149.0	5.981779629091497e+17
19150.0	5.980676055979348e+17
19151.0	5.979561100225194e+17
19152.0	5.978448626799956e+17
19153.0	5.977286358597631e+17
19154.0	5.976075098128384e+17
19155.0	5.975100843797161e+17
19156.0	5.973983576282452e+17
19157.0	5.972848770984618e+17
19158.0	5.971575302695593e+17
19159.0	5.970612623944361e+17
19160.0	5.969511508694356e+17
19161.0	5.968404236905129e+17
19162.0	5.966895605874687e+17
19163.0	5.966151810372948e+17
19164.0	5.965067233263615e+17
19165.0	5.963910971304618e+17
19166.0	5.962693148846761e+17
19167.0	5.961690192893268e+17
19168.0	5.960606865686527e+17
19169.0	5.959488021812563e+17
19170.0	5.958387321798655e+17
19171.0	5.957253132364457e+17
19172.0	5.956161812212394e+17
19173.0	5.955050675372032e+17
19174.0	5.953873371288916e+17
19175.0	5.952823197259092e+17
19176.0	5.951709378860372e+17
19177.0	5.95042758697506e+17
19178.0	5.949476887156052e+17
19179.0	5.948345656104276e+17
19180.0	5.947254195443027e+17
19181.0	5.946002817854121e+17
19182.0	5.945027505160192e+17
19183.0	5.943934624027988e+17
19184.0	5.94281681265186e+17
19185.0	5.941699374568788e+17
19186.0	5.940599649031508e+17
19187.0	5.939414946196138e+17
19188.0	5.938376673503913e+17
19189.0	5.937272734788265e+17
19190.0	5.936160559857663e+17
19191.0	5.935014025887743e+17
19192.0	5.933941145993215e+17
19193.0	5.932820382526121e+17
19194.0	5.931699055624191e+17
19195.0	5.930606367429971e+17
19196.0	5.92947232968977e+17
19197.0	5.928363471055529e+17
19198.0	5.927207682353834e+17
19199.0	5.923660038668287e+17
19200.0	5.923231027778902e+17
19201.0	5.923891906783913e+17
19202.0	5.922831302219092e+17
19203.0	5.921727016075263e+17
19204.0	5.920600646920873e+17
19205.0	5.919510564088489e+17
19206.0	5.918403372690089e+17
19207.0	5.917182851197609e+17
19208.0	5.915934998921215e+17
19209.0	5.915081936906922e+17
19210.0	5.91397359067682e+17
19211.0	5.912882480239956e+17
19212.0	5.911774733096276e+17
19213.0	5.910555981600083e+17
19214.0	5.909427675376298e+17
19215.0	5.908441477065386e+17
19216.0	5.907343754308265e+17
19217.0	5.90622030508851e+17
19218.0	5.904216797216767e+17
19219.0	5.903840077414399e+17
19220.0	5.902887049756672e+17
19221.0	5.901449051504639e+17
19222.0	5.900686113898495e+17
19223.0	5.899572271033001e+17
19224.0	5.898437955070633e+17
19225.0	5.897219696405161e+17
19226.0	5.896252827544233e+17
19227.0	5.895116034845353e+17
19228.0	5.893979460250281e+17
19229.0	5.892872090593961e+17
19230.0	5.891762033786879e+17
19231.0	5.890644980880724e+17
19232.0	5.889545448980479e+17
19233.0	5.888368448984404e+17
19234.0	5.887315625552553e+17
19235.0	5.886201513552554e+17
19236.0	5.885128917472595e+17
19237.0	5.884005608062975e+17
19238.0	5.882810664834388e+17
19239.0	5.881813771048276e+17
19240.0	5.880697127785811e+17
19241.0	5.879574029489492e+17
19242.0	5.878477056813737e+17
19243.0	5.8772061421568e+17
19244.0	5.876284753532243e+17
19245.0	5.875171609018367e+17
19246.0	5.874052651199146e+17
19247.0	5.872959700161876e+17
19248.0	5.871860294090751e+17
19249.0	5.870751608122025e+17
19250.0	5.869618374989139e+17
19251.0	5.868413833794899e+17
19252.0	5.867104013473108e+17
19253.0	5.866298036016468e+17
19254.0	5.865219962175487e+17
19255.0	5.863895659621033e+17
19256.0	5.862978551982761e+17
19257.0	5.861901198163967e+17
19258.0	5.860793311909206e+17
19259.0	5.859602149845674e+17
19260.0	5.858481624754857e+17
19261.0	5.857454544562857e+17
19262.0	5.856294653132799e+17
19263.0	5.855173868694185e+17
19264.0	5.853513665303891e+17
19265.0	5.852799655652009e+17
19266.0	5.851638540184234e+17
19267.0	5.850821508639401e+17
19268.0	5.849704873765546e+17
19269.0	5.848599160859306e+17
19270.0	5.84745098481937e+17
19271.0	5.845818619723776e+17
19272.0	5.84505455874321e+17
19273.0	5.843441287517524e+17
19274.0	5.842302701753683e+17
19275.0	5.841766225805312e+17
19276.0	5.840633741355689e+17
19277.0	5.839528900864682e+17
19278.0	5.838421265569108e+17
19279.0	5.837289020194815e+17
19280.0	5.836102128631807e+17
19281.0	5.835074315135658e+17
19282.0	5.833981584299348e+17
19283.0	5.832835720719017e+17
19284.0	5.831714033106944e+17
19285.0	5.830446736037203e+17
19286.0	5.829477576387242e+17
19287.0	5.828402223950505e+17
19288.0	5.826248048290473e+17
19289.0	5.823584010939045e+17
19290.0	5.82505300230144e+17
19291.0	5.823652089386324e+17
19292.0	5.822826127469225e+17
19293.0	5.82170028539904e+17
19294.0	5.820576230102356e+17
19295.0	5.819469097424212e+17
19296.0	5.81832590561553e+17
19297.0	5.817203442057215e+17
19298.0	5.816072246657023e+17
19299.0	5.814964096860159e+17
19300.0	5.813849441697792e+17
19301.0	5.812724406332073e+17
19302.0	5.811589478700372e+17
19303.0	5.810389310767104e+17
19304.0	5.809312539956564e+17
19305.0	5.808198411878399e+17
19306.0	5.807078501952169e+17
19307.0	5.805898899390463e+17
19308.0	5.804792265135444e+17
19309.0	5.803402410502825e+17
19310.0	5.802162804228095e+17
19311.0	5.801124768514048e+17
19312.0	5.800024132812799e+17
19313.0	5.798898400493567e+17
19314.0	5.792379214058834e+17
19315.0	5.791712927197875e+17
19316.0	5.795446133882879e+17
19317.0	5.794325429835092e+17
19318.0	5.79317926007057e+17
19319.0	5.792055730459988e+17
19320.0	5.790901237798228e+17
19321.0	5.789743721043284e+17
19322.0	5.788522243249492e+17
19323.0	5.787411398612308e+17
19324.0	5.786292672877908e+17
19325.0	5.785064971436032e+17
19326.0	5.783977330387625e+17
19327.0	5.782803714495828e+17
19328.0	5.781500469444607e+17
19329.0	5.780156346706601e+17
19330.0	5.778945015633236e+17
19331.0	5.777763120185343e+17
19332.0	5.776643662544895e+17
19333.0	5.775461397299199e+17
19334.0	5.774290920144895e+17
19335.0	5.773055988421971e+17
19336.0	5.771922860845737e+17
19337.0	5.770731962324308e+17
19338.0	5.769304572166143e+17
19339.0	5.768348097489578e+17
19340.0	5.766924275286015e+17
19341.0	5.765437547610112e+17
19342.0	5.763867420393471e+17
19343.0	5.763083723079679e+17
19344.0	5.7618436938792954e+17
19345.0	5.758205751721979e+17
19346.0	5.758264922865662e+17
19347.0	5.7579270737756154e+17
19348.0	5.7568088199004154e+17
19349.0	5.755261450977278e+17
19350.0	5.753722517498537e+17
19351.0	5.7524724478334285e+17
19352.0	5.7511569896680096e+17
19353.0	5.75001431515682e+17
19354.0	5.748754999148543e+17
19355.0	5.7473749710711456e+17
19356.0	5.745873406044842e+17
19357.0	5.7445718820563616e+17
19358.0	5.7432800441139194e+17
19359.0	5.741934047221075e+17
19360.0	5.740614703033002e+17
19361.0	5.73933267067426e+17
19362.0	5.7380590367102285e+17
19363.0	5.7367324307838285e+17
19364.0	5.735395881560747e+17
19365.0	5.73405068927522e+17
19366.0	5.7326955648778234e+17
19367.0	5.731323032021674e+17
19368.0	5.7296292315572896e+17
19369.0	5.728187206773417e+17
19370.0	5.726785623468713e+17
19371.0	5.72537084907793e+17
19372.0	5.7240101413628576e+17
19373.0	5.722553096776362e+17
19374.0	5.7211165965899085e+17
19375.0	5.7196547879731194e+17
19376.0	5.718177884056234e+17
19377.0	5.7166684533118285e+17
19378.0	5.715158980624383e+17
19379.0	5.7131129362186234e+17
19380.0	5.7115528704382285e+17
19381.0	5.709973479402153e+17
19382.0	5.7082973369576096e+17
19383.0	5.7066489048814925e+17
19384.0	5.705124158636032e+17
19385.0	5.703403293726037e+17
19386.0	5.701009812051284e+17
19387.0	5.699273946912085e+17
19388.0	5.6974427165818874e+17
19389.0	5.6956704211162445e+17
19390.0	5.6936793549482643e+17
19391.0	5.687476958003194e+17
19392.0	5.688992435535871e+17
19393.0	5.6871562279649274e+17
19394.0	5.684551477100544e+17
19395.0	5.681735886263637e+17
19396.0	5.679693838330538e+17
19397.0	5.676661885719889e+17
19398.0	5.6735373969762976e+17
19399.0	5.6702572555141114e+17
19400.0	5.6666394886580896e+17
19401.0	5.6637490176109216e+17
19402.0	5.6590824664378016e+17
19403.0	5.6547041743994874e+17
19404.0	5.650492449357823e+17
19405.0	5.6456884214824934e+17
19406.0	5.6426416021613216e+17
19407.0	5.639764187982506e+17
19408.0	5.6359561206606515e+17
19409.0	5.6337925210985805e+17
19410.0	5.6307322331682125e+17
19411.0	5.627516409959765e+17
19412.0	5.6238503575770445e+17
19413.0	5.620081939709952e+17
19414.0	5.616505562245802e+17
19415.0	5.612879976508074e+17
19416.0	5.60827157446656e+17
19417.0	5.6040479641654605e+17
19418.0	5.6000007544067405e+17
19419.0	5.594108075354794e+17
19420.0	5.58931324069478e+17
19421.0	5.5826904465626445e+17
19422.0	5.575771138905427e+17
19423.0	5.5682199069218106e+17
19424.0	5.5591995745239014e+17
19425.0	5.548003038680412e+17
19426.0	5.533923237604005e+17
19427.0	5.5166780973602035e+17
19428.0	5.4946713455383974e+17
19429.0	5.480504102311252e+17
19430.0	5.470260384410283e+17
19431.0	5.4590235475968e+17
19432.0	5.448068360394067e+17
19433.0	5.4361837622613325e+17
19434.0	5.423467086916267e+17
19435.0	5.410294473949183e+17
19436.0	5.395511352404649e+17
19437.0	5.3793915404288e+17
19438.0	5.353659100910931e+17
19439.0	5.333036916801533e+17
19440.0	5.2938484754677805e+17
19441.0	5.237950757470203e+17
19442.0	5.1966618869869235e+17
19443.0	5.161048033547605e+17
19444.0	5.121624554602493e+17
19445.0	5.0753936559527264e+17
19446.0	5.0150357290625696e+17
19447.0	4.9290679565680525e+17
19448.0	4.8030898548899866e+17
19449.0	4.620476924035069e+17
19450.0	4.2503071648972755e+17
19451.0	4.0322252197069235e+17
19452.0	4.4736556340783955e+17
19453.0	4.7208604949108154e+17
19454.0	4.868581439307775e+17
19455.0	4.9706451945390125e+17
19456.0	5.0393216964362266e+17
19457.0	5.089531119621458e+17
19458.0	5.116446345177794e+17
19459.0	5.16481916443034e+17
19460.0	5.198533446948175e+17
19461.0	5.249891644560723e+17
19462.0	5.2955652243674477e+17
19463.0	5.3248262787126605e+17
19464.0	5.3456893074472966e+17
19465.0	5.361333592304296e+17
19466.0	5.374393289714347e+17
19467.0	5.3860051916772685e+17
19468.0	5.397298515279871e+17
19469.0	5.407043202580478e+17
19470.0	5.417050515526996e+17
19471.0	5.4261195354057376e+17
19472.0	5.43446404379443e+17
19473.0	5.4433943964876794e+17
19474.0	5.4602696816066534e+17
19475.0	5.477980631465981e+17
19476.0	5.49212105002189e+17
19477.0	5.5018849304576e+17
19478.0	5.509452848081577e+17
19479.0	5.515841517562539e+17
19480.0	5.5215097251539616e+17
19481.0	5.5253669035813523e+17
19482.0	5.529314926439083e+17
19483.0	5.5324133930216083e+17
19484.0	5.535294910627838e+17
19485.0	5.537136658874366e+17
19486.0	5.539860412628992e+17
19487.0	5.541660881933652e+17
19488.0	5.5431838770571936e+17
19489.0	5.5444615599226874e+17
19490.0	5.544854448067922e+17
19491.0	5.547661486718975e+17
19492.0	5.5487770611329696e+17
19493.0	5.549738235527167e+17
19494.0	5.550618243148458e+17
19495.0	5.5514296025961805e+17
19496.0	5.551734693472937e+17
19497.0	5.554058479796224e+17
19498.0	5.55531196362479e+17
19499.0	5.553773730594812e+17
19500.0	5.5605996506753683e+17
19501.0	5.5629071456228685e+17
19502.0	5.563865612593835e+17
19503.0	5.565540449910783e+17
19504.0	5.5656399569769805e+17
19505.0	5.5673210766622694e+17
19506.0	5.5674460123955194e+17
19507.0	5.567354270384126e+17
19508.0	5.568582508696915e+17
19509.0	5.568475936325631e+17
19510.0	5.568033280666281e+17
19511.0	5.558897164506445e+17
19512.0	5.567942974504957e+17
19513.0	5.566537971444391e+17
19514.0	5.566970338476029e+17
19515.0	5.567258154412715e+17
19516.0	5.567559413093717e+17
19517.0	5.567738039413417e+17
19518.0	5.567372126235305e+17
19519.0	5.5669026410113696e+17
19520.0	5.5663719399205536e+17
19521.0	5.5659157310668794e+17
19522.0	5.565346622035285e+17
19523.0	5.564837018992638e+17
19524.0	5.5647140287173965e+17
19525.0	5.5641623658932896e+17
19526.0	5.5635713653910176e+17
19527.0	5.5629462665953274e+17
19528.0	5.562306691159379e+17
19529.0	5.5616564076653216e+17
19530.0	5.5610123394307405e+17
19531.0	5.5603385209978874e+17
19532.0	5.559652367816021e+17
19533.0	5.558954997667156e+17
19534.0	5.558244228814164e+17
19535.0	5.557570016815786e+17
19536.0	5.5570509171698336e+17
19537.0	5.556356101352106e+17
19538.0	5.555468920072875e+17
19539.0	5.554197805487446e+17
19540.0	5.554048321191934e+17
19541.0	5.5533039126227616e+17
19542.0	5.552516134950228e+17
19543.0	5.551709050896383e+17
19544.0	5.5509271536380576e+17
19545.0	5.549576238224723e+17
19546.0	5.5482613497856e+17
19547.0	5.548696833185109e+17
19548.0	5.5480119033419085e+17
19549.0	5.547072630904149e+17
19550.0	5.5463478160261114e+17
19551.0	5.545510251266047e+17
19552.0	5.5446632870707194e+17
19553.0	5.5437868613850445e+17
19554.0	5.54322576487219e+17
19555.0	5.5426007974980256e+17
19556.0	5.5417540576979616e+17
19557.0	5.5408803135706445e+17
19558.0	5.540009245409279e+17
19559.0	5.539134675004074e+17
19560.0	5.538215481398611e+17
19561.0	5.537417167634431e+17
19562.0	5.5366373933929805e+17
19563.0	5.5357912561745914e+17
19564.0	5.5352577917364896e+17
19565.0	5.534359542388053e+17
19566.0	5.533423281460564e+17
19567.0	5.5325531332498765e+17
19568.0	5.5316184570702496e+17
19569.0	5.530712140677119e+17
19570.0	5.5298258877371725e+17
19571.0	5.528908259306154e+17
19572.0	5.5279522725669536e+17
19573.0	5.527054844603049e+17
19574.0	5.5260452658435405e+17
19575.0	5.5252291500550816e+17
19576.0	5.524298370383871e+17
19577.0	5.5234104956463776e+17
19578.0	5.522698261583188e+17
19579.0	5.521825679278079e+17
19580.0	5.520894445922985e+17
19581.0	5.5199703589628576e+17
19582.0	5.519053435873963e+17
19583.0	5.5181146877242016e+17
19584.0	5.517171838943231e+17
19585.0	5.5161015063893325e+17
19586.0	5.51512749183249e+17
19587.0	5.514324047735466e+17
19588.0	5.5128638930725555e+17
19589.0	5.512419800864084e+17
19590.0	5.5113776722083834e+17
19591.0	5.5105433566358176e+17
19592.0	5.5095986274085536e+17
19593.0	5.508625868346709e+17
19594.0	5.507406813462526e+17
19595.0	5.5067087568459085e+17
19596.0	5.505712928413011e+17
19597.0	5.504812235183444e+17
19598.0	5.503368872416596e+17
19599.0	5.5029048272049485e+17
19600.0	5.5019574555661645e+17
19601.0	5.5010965068622496e+17
19602.0	5.5001831111830176e+17
19603.0	5.498791927655081e+17
19604.0	5.498268028327253e+17
19605.0	5.4970170554886816e+17
19606.0	5.496390589349887e+17
19607.0	5.495436569040213e+17
19608.0	5.4944516590796794e+17
19609.0	5.4934449743899296e+17
19610.0	5.492529157199188e+17
19611.0	5.4915455754349216e+17
19612.0	5.490607050981374e+17
19613.0	5.4896270644346874e+17
19614.0	5.4886247872593914e+17
19615.0	5.487700794671103e+17
19616.0	5.486691221503999e+17
19617.0	5.485731829689002e+17
19618.0	5.4841153372378426e+17
19619.0	5.482961671553023e+17
19620.0	5.482066581913598e+17
19621.0	5.4818529135820794e+17
19622.0	5.4809069148788045e+17
19623.0	5.4799359999126176e+17
19624.0	5.478952946630656e+17
19625.0	5.4779908921316685e+17
19626.0	5.477017130631167e+17
19627.0	5.4760403492317856e+17
19628.0	5.475006453994837e+17
19629.0	5.473929839771647e+17
19630.0	5.4728524013677216e+17
19631.0	5.4694396954323616e+17
19632.0	5.471137158922239e+17
19633.0	5.470147617051989e+17
19634.0	5.4692202774091085e+17
19635.0	5.4682028615925754e+17
19636.0	5.4672424337844896e+17
19637.0	5.4658804747687245e+17
19638.0	5.4653084548901536e+17
19639.0	5.464331470766079e+17
19640.0	5.4632610466365434e+17
19641.0	5.461161710103214e+17
19642.0	5.4614038311949645e+17
19643.0	5.4604246939948365e+17
19644.0	5.4593838397085005e+17
19645.0	5.458166210188627e+17
19646.0	5.4574836745939616e+17
19647.0	5.4565322414708045e+17
19648.0	5.455555996942335e+17
19649.0	5.4545704291751245e+17
19650.0	5.453601579204607e+17
19651.0	5.452616855890602e+17
19652.0	5.451637293667668e+17
19653.0	5.4506669211648e+17
19654.0	5.4496819650669216e+17
19655.0	5.4487001127540045e+17
19656.0	5.4477279429918714e+17
19657.0	5.4467581136513696e+17
19658.0	5.4457802661997216e+17
19659.0	5.4448005355055776e+17
19660.0	5.4438245587135136e+17
