# Flux units: erg / (cm m2 s)
# Wavelength units: Angstrom
wave	flux
19000.0	4.9533618749439994e+17
19001.0	4.9523571734609914e+17
19002.0	4.951532139184127e+17
19003.0	4.9506149602426874e+17
19004.0	4.949699059165867e+17
19005.0	4.9487780690001914e+17
19006.0	4.947871247193428e+17
19007.0	4.946948224887466e+17
19008.0	4.9459803892394656e+17
19009.0	4.9449983831354016e+17
19010.0	4.9437905731802445e+17
19011.0	4.9432589269729274e+17
19012.0	4.942280876796587e+17
19013.0	4.941458248652117e+17
19014.0	4.9404977565313696e+17
19015.0	4.9395947725127674e+17
19016.0	4.9386631330092365e+17
19017.0	4.937798959584596e+17
19018.0	4.9368816506197325e+17
19019.0	4.935968314359807e+17
19020.0	4.9350417136134816e+17
19021.0	4.9341450958493005e+17
19022.0	4.9332288683158176e+17
19023.0	4.932288387918506e+17
19024.0	4.931390303546025e+17
19025.0	4.930491497054207e+17
19026.0	4.929556679666347e+17
19027.0	4.928633071555924e+17
19028.0	4.9277555791189325e+17
19029.0	4.926833394974719e+17
19030.0	4.925940346563242e+17
19031.0	4.925028576176811e+17
19032.0	4.924110543694506e+17
19033.0	4.923121774275242e+17
19034.0	4.9222811455761043e+17
19035.0	4.92134294827827e+17
19036.0	4.917049888691541e+17
19037.0	4.9195464873301325e+17
19038.0	4.9186248750093645e+17
19039.0	4.917734520739156e+17
19040.0	4.9168233871878816e+17
19041.0	4.915901803528191e+17
19042.0	4.9149134801032525e+17
19043.0	4.914090706556245e+17
19044.0	4.913169727575381e+17
19045.0	4.912269638325587e+17
19046.0	4.911310177304575e+17
19047.0	4.9104187604773536e+17
19048.0	4.9093455876805965e+17
19049.0	4.908553479389183e+17
19050.0	4.9076755514436256e+17
19051.0	4.906337986499924e+17
19052.0	4.905781449894571e+17
19053.0	4.9049907977256954e+17
19054.0	4.9040775817024845e+17
19055.0	4.9029419955650554e+17
19056.0	4.90223730495761e+17
19057.0	4.9013473917883725e+17
19058.0	4.9004293264506874e+17
19059.0	4.8995287541568845e+17
19060.0	4.8986071893715616e+17
19061.0	4.897721335589547e+17
19062.0	4.8968084474210976e+17
19063.0	4.89590214430993e+17
19064.0	4.894877677868373e+17
19065.0	4.8939381607628806e+17
19066.0	4.8931327774993056e+17
19067.0	4.8922601399691936e+17
19068.0	4.8913665204333216e+17
19069.0	4.890460498340522e+17
19070.0	4.8895328168618656e+17
19071.0	4.888648270304596e+17
19072.0	4.887738572603391e+17
19073.0	4.886830558915242e+17
19074.0	4.8859292232581114e+17
19075.0	4.8850231564260685e+17
19076.0	4.884099521052672e+17
19077.0	4.883193447929172e+17
19078.0	4.8822738502724256e+17
19079.0	4.88139732881681e+17
19080.0	4.880478559535103e+17
19081.0	4.8795546752996685e+17
19082.0	4.8786463162804896e+17
19083.0	4.877692727984127e+17
19084.0	4.876683617588563e+17
19085.0	4.875962937595221e+17
19086.0	4.8747615854701216e+17
19087.0	4.8740553877094406e+17
19088.0	4.87318142128401e+17
19089.0	4.872167056124587e+17
19090.0	4.8714282672237216e+17
19091.0	4.8705199389627725e+17
19092.0	4.8695850397859834e+17
19093.0	4.8687405802891936e+17
19094.0	4.8678353886685856e+17
19095.0	4.866931981025279e+17
19096.0	4.866017116640596e+17
19097.0	4.8651252433332896e+17
19098.0	4.864221637858644e+17
19099.0	4.863318556672e+17
19100.0	4.862404781408256e+17
19101.0	4.861510416684372e+17
19102.0	4.86051179204881e+17
19103.0	4.8597126226466125e+17
19104.0	4.858814281023487e+17
19105.0	4.8579055647894176e+17
19106.0	4.8569957475505485e+17
19107.0	4.8560952829105485e+17
19108.0	4.855206899963221e+17
19109.0	4.854086296578729e+17
19110.0	4.85339695223057e+17
19111.0	4.8525059079973536e+17
19112.0	4.8516054398621005e+17
19113.0	4.850704741739178e+17
19114.0	4.8498051739811834e+17
19115.0	4.848863719107242e+17
19116.0	4.847988938287785e+17
19117.0	4.8470876997986976e+17
19118.0	4.846105145638911e+17
19119.0	4.838659872260089e+17
19120.0	4.8443767841095674e+17
19121.0	4.8434911323531936e+17
19122.0	4.842614254381738e+17
19123.0	4.841715341634217e+17
19124.0	4.8408046596696736e+17
19125.0	4.839916141106516e+17
19126.0	4.839016815919102e+17
19127.0	4.836442588403029e+17
19128.0	4.8371701407634765e+17
19129.0	4.83626423820834e+17
19130.0	4.835408098273962e+17
19131.0	4.834529060235946e+17
19132.0	4.833631177190057e+17
19133.0	4.832624523258538e+17
19134.0	4.831813216239615e+17
19135.0	4.830940020168021e+17
19136.0	4.830049270934185e+17
19137.0	4.8290044977698125e+17
19138.0	4.828238022967295e+17
19139.0	4.827359370106196e+17
19140.0	4.82646524166144e+17
19141.0	4.8255686406744736e+17
19142.0	4.824651976933375e+17
19143.0	4.8237274908153165e+17
19144.0	4.8228455559113376e+17
19145.0	4.821987125187924e+17
19146.0	4.820577783119872e+17
19147.0	4.820078487579306e+17
19148.0	4.819299580160682e+17
19149.0	4.818399010663082e+17
19150.0	4.8175066808756896e+17
19151.0	4.8166204712768845e+17
19152.0	4.8157199199546016e+17
19153.0	4.814810772406271e+17
19154.0	4.8138200386546336e+17
19155.0	4.813044977412777e+17
19156.0	4.812149237656234e+17
19157.0	4.811252474489514e+17
19158.0	4.810200870202025e+17
19159.0	4.809455305403049e+17
19160.0	4.8085672726801056e+17
19161.0	4.8076836439763616e+17
19162.0	4.8064414756809376e+17
19163.0	4.8058848041588045e+17
19164.0	4.805008793709226e+17
19165.0	4.8040956112404474e+17
19166.0	4.803099804478123e+17
19167.0	4.802300063252479e+17
19168.0	4.8014228867863885e+17
19169.0	4.800529253269502e+17
19170.0	4.79965724278784e+17
19171.0	4.798743790485504e+17
19172.0	4.797875491263829e+17
19173.0	4.7969840373869216e+17
19174.0	4.7960388460871674e+17
19175.0	4.7951995826339834e+17
19176.0	4.794312669790207e+17
19177.0	4.793284513759232e+17
19178.0	4.7925206589986125e+17
19179.0	4.791608685188436e+17
19180.0	4.7907380986729805e+17
19181.0	4.7897438046562976e+17
19182.0	4.7889379733012486e+17
19183.0	4.7880795139167565e+17
19184.0	4.7871737861242874e+17
19185.0	4.786294806107477e+17
19186.0	4.7854092032846496e+17
19187.0	4.7844654611169274e+17
19188.0	4.7836281305388365e+17
19189.0	4.782742552881834e+17
19190.0	4.781851586942292e+17
19191.0	4.780938949033983e+17
19192.0	4.780076749728426e+17
19193.0	4.7791855880546976e+17
19194.0	4.778289797966506e+17
19195.0	4.7774100930341536e+17
19196.0	4.776507630507349e+17
19197.0	4.775626616253097e+17
19198.0	4.774744895258623e+17
19199.0	4.7718202790816416e+17
19200.0	4.771523406943573e+17
19201.0	4.772082244124671e+17
19202.0	4.7711962889803085e+17
19203.0	4.7703032496564896e+17
19204.0	4.7693978266501114e+17
19205.0	4.7685220301100365e+17
19206.0	4.767629046011221e+17
19207.0	4.766640547124564e+17
19208.0	4.7656724171762336e+17
19209.0	4.764974721269759e+17
19210.0	4.764091049923924e+17
19211.0	4.763211818947925e+17
19212.0	4.7623252122883405e+17
19213.0	4.761359429752149e+17
19214.0	4.760433446966613e+17
19215.0	4.75965689115443e+17
19216.0	4.758776475986602e+17
19217.0	4.7578920091211085e+17
19218.0	4.756242574606334e+17
19219.0	4.755994392046249e+17
19220.0	4.7552114965435725e+17
19221.0	4.754056464913749e+17
19222.0	4.7534412108485965e+17
19223.0	4.7525548146032634e+17
19224.0	4.751644457697279e+17
19225.0	4.7506617930874874e+17
19226.0	4.7498977544765434e+17
19227.0	4.7490107682324474e+17
19228.0	4.748144392798207e+17
19229.0	4.747258477499732e+17
19230.0	4.7463693416748365e+17
19231.0	4.745476760229204e+17
19232.0	4.7445900186528403e+17
19233.0	4.7436549419171834e+17
19234.0	4.742808518088019e+17
19235.0	4.741920044963157e+17
19236.0	4.741058260893696e+17
19237.0	4.7398966952372896e+17
19238.0	4.738779884202666e+17
19239.0	4.737976749086036e+17
19240.0	4.737059614883839e+17
19241.0	4.736177120739327e+17
19242.0	4.7353014500283725e+17
19243.0	4.7343029344447123e+17
19244.0	4.7335511802511354e+17
19245.0	4.7326618493911034e+17
19246.0	4.731764226392063e+17
19247.0	4.730889833545727e+17
19248.0	4.7300098468959565e+17
19249.0	4.729120569862825e+17
19250.0	4.7282200073557325e+17
19251.0	4.72722675212834e+17
19252.0	4.726247541527892e+17
19253.0	4.7255578979860474e+17
19254.0	4.7246897420697594e+17
19255.0	4.723666766004223e+17
19256.0	4.722874204028928e+17
19257.0	4.7220370978461005e+17
19258.0	4.7211502660922016e+17
19259.0	4.720209239037268e+17
19260.0	4.7192943578753696e+17
19261.0	4.7184786657116154e+17
19262.0	4.7175540593568416e+17
19263.0	4.7166433543236256e+17
19264.0	4.715317505469097e+17
19265.0	4.714742117564414e+17
19266.0	4.7138146353151994e+17
19267.0	4.713169362616319e+17
19268.0	4.7122757423813965e+17
19269.0	4.711390187094015e+17
19270.0	4.710500844350121e+17
19271.0	4.709298168223062e+17
19272.0	4.708697056651945e+17
19273.0	4.706681095192574e+17
19274.0	4.706141886655145e+17
19275.0	4.706062940766208e+17
19276.0	4.705155749860692e+17
19277.0	4.7042713941442554e+17
19278.0	4.7033824051199994e+17
19279.0	4.7024808583495674e+17
19280.0	4.70153368104687e+17
19281.0	4.700706312639829e+17
19282.0	4.699833207444819e+17
19283.0	4.698907281981438e+17
19284.0	4.6980186844255565e+17
19285.0	4.6969963389037216e+17
19286.0	4.6962335145437856e+17
19287.0	4.695371847215785e+17
19288.0	4.693376891529897e+17
19289.0	4.6914944235820346e+17
19290.0	4.692693073177258e+17
19291.0	4.6915784403845114e+17
19292.0	4.6909015629059405e+17
19293.0	4.6900017798403405e+17
19294.0	4.6891040687609165e+17
19295.0	4.688216420515839e+17
19296.0	4.687311349131945e+17
19297.0	4.6864108935796045e+17
19298.0	4.6855015139464525e+17
19299.0	4.6846228596872525e+17
19300.0	4.683719626806613e+17
19301.0	4.6828213914391885e+17
19302.0	4.681906024437076e+17
19303.0	4.680959843980628e+17
19304.0	4.680087630774271e+17
19305.0	4.679201175808681e+17
19306.0	4.678307559069013e+17
19307.0	4.6773667962552314e+17
19308.0	4.6764772689619616e+17
19309.0	4.6755104301602125e+17
19310.0	4.674570147594238e+17
19311.0	4.6737467099490976e+17
19312.0	4.672865546098004e+17
19313.0	4.6719624732999674e+17
19314.0	4.666113627521027e+17
19315.0	4.665451502108673e+17
19316.0	4.6692195921210016e+17
19317.0	4.668310480224255e+17
19318.0	4.667392327505237e+17
19319.0	4.666489711886336e+17
19320.0	4.665570525271381e+17
19321.0	4.664652196391594e+17
19322.0	4.663658729351849e+17
19323.0	4.662777702514687e+17
19324.0	4.661890396804437e+17
19325.0	4.6608931639787514e+17
19326.0	4.660039748943871e+17
19327.0	4.6590981780275194e+17
19328.0	4.65817505505826e+17
19329.0	4.657252424220671e+17
19330.0	4.6562855896132256e+17
19331.0	4.6553439047516154e+17
19332.0	4.6544415953169043e+17
19333.0	4.6535022648579405e+17
19334.0	4.652566082224127e+17
19335.0	4.651613603321173e+17
19336.0	4.650677169728171e+17
19337.0	4.6497267991620256e+17
19338.0	4.6485913940787194e+17
19339.0	4.6478259517740365e+17
19340.0	4.646740195366228e+17
19341.0	4.645849632778921e+17
19342.0	4.644608602537982e+17
19343.0	4.643986515252566e+17
19344.0	4.6430178987649696e+17
19345.0	4.640289748680701e+17
19346.0	4.640110139495763e+17
19347.0	4.6400365979675296e+17
19348.0	4.639130279477247e+17
19349.0	4.638114867139924e+17
19350.0	4.6371313056481274e+17
19351.0	4.6361340665309856e+17
19352.0	4.6350983118192634e+17
19353.0	4.634171502755838e+17
19354.0	4.6331705237176314e+17
19355.0	4.632075783809706e+17
19356.0	4.631147043968341e+17
19357.0	4.630130527830015e+17
19358.0	4.6290949891249485e+17
19359.0	4.628006706348031e+17
19360.0	4.626998671092394e+17
19361.0	4.625971194538666e+17
19362.0	4.624959684302166e+17
19363.0	4.6239050733977574e+17
19364.0	4.6228437662870176e+17
19365.0	4.6217812637996365e+17
19366.0	4.6207081560145914e+17
19367.0	4.619628305186815e+17
19368.0	4.618541523271679e+17
19369.0	4.6173857869987834e+17
19370.0	4.6162152497261216e+17
19371.0	4.615182766571519e+17
19372.0	4.6141042614162765e+17
19373.0	4.6129546851778554e+17
19374.0	4.611826930505045e+17
19375.0	4.610678321752745e+17
19376.0	4.60951937613824e+17
19377.0	4.6083362594488314e+17
19378.0	4.6071545772113914e+17
19379.0	4.60596075036672e+17
19380.0	4.604750932738047e+17
19381.0	4.603525839454206e+17
19382.0	4.6022330487057043e+17
19383.0	4.600940297104042e+17
19384.0	4.5997698933500576e+17
19385.0	4.598497573601279e+17
19386.0	4.5972060439401805e+17
19387.0	4.5958932701293216e+17
19388.0	4.594563017954646e+17
19389.0	4.593214563898709e+17
19390.0	4.591846935582038e+17
19391.0	4.587447923681959e+17
19392.0	4.5889033877149e+17
19393.0	4.5876241089167354e+17
19394.0	4.5861636914107725e+17
19395.0	4.5846877689610234e+17
19396.0	4.58319558938897e+17
19397.0	4.5816777155106125e+17
19398.0	4.5801116029419514e+17
19399.0	4.5778888007789216e+17
19400.0	4.5768604532080634e+17
19401.0	4.5753282438976845e+17
19402.0	4.5736842689686176e+17
19403.0	4.5719802476844365e+17
19404.0	4.570276952014847e+17
19405.0	4.5685125977647776e+17
19406.0	4.566585340242602e+17
19407.0	4.5641782368665594e+17
19408.0	4.561568504567125e+17
19409.0	4.5603895507244365e+17
19410.0	4.5584877141797536e+17
19411.0	4.5565124227891194e+17
19412.0	4.554493270862506e+17
19413.0	4.552426556227583e+17
19414.0	4.55027955003119e+17
19415.0	4.548135657406463e+17
19416.0	4.545648051355647e+17
19417.0	4.5424811693834234e+17
19418.0	4.5401810256527354e+17
19419.0	4.5377769323888634e+17
19420.0	4.5353069990379514e+17
19421.0	4.531770314369707e+17
19422.0	4.528472700136106e+17
19423.0	4.525726919994025e+17
19424.0	4.521012755081897e+17
19425.0	4.5177064355703443e+17
19426.0	4.511945426905769e+17
19427.0	4.5066425089392595e+17
19428.0	4.499932562063356e+17
19429.0	4.491621817122815e+17
19430.0	4.480846937456646e+17
19431.0	4.466064837924178e+17
19432.0	4.4484730894854803e+17
19433.0	4.438706445003434e+17
19434.0	4.4300519111393274e+17
19435.0	4.420175318570323e+17
19436.0	4.409503188866389e+17
19437.0	4.398599899884202e+17
19438.0	4.380861401137153e+17
19439.0	4.372201058162004e+17
19440.0	4.3572970351056186e+17
19441.0	4.338856681100626e+17
19442.0	4.3114834130807475e+17
19443.0	4.257237581867705e+17
19444.0	4.203516122540712e+17
19445.0	4.161364548736343e+17
19446.0	4.114131435126783e+17
19447.0	4.059997795953316e+17
19448.0	3.947353722934625e+17
19449.0	3.7839321557893037e+17
19450.0	3.286437106199194e+17
19451.0	3.101305805471725e+17
19452.0	3.587363652851043e+17
19453.0	3.8703923542534906e+17
19454.0	4.0154521364944096e+17
19455.0	4.083538939521707e+17
19456.0	4.131872789495809e+17
19457.0	4.174987477559976e+17
19458.0	4.204100473673056e+17
19459.0	4.277003414929432e+17
19460.0	4.313379703357435e+17
19461.0	4.3337413876340006e+17
19462.0	4.348373237410473e+17
19463.0	4.360858798915583e+17
19464.0	4.3725335853793274e+17
19465.0	4.3824676392140794e+17
19466.0	4.391480599423657e+17
19467.0	4.400244875154772e+17
19468.0	4.4076826623999994e+17
19469.0	4.413967250227197e+17
19470.0	4.426927755842898e+17
19471.0	4.4426634122144416e+17
19472.0	4.45236890374417e+17
19473.0	4.4603804123572883e+17
19474.0	4.466388058679978e+17
19475.0	4.4701854123513165e+17
19476.0	4.474165378329259e+17
19477.0	4.477011558924287e+17
19478.0	4.479495001429334e+17
19479.0	4.4815227978164896e+17
19480.0	4.4825714150604794e+17
19481.0	4.484704889733119e+17
19482.0	4.485920972253865e+17
19483.0	4.486718796682581e+17
19484.0	4.487419892072447e+17
19485.0	4.488191110632787e+17
19486.0	4.4897085608864416e+17
19487.0	4.490272429834239e+17
19488.0	4.490753371799551e+17
19489.0	4.490973639868415e+17
19490.0	4.4902395562775885e+17
19491.0	4.491837652511402e+17
19492.0	4.492156246949886e+17
19493.0	4.4923980450802336e+17
19494.0	4.492599877085866e+17
19495.0	4.492766216891051e+17
19496.0	4.4928706676435616e+17
19497.0	4.493676283691007e+17
19498.0	4.493097257227603e+17
19499.0	4.4890355750229325e+17
19500.0	4.49378207731985e+17
19501.0	4.493744535502847e+17
19502.0	4.493671948178772e+17
19503.0	4.4935835902716576e+17
19504.0	4.493462470656e+17
19505.0	4.4933137595105274e+17
19506.0	4.49315079262481e+17
19507.0	4.49293686284834e+17
19508.0	4.492742125507925e+17
19509.0	4.492505140341419e+17
19510.0	4.492048021323775e+17
19511.0	4.483497873899518e+17
19512.0	4.4907387979912525e+17
19513.0	4.4896842003688083e+17
19514.0	4.489869329257811e+17
19515.0	4.490217938135723e+17
19516.0	4.490238407737343e+17
19517.0	4.489810471987882e+17
19518.0	4.48946268938786e+17
19519.0	4.489034346790912e+17
19520.0	4.4885747824940365e+17
19521.0	4.4881563796985165e+17
19522.0	4.487666092823892e+17
19523.0	4.487217482650965e+17
19524.0	4.4867277326472525e+17
19525.0	4.486217713669461e+17
19526.0	4.485719560377685e+17
19527.0	4.4851935645969056e+17
19528.0	4.4846571229020154e+17
19529.0	4.484118479197525e+17
19530.0	4.4835764835450874e+17
19531.0	4.4830165949917856e+17
19532.0	4.4824479711013536e+17
19533.0	4.4818709907592525e+17
19534.0	4.4812824551096314e+17
19535.0	4.4806844878684154e+17
19536.0	4.480056200702634e+17
19537.0	4.4794859186640205e+17
19538.0	4.4787189377488205e+17
19539.0	4.47776652595473e+17
19540.0	4.4775995751792634e+17
19541.0	4.476987545834836e+17
19542.0	4.476346638008319e+17
19543.0	4.475699772172969e+17
19544.0	4.475054518348459e+17
19545.0	4.4738880348706125e+17
19546.0	4.472938243817472e+17
19547.0	4.473080927748095e+17
19548.0	4.4724055644132685e+17
19549.0	4.4716611670289056e+17
19550.0	4.4710612207752525e+17
19551.0	4.470382186725374e+17
19552.0	4.4696961062447776e+17
19553.0	4.468981573702997e+17
19554.0	4.468280610433706e+17
19555.0	4.467606276800511e+17
19556.0	4.466920861117098e+17
19557.0	4.4662144878946976e+17
19558.0	4.465510383790762e+17
19559.0	4.464800762778964e+17
19560.0	4.464068239469225e+17
19561.0	4.463353581797375e+17
19562.0	4.4626608694231034e+17
19563.0	4.4619436385457485e+17
19564.0	4.461222257404587e+17
19565.0	4.460498455450963e+17
19566.0	4.45974515425826e+17
19567.0	4.459041721242964e+17
19568.0	4.458291576264021e+17
19569.0	4.4575612207103994e+17
19570.0	4.4568466567113376e+17
19571.0	4.4561025312576845e+17
19572.0	4.455348612803242e+17
19573.0	4.4546087221985274e+17
19574.0	4.453818307706878e+17
19575.0	4.4531459740576416e+17
19576.0	4.45239998423586e+17
19577.0	4.4516224868024314e+17
19578.0	4.4508656714820256e+17
19579.0	4.450135517254997e+17
19580.0	4.4493830045914445e+17
19581.0	4.44864326078737e+17
19582.0	4.4479053205340154e+17
19583.0	4.4471512056463354e+17
19584.0	4.44638328520704e+17
19585.0	4.4455458190131194e+17
19586.0	4.4447581378095776e+17
19587.0	4.4441085177146016e+17
19588.0	4.44291642102033e+17
19589.0	4.442581502350677e+17
19590.0	4.441737115555157e+17
19591.0	4.441071099925845e+17
19592.0	4.4403120063993165e+17
19593.0	4.4395330416585376e+17
19594.0	4.4385910191554554e+17
19595.0	4.4379656959645e+17
19596.0	4.437112840869206e+17
19597.0	4.4364628055381325e+17
19598.0	4.4352803193924256e+17
19599.0	4.434942910704297e+17
19600.0	4.4341813299554976e+17
19601.0	4.4333499154431994e+17
19602.0	4.432607601928874e+17
19603.0	4.4315064594158925e+17
19604.0	4.431072641155072e+17
19605.0	4.4300966391971834e+17
19606.0	4.429576188985344e+17
19607.0	4.4288107599626234e+17
19608.0	4.428018785189887e+17
19609.0	4.427216045735934e+17
19610.0	4.426484593371819e+17
19611.0	4.425702141766313e+17
19612.0	4.424936580623018e+17
19613.0	4.424151620124672e+17
19614.0	4.423350263392938e+17
19615.0	4.422606578341206e+17
19616.0	4.4218033299783674e+17
19617.0	4.4210400239725216e+17
19618.0	4.4197033691927885e+17
19619.0	4.418819778936831e+17
19620.0	4.418085699540309e+17
19621.0	4.417936840895146e+17
19622.0	4.417162339592875e+17
19623.0	4.416383181914112e+17
19624.0	4.4155954552722765e+17
19625.0	4.4148238746036896e+17
19626.0	4.414044044438185e+17
19627.0	4.4132631300450976e+17
19628.0	4.4124317490872314e+17
19629.0	4.4116134732322125e+17
19630.0	4.4106863572855443e+17
19631.0	4.407865047515136e+17
19632.0	4.409356134470997e+17
19633.0	4.408546010245802e+17
19634.0	4.4077956520564045e+17
19635.0	4.406982904993108e+17
19636.0	4.406222184076629e+17
19637.0	4.405152824601257e+17
19638.0	4.4046571536383994e+17
19639.0	4.403871698212181e+17
19640.0	4.402918976039594e+17
19641.0	4.4013373494394874e+17
19642.0	4.4015317945767245e+17
19643.0	4.4007452744963405e+17
19644.0	4.399910933757951e+17
19645.0	4.398930964687529e+17
19646.0	4.3984042439912096e+17
19647.0	4.397626176831487e+17
19648.0	4.396843718235476e+17
19649.0	4.3960582397405856e+17
19650.0	4.3952775469465594e+17
19651.0	4.3944896063952205e+17
19652.0	4.393708483685034e+17
19653.0	4.3929261739868154e+17
19654.0	4.3921378370737485e+17
19655.0	4.391350433393323e+17
