# Flux units: erg / (cm m2 s)
# Wavelength units: Angstrom
wave	flux
19000.0	8.250673270008489e+17
19001.0	8.248870411348649e+17
19002.0	8.247722236007764e+17
19003.0	8.246232996642815e+17
19004.0	8.244759694234964e+17
19005.0	8.243264141044392e+17
19006.0	8.241786447200255e+17
19007.0	8.240195045774676e+17
19008.0	8.238611442958333e+17
19009.0	8.237085457296041e+17
19010.0	8.234422093829459e+17
19011.0	8.234248540520447e+17
19012.0	8.232419415730856e+17
19013.0	8.231339074868564e+17
19014.0	8.229636160880636e+17
19015.0	8.228236507654826e+17
19016.0	8.226721590760787e+17
19017.0	8.225219620285097e+17
19018.0	8.223821978927103e+17
19019.0	8.222332634704554e+17
19020.0	8.22074718359825e+17
19021.0	8.219332335807145e+17
19022.0	8.217850943984982e+17
19023.0	8.216210599226025e+17
19024.0	8.214787301310461e+17
19025.0	8.213325570987347e+17
19026.0	8.211745639585106e+17
19027.0	8.210144401118548e+17
19028.0	8.2088095135389e+17
19029.0	8.207248885721769e+17
19030.0	8.205825680080893e+17
19031.0	8.20433385422848e+17
19032.0	8.202814664736767e+17
19033.0	8.20099805295411e+17
19034.0	8.199719791274664e+17
19035.0	8.198112687773011e+17
19036.0	8.182113874477052e+17
19037.0	8.195164958883837e+17
19038.0	8.193629285777407e+17
19039.0	8.192178924814335e+17
19040.0	8.190678822202026e+17
19041.0	8.189130921301331e+17
19042.0	8.187330980478975e+17
19043.0	8.186118502263466e+17
19044.0	8.184549726311764e+17
19045.0	8.183059501285373e+17
19046.0	8.181337494825642e+17
19047.0	8.179962761357994e+17
19048.0	8.177823909587625e+17
19049.0	8.176721499695785e+17
19050.0	8.175258095845375e+17
19051.0	8.171354110383441e+17
19052.0	8.171957015019519e+17
19053.0	8.17080728638805e+17
19054.0	8.169301356489382e+17
19055.0	8.166933074892119e+17
19056.0	8.166156331734356e+17
19057.0	8.164685536122195e+17
19058.0	8.163103787188224e+17
19059.0	8.161634125436243e+17
19060.0	8.160038970108585e+17
19061.0	8.158584892992169e+17
19062.0	8.157024927875072e+17
19063.0	8.155502774408532e+17
19064.0	8.153537973671254e+17
19065.0	8.151804746050218e+17
19066.0	8.150676672610301e+17
19067.0	8.149305730793472e+17
19068.0	8.147814383091711e+17
19069.0	8.146274591178751e+17
19070.0	8.14463315869696e+17
19071.0	8.143167127814144e+17
19072.0	8.141653231534079e+17
19073.0	8.14008160764996e+17
19074.0	8.138570820747263e+17
19075.0	8.137027142112596e+17
19076.0	8.135415005446143e+17
19077.0	8.133901172080637e+17
19078.0	8.132246309437437e+17
19079.0	8.13083282060083e+17
19080.0	8.129240959199914e+17
19081.0	8.127601714746708e+17
19082.0	8.12604881703185e+17
19083.0	8.124223750930431e+17
19084.0	8.122248545523028e+17
19085.0	8.121508122241705e+17
19086.0	8.118636092151123e+17
19087.0	8.118027383996412e+17
19088.0	8.116565311138476e+17
19089.0	8.114491339658579e+17
19090.0	8.113669439225855e+17
19091.0	8.112141575913471e+17
19092.0	8.11040452588339e+17
19093.0	8.109131634311167e+17
19094.0	8.107580242351446e+17
19095.0	8.10602445615923e+17
19096.0	8.104434771602089e+17
19097.0	8.102926653674838e+17
19098.0	8.101364005601279e+17
19099.0	8.099803232381609e+17
19100.0	8.098234294250153e+17
19101.0	8.096697827022164e+17
19102.0	8.094871394975743e+17
19103.0	8.093571313128787e+17
19104.0	8.092038499139583e+17
19105.0	8.090463205239464e+17
19106.0	8.088840617765548e+17
19107.0	8.087286762351272e+17
19108.0	8.085778650016424e+17
19109.0	8.08277139276868e+17
19110.0	8.082573592188244e+17
19111.0	8.081110852435969e+17
19112.0	8.079555085817172e+17
19113.0	8.07799434195763e+17
19114.0	8.076411389258409e+17
19115.0	8.074690418791763e+17
19116.0	8.073220771020799e+17
19117.0	8.071646974487209e+17
19118.0	8.069849896976383e+17
19119.0	8.061211815968758e+17
19120.0	8.066848708886525e+17
19121.0	8.065376681547091e+17
19122.0	8.063910703792127e+17
19123.0	8.062332851366569e+17
19124.0	8.060680762556416e+17
19125.0	8.059180904611839e+17
19126.0	8.057603045195773e+17
19127.0	8.050733944056488e+17
19128.0	8.053688857788415e+17
19129.0	8.052619592684883e+17
19130.0	8.051286255599617e+17
19131.0	8.049749403893757e+17
19132.0	8.048187738685437e+17
19133.0	8.045792416410281e+17
19134.0	8.04469661114914e+17
19135.0	8.043470228815871e+17
19136.0	8.041918709628925e+17
19137.0	8.039838051030356e+17
19138.0	8.038705888144041e+17
19139.0	8.037190013550591e+17
19140.0	8.035621680797011e+17
19141.0	8.03404560535825e+17
19142.0	8.032386173719892e+17
19143.0	8.030705235088722e+17
19144.0	8.029173412353363e+17
19145.0	8.027711761722025e+17
19146.0	8.024209659090263e+17
19147.0	8.024278104539135e+17
19148.0	8.022970786119679e+17
19149.0	8.021379030974463e+17
19150.0	8.01979717858099e+17
19151.0	8.0182188717725e+17
19152.0	8.016618532285098e+17
19153.0	8.015003311407103e+17
19154.0	8.01307852992239e+17
19155.0	8.01189453382724e+17
19156.0	8.01029166936883e+17
19157.0	8.008616625132884e+17
19158.0	8.006206301230419e+17
19159.0	8.00543898686805e+17
19160.0	8.003877949407231e+17
19161.0	8.002248437137407e+17
19162.0	7.99848169209856e+17
19163.0	7.999025610839379e+17
19164.0	7.997582568936787e+17
19165.0	7.995939894941012e+17
19166.0	7.99405387301956e+17
19167.0	7.992595054941522e+17
19168.0	7.991027969294336e+17
19169.0	7.989490001903612e+17
19170.0	7.98801576276787e+17
19171.0	7.986308462936063e+17
19172.0	7.984800480624639e+17
19173.0	7.9832274726202e+17
19174.0	7.981447718982995e+17
19175.0	7.980035667394557e+17
19176.0	7.978411856581972e+17
19177.0	7.976331697105577e+17
19178.0	7.975153972893014e+17
19179.0	7.97345951322385e+17
19180.0	7.971922079907839e+17
19181.0	7.970100921499647e+17
19182.0	7.968701866661203e+17
19183.0	7.967179847412394e+17
19184.0	7.965415567960745e+17
19185.0	7.963915161960445e+17
19186.0	7.962349475812692e+17
19187.0	7.960456466180777e+17
19188.0	7.959108124671999e+17
19189.0	7.957480228607315e+17
19190.0	7.955850769465343e+17
19191.0	7.954146441996969e+17
19192.0	7.952643319485779e+17
19193.0	7.950961406377983e+17
19194.0	7.949323606163455e+17
19195.0	7.947603979272191e+17
19196.0	7.94532069524548e+17
19197.0	7.943668416293544e+17
19198.0	7.941779154971305e+17
19199.0	7.926989998522364e+17
19200.0	7.928915220409006e+17
19201.0	7.936945448899923e+17
19202.0	7.93556556063266e+17
19203.0	7.933965555291475e+17
19204.0	7.932306984883539e+17
19205.0	7.930713972845225e+17
19206.0	7.929029748675926e+17
19207.0	7.927060857094143e+17
19208.0	7.925158811533311e+17
19209.0	7.924060693812563e+17
19210.0	7.922428729273004e+17
19211.0	7.920831562077526e+17
19212.0	7.91917714542865e+17
19213.0	7.917192343453693e+17
19214.0	7.915435341119488e+17
19215.0	7.914183036589394e+17
19216.0	7.912563759819433e+17
19217.0	7.910902095413247e+17
19218.0	7.906706039592271e+17
19219.0	7.907044169001641e+17
19220.0	7.905869837981014e+17
19221.0	7.903265755409068e+17
19222.0	7.902605359448063e+17
19223.0	7.900882670714879e+17
19224.0	7.89910637458227e+17
19225.0	7.897143977181183e+17
19226.0	7.895860506176169e+17
19227.0	7.894181021570387e+17
19228.0	7.892604762980351e+17
19229.0	7.890933139898365e+17
19230.0	7.889190740732585e+17
19231.0	7.8874941601437e+17
19232.0	7.885825965206188e+17
19233.0	7.883948509451603e+17
19234.0	7.882412310659071e+17
19235.0	7.880671989071872e+17
19236.0	7.879109052989437e+17
19237.0	7.877349571821567e+17
19238.0	7.875404861800445e+17
19239.0	7.87401089045845e+17
19240.0	7.871992513079977e+17
19241.0	7.87040676417809e+17
19242.0	7.868812312095402e+17
19243.0	7.866547685730982e+17
19244.0	7.865451972744531e+17
19245.0	7.863710720021844e+17
19246.0	7.861947908576594e+17
19247.0	7.860248615671126e+17
19248.0	7.858550315417597e+17
19249.0	7.856806842509993e+17
19250.0	7.855006833180671e+17
19251.0	7.852908755637586e+17
19252.0	7.850586018589353e+17
19253.0	7.849767153434621e+17
19254.0	7.848040893950633e+17
19255.0	7.845687770568019e+17
19256.0	7.844317225811967e+17
19257.0	7.841758482268157e+17
19258.0	7.839997658923007e+17
19259.0	7.83797965483759e+17
19260.0	7.836167266719059e+17
19261.0	7.834625910330708e+17
19262.0	7.832691996448083e+17
19263.0	7.830921036868264e+17
19264.0	7.827714585133055e+17
19265.0	7.826949502140415e+17
19266.0	7.825308024919379e+17
19267.0	7.823916880538278e+17
19268.0	7.822081766282579e+17
19269.0	7.820278977527807e+17
19270.0	7.818460825037481e+17
19271.0	7.81562398375936e+17
19272.0	7.814669499979092e+17
19273.0	7.804297671256737e+17
19274.0	7.805969188083022e+17
19275.0	7.809281498458794e+17
19276.0	7.807383002677248e+17
19277.0	7.805541187321855e+17
19278.0	7.803691346864812e+17
19279.0	7.801735788975444e+17
19280.0	7.799690867245053e+17
19281.0	7.798047636804948e+17
19282.0	7.796207605426858e+17
19283.0	7.794148561474899e+17
19284.0	7.791383261042003e+17
19285.0	7.788484892120403e+17
19286.0	7.787048480014335e+17
19287.0	7.785260748810921e+17
19288.0	7.779387023119695e+17
19289.0	7.772144072480069e+17
19290.0	7.779459914530816e+17
19291.0	7.776636181850796e+17
19292.0	7.775555551581523e+17
19293.0	7.773564328127144e+17
19294.0	7.771571171098621e+17
19295.0	7.76962574245342e+17
19296.0	7.767609937581395e+17
19297.0	7.765540688887807e+17
19298.0	7.763512919064573e+17
19299.0	7.761589464378024e+17
19300.0	7.759559625364819e+17
19301.0	7.756602372609364e+17
19302.0	7.753530204312915e+17
19303.0	7.751260595115348e+17
19304.0	7.74929911067443e+17
19305.0	7.747280656400381e+17
19306.0	7.745206950559745e+17
19307.0	7.74295106232866e+17
19308.0	7.740890867739305e+17
19309.0	7.738403462316032e+17
19310.0	7.735997192907433e+17
19311.0	7.734403048407039e+17
19312.0	7.732342342112594e+17
19313.0	7.728576996573187e+17
19314.0	7.719386218146473e+17
19315.0	7.717477867148636e+17
19316.0	7.721106242098515e+17
19317.0	7.718877872695977e+17
19318.0	7.716600358633472e+17
19319.0	7.714372280036012e+17
19320.0	7.712071939173034e+17
19321.0	7.709762995792553e+17
19322.0	7.704721482929492e+17
19323.0	7.701888188634451e+17
19324.0	7.69968851526178e+17
19325.0	7.697018931642367e+17
19326.0	7.694897523982335e+17
19327.0	7.692464123019261e+17
19328.0	7.690072919550633e+17
19329.0	7.685211557636773e+17
19330.0	7.681284896369321e+17
19331.0	7.6785678038685e+17
19332.0	7.676155855372287e+17
19333.0	7.673546896222889e+17
19334.0	7.670986293204308e+17
19335.0	7.664634569250131e+17
19336.0	7.66143861026543e+17
19337.0	7.658745149871446e+17
19338.0	7.65541397771059e+17
19339.0	7.65327377817054e+17
19340.0	7.647880231780348e+17
19341.0	7.645179671827794e+17
19342.0	7.641245478988457e+17
19343.0	7.639526045035177e+17
19344.0	7.63660073050658e+17
19345.0	7.62839713185791e+17
19346.0	7.628569702301692e+17
19347.0	7.627681963879081e+17
19348.0	7.624856108881234e+17
19349.0	7.621692490776575e+17
19350.0	7.618607571795968e+17
19351.0	7.615424833257471e+17
19352.0	7.612130492678143e+17
19353.0	7.609151602906451e+17
19354.0	7.605742184606377e+17
19355.0	7.601749142885715e+17
19356.0	7.598708922602834e+17
19357.0	7.595330532365651e+17
19358.0	7.591833838987945e+17
19359.0	7.58805066625843e+17
19360.0	7.58484469686818e+17
19361.0	7.581333879870803e+17
19362.0	7.577869481235796e+17
19363.0	7.574237876671825e+17
19364.0	7.570555927876948e+17
19365.0	7.56681574256913e+17
19366.0	7.562804814938108e+17
19367.0	7.558267461610154e+17
19368.0	7.554373781553151e+17
19369.0	7.550139268158803e+17
19370.0	7.545519238108499e+17
19371.0	7.542118490832896e+17
19372.0	7.538090623806121e+17
19373.0	7.533765246408022e+17
19374.0	7.528560612868092e+17
19375.0	7.523701455760042e+17
19376.0	7.519226775120553e+17
19377.0	7.514632433784147e+17
19378.0	7.510007486611455e+17
19379.0	7.505008797592232e+17
19380.0	7.498516431634432e+17
19381.0	7.493571663189332e+17
19382.0	7.488327874423464e+17
19383.0	7.483113676472319e+17
19384.0	7.475668289148242e+17
19385.0	7.4702149152058e+17
19386.0	7.464721976393727e+17
19387.0	7.456976721499475e+17
19388.0	7.449975273291775e+17
19389.0	7.443983772942335e+17
19390.0	7.433924607213565e+17
19391.0	7.417153189139781e+17
19392.0	7.417059263294121e+17
19393.0	7.409512545779711e+17
19394.0	7.3980785487162e+17
19395.0	7.38964310991394e+17
19396.0	7.37602656482099e+17
19397.0	7.365639292671314e+17
19398.0	7.353202657023316e+17
19399.0	7.340077857723731e+17
19400.0	7.332689633170774e+17
19401.0	7.324458522684072e+17
19402.0	7.315773311680511e+17
19403.0	7.30668662329617e+17
19404.0	7.297190714845866e+17
19405.0	7.287644466358952e+17
19406.0	7.277960873989459e+17
19407.0	7.268035552695635e+17
19408.0	7.256247993980247e+17
19409.0	7.24721217970722e+17
19410.0	7.236162410250239e+17
19411.0	7.22472138772753e+17
19412.0	7.213213998732628e+17
19413.0	7.201351399724371e+17
19414.0	7.188248498885972e+17
19415.0	7.17531195253282e+17
19416.0	7.161483599282177e+17
19417.0	7.146977681386152e+17
19418.0	7.132610429976575e+17
19419.0	7.116365125823145e+17
19420.0	7.10003206005282e+17
19421.0	7.082693674139647e+17
19422.0	7.063344259268603e+17
19423.0	7.043033642041343e+17
19424.0	7.020616582430717e+17
19425.0	6.996232206199462e+17
19426.0	6.969640697025875e+17
19427.0	6.939849807713615e+17
19428.0	6.90916874378718e+17
19429.0	6.882529642545151e+17
19430.0	6.856785500220076e+17
19431.0	6.828936609311405e+17
19432.0	6.801916804377257e+17
19433.0	6.771492129166679e+17
19434.0	6.738562405193046e+17
19435.0	6.702316387652946e+17
19436.0	6.662752083552938e+17
19437.0	6.621282582571689e+17
19438.0	6.568726005197482e+17
19439.0	6.524475268923395e+17
19440.0	6.468983761578666e+17
19441.0	6.409774335087953e+17
19442.0	6.347158899567276e+17
19443.0	6.279836880338943e+17
19444.0	6.205033860650321e+17
19445.0	6.12210014141372e+17
19446.0	6.030009184900435e+17
19447.0	5.928085628474703e+17
19448.0	5.815138096862554e+17
19449.0	5.687947803579732e+17
19450.0	5.5244466823713894e+17
19451.0	5.438073875726349e+17
19452.0	5.611615581197653e+17
19453.0	5.751802788752046e+17
19454.0	5.868561862666917e+17
19455.0	5.973484857458687e+17
19456.0	6.067943072159064e+17
19457.0	6.152950850955942e+17
19458.0	6.225899167591087e+17
19459.0	6.297425197836974e+17
19460.0	6.35980547061623e+17
19461.0	6.418198942799188e+17
19462.0	6.473102993129475e+17
19463.0	6.524047503742292e+17
19464.0	6.569708613883219e+17
19465.0	6.61071722586658e+17
19466.0	6.648352452815529e+17
19467.0	6.683534392208042e+17
19468.0	6.715203954322092e+17
19469.0	6.743799328582312e+17
19470.0	6.770932290945023e+17
19471.0	6.79586837753583e+17
19472.0	6.81918141248307e+17
19473.0	6.84197051804331e+17
19474.0	6.8688689551988e+17
19475.0	6.894888362704892e+17
19476.0	6.921126792571562e+17
19477.0	6.944190174156116e+17
19478.0	6.965039214187862e+17
19479.0	6.983704985468922e+17
19480.0	7.000544686811817e+17
19481.0	7.015268462450003e+17
19482.0	7.030279348682751e+17
19483.0	7.043183503125165e+17
19484.0	7.056022308913151e+17
19485.0	7.067450001937748e+17
19486.0	7.079063276137132e+17
19487.0	7.089266865733632e+17
19488.0	7.099771639911764e+17
19489.0	7.109073118603945e+17
19490.0	7.11537810962295e+17
19491.0	7.126544778526719e+17
19492.0	7.135405087741268e+17
19493.0	7.143253311400616e+17
19494.0	7.15078941872401e+17
19495.0	7.158030460955306e+17
19496.0	7.164275400725844e+17
19497.0	7.17171466576418e+17
19498.0	7.177462204421462e+17
19499.0	7.169673025377612e+17
19500.0	7.190970758769322e+17
19501.0	7.196629585100799e+17
19502.0	7.202059050112338e+17
19503.0	7.210151831055016e+17
19504.0	7.217616829546502e+17
19505.0	7.228441961867944e+17
19506.0	7.236302220383567e+17
19507.0	7.24363596791808e+17
19508.0	7.251866369567396e+17
19509.0	7.257139545025193e+17
19510.0	7.263930739763878e+17
19511.0	7.255419112827555e+17
19512.0	7.2720060542266e+17
19513.0	7.273948566432417e+17
19514.0	7.27893215595724e+17
19515.0	7.28688731759138e+17
19516.0	7.291103852800681e+17
19517.0	7.293566913085437e+17
19518.0	7.297419915384147e+17
19519.0	7.300901868579498e+17
19520.0	7.303024699506688e+17
19521.0	7.30520975712802e+17
19522.0	7.307683097651884e+17
19523.0	7.310951001533098e+17
19524.0	7.312744429999446e+17
19525.0	7.314388709015551e+17
19526.0	7.316080717813076e+17
19527.0	7.317620530697556e+17
19528.0	7.320026307974484e+17
19529.0	7.321803697422335e+17
19530.0	7.323170221238952e+17
19531.0	7.32445102187042e+17
19532.0	7.325627041797462e+17
19533.0	7.326730301734911e+17
19534.0	7.32775032570948e+17
19535.0	7.328671322166612e+17
19536.0	7.330361588929875e+17
19537.0	7.331384994911572e+17
19538.0	7.331942142487212e+17
19539.0	7.331514597507073e+17
19540.0	7.333594701059412e+17
19541.0	7.33434225186133e+17
19542.0	7.334950869139455e+17
19543.0	7.335523650284202e+17
19544.0	7.33606521881668e+17
19545.0	7.335302460866555e+17
19546.0	7.334607323485526e+17
19547.0	7.337439855815338e+17
19548.0	7.338057265752745e+17
19549.0	7.338355426241193e+17
19550.0	7.338981953197395e+17
19551.0	7.33925790204996e+17
19552.0	7.33948666917683e+17
19553.0	7.339606420750333e+17
19554.0	7.339698861812393e+17
19555.0	7.339878808638804e+17
19556.0	7.339989840254291e+17
19557.0	7.340025960202237e+17
19558.0	7.340030610287272e+17
19559.0	7.33999391711778e+17
19560.0	7.339877165869738e+17
19561.0	7.339797500657663e+17
19562.0	7.34036886832196e+17
19563.0	7.341948349535572e+17
19564.0	7.341766382452735e+17
19565.0	7.34156164169728e+17
19566.0	7.3412467766941e+17
19567.0	7.34232082190609e+17
19568.0	7.344621375280467e+17
19569.0	7.344340094069416e+17
19570.0	7.344058477314047e+17
19571.0	7.343688823515816e+17
19572.0	7.343194724717908e+17
19573.0	7.34387268222976e+17
19574.0	7.34557489017651e+17
19575.0	7.345527479162195e+17
19576.0	7.345050231679658e+17
19577.0	7.344478067097599e+17
19578.0	7.343918163864233e+17
19579.0	7.343417983325523e+17
19580.0	7.342876493086719e+17
19581.0	7.344861317431293e+17
19582.0	7.344493124648957e+17
19583.0	7.343885561539241e+17
19584.0	7.343248223065428e+17
19585.0	7.342266511261693e+17
19586.0	7.341512425734143e+17
19587.0	7.341211210394281e+17
19588.0	7.339248576714068e+17
19589.0	7.33983622107409e+17
19590.0	7.340404406659756e+17
19591.0	7.340599123028649e+17
19592.0	7.339879851622399e+17
19593.0	7.339059136779604e+17
19594.0	7.337595154115241e+17
19595.0	7.337465067776681e+17
19596.0	7.335015046184961e+17
19597.0	7.335915048752467e+17
19598.0	7.334375948899667e+17
19599.0	7.334345693986815e+17
19600.0	7.333535537605289e+17
19601.0	7.332484699477331e+17
19602.0	7.331701277589503e+17
19603.0	7.331273373297318e+17
19604.0	7.331566289507668e+17
19605.0	7.329905069697706e+17
19606.0	7.329958489751551e+17
19607.0	7.329076208118441e+17
19608.0	7.328123813101565e+17
19609.0	7.327085741036884e+17
19610.0	7.326335779908266e+17
19611.0	7.325379865870335e+17
19612.0	7.32447262253602e+17
19613.0	7.323486977873236e+17
19614.0	7.322427748341076e+17
19615.0	7.321602368034131e+17
19616.0	7.320526898156884e+17
19617.0	7.31964450607377e+17
19618.0	7.317024896188411e+17
19619.0	7.315648055782053e+17
19620.0	7.314712916131837e+17
19621.0	7.315929353770326e+17
19622.0	7.3158911604381e+17
19623.0	7.314883206272339e+17
19624.0	7.313826136806739e+17
19625.0	7.312831198964393e+17
19626.0	7.31175818834739e+17
19627.0	7.310747022742867e+17
19628.0	7.309353486210387e+17
19629.0	7.308334034059261e+17
19630.0	7.306470356593322e+17
19631.0	7.292133771138387e+17
19632.0	7.305380592528041e+17
19633.0	7.304245036449791e+17
19634.0	7.303340073418752e+17
19635.0	7.302125106582867e+17
19636.0	7.3011509095738e+17
19637.0	7.298720019600726e+17
19638.0	7.298983628810921e+17
19639.0	7.297866733191168e+17
19640.0	7.296554339663871e+17
19641.0	7.29404360412365e+17
19642.0	7.294577153146879e+17
19643.0	7.293445190189055e+17
19644.0	7.292191402273449e+17
19645.0	7.290464991794514e+17
19646.0	7.290159404591785e+17
19647.0	7.289037415688874e+17
19648.0	7.287894241356458e+17
19649.0	7.286755062797651e+17
19650.0	7.285646189483348e+17
19651.0	7.28448685449762e+17
19652.0	7.283335950062931e+17
19653.0	7.282219550769152e+17
19654.0	7.28136764428561e+17
19655.0	7.280739379489449e+17
19656.0	7.279612315478697e+17
19657.0	7.278456805698217e+17
19658.0	7.2773153090874e+17
19659.0	7.276146300638548e+17
19660.0	7.274995017318399e+17
19661.0	7.273817151897599e+17
19662.0	7.272655017913002e+17
19663.0	7.271325774468436e+17
19664.0	7.270227171606527e+17
19665.0	7.269127613841407e+17
19666.0	7.267899622293501e+17
