# Flux units: erg / (cm m2 s)
# Wavelength units: Angstrom
wave	flux
19000.0	6.268561978818559e+17
19001.0	6.267324029293908e+17
19002.0	6.266226746239657e+17
19003.0	6.265050660601855e+17
19004.0	6.263876179984383e+17
19005.0	6.262722310176768e+17
19006.0	6.261554001477631e+17
19007.0	6.260211229305514e+17
19008.0	6.259174560235519e+17
19009.0	6.257967858275668e+17
19010.0	6.256565124333567e+17
19011.0	6.255644055175167e+17
19012.0	6.253954402877437e+17
19013.0	6.253368674615293e+17
19014.0	6.25216164340258e+17
19015.0	6.251007626095273e+17
19016.0	6.249829019680768e+17
19017.0	6.24869341466897e+17
19018.0	6.24749347742242e+17
19019.0	6.246356168125098e+17
19020.0	6.245174860578813e+17
19021.0	6.24402200928802e+17
19022.0	6.242864670790995e+17
19023.0	6.24166866850065e+17
19024.0	6.240505625051133e+17
19025.0	6.239297245369684e+17
19026.0	6.238113852555263e+17
19027.0	6.236483470666409e+17
19028.0	6.235850947253588e+17
19029.0	6.234676006660777e+17
19030.0	6.233523568508927e+17
19031.0	6.232357663145981e+17
19032.0	6.231187415979348e+17
19033.0	6.229958264007337e+17
19034.0	6.228844109365247e+17
19035.0	6.227609873896788e+17
19036.0	6.189598575864493e+17
19037.0	6.225336549244927e+17
19038.0	6.224169119951529e+17
19039.0	6.223021387109716e+17
19040.0	6.22185546846481e+17
19041.0	6.22068742890018e+17
19042.0	6.2194359730176e+17
19043.0	6.218358525526015e+17
19044.0	6.217186834120704e+17
19045.0	6.216007756546047e+17
19046.0	6.214823601067348e+17
19047.0	6.213676853886976e+17
19048.0	6.212385560505001e+17
19049.0	6.211304698849962e+17
19050.0	6.210216977410729e+17
19051.0	6.203933933087396e+17
19052.0	6.206688496801107e+17
19053.0	6.206709123689129e+17
19054.0	6.205586301517823e+17
19055.0	6.204238276678996e+17
19056.0	6.203241562548906e+17
19057.0	6.202083464183807e+17
19058.0	6.200856295418537e+17
19059.0	6.19975413928209e+17
19060.0	6.198584624720553e+17
19061.0	6.197436801002153e+17
19062.0	6.196269103972351e+17
19063.0	6.195106345735508e+17
19064.0	6.193861382635519e+17
19065.0	6.192658301758122e+17
19066.0	6.191568647443796e+17
19067.0	6.19045060677905e+17
19068.0	6.189289870895785e+17
19069.0	6.188126742162089e+17
19070.0	6.18694707388962e+17
19071.0	6.185785328577193e+17
19072.0	6.184622794735615e+17
19073.0	6.183472337693353e+17
19074.0	6.182313677291519e+17
19075.0	6.18115134267938e+17
19076.0	6.179975031248212e+17
19077.0	6.178815468371968e+17
19078.0	6.177645927246506e+17
19079.0	6.176501478544724e+17
19080.0	6.175328436573524e+17
19081.0	6.174152238388564e+17
19082.0	6.172987761186131e+17
19083.0	6.171781449995604e+17
19084.0	6.170534894458195e+17
19085.0	6.169532316691114e+17
19086.0	6.168074347959636e+17
19087.0	6.166150027149312e+17
19088.0	6.165932762901161e+17
19089.0	6.164219061163348e+17
19090.0	6.163699574243327e+17
19091.0	6.16254394212898e+17
19092.0	6.161111018984788e+17
19093.0	6.160251369117012e+17
19094.0	6.159090883493887e+17
19095.0	6.157930754386601e+17
19096.0	6.156759122400595e+17
19097.0	6.155612923275945e+17
19098.0	6.154447118576297e+17
19099.0	6.153285942291116e+17
19100.0	6.152081544402259e+17
19101.0	6.150959380736681e+17
19102.0	6.149750977986559e+17
19103.0	6.148666160403795e+17
19104.0	6.147507941102934e+17
19105.0	6.146325791200596e+17
19106.0	6.144991857825108e+17
19107.0	6.144014811485524e+17
19108.0	6.14286332404258e+17
19109.0	6.138773505048572e+17
19110.0	6.140431379901097e+17
19111.0	6.139386682234195e+17
19112.0	6.138239061240489e+17
19113.0	6.137093512232959e+17
19114.0	6.135935090906452e+17
19115.0	6.134670294340948e+17
19116.0	6.133608705512788e+17
19117.0	6.132449532007764e+17
19118.0	6.131072293142527e+17
19119.0	6.126810439177553e+17
19120.0	6.12869722096708e+17
19121.0	6.127616990554794e+17
19122.0	6.126691550931625e+17
19123.0	6.125535816755882e+17
19124.0	6.124213262527146e+17
19125.0	6.123191373485396e+17
19126.0	6.122059153276927e+17
19127.0	6.119662128813396e+17
19128.0	6.118665939670355e+17
19129.0	6.118555124061524e+17
19130.0	6.117438398311082e+17
19131.0	6.116265006115497e+17
19132.0	6.115144617339562e+17
19133.0	6.113707186716671e+17
19134.0	6.112365995797162e+17
19135.0	6.111671790949716e+17
19136.0	6.11053489688849e+17
19137.0	6.109267282449748e+17
19138.0	6.108174402715647e+17
19139.0	6.107074193435306e+17
19140.0	6.105924393500671e+17
19141.0	6.104771800159572e+17
19142.0	6.103592744255487e+17
19143.0	6.102429494586025e+17
19144.0	6.10128826920687e+17
19145.0	6.100153936467284e+17
19146.0	6.098581108118868e+17
19147.0	6.09777779614242e+17
19148.0	6.096682551519913e+17
19149.0	6.095534773938857e+17
19150.0	6.094399728167593e+17
19151.0	6.093253251519828e+17
19152.0	6.092065328158035e+17
19153.0	6.09092578189858e+17
19154.0	6.089709010113876e+17
19155.0	6.088640635600895e+17
19156.0	6.087496839113386e+17
19157.0	6.086292021794134e+17
19158.0	6.083168938841427e+17
19159.0	6.08402409660962e+17
19160.0	6.082854842793983e+17
19161.0	6.081653442434388e+17
19162.0	6.07605082466987e+17
19163.0	6.079255734998356e+17
19164.0	6.078298009021097e+17
19165.0	6.07704299077632e+17
19166.0	6.075801657147391e+17
19167.0	6.074418614763519e+17
19168.0	6.073668127948799e+17
19169.0	6.072456281675092e+17
19170.0	6.071402047558996e+17
19171.0	6.06997377589794e+17
19172.0	6.069081266454527e+17
19173.0	6.067943451743572e+17
19174.0	6.066774880201385e+17
19175.0	6.065667926480212e+17
19176.0	6.064519605736788e+17
19177.0	6.0632633194141e+17
19178.0	6.062094720608938e+17
19179.0	6.0606903760541e+17
19180.0	6.059845224497151e+17
19181.0	6.058696844334419e+17
19182.0	6.057599640272895e+17
19183.0	6.05542589888375e+17
19184.0	6.051983057573203e+17
19185.0	6.050863917301759e+17
19186.0	6.04972008935697e+17
19187.0	6.048518156320767e+17
19188.0	6.047410509141332e+17
19189.0	6.046229675551401e+17
19190.0	6.045063466101418e+17
19191.0	6.043912614794579e+17
19192.0	6.04283198452531e+17
19193.0	6.041654577681748e+17
19194.0	6.040513842337108e+17
19195.0	6.039386019157332e+17
19196.0	6.038231987169961e+17
19197.0	6.03707110658321e+17
19198.0	6.035862100552361e+17
19199.0	6.009818215088119e+17
19200.0	6.015914343049907e+17
19201.0	6.032434750903635e+17
19202.0	6.031347091679913e+17
19203.0	6.030142686800553e+17
19204.0	6.029044190194346e+17
19205.0	6.02792046764578e+17
19206.0	6.026772200729257e+17
19207.0	6.025559620452351e+17
19208.0	6.024349973392041e+17
19209.0	6.023337902516905e+17
19210.0	6.022200566655657e+17
19211.0	6.021053410530644e+17
19212.0	6.019906062865748e+17
19213.0	6.018481157133652e+17
19214.0	6.017193011576832e+17
19215.0	6.016352925341012e+17
19216.0	6.015316214327978e+17
19217.0	6.014172154298367e+17
19218.0	6.012431023210495e+17
19219.0	6.011769782796287e+17
19220.0	6.010699014733823e+17
19221.0	6.009352620081151e+17
19222.0	6.008424676458495e+17
19223.0	6.007279239299071e+17
19224.0	6.006104343445503e+17
19225.0	6.004889081610239e+17
19226.0	6.003828652507136e+17
19227.0	6.002678626080084e+17
19228.0	6.001547979434666e+17
19229.0	6.000399358798505e+17
19230.0	5.999210418317993e+17
19231.0	5.998064974867114e+17
19232.0	5.996939061493759e+17
19233.0	5.995749087816362e+17
19234.0	5.994638233392468e+17
19235.0	5.993489905658537e+17
19236.0	5.99235484520721e+17
19237.0	5.991193534704297e+17
19238.0	5.989949667715753e+17
19239.0	5.988904052894377e+17
19240.0	5.987716205030057e+17
19241.0	5.986574977553748e+17
19242.0	5.985437300555775e+17
19243.0	5.984189239962281e+17
19244.0	5.983150117923497e+17
19245.0	5.981998003432106e+17
19246.0	5.980834763549353e+17
19247.0	5.979691995365375e+17
19248.0	5.978532563211603e+17
19249.0	5.977370377497257e+17
19250.0	5.976214385371818e+17
19251.0	5.974977747965268e+17
19252.0	5.973741735510015e+17
19253.0	5.972752344634708e+17
19254.0	5.971607967236096e+17
19255.0	5.970340208093866e+17
19256.0	5.969241005446483e+17
19257.0	5.968141223985151e+17
19258.0	5.966988090976937e+17
19259.0	5.965784341108051e+17
19260.0	5.963994865773224e+17
19261.0	5.963510167109632e+17
19262.0	5.962321671225343e+17
19263.0	5.961144683113129e+17
19264.0	5.959656423118163e+17
19265.0	5.958732165589674e+17
19266.0	5.957570541213012e+17
19267.0	5.956550709477376e+17
19268.0	5.955387904404138e+17
19269.0	5.954224412164095e+17
19270.0	5.953057491080531e+17
19271.0	5.95165852991488e+17
19272.0	5.950704097165311e+17
19273.0	5.948331513610237e+17
19274.0	5.947579832816978e+17
19275.0	5.947227229563562e+17
19276.0	5.946044649046015e+17
19277.0	5.944878213103615e+17
19278.0	5.943009090732033e+17
19279.0	5.938708691812351e+17
19280.0	5.937521927476564e+17
19281.0	5.936391450700457e+17
19282.0	5.935223342628863e+17
19283.0	5.933627421141674e+17
19284.0	5.932500373209087e+17
19285.0	5.931551386064212e+17
19286.0	5.930477981182633e+17
19287.0	5.929315789176831e+17
19288.0	5.916985413424454e+17
19289.0	5.904881400763707e+17
19290.0	5.925756455966036e+17
19291.0	5.924393795802454e+17
19292.0	5.923380380652884e+17
19293.0	5.922183796752383e+17
19294.0	5.920987974118057e+17
19295.0	5.919800308705962e+17
19296.0	5.918591606762153e+17
19297.0	5.917374711245481e+17
19298.0	5.916190881524394e+17
19299.0	5.914988015954601e+17
19300.0	5.913790949010089e+17
19301.0	5.912584144289791e+17
19302.0	5.911365166301183e+17
19303.0	5.910107508441087e+17
19304.0	5.90892641620241e+17
19305.0	5.907723145183232e+17
19306.0	5.906494179857748e+17
19307.0	5.905235031621631e+17
19308.0	5.904028012292778e+17
19309.0	5.901857605375316e+17
19310.0	5.900376485483859e+17
19311.0	5.900233802252287e+17
19312.0	5.897610272090793e+17
19313.0	5.895726868813139e+17
19314.0	5.861461154157939e+17
19315.0	5.861840231159146e+17
19316.0	5.891891625197568e+17
19317.0	5.890739684769791e+17
19318.0	5.889479386595327e+17
19319.0	5.888231237222399e+17
19320.0	5.886960892990803e+17
19321.0	5.885690651519658e+17
19322.0	5.884297399500799e+17
19323.0	5.88274365034223e+17
19324.0	5.881842490845865e+17
19325.0	5.879667528914262e+17
19326.0	5.879284150654292e+17
19327.0	5.877992565069139e+17
19328.0	5.876686449016831e+17
19329.0	5.875403901457748e+17
19330.0	5.874069029956266e+17
19331.0	5.872749767557119e+17
19332.0	5.87144685036066e+17
19333.0	5.870119115467433e+17
19334.0	5.868799315498324e+17
19335.0	5.867427821431468e+17
19336.0	5.866103165157376e+17
19337.0	5.864765787559252e+17
19338.0	5.863265626925737e+17
19339.0	5.862037412380672e+17
19340.0	5.860612355653632e+17
19341.0	5.859252373553151e+17
19342.0	5.857594855915519e+17
19343.0	5.856505337217024e+17
19344.0	5.855088701254314e+17
19345.0	5.852388882994515e+17
19346.0	5.851591057167699e+17
19347.0	5.850769717373609e+17
19348.0	5.849397269102591e+17
19349.0	5.847916314187092e+17
19350.0	5.846445986938877e+17
19351.0	5.84498952605969e+17
19352.0	5.843452662469971e+17
19353.0	5.842025453365929e+17
19354.0	5.840518674120703e+17
19355.0	5.838930200319316e+17
19356.0	5.837460199527763e+17
19357.0	5.835912274859348e+17
19358.0	5.834325255083348e+17
19359.0	5.8326973415424e+17
19360.0	5.831131965074089e+17
19361.0	5.829537598974634e+17
19362.0	5.827943637625514e+17
19363.0	5.826299273325225e+17
19364.0	5.824636503020884e+17
19365.0	5.822957499361961e+17
19366.0	5.82125755564032e+17
19367.0	5.81953793434146e+17
19368.0	5.817797554034006e+17
19369.0	5.8159733421725e+17
19370.0	5.814104922346836e+17
19371.0	5.812407101642067e+17
19372.0	5.810608273708374e+17
19373.0	5.808731304493056e+17
19374.0	5.80686409961745e+17
19375.0	5.804947737498963e+17
19376.0	5.803006403892563e+17
19377.0	5.801030066023082e+17
19378.0	5.799026238685183e+17
19379.0	5.796987799950676e+17
19380.0	5.794914596028415e+17
19381.0	5.792805436435114e+17
19382.0	5.790608154514772e+17
19383.0	5.78839306637585e+17
19384.0	5.786241928790016e+17
19385.0	5.783976488031572e+17
19386.0	5.78166760476945e+17
19387.0	5.779312936484863e+17
19388.0	5.776915198989652e+17
19389.0	5.774467828897107e+17
19390.0	5.771960125838676e+17
19391.0	5.738033684239662e+17
19392.0	5.765622435326628e+17
19393.0	5.764150319906814e+17
19394.0	5.7614109989928954e+17
19395.0	5.7582526531283616e+17
19396.0	5.755325780415828e+17
19397.0	5.752485848634709e+17
19398.0	5.74946768200226e+17
19399.0	5.7459579534267725e+17
19400.0	5.743246001045503e+17
19401.0	5.7401219051683834e+17
19402.0	5.736855502847998e+17
19403.0	5.7334916738362016e+17
19404.0	5.730069147637077e+17
19405.0	5.726539152883711e+17
19406.0	5.7229380276278605e+17
19407.0	5.719237156929534e+17
19408.0	5.7149289719835296e+17
19409.0	5.7115385867359565e+17
19410.0	5.7068899088902816e+17
19411.0	5.702712836489215e+17
19412.0	5.6985347742324045e+17
19413.0	5.6942396531452576e+17
19414.0	5.689815976640511e+17
19415.0	5.6852340336667296e+17
19416.0	5.679130382521684e+17
19417.0	5.6741344072171494e+17
19418.0	5.6696522355507194e+17
19419.0	5.6633518296050336e+17
19420.0	5.6573849379362125e+17
19421.0	5.651101090403666e+17
19422.0	5.6437300687885645e+17
19423.0	5.635912985040213e+17
19424.0	5.6273543448494074e+17
19425.0	5.6171947325303475e+17
19426.0	5.6048971555362074e+17
19427.0	5.590007301537789e+17
19428.0	5.5709193400046976e+17
19429.0	5.5462503683631725e+17
19430.0	5.5259796249859437e+17
19431.0	5.508300908352858e+17
19432.0	5.499478022116691e+17
19433.0	5.4842353782183245e+17
19434.0	5.467843239870464e+17
19435.0	5.449942492162727e+17
19436.0	5.4301501545949843e+17
19437.0	5.4126584137427616e+17
19438.0	5.344145013648062e+17
19439.0	5.3645458608401075e+17
19440.0	5.3390883278902637e+17
19441.0	5.2998296452464576e+17
19442.0	5.234559638918468e+17
19443.0	5.17647660674799e+17
19444.0	5.125533064320338e+17
19445.0	5.069713603646807e+17
19446.0	4.9999561785780934e+17
19447.0	4.881805066895355e+17
19448.0	4.747501531824131e+17
19449.0	4.5422563644757325e+17
19450.0	4.087108023790237e+17
19451.0	3.9427809773704294e+17
19452.0	4.3400253274412544e+17
19453.0	4.6651275606316454e+17
19454.0	4.8100312273824384e+17
19455.0	4.9446826303378694e+17
19456.0	5.0297541345935405e+17
19457.0	5.088563897040893e+17
19458.0	5.07447262803838e+17
19459.0	5.182486343931247e+17
19460.0	5.255312648962041e+17
19461.0	5.303550805890381e+17
19462.0	5.334008668531371e+17
19463.0	5.357272491010727e+17
19464.0	5.377729385988096e+17
19465.0	5.3960218124834144e+17
19466.0	5.412720218210302e+17
19467.0	5.4285766062243834e+17
19468.0	5.443177729228799e+17
19469.0	5.4568175939529363e+17
19470.0	5.4695429228462074e+17
19471.0	5.481148938802515e+17
19472.0	5.493612537533781e+17
19473.0	5.5158660654257414e+17
19474.0	5.5349626057086336e+17
19475.0	5.549716346153638e+17
19476.0	5.561037932374694e+17
19477.0	5.569705698568876e+17
19478.0	5.576920780155562e+17
19479.0	5.583522121820842e+17
19480.0	5.58801301134814e+17
19481.0	5.5934665530627386e+17
19482.0	5.5967968178558285e+17
19483.0	5.6014371735033165e+17
19484.0	5.6045983337458336e+17
19485.0	5.6073124888357536e+17
19486.0	5.6103588873284256e+17
19487.0	5.6136126829690874e+17
19488.0	5.615951323419989e+17
19489.0	5.618046580992681e+17
19490.0	5.619344274882558e+17
19491.0	5.6222107391317325e+17
19492.0	5.624461693463209e+17
19493.0	5.626678102108842e+17
19494.0	5.628369504130389e+17
19495.0	5.629956451205119e+17
19496.0	5.631185497620478e+17
19497.0	5.6328430991441894e+17
19498.0	5.628259890888701e+17
19499.0	5.586960518567249e+17
19500.0	5.6365643150131194e+17
19501.0	5.6376363609402016e+17
19502.0	5.638612796309503e+17
19503.0	5.639568520205652e+17
19504.0	5.6404192606726816e+17
19505.0	5.641223398227967e+17
19506.0	5.641945565102079e+17
19507.0	5.6425871824650234e+17
19508.0	5.6434363941082426e+17
19509.0	5.6440918016436896e+17
19510.0	5.644413042687999e+17
19511.0	5.581542652903409e+17
19512.0	5.6362802578718694e+17
19513.0	5.631865851477997e+17
19514.0	5.635085448860997e+17
19515.0	5.6453917171165856e+17
19516.0	5.6462626552545274e+17
19517.0	5.6463630270464e+17
19518.0	5.6464829897332045e+17
19519.0	5.646501108427435e+17
19520.0	5.646498547105792e+17
19521.0	5.6464955663537485e+17
19522.0	5.6464023053052576e+17
19523.0	5.6463143374684154e+17
19524.0	5.6461643750222496e+17
19525.0	5.645992472171862e+17
19526.0	5.645799705455274e+17
19527.0	5.6455655150933325e+17
19528.0	5.645300637106175e+17
19529.0	5.6450159648003405e+17
19530.0	5.644706067251199e+17
19531.0	5.644366971054761e+17
19532.0	5.644002231582719e+17
19533.0	5.643617469202431e+17
19534.0	5.643207805239294e+17
19535.0	5.642775033457322e+17
19536.0	5.6423059795476474e+17
19537.0	5.641866344486228e+17
19538.0	5.6412682667950074e+17
19539.0	5.640518357396138e+17
19540.0	5.6403331355333965e+17
19541.0	5.6398112732392083e+17
19542.0	5.6392546618354336e+17
19543.0	5.63867212124433e+17
19544.0	5.6381003481306445e+17
19545.0	5.637146683637758e+17
19546.0	5.6363000871430816e+17
19547.0	5.6362671185155405e+17
19548.0	5.6356249230376954e+17
19549.0	5.63491487420689e+17
19550.0	5.6343157633187834e+17
19551.0	5.633643923199317e+17
19552.0	5.632958822787753e+17
19553.0	5.632245874993834e+17
19554.0	5.6315343826234016e+17
19555.0	5.630834804173481e+17
19556.0	5.6301212992361805e+17
19557.0	5.629385252012031e+17
19558.0	5.6286445994420896e+17
19559.0	5.627892663495337e+17
19560.0	5.627113366006441e+17
19561.0	5.62635212919057e+17
19562.0	5.6255931726779725e+17
19563.0	5.624818153379156e+17
19564.0	5.624030798632276e+17
19565.0	5.623236504409428e+17
19566.0	5.6224146976494925e+17
19567.0	5.6216270996329805e+17
19568.0	5.620797964025855e+17
19569.0	5.619990013848234e+17
19570.0	5.619171649213781e+17
19571.0	5.6183370064855034e+17
19572.0	5.617486596669439e+17
19573.0	5.616647624720384e+17
19574.0	5.6157606748269216e+17
19575.0	5.6149687608715936e+17
19576.0	5.6141151948417696e+17
19577.0	5.61324307321105e+17
19578.0	5.6123615074058234e+17
19579.0	5.6115048809321805e+17
19580.0	5.610632422359038e+17
19581.0	5.609766602670079e+17
19582.0	5.6088983859363834e+17
19583.0	5.608015465370965e+17
19584.0	5.6071083345838074e+17
19585.0	5.606165304748713e+17
19586.0	5.605234463561045e+17
19587.0	5.6042847116547405e+17
19588.0	5.603220029527381e+17
19589.0	5.6026241629334176e+17
19590.0	5.601666148947284e+17
19591.0	5.6008302416363514e+17
19592.0	5.599922476810239e+17
19593.0	5.5989962675322874e+17
19594.0	5.5979222719528954e+17
19595.0	5.597136057357652e+17
19596.0	5.594044884669782e+17
19597.0	5.595194790860117e+17
19598.0	5.594146103012009e+17
19599.0	5.593476063647059e+17
19600.0	5.592552612823039e+17
19601.0	5.5915736196273485e+17
19602.0	5.5906438647644154e+17
19603.0	5.589064913431209e+17
19604.0	5.58870810398993e+17
19605.0	5.5876756802546336e+17
19606.0	5.5869324411972256e+17
19607.0	5.586973014097922e+17
19608.0	5.5869790720709965e+17
19609.0	5.5860015070358176e+17
19610.0	5.585079284443818e+17
19611.0	5.584120958681087e+17
19612.0	5.583182274843988e+17
19613.0	5.582221093459284e+17
19614.0	5.581244195318442e+17
19615.0	5.58029811692339e+17
19616.0	5.579070696499881e+17
19617.0	5.5783828774802765e+17
19618.0	5.577027197337599e+17
19619.0	5.575986399674367e+17
19620.0	5.5750417473426765e+17
19621.0	5.5745347307874976e+17
19622.0	5.57358355002163e+17
19623.0	5.572617813622782e+17
19624.0	5.5716509321789434e+17
19625.0	5.5706805156358816e+17
19626.0	5.5697129554138445e+17
19627.0	5.568735456788479e+17
19628.0	5.5671182729762125e+17
19629.0	5.5666928132642125e+17
19630.0	5.5632864134649165e+17
19631.0	5.5366792266820326e+17
19632.0	5.563852296377684e+17
19633.0	5.562846251319294e+17
19634.0	5.561933060461908e+17
19635.0	5.5609307595188896e+17
19636.0	5.559970137374719e+17
19637.0	5.55874466730257e+17
19638.0	5.5580217580366496e+17
19639.0	5.5570354359937683e+17
19640.0	5.5559731236481696e+17
19641.0	5.554522032876203e+17
19642.0	5.5541158690597536e+17
19643.0	5.553121038172158e+17
19644.0	5.5521097537290234e+17
19645.0	5.550983014776831e+17
19646.0	5.55017703732019e+17
19647.0	5.549210666882387e+17
19648.0	5.5482296394492576e+17
19649.0	5.5472448196662605e+17
19650.0	5.546263476961279e+17
19651.0	5.5452797938346643e+17
19652.0	5.5442957164434765e+17
19653.0	5.5432966024724474e+17
19654.0	5.542386298694313e+17
19655.0	5.5414055082393594e+17
19656.0	5.54041849553442e+17
19657.0	5.5394372730661536e+17
19658.0	5.538448550483284e+17
19659.0	5.5374631386043725e+17
19660.0	5.5364775337874765e+17
19661.0	5.5354903763790496e+17
