# Flux units: erg / (cm m2 s)
# Wavelength units: Angstrom
wave	flux
19000.0	7.443348742733824e+17
19001.0	7.441950856708093e+17
19002.0	7.440676711038975e+17
19003.0	7.439332717625343e+17
19004.0	7.437987239428093e+17
19005.0	7.436659050151936e+17
19006.0	7.435317346828287e+17
19007.0	7.433858337210365e+17
19008.0	7.432593096048637e+17
19009.0	7.431236955930623e+17
19010.0	7.429657318129661e+17
19011.0	7.428555098379603e+17
19012.0	7.426762575882921e+17
19013.0	7.425886480848211e+17
19014.0	7.424500193471145e+17
19015.0	7.423164405514237e+17
19016.0	7.421807081204394e+17
19017.0	7.420478900316841e+17
19018.0	7.419101851593386e+17
19019.0	7.417770188035411e+17
19020.0	7.416403580332714e+17
19021.0	7.415067452637183e+17
19022.0	7.413713715855357e+17
19023.0	7.412327589259945e+17
19024.0	7.410975868540244e+17
19025.0	7.409579658838016e+17
19026.0	7.408202081632256e+17
19027.0	7.406451182010365e+17
19028.0	7.405541977139881e+17
19029.0	7.404179435115862e+17
19030.0	7.402826766483453e+17
19031.0	7.401461808540329e+17
19032.0	7.400095091785727e+17
19033.0	7.398668178380116e+17
19034.0	7.397334740631551e+17
19035.0	7.395826011734015e+17
19036.0	7.365668747870199e+17
19037.0	7.393150865069395e+17
19038.0	7.391859560502612e+17
19039.0	7.390519643952467e+17
19040.0	7.389154210654888e+17
19041.0	7.387785582695764e+17
19042.0	7.386347555782655e+17
19043.0	7.385046028298921e+17
19044.0	7.383670899168595e+17
19045.0	7.382283019354111e+17
19046.0	7.380896896953e+17
19047.0	7.379543436995241e+17
19048.0	7.378294167743144e+17
19049.0	7.377040219045888e+17
19050.0	7.375692853411839e+17
19051.0	7.369667135930359e+17
19052.0	7.372154321851731e+17
19053.0	7.371566806117034e+17
19054.0	7.37022822055936e+17
19055.0	7.368686713176064e+17
19056.0	7.367458200136362e+17
19057.0	7.366086321591636e+17
19058.0	7.364661016002557e+17
19059.0	7.363326525483689e+17
19060.0	7.36193834787362e+17
19061.0	7.36057101455633e+17
19062.0	7.359185862437545e+17
19063.0	7.35780426289425e+17
19064.0	7.356352899492522e+17
19065.0	7.354925078719145e+17
19066.0	7.353609476549289e+17
19067.0	7.352270422627668e+17
19068.0	7.35088589546018e+17
19069.0	7.349501225686355e+17
19070.0	7.348100378482003e+17
19071.0	7.34671406314291e+17
19072.0	7.345332416064169e+17
19073.0	7.34395332890897e+17
19074.0	7.342569347001002e+17
19075.0	7.341181619579561e+17
19076.0	7.339780818512553e+17
19077.0	7.338397205703338e+17
19078.0	7.337000334699178e+17
19079.0	7.335625848695464e+17
19080.0	7.334226654046889e+17
19081.0	7.332820178086569e+17
19082.0	7.331428102569983e+17
19083.0	7.329988874687828e+17
19084.0	7.328516033653417e+17
19085.0	7.327269915721727e+17
19086.0	7.325566845146451e+17
19087.0	7.32369845607902e+17
19088.0	7.322897627829587e+17
19089.0	7.321157584464553e+17
19090.0	7.320238932623357e+17
19091.0	7.31887915045137e+17
19092.0	7.317290924113919e+17
19093.0	7.316123998836054e+17
19094.0	7.314735466108244e+17
19095.0	7.313342125309951e+17
19096.0	7.311945299045033e+17
19097.0	7.310560170693972e+17
19098.0	7.309159260575059e+17
19099.0	7.307762007889236e+17
19100.0	7.30632413336917e+17
19101.0	7.304959074762751e+17
19102.0	7.303522897537705e+17
19103.0	7.302182887314772e+17
19104.0	7.300783070511101e+17
19105.0	7.299358641531561e+17
19106.0	7.297831466085034e+17
19107.0	7.296553439286612e+17
19108.0	7.295136794935293e+17
19109.0	7.291265393623035e+17
19110.0	7.292184868945919e+17
19111.0	7.290958064386047e+17
19112.0	7.289579561637204e+17
19113.0	7.288189840523263e+17
19114.0	7.286789512014505e+17
19115.0	7.285300564852735e+17
19116.0	7.283970904773972e+17
19117.0	7.282559954889386e+17
19118.0	7.280995408194217e+17
19119.0	7.277751971086331e+17
19120.0	7.278103987836244e+17
19121.0	7.276783377667412e+17
19122.0	7.275571159498752e+17
19123.0	7.274167756565161e+17
19124.0	7.272589729376938e+17
19125.0	7.271342480381268e+17
19126.0	7.269943301111807e+17
19127.0	7.267507201813161e+17
19128.0	7.266425717303977e+17
19129.0	7.265681459030696e+17
19130.0	7.264319438498472e+17
19131.0	7.262900065053356e+17
19132.0	7.26151387694148e+17
19133.0	7.259943455424511e+17
19134.0	7.258367303090175e+17
19135.0	7.257280651198463e+17
19136.0	7.25588318040883e+17
19137.0	7.254376509516458e+17
19138.0	7.253041184331092e+17
19139.0	7.251653033284947e+17
19140.0	7.250245774387881e+17
19141.0	7.248835411705853e+17
19142.0	7.247398494885204e+17
19143.0	7.245979441605289e+17
19144.0	7.24457630990336e+17
19145.0	7.243182924365824e+17
19146.0	7.241386513749331e+17
19147.0	7.240308243475113e+17
19148.0	7.238924482467156e+17
19149.0	7.237512874076841e+17
19150.0	7.236111160049663e+17
19151.0	7.234699978080255e+17
19152.0	7.233249721974783e+17
19153.0	7.231786228645887e+17
19154.0	7.230286296601939e+17
19155.0	7.228930396957353e+17
19156.0	7.227502124597245e+17
19157.0	7.225939297566719e+17
19158.0	7.223111903259305e+17
19159.0	7.223163433080148e+17
19160.0	7.221781661570387e+17
19161.0	7.220289498775552e+17
19162.0	7.21510169697758e+17
19163.0	7.217286603603968e+17
19164.0	7.216131959248211e+17
19165.0	7.214650016574121e+17
19166.0	7.21315769159953e+17
19167.0	7.211513769099263e+17
19168.0	7.210424866264403e+17
19169.0	7.20897440883234e+17
19170.0	7.207603204172458e+17
19171.0	7.20599319262003e+17
19172.0	7.201841192370177e+17
19173.0	7.19960613584896e+17
19174.0	7.198159864332288e+17
19175.0	7.196761793757183e+17
19176.0	7.195326925154986e+17
19177.0	7.193790579561812e+17
19178.0	7.192330451462826e+17
19179.0	7.190740492877823e+17
19180.0	7.189541661529428e+17
19181.0	7.188078710663849e+17
19182.0	7.186692360372224e+17
19183.0	7.185269846791508e+17
19184.0	7.183813855674368e+17
19185.0	7.182391033113258e+17
19186.0	7.180951517222227e+17
19187.0	7.179453746642943e+17
19188.0	7.17805291901201e+17
19189.0	7.17658540614178e+17
19190.0	7.17511728509747e+17
19191.0	7.173653981910356e+17
19192.0	7.17226152890641e+17
19193.0	7.17078637261619e+17
19194.0	7.169327800603987e+17
19195.0	7.167867940940458e+17
19196.0	7.166362893243731e+17
19197.0	7.164784099895977e+17
19198.0	7.162804557578237e+17
19199.0	7.138763497712292e+17
19200.0	7.143397293468338e+17
19201.0	7.158523669162666e+17
19202.0	7.157530778140671e+17
19203.0	7.156129770154666e+17
19204.0	7.154753919604051e+17
19205.0	7.153335824023551e+17
19206.0	7.151887583980202e+17
19207.0	7.150380636263764e+17
19208.0	7.148858478602921e+17
19209.0	7.147510556524543e+17
19210.0	7.146053867754836e+17
19211.0	7.144584818371241e+17
19212.0	7.143030307247444e+17
19213.0	7.139171483254783e+17
19214.0	7.137577895198719e+17
19215.0	7.136350174882474e+17
19216.0	7.134972105545044e+17
19217.0	7.133493539285672e+17
19218.0	7.131520488352425e+17
19219.0	7.130423250037417e+17
19220.0	7.129016960024575e+17
19221.0	7.127359152979965e+17
19222.0	7.126056989360127e+17
19223.0	7.124570061056681e+17
19224.0	7.123046752758441e+17
19225.0	7.121495791413929e+17
19226.0	7.120066976590506e+17
19227.0	7.118564599267327e+17
19228.0	7.117081058563412e+17
19229.0	7.115575859871743e+17
19230.0	7.114040831290025e+17
19231.0	7.112533187319123e+17
19232.0	7.111039623626751e+17
19233.0	7.109485887051092e+17
19234.0	7.108005995391658e+17
19235.0	7.106487783172778e+17
19236.0	7.104981345763327e+17
19237.0	7.103448735896916e+17
19238.0	7.101842486635177e+17
19239.0	7.100405659293011e+17
19240.0	7.098855090814975e+17
19241.0	7.097322436209322e+17
19242.0	7.095797974477481e+17
19243.0	7.094163278047914e+17
19244.0	7.092730667379369e+17
19245.0	7.091188414808063e+17
19246.0	7.089635064108372e+17
19247.0	7.088096687073961e+17
19248.0	7.086541243416575e+17
19249.0	7.084982389790036e+17
19250.0	7.083425770329428e+17
19251.0	7.081809106610857e+17
19252.0	7.080133986877439e+17
19253.0	7.078737608004948e+17
19254.0	7.077180257337343e+17
19255.0	7.075491415239336e+17
19256.0	7.073997713134932e+17
19257.0	7.072455267625641e+17
19258.0	7.070873605373951e+17
19259.0	7.0692392430906e+17
19260.0	7.067188368244733e+17
19261.0	7.066099771594067e+17
19262.0	7.064474843698516e+17
19263.0	7.062866442758825e+17
19264.0	7.06098714850099e+17
19265.0	7.059574835467603e+17
19266.0	7.057975245362518e+17
19267.0	7.056456898925908e+17
19268.0	7.054834254129833e+17
19269.0	7.053206826429097e+17
19270.0	7.051571777677994e+17
19271.0	7.049744264899242e+17
19272.0	7.048272320047786e+17
19273.0	7.045921739811497e+17
19274.0	7.044467448785577e+17
19275.0	7.043341605317289e+17
19276.0	7.041670347139753e+17
19277.0	7.040006607951187e+17
19278.0	7.038337051262975e+17
19279.0	7.036628669999784e+17
19280.0	7.03493696598835e+17
19281.0	7.033277041519274e+17
19282.0	7.031573999605075e+17
19283.0	7.029594318176255e+17
19284.0	7.027902577115133e+17
19285.0	7.026358641229823e+17
19286.0	7.024722285253972e+17
19287.0	7.022999825809405e+17
19288.0	7.01362280979933e+17
19289.0	7.00099936264735e+17
19290.0	7.017800270872575e+17
19291.0	7.015926571117225e+17
19292.0	7.014343799472128e+17
19293.0	7.012583720615935e+17
19294.0	7.010816249298943e+17
19295.0	7.009051134481748e+17
19296.0	7.007262504998228e+17
19297.0	7.005465472226644e+17
19298.0	7.003674387677183e+17
19299.0	7.001871604514815e+17
19300.0	7.000066625634304e+17
19301.0	6.998242280953172e+17
19302.0	6.996406902456319e+17
19303.0	6.994529962601129e+17
19304.0	6.9927056717469e+17
19305.0	6.990855489454079e+17
19306.0	6.98897694527761e+17
19307.0	6.987064292321961e+17
19308.0	6.985177273554259e+17
19309.0	6.982541548453887e+17
19310.0	6.980321249591293e+17
19311.0	6.97937371926801e+17
19312.0	6.9775777085085e+17
19313.0	6.975637152246442e+17
19314.0	6.954900578282153e+17
19315.0	6.954267255155396e+17
19316.0	6.969647978337619e+17
19317.0	6.967785856958463e+17
19318.0	6.965798806137512e+17
19319.0	6.963807769329663e+17
19320.0	6.961784789401599e+17
19321.0	6.959737222463487e+17
19322.0	6.957559659364352e+17
19323.0	6.955263807105705e+17
19324.0	6.953440013276499e+17
19325.0	6.950759839039487e+17
19326.0	6.949247886819325e+17
19327.0	6.947170628403197e+17
19328.0	6.945041647927296e+17
19329.0	6.942915105740116e+17
19330.0	6.940737976052393e+17
19331.0	6.938565935453523e+17
19332.0	6.936404089809577e+17
19333.0	6.934210262597631e+17
19334.0	6.932018737359529e+17
19335.0	6.929778218456404e+17
19336.0	6.927566176780287e+17
19337.0	6.925340739196244e+17
19338.0	6.922971388750505e+17
19339.0	6.920832102170623e+17
19340.0	6.918528210829311e+17
19341.0	6.9162567218845e+17
19342.0	6.913732180093609e+17
19343.0	6.911433221253801e+17
19344.0	6.90909833470498e+17
19345.0	6.90567377007411e+17
19346.0	6.903969578920617e+17
19347.0	6.902014255912276e+17
19348.0	6.899641629016061e+17
19349.0	6.897161976064681e+17
19350.0	6.894692044810921e+17
19351.0	6.892205709634217e+17
19352.0	6.889651539978922e+17
19353.0	6.887178289632596e+17
19354.0	6.884627316735999e+17
19355.0	6.881997960686249e+17
19356.0	6.879459832845652e+17
19357.0	6.876845869891583e+17
19358.0	6.87419344167458e+17
19359.0	6.871505444361556e+17
19360.0	6.8688368645789e+17
19361.0	6.866151657177087e+17
19362.0	6.863451260103338e+17
19363.0	6.860703750509908e+17
19364.0	6.857930966040575e+17
19365.0	6.855132851470335e+17
19366.0	6.851900701933568e+17
19367.0	6.848920769178281e+17
19368.0	6.846037547985577e+17
19369.0	6.84308019876113e+17
19370.0	6.840090207365801e+17
19371.0	6.837161658329769e+17
19372.0	6.834181259307689e+17
19373.0	6.831125862634835e+17
19374.0	6.828059153924095e+17
19375.0	6.824944504318634e+17
19376.0	6.821796510695423e+17
19377.0	6.817866833024339e+17
19378.0	6.814430218857129e+17
19379.0	6.811161473318911e+17
19380.0	6.807850619764735e+17
19381.0	6.804494222360575e+17
19382.0	6.80104289247778e+17
19383.0	6.797572197493417e+17
19384.0	6.792871030030336e+17
19385.0	6.789075205881855e+17
19386.0	6.78543105335842e+17
19387.0	6.781722950281898e+17
19388.0	6.777898007177898e+17
19389.0	6.771999053447167e+17
19390.0	6.768010412250452e+17
19391.0	6.741163347629363e+17
19392.0	6.758383520579579e+17
19393.0	6.752862395345578e+17
19394.0	6.748500515618815e+17
19395.0	6.741797449498624e+17
19396.0	6.735731122765823e+17
19397.0	6.729710066554196e+17
19398.0	6.721561820834474e+17
19399.0	6.714672178790394e+17
19400.0	6.70560303448064e+17
19401.0	6.697203419228842e+17
19402.0	6.687929270621524e+17
19403.0	6.676084189123927e+17
19404.0	6.666574101129902e+17
19405.0	6.652867119153151e+17
19406.0	6.641395044799826e+17
19407.0	6.633555079026004e+17
19408.0	6.62567727853295e+17
19409.0	6.618287505582762e+17
19410.0	6.610368921075711e+17
19411.0	6.602251677554004e+17
19412.0	6.59391336485137e+17
19413.0	6.585087481085951e+17
19414.0	6.576221847901523e+17
19415.0	6.567147712370004e+17
19416.0	6.557609454731263e+17
19417.0	6.547862113135274e+17
19418.0	6.537863845904383e+17
19419.0	6.527274418787668e+17
19420.0	6.516737162521257e+17
19421.0	6.50510590664158e+17
19422.0	6.493470017454079e+17
19423.0	6.481137204811094e+17
19424.0	6.46797008638225e+17
19425.0	6.453855262168403e+17
19426.0	6.438644380336127e+17
19427.0	6.421565251343699e+17
19428.0	6.402265443904168e+17
19429.0	6.380200696741888e+17
19430.0	6.354857657805482e+17
19431.0	6.323152702057125e+17
19432.0	6.291161193556644e+17
19433.0	6.258488500726441e+17
19434.0	6.233273695644329e+17
19435.0	6.207032299006632e+17
19436.0	6.178485350782291e+17
19437.0	6.149650661419689e+17
19438.0	6.091750714114052e+17
19439.0	6.077982101733377e+17
19440.0	6.036360546047316e+17
19441.0	5.988312490355366e+17
19442.0	5.931583866055345e+17
19443.0	5.865479841251328e+17
19444.0	5.791104080631124e+17
19445.0	5.7058266234661574e+17
19446.0	5.6110604042458445e+17
19447.0	5.4949186382069696e+17
19448.0	5.3491119378049766e+17
19449.0	5.1594237851293024e+17
19450.0	4.89973422122598e+17
19451.0	4.782468007023953e+17
19452.0	5.0384244935666336e+17
19453.0	5.260624724492295e+17
19454.0	5.422969500554574e+17
19455.0	5.5500964968966816e+17
19456.0	5.652022007169027e+17
19457.0	5.7389332645806074e+17
19458.0	5.791911749790418e+17
19459.0	5.883761471608155e+17
19460.0	5.94314627802726e+17
19461.0	5.992902129177938e+17
19462.0	6.035268258409133e+17
19463.0	6.073044824315218e+17
19464.0	6.106172132163583e+17
19465.0	6.13526270972177e+17
19466.0	6.161408359486803e+17
19467.0	6.185852310913023e+17
19468.0	6.208381048761002e+17
19469.0	6.234463825210024e+17
19470.0	6.267620610626895e+17
19471.0	6.296816391815165e+17
19472.0	6.321624928223228e+17
19473.0	6.342023059603455e+17
19474.0	6.359823178268672e+17
19475.0	6.374855174433452e+17
19476.0	6.388738461182633e+17
19477.0	6.401790462044842e+17
19478.0	6.411952202274131e+17
19479.0	6.422886210338815e+17
19480.0	6.431805480282794e+17
19481.0	6.441411171145044e+17
19482.0	6.449748272392873e+17
19483.0	6.457705977872383e+17
19484.0	6.465935760861865e+17
19485.0	6.473218969829375e+17
19486.0	6.480189053031763e+17
19487.0	6.486918991358633e+17
19488.0	6.493339808781652e+17
19489.0	6.499649458274304e+17
19490.0	6.50507656119364e+17
19491.0	6.511395751329791e+17
19492.0	6.516902072767827e+17
19493.0	6.522198141435903e+17
19494.0	6.527280100671487e+17
19495.0	6.53214895570944e+17
19496.0	6.539768231187789e+17
19497.0	6.548943357870077e+17
19498.0	6.555790287219373e+17
19499.0	6.534105431452312e+17
19500.0	6.572863595216902e+17
19501.0	6.581678750651732e+17
19502.0	6.585908347622737e+17
19503.0	6.59248562446882e+17
19504.0	6.595966770959702e+17
19505.0	6.601640149428905e+17
19506.0	6.603772302895785e+17
19507.0	6.608962089298605e+17
19508.0	6.611116046155773e+17
19509.0	6.613193832355155e+17
19510.0	6.617014108596906e+17
19511.0	6.58072629691458e+17
19512.0	6.614454461180575e+17
19513.0	6.61207447887324e+17
19514.0	6.617163469160436e+17
19515.0	6.625276204504404e+17
19516.0	6.626974060161706e+17
19517.0	6.628011658270036e+17
19518.0	6.629792647129769e+17
19519.0	6.631326851530751e+17
19520.0	6.632182379096745e+17
19521.0	6.633023606882303e+17
19522.0	6.633773293983062e+17
19523.0	6.634511406901929e+17
19524.0	6.635189562245119e+17
19525.0	6.6362468218525e+17
19526.0	6.637324392377001e+17
19527.0	6.637884227103401e+17
19528.0	6.638400623520425e+17
19529.0	6.638890747516244e+17
19530.0	6.639346604747433e+17
19531.0	6.639766284009471e+17
19532.0	6.640153949547177e+17
19533.0	6.640507640523434e+17
19534.0	6.640825222736553e+17
19535.0	6.641108686383785e+17
19536.0	6.641400313544704e+17
19537.0	6.642099331355988e+17
19538.0	6.642237026861055e+17
19539.0	6.642175904666964e+17
19540.0	6.642610362559146e+17
19541.0	6.642751705710591e+17
19542.0	6.642850609496063e+17
19543.0	6.642922340483071e+17
19544.0	6.642990954403156e+17
19545.0	6.642774157819901e+17
19546.0	6.642547880012457e+17
19547.0	6.643037520964266e+17
19548.0	6.643009440798036e+17
19549.0	6.642900731428863e+17
19550.0	6.642889156547926e+17
19551.0	6.64279952007714e+17
19552.0	6.64268794110498e+17
19553.0	6.642544777625599e+17
19554.0	6.642385737307476e+17
19555.0	6.642206805502633e+17
19556.0	6.641976724160511e+17
19557.0	6.641719767116457e+17
19558.0	6.641453685364052e+17
19559.0	6.641174117526185e+17
19560.0	6.640865995565736e+17
19561.0	6.640564326541993e+17
19562.0	6.640480127986346e+17
19563.0	6.640149374260564e+17
19564.0	6.639806517870591e+17
19565.0	6.639451135191722e+17
19566.0	6.639072185417727e+17
19567.0	6.638704730133844e+17
19568.0	6.638298130808832e+17
19569.0	6.637907834044415e+17
19570.0	6.637497939394559e+17
19571.0	6.63706894668049e+17
19572.0	6.636612981096447e+17
19573.0	6.636169466303827e+17
19574.0	6.635660565807103e+17
19575.0	6.635243689039188e+17
19576.0	6.634757532854953e+17
19577.0	6.634254549123072e+17
19578.0	6.633726764471635e+17
19579.0	6.633213313854121e+17
19580.0	6.63268249042944e+17
19581.0	6.632139593001641e+17
19582.0	6.6315749439133e+17
19583.0	6.630986483062099e+17
19584.0	6.630372722868223e+17
19585.0	6.629704076012202e+17
19586.0	6.629045057181012e+17
19587.0	6.628387414081535e+17
19588.0	6.627598373923498e+17
19589.0	6.627192765852329e+17
19590.0	6.626482609367722e+17
19591.0	6.625860380175017e+17
19592.0	6.625172742908585e+17
19593.0	6.624461762942292e+17
19594.0	6.623608459755519e+17
19595.0	6.623027239671124e+17
19596.0	6.620777673654273e+17
19597.0	6.621550523099817e+17
19598.0	6.620653954968233e+17
19599.0	6.620084037834067e+17
19600.0	6.619321478414335e+17
19601.0	6.618508388816212e+17
19602.0	6.617735191243433e+17
19603.0	6.616389481660413e+17
19604.0	6.61610031096354e+17
19605.0	6.615201119993855e+17
19606.0	6.614570555321002e+17
19607.0	6.613754928868009e+17
19608.0	6.612923882056362e+17
19609.0	6.61206441464081e+17
19610.0	6.611251490018644e+17
19611.0	6.610399927468031e+17
19612.0	6.609557997136553e+17
19613.0	6.608691568574463e+17
19614.0	6.607806310383615e+17
19615.0	6.606955636326399e+17
19616.0	6.605865710780415e+17
19617.0	6.605199503611219e+17
19618.0	6.604001343351466e+17
19619.0	6.603026803108521e+17
19620.0	6.602152892607146e+17
19621.0	6.601625538570921e+17
19622.0	6.600729926041599e+17
19623.0	6.599816587684521e+17
19624.0	6.598897024980308e+17
19625.0	6.597970355027967e+17
19626.0	6.59703628632337e+17
19627.0	6.596078553355604e+17
19628.0	6.59457763704832e+17
19629.0	6.594022852263933e+17
19630.0	6.591041666809856e+17
19631.0	6.56758524818227e+17
19632.0	6.591127985586176e+17
19633.0	6.590313193799677e+17
19634.0	6.589428433332906e+17
19635.0	6.588446867630761e+17
19636.0	6.587496574659241e+17
19637.0	6.586283351954772e+17
19638.0	6.585550343503871e+17
19639.0	6.584563965536936e+17
19640.0	6.583533538989398e+17
19641.0	6.582182266361172e+17
19642.0	6.581599019029844e+17
19643.0	6.580587436092073e+17
19644.0	6.579559106696531e+17
19645.0	6.578434023096317e+17
19646.0	6.577571232393897e+17
19647.0	6.576571935271593e+17
19648.0	6.575557089864361e+17
19649.0	6.574537008567636e+17
19650.0	6.573517054498131e+17
19651.0	6.572492516054355e+17
19652.0	6.571482577283753e+17
19653.0	6.570741552818858e+17
19654.0	6.56972030480657e+17
19655.0	6.56868124987665e+17
19656.0	6.567640975802367e+17
19657.0	6.56660372791842e+17
19658.0	6.565561299369984e+17
19659.0	6.564515669868543e+17
19660.0	6.563469386055679e+17
19661.0	6.562419526598655e+17
19662.0	6.561366663320916e+17
19663.0	6.560271668259497e+17
19664.0	6.559164667002879e+17
19665.0	6.558196121818452e+17
