# Flux units: erg / (cm m2 s)
# Wavelength units: Angstrom
wave	flux
19000.0	4.7178195119636474e+17
19001.0	4.7168907238877856e+17
19002.0	4.716076212420608e+17
19003.0	4.715196565509461e+17
19004.0	4.714322102758058e+17
19005.0	4.7134533309781325e+17
19006.0	4.712582271205376e+17
19007.0	4.7116012465684474e+17
19008.0	4.710801357843114e+17
19009.0	4.709953897321813e+17
19010.0	4.7074171794664083e+17
19011.0	4.706321215520768e+17
19012.0	4.7054849880446304e+17
19013.0	4.704593976666793e+17
19014.0	4.7036944375698765e+17
19015.0	4.7028316992962554e+17
19016.0	4.701952013937321e+17
19017.0	4.701106049384447e+17
19018.0	4.7002146668107085e+17
19019.0	4.6993548540641274e+17
19020.0	4.698473152643071e+17
19021.0	4.6976149749759994e+17
19022.0	4.696748612124671e+17
19023.0	4.695859883846313e+17
19024.0	4.6949955328628045e+17
19025.0	4.6941172309251405e+17
19026.0	4.693224569787731e+17
19027.0	4.69212563907106e+17
19028.0	4.691535642405546e+17
19029.0	4.690654826681685e+17
19030.0	4.689804212043776e+17
19031.0	4.6889401350881274e+17
19032.0	4.6880679973792416e+17
19033.0	4.687149187552597e+17
19034.0	4.6863266775476896e+17
19035.0	4.6854478191656954e+17
19036.0	4.6643111016092794e+17
19037.0	4.683726508960425e+17
19038.0	4.6828543915240096e+17
19039.0	4.6819981327510176e+17
19040.0	4.6811352763378336e+17
19041.0	4.680264736658772e+17
19042.0	4.679332574265343e+17
19043.0	4.678538039569067e+17
19044.0	4.677663436308479e+17
19045.0	4.6767946652276045e+17
19046.0	4.675900838073685e+17
19047.0	4.67507401003281e+17
19048.0	4.674067426705407e+17
19049.0	4.67327507374626e+17
19050.0	4.672449282397525e+17
19051.0	4.668554753693006e+17
19052.0	4.670600538051926e+17
19053.0	4.669858637676543e+17
19054.0	4.6690205157730976e+17
19055.0	4.668005269809834e+17
19056.0	4.6672755881410554e+17
19057.0	4.6664252992607565e+17
19058.0	4.665516269851989e+17
19059.0	4.6646949747971405e+17
19060.0	4.6638230041613645e+17
19061.0	4.66297830838545e+17
19062.0	4.6621110164957856e+17
19063.0	4.661250819271339e+17
19064.0	4.660310707273728e+17
19065.0	4.659427505689941e+17
19066.0	4.6586259504278176e+17
19067.0	4.657795767642793e+17
19068.0	4.656940449092949e+17
19069.0	4.656079092842496e+17
19070.0	4.6551999925889696e+17
19071.0	4.65434138780194e+17
19072.0	4.653488963321854e+17
19073.0	4.652630322883242e+17
19074.0	4.651774843551743e+17
19075.0	4.650914224100691e+17
19076.0	4.6500399088489805e+17
19077.0	4.649186477036884e+17
19078.0	4.648305849357653e+17
19079.0	4.6474722992455674e+17
19080.0	4.6466058217499296e+17
19081.0	4.6457266271245645e+17
19082.0	4.6448636197164365e+17
19083.0	4.643981927383039e+17
19084.0	4.6430492176329376e+17
19085.0	4.6423090495051085e+17
19086.0	4.6412263046075725e+17
19087.0	4.6400416528029005e+17
19088.0	4.6396921631211514e+17
19089.0	4.63849504514594e+17
19090.0	4.638007668419242e+17
19091.0	4.637155319436629e+17
19092.0	4.6361353367060474e+17
19093.0	4.6354526011828896e+17
19094.0	4.6345930729499296e+17
19095.0	4.633736953987072e+17
19096.0	4.632864238163285e+17
19097.0	4.632023764653397e+17
19098.0	4.631158684560042e+17
19099.0	4.630299981905919e+17
19100.0	4.6294195779229e+17
19101.0	4.628587336433663e+17
19102.0	4.6276726957451936e+17
19103.0	4.6268835129808205e+17
19104.0	4.6260319707026765e+17
19105.0	4.6251598322947405e+17
19106.0	4.624218890523987e+17
19107.0	4.6234508813052576e+17
19108.0	4.6226051830906874e+17
19109.0	4.62020069905749e+17
19110.0	4.6208974225844896e+17
19111.0	4.620036354342911e+17
19112.0	4.6191882758608205e+17
19113.0	4.6183377402156365e+17
19114.0	4.617480298648917e+17
19115.0	4.6165597418946554e+17
19116.0	4.6157663068050765e+17
19117.0	4.614915476859562e+17
19118.0	4.613936295619242e+17
19119.0	4.6095405433924205e+17
19120.0	4.6121847018400416e+17
19121.0	4.6114099202184525e+17
19122.0	4.610661537546239e+17
19123.0	4.6098086412069536e+17
19124.0	4.608860171359573e+17
19125.0	4.608099488191829e+17
19126.0	4.6072407296136525e+17
19127.0	4.605328706502654e+17
19128.0	4.6048482231145786e+17
19129.0	4.604648793746091e+17
19130.0	4.603840919764992e+17
19131.0	4.6029719452603725e+17
19132.0	4.602144087517866e+17
19133.0	4.601118800390826e+17
19134.0	4.600093798476458e+17
19135.0	4.599586612751019e+17
19136.0	4.5987457876186445e+17
19137.0	4.5977961699300685e+17
19138.0	4.5970050738640205e+17
19139.0	4.596196460287317e+17
19140.0	4.5953475254681594e+17
19141.0	4.5944984207796896e+17
19142.0	4.593628737437695e+17
19143.0	4.5927597433596576e+17
19144.0	4.591933598291286e+17
19145.0	4.591098878667434e+17
19146.0	4.5898804109858125e+17
19147.0	4.5893484313313274e+17
19148.0	4.58854196314112e+17
19149.0	4.5876949423226874e+17
19150.0	4.5868566855024634e+17
19151.0	4.586013027117738e+17
19152.0	4.5851469166237005e+17
19153.0	4.584297386213375e+17
19154.0	4.583397810066772e+17
19155.0	4.5826222972381856e+17
19156.0	4.5817798538035194e+17
19157.0	4.5809202983075834e+17
19158.0	4.5790444161160506e+17
19159.0	4.579228270635691e+17
19160.0	4.5783680713140896e+17
19161.0	4.5774880392260256e+17
19162.0	4.574306760305324e+17
19163.0	4.5758520942919674e+17
19164.0	4.5750146651477325e+17
19165.0	4.5741053456329376e+17
19166.0	4.573190076497919e+17
19167.0	4.572252330087764e+17
19168.0	4.5716095984380576e+17
19169.0	4.5707308092620794e+17
19170.0	4.5699447785171616e+17
19171.0	4.568947302421845e+17
19172.0	4.5682452374487034e+17
19173.0	4.567406721979732e+17
19174.0	4.566534058584746e+17
19175.0	4.565726610325504e+17
19176.0	4.5648817978081274e+17
19177.0	4.5639519877201914e+17
19178.0	4.56317758148881e+17
19179.0	4.562118084220245e+17
19180.0	4.5614466460549114e+17
19181.0	4.560584975930709e+17
19182.0	4.5598122460228256e+17
19183.0	4.5589789021306874e+17
19184.0	4.5581137919781536e+17
19185.0	4.557293232324607e+17
19186.0	4.5564592970356045e+17
19187.0	4.5555744107397114e+17
19188.0	4.554766080278527e+17
19189.0	4.5539074496266234e+17
19190.0	4.5530560891016525e+17
19191.0	4.5522068823517856e+17
19192.0	4.551412906196991e+17
19193.0	4.5505475947178656e+17
19194.0	4.549708977187497e+17
19195.0	4.548884846783146e+17
19196.0	4.5480407200344723e+17
19197.0	4.547204529608019e+17
19198.0	4.546364641902591e+17
19199.0	4.531612331715239e+17
19200.0	4.536145806011056e+17
19201.0	4.543847592536746e+17
19202.0	4.543013898420223e+17
19203.0	4.542138275244713e+17
19204.0	4.5413140071273805e+17
19205.0	4.540492865863679e+17
19206.0	4.539649315831807e+17
19207.0	4.538770653183998e+17
19208.0	4.5378299407018656e+17
19209.0	4.537130939667796e+17
19210.0	4.536299895652351e+17
19211.0	4.535470058897406e+17
19212.0	4.5346305857290234e+17
19213.0	4.533620368736255e+17
19214.0	4.532726005410475e+17
19215.0	4.5320736261625165e+17
19216.0	4.5312798044979194e+17
19217.0	4.530441000321023e+17
19218.0	4.529110760030206e+17
19219.0	4.528687401664511e+17
19220.0	4.527911110792532e+17
19221.0	4.526891033690111e+17
19222.0	4.526260894739113e+17
19223.0	4.525411432136702e+17
19224.0	4.5245608084111354e+17
19225.0	4.523663470624768e+17
19226.0	4.5229028734402554e+17
19227.0	4.5220733121112736e+17
19228.0	4.521253053748565e+17
19229.0	4.5204173750271994e+17
19230.0	4.5195534301921274e+17
19231.0	4.518721005551615e+17
19232.0	4.5179030652409165e+17
19233.0	4.517031894319102e+17
19234.0	4.5162237889522336e+17
19235.0	4.5153850854386336e+17
19236.0	4.5145715218841594e+17
19237.0	4.513725569914196e+17
19238.0	4.512827127627774e+17
19239.0	4.512069783126015e+17
19240.0	4.5111888115138554e+17
19241.0	4.5103765782528e+17
19242.0	4.5095572286559565e+17
19243.0	4.508637960252074e+17
19244.0	4.507899066493611e+17
19245.0	4.5070626055345485e+17
19246.0	4.5062221453066234e+17
19247.0	4.5053941477539834e+17
19248.0	4.5045621215723514e+17
19249.0	4.503723703271424e+17
19250.0	4.502884825694206e+17
19251.0	4.502017632370687e+17
19252.0	4.501050832715776e+17
19253.0	4.500384219398143e+17
19254.0	4.4995592641140045e+17
19255.0	4.49861708222737e+17
19256.0	4.4978774474751994e+17
19257.0	4.4970674742449485e+17
19258.0	4.496236628060842e+17
19259.0	4.495360691710634e+17
19260.0	4.4941776260519245e+17
19261.0	4.4937326949826554e+17
19262.0	4.492873638608895e+17
19263.0	4.492043418075136e+17
19264.0	4.490915888496639e+17
19265.0	4.490283377666729e+17
19266.0	4.4894272412276045e+17
19267.0	4.4887476703068154e+17
19268.0	4.4879108619195725e+17
19269.0	4.4870816228529485e+17
19270.0	4.486251398124885e+17
19271.0	4.485210689241088e+17
19272.0	4.4845655570513914e+17
19273.0	4.482357803352061e+17
19274.0	4.482140387409918e+17
19275.0	4.482092843575979e+17
19276.0	4.4812491768026445e+17
19277.0	4.480419282026496e+17
19278.0	4.479589797593088e+17
19279.0	4.478725376704512e+17
19280.0	4.477875456223914e+17
19281.0	4.477092448174078e+17
19282.0	4.4762688853988685e+17
19283.0	4.4752191112260256e+17
19284.0	4.474377220740436e+17
19285.0	4.4736599849697274e+17
19286.0	4.4729227088145056e+17
19287.0	4.472110079890772e+17
19288.0	4.466954265952256e+17
19289.0	4.455371532577418e+17
19290.0	4.469614475302229e+17
19291.0	4.4686357896888314e+17
19292.0	4.467949568699049e+17
19293.0	4.4671135775020365e+17
19294.0	4.466279513587712e+17
19295.0	4.4654533510430714e+17
19296.0	4.4646095521491616e+17
19297.0	4.463763882595668e+17
19298.0	4.462936034639872e+17
19299.0	4.4621122936067405e+17
19300.0	4.4612854970231456e+17
19301.0	4.460450012637866e+17
19302.0	4.459615988569428e+17
19303.0	4.458728835252223e+17
19304.0	4.457927965758805e+17
19305.0	4.457106788144468e+17
19306.0	4.4562663230231885e+17
19307.0	4.4553987557075616e+17
19308.0	4.4545870984642554e+17
19309.0	4.4532768181671245e+17
19310.0	4.452230887374846e+17
19311.0	4.452057610190846e+17
19312.0	4.4512631775559674e+17
19313.0	4.4504265502228474e+17
19314.0	4.4245994382731283e+17
19315.0	4.4266353331623834e+17
19316.0	4.447879243147946e+17
19317.0	4.447079847253332e+17
19318.0	4.446241270267902e+17
19319.0	4.4454123688427514e+17
19320.0	4.444569573086548e+17
19321.0	4.443729793034921e+17
19322.0	4.442836973912063e+17
19323.0	4.4418117979340794e+17
19324.0	4.4412025501122554e+17
19325.0	4.439889591752019e+17
19326.0	4.439529889639082e+17
19327.0	4.438678099197952e+17
19328.0	4.437834695966719e+17
19329.0	4.4370041335971834e+17
19330.0	4.4361330290851834e+17
19331.0	4.435288133380778e+17
19332.0	4.434463652752042e+17
19333.0	4.4336046362241696e+17
19334.0	4.4327706289329485e+17
19335.0	4.4301115464526515e+17
19336.0	4.429090448736256e+17
19337.0	4.4282457277945165e+17
19338.0	4.427273805496319e+17
19339.0	4.426538032999082e+17
19340.0	4.4255983788796576e+17
19341.0	4.424815394597546e+17
19342.0	4.423719496362665e+17
19343.0	4.4231207853315405e+17
19344.0	4.422246630162431e+17
19345.0	4.419976382032549e+17
19346.0	4.420225874613589e+17
19347.0	4.419626561000789e+17
19348.0	4.418814245950804e+17
19349.0	4.417923292594175e+17
19350.0	4.417052964727466e+17
19351.0	4.4161851513460045e+17
19352.0	4.415285861810175e+17
19353.0	4.414467943170047e+17
19354.0	4.4135924514160634e+17
19355.0	4.41265749561617e+17
19356.0	4.411832575284565e+17
19357.0	4.410951455473664e+17
19358.0	4.410052332311893e+17
19359.0	4.4091009774824096e+17
19360.0	4.408257047166975e+17
19361.0	4.407368434931029e+17
19362.0	4.4065036281664845e+17
19363.0	4.405604314862932e+17
19364.0	4.404697778268842e+17
19365.0	4.4037937911125325e+17
19366.0	4.4028875033804794e+17
19367.0	4.401971895904938e+17
19368.0	4.40105884066338e+17
19369.0	4.400087918706686e+17
19370.0	4.399047494336511e+17
19371.0	4.3982491477169485e+17
19372.0	4.3973466795977376e+17
19373.0	4.396388845267626e+17
19374.0	4.3932451354269e+17
19375.0	4.392208121724927e+17
19376.0	4.3912499791134714e+17
19377.0	4.390274144927744e+17
19378.0	4.3893007077867514e+17
19379.0	4.388318431150079e+17
19380.0	4.387328387361451e+17
19381.0	4.386325437699412e+17
19382.0	4.3852721186406394e+17
19383.0	4.3842400598097914e+17
19384.0	4.3832733692067834e+17
19385.0	4.382236705030143e+17
19386.0	4.381190825967615e+17
19387.0	4.380087059218432e+17
19388.0	4.3764145930458445e+17
19389.0	4.3753180363052365e+17
19390.0	4.3742021731833165e+17
19391.0	4.353960943725196e+17
19392.0	4.371913700802559e+17
19393.0	4.3707737448994125e+17
19394.0	4.3695828205131085e+17
19395.0	4.367521815024982e+17
19396.0	4.364115056612693e+17
19397.0	4.362892693121706e+17
19398.0	4.3615747931723085e+17
19399.0	4.3598150526566374e+17
19400.0	4.3582145160369485e+17
19401.0	4.354150701727744e+17
19402.0	4.3527102861585056e+17
19403.0	4.351225458502314e+17
19404.0	4.347646269456382e+17
19405.0	4.3443097733256525e+17
19406.0	4.3426571036043936e+17
19407.0	4.339419141461332e+17
19408.0	4.3365753285509126e+17
19409.0	4.33516679528448e+17
19410.0	4.3332503017444685e+17
19411.0	4.33124683092241e+17
19412.0	4.3291551615767885e+17
19413.0	4.326977985052672e+17
19414.0	4.32468844941585e+17
19415.0	4.322327830811989e+17
19416.0	4.319684181972308e+17
19417.0	4.316530247816532e+17
19418.0	4.3139275948031994e+17
19419.0	4.311012747859285e+17
19420.0	4.3080133773011616e+17
19421.0	4.3048149898144416e+17
19422.0	4.3014129604799136e+17
19423.0	4.297861192395434e+17
19424.0	4.294088792036694e+17
19425.0	4.290094996739413e+17
19426.0	4.2858527287760205e+17
19427.0	4.281389418195627e+17
19428.0	4.27673848451345e+17
19429.0	4.270824494901929e+17
19430.0	4.265037772357632e+17
19431.0	4.255976025402036e+17
19432.0	4.253036504765781e+17
19433.0	4.245813771370496e+17
19434.0	4.2377869752183456e+17
19435.0	4.2284218269914445e+17
19436.0	4.2158837017695514e+17
19437.0	4.20300969388715e+17
19438.0	4.149444704468975e+17
19439.0	4.1481421941200166e+17
19440.0	4.119576114976084e+17
19441.0	4.098893804819796e+17
19442.0	4.0757642175447046e+17
19443.0	4.0503183140017485e+17
19444.0	4.0219906174266016e+17
19445.0	3.989414994771972e+17
19446.0	3.9369876096505165e+17
19447.0	3.83855110459664e+17
19448.0	3.75811229019887e+17
19449.0	3.6030500282477126e+17
19450.0	3.133727577210878e+17
19451.0	2.97632214146525e+17
19452.0	3.404709378741621e+17
19453.0	3.703697810915335e+17
19454.0	3.7969810067292115e+17
19455.0	3.884144043316574e+17
19456.0	3.9620477322963603e+17
19457.0	3.9987666932640435e+17
19458.0	3.96364741747246e+17
19459.0	4.052155820408838e+17
19460.0	4.074994373317971e+17
19461.0	4.095366223189334e+17
19462.0	4.1156818421241197e+17
19463.0	4.149696291405827e+17
19464.0	4.174722036837024e+17
19465.0	4.1899275534554445e+17
19466.0	4.200497418338297e+17
19467.0	4.209410863792128e+17
19468.0	4.2166016645529594e+17
19469.0	4.221552418269865e+17
19470.0	4.227882916948649e+17
19471.0	4.2321056939813536e+17
19472.0	4.2359997669048314e+17
19473.0	4.240242515815082e+17
19474.0	4.243928701556053e+17
19475.0	4.246329080064681e+17
19476.0	4.249588012329642e+17
19477.0	4.25212911882513e+17
19478.0	4.2544246921625594e+17
19479.0	4.2564779626550605e+17
19480.0	4.2583489654729376e+17
19481.0	4.2600425051914234e+17
19482.0	4.261568781658794e+17
19483.0	4.2629443882407245e+17
19484.0	4.2641459437895674e+17
19485.0	4.265315403825151e+17
19486.0	4.266705926750207e+17
19487.0	4.267562875486207e+17
19488.0	4.2682969639703885e+17
19489.0	4.268914744404649e+17
19490.0	4.2685346034483174e+17
19491.0	4.26988911198208e+17
19492.0	4.270286658600959e+17
19493.0	4.2705894279304525e+17
19494.0	4.2708224271100576e+17
19495.0	4.2718123240980435e+17
19496.0	4.272864794509311e+17
19497.0	4.273146211336191e+17
19498.0	4.2742199238000646e+17
19499.0	4.24545102139661e+17
19500.0	4.2765881459780256e+17
19501.0	4.27641914069265e+17
19502.0	4.27775223660544e+17
19503.0	4.279223576778068e+17
19504.0	4.27892887589137e+17
19505.0	4.278627318715732e+17
19506.0	4.278292403541332e+17
19507.0	4.27791809965807e+17
19508.0	4.2801216639467526e+17
19509.0	4.2800039794660685e+17
19510.0	4.279443347122857e+17
19511.0	4.2328542374351706e+17
19512.0	4.275272809447403e+17
19513.0	4.2693978191735296e+17
19514.0	4.271990602290511e+17
19515.0	4.2766188888282464e+17
19516.0	4.2766257381266765e+17
19517.0	4.278439890649087e+17
19518.0	4.2780436156033696e+17
19519.0	4.2774638607291725e+17
19520.0	4.276876375053653e+17
19521.0	4.2763231477541536e+17
19522.0	4.275706922008576e+17
19523.0	4.275129661347157e+17
19524.0	4.2745161542096205e+17
19525.0	4.2738965716227405e+17
19526.0	4.2732893608345594e+17
19527.0	4.272655303005525e+17
19528.0	4.2720232982882976e+17
19529.0	4.2713828238731936e+17
19530.0	4.2707462438693536e+17
19531.0	4.270100111338153e+17
19532.0	4.269444921207465e+17
19533.0	4.268788098793472e+17
19534.0	4.2681244690240845e+17
19535.0	4.2680795235614714e+17
19536.0	4.2689090618217805e+17
19537.0	4.268252050664107e+17
19538.0	4.267545137075541e+17
19539.0	4.266500681280173e+17
19540.0	4.2661818295910394e+17
19541.0	4.265503389734229e+17
19542.0	4.264806847960404e+17
19543.0	4.2641004244063565e+17
19544.0	4.263413515550719e+17
19545.0	4.262506856622761e+17
19546.0	4.2613754773722445e+17
19547.0	4.2613038568352416e+17
19548.0	4.260595847135231e+17
19549.0	4.2598267914376525e+17
19550.0	4.2591728875601914e+17
19551.0	4.2584601222184954e+17
19552.0	4.257743034646527e+17
19553.0	4.257014960794282e+17
19554.0	4.2562775441298765e+17
19555.0	4.2555765570928634e+17
19556.0	4.254862406931796e+17
19557.0	4.2541381240313165e+17
19558.0	4.2534120627459405e+17
19559.0	4.2526843286323194e+17
19560.0	4.251942760306004e+17
19561.0	4.2512166396013216e+17
19562.0	4.2504960064443725e+17
19563.0	4.249772970650282e+17
19564.0	4.249040237625343e+17
19565.0	4.248307062101333e+17
19566.0	4.247556431282175e+17
19567.0	4.246840126646953e+17
19568.0	4.2460910651965446e+17
19569.0	4.2453553856730445e+17
19570.0	4.244630548425387e+17
19571.0	4.243892728408746e+17
19572.0	4.243134403837951e+17
19573.0	4.242407014356308e+17
19574.0	4.2416192247999136e+17
19575.0	4.240934545915904e+17
19576.0	4.240192023385429e+17
19577.0	4.239416216256511e+17
19578.0	4.238684021500585e+17
19579.0	4.237951572989268e+17
19580.0	4.237211862040575e+17
19581.0	4.2364703559297696e+17
19582.0	4.2357381842425165e+17
19583.0	4.2349936624271354e+17
19584.0	4.234241676148734e+17
19585.0	4.233436344614911e+17
19586.0	4.2326726751027194e+17
19587.0	4.2319181512703994e+17
19588.0	4.230975286411264e+17
19589.0	4.2304990099101e+17
19590.0	4.22969695342865e+17
19591.0	4.22901854712627e+17
19592.0	4.228274140654251e+17
19593.0	4.2275152764163405e+17
19594.0	4.226613434646527e+17
19595.0	4.226017386299392e+17
19596.0	4.223840326516736e+17
19597.0	4.2245223245414394e+17
19598.0	4.2235244080442016e+17
19599.0	4.2230315647412896e+17
19600.0	4.2222865263274656e+17
19601.0	4.2214983362150394e+17
19602.0	4.2207643386074445e+17
19603.0	4.21954359202065e+17
19604.0	4.219259831276885e+17
19605.0	4.2183561433142605e+17
19606.0	4.217782513522004e+17
19607.0	4.2170363706081274e+17
19608.0	4.2162773728515405e+17
19609.0	4.215499043547817e+17
19610.0	4.2147803320811514e+17
19611.0	4.214020865261567e+17
19612.0	4.213284381130751e+17
19613.0	4.212525931429887e+17
19614.0	4.21175922594065e+17
19615.0	4.211029688276308e+17
19616.0	4.2101045534392314e+17
19617.0	4.2095167028592634e+17
19618.0	4.208455564918783e+17
19619.0	4.207564837355518e+17
19620.0	4.206860826924372e+17
19621.0	4.2065095364881056e+17
19622.0	4.205771232029354e+17
19623.0	4.205020857062741e+17
19624.0	4.2042630099435514e+17
19625.0	4.20351660069137e+17
19626.0	4.202761106576725e+17
19627.0	4.202014485512192e+17
19628.0	4.2009166858595e+17
19629.0	4.200436633785685e+17
19630.0	4.1996431308881914e+17
19631.0	4.1834466701038803e+17
19632.0	4.1982525310675616e+17
19633.0	4.1974593098874874e+17
19634.0	4.1967562990987936e+17
19635.0	4.195983639795028e+17
19636.0	4.1952352109854714e+17
19637.0	4.194292829170346e+17
19638.0	4.193743481602047e+17
19639.0	4.192990737552723e+17
19640.0	4.192216664069461e+17
19641.0	4.1908461388868294e+17
19642.0	4.190742314483712e+17
19643.0	4.189983105613824e+17
19644.0	4.189210124746751e+17
19645.0	4.1883262947164154e+17
19646.0	4.187734200898901e+17
19647.0	4.186994956916053e+17
19648.0	4.186242106611029e+17
19649.0	4.185489758224383e+17
19650.0	4.1847428994826234e+17
19651.0	4.1839894535864314e+17
19652.0	4.183238947897344e+17
19653.0	4.1824845275245216e+17
19654.0	4.18173826507298e+17
19655.0	4.1809847255039994e+17
