# Flux units: erg / (cm m2 s)
# Wavelength units: Angstrom
wave	flux
19000.0	7.580654402622803e+17
19001.0	7.579117261509974e+17
19002.0	7.577775025509714e+17
19003.0	7.576331782280532e+17
19004.0	7.57488661246771e+17
19005.0	7.573444616344918e+17
19006.0	7.572004755122858e+17
19007.0	7.57035980501811e+17
19008.0	7.569031145979903e+17
19009.0	7.567571360415743e+17
19010.0	7.565858964504573e+17
19011.0	7.56476238050099e+17
19012.0	7.563142095699968e+17
19013.0	7.561915004529322e+17
19014.0	7.560410955076948e+17
19015.0	7.559001688506368e+17
19016.0	7.557552539697152e+17
19017.0	7.555409992744957e+17
19018.0	7.554703067971581e+17
19019.0	7.553267389868712e+17
19020.0	7.551746321328809e+17
19021.0	7.550349035088552e+17
19022.0	7.5489640213818e+17
19023.0	7.547484603678717e+17
19024.0	7.546074127750484e+17
19025.0	7.544619548715688e+17
19026.0	7.543183230282408e+17
19027.0	7.54169951621393e+17
19028.0	7.540344876258642e+17
19029.0	7.538889003980118e+17
19030.0	7.537478300161363e+17
19031.0	7.53604894986513e+17
19032.0	7.534611338188115e+17
19033.0	7.533087919439871e+17
19034.0	7.531713801136808e+17
19035.0	7.530251754842793e+17
19036.0	7.518075287677609e+17
19037.0	7.527420083743402e+17
19038.0	7.52597449450018e+17
19039.0	7.52456258551808e+17
19040.0	7.52313309541171e+17
19041.0	7.521687394320383e+17
19042.0	7.520175872016383e+17
19043.0	7.518832447629993e+17
19044.0	7.517382577400489e+17
19045.0	7.515958959319721e+17
19046.0	7.514460161135956e+17
19047.0	7.513072951012009e+17
19048.0	7.511482103234557e+17
19049.0	7.510159517548544e+17
19050.0	7.508756665466879e+17
19051.0	7.506411680432127e+17
19052.0	7.505703242913106e+17
19053.0	7.504451377386838e+17
19054.0	7.503075238827347e+17
19055.0	7.501395892633599e+17
19056.0	7.500190055399424e+17
19057.0	7.498771038470143e+17
19058.0	7.497285185306624e+17
19059.0	7.495917227038035e+17
19060.0	7.494473943263913e+17
19061.0	7.493067351261183e+17
19062.0	7.491634802109098e+17
19063.0	7.490206094939475e+17
19064.0	7.488648377969321e+17
19065.0	7.487169628558676e+17
19066.0	7.48586209063731e+17
19067.0	7.484479351641428e+17
19068.0	7.483068749884074e+17
19069.0	7.481642587258879e+17
19070.0	7.480182282999123e+17
19071.0	7.478778554307923e+17
19072.0	7.477360917304658e+17
19073.0	7.475932231106557e+17
19074.0	7.4745114525696e+17
19075.0	7.473085791862784e+17
19076.0	7.471640840153769e+17
19077.0	7.470221884740948e+17
19078.0	7.468654950088701e+17
19079.0	7.467376050875049e+17
19080.0	7.465939268272127e+17
19081.0	7.4644821391005e+17
19082.0	7.463024137513642e+17
19083.0	7.461554176567977e+17
19084.0	7.46000527462673e+17
19085.0	7.458828250862931e+17
19086.0	7.45701817380591e+17
19087.0	7.455756116120915e+17
19088.0	7.45447792714274e+17
19089.0	7.452853691307348e+17
19090.0	7.451697611101523e+17
19091.0	7.450258736939007e+17
19092.0	7.448784082567165e+17
19093.0	7.447465871540223e+17
19094.0	7.446006524979881e+17
19095.0	7.444574286206292e+17
19096.0	7.443139287580671e+17
19097.0	7.441769613841748e+17
19098.0	7.440358500379305e+17
19099.0	7.438920627257343e+17
19100.0	7.437501614522368e+17
19101.0	7.436096489127935e+17
19102.0	7.434610682101757e+17
19103.0	7.433266005016577e+17
19104.0	7.431852025446397e+17
19105.0	7.430433868349437e+17
19106.0	7.428975174702419e+17
19107.0	7.427579279572991e+17
19108.0	7.426180716866216e+17
19109.0	7.423550421292372e+17
19110.0	7.423291874607103e+17
19111.0	7.421928233675433e+17
19112.0	7.420515083179347e+17
19113.0	7.419100144511657e+17
19114.0	7.417677773537276e+17
19115.0	7.416212485046271e+17
19116.0	7.414829279084544e+17
19117.0	7.413403190558719e+17
19118.0	7.411882179340969e+17
19119.0	7.408736950463144e+17
19120.0	7.409130543950505e+17
19121.0	7.40774027338274e+17
19122.0	7.406368905145002e+17
19123.0	7.404899469885439e+17
19124.0	7.403491802742783e+17
19125.0	7.402088996798463e+17
19126.0	7.400624962404352e+17
19127.0	7.397720329988778e+17
19128.0	7.396662343368701e+17
19129.0	7.396397155702099e+17
19130.0	7.395042317216424e+17
19131.0	7.393615194095616e+17
19132.0	7.39222698992162e+17
19133.0	7.389802362044416e+17
19134.0	7.388896939038036e+17
19135.0	7.388008171612842e+17
19136.0	7.386606986067968e+17
19137.0	7.385045081784319e+17
19138.0	7.383460704419839e+17
19139.0	7.382372615279956e+17
19140.0	7.380970033031849e+17
19141.0	7.379561541009407e+17
19142.0	7.37812629491985e+17
19143.0	7.37669044904482e+17
19144.0	7.375272378630143e+17
19145.0	7.373910458761216e+17
19146.0	7.371941764311722e+17
19147.0	7.371007641081172e+17
19148.0	7.369701397801641e+17
19149.0	7.368289241355603e+17
19150.0	7.366856935473151e+17
19151.0	7.365481314211155e+17
19152.0	7.363994370528595e+17
19153.0	7.362660531524948e+17
19154.0	7.361149683105791e+17
19155.0	7.359864226796883e+17
19156.0	7.358459719363241e+17
19157.0	7.357037646184447e+17
19158.0	7.354763890218323e+17
19159.0	7.354230346787497e+17
19160.0	7.352736408403965e+17
19161.0	7.351319635427325e+17
19162.0	7.348139279253505e+17
19163.0	7.348552558007636e+17
19164.0	7.347231529806505e+17
19165.0	7.345803299389437e+17
19166.0	7.344313674148522e+17
19167.0	7.342846218600445e+17
19168.0	7.341398958626131e+17
19169.0	7.340074720384339e+17
19170.0	7.338816555013459e+17
19171.0	7.337346136888659e+17
19172.0	7.336009647084884e+17
19173.0	7.334612296531968e+17
19174.0	7.33315995865361e+17
19175.0	7.331815309530451e+17
19176.0	7.330408654613161e+17
19177.0	7.328868373364735e+17
19178.0	7.327584505298943e+17
19179.0	7.326122628175187e+17
19180.0	7.324250493594281e+17
19181.0	7.323328911332694e+17
19182.0	7.32168671269137e+17
19183.0	7.320524053020671e+17
19184.0	7.31899695866402e+17
19185.0	7.317790813847551e+17
19186.0	7.316422500461225e+17
19187.0	7.314936843031892e+17
19188.0	7.313610798443177e+17
19189.0	7.312171939659773e+17
19190.0	7.310767683884372e+17
19191.0	7.309384238847316e+17
19192.0	7.307905109153106e+17
19193.0	7.305845247311871e+17
19194.0	7.304851755106303e+17
19195.0	7.303788968804351e+17
19196.0	7.302432091886931e+17
19197.0	7.301040688857088e+17
19198.0	7.299639320160936e+17
19199.0	7.28710161856375e+17
19200.0	7.288848739117742e+17
19201.0	7.295455711636136e+17
19202.0	7.294075455668224e+17
19203.0	7.292661231430314e+17
19204.0	7.291264086398291e+17
19205.0	7.289880202357417e+17
19206.0	7.288476522599764e+17
19207.0	7.286997706080255e+17
19208.0	7.285522453321042e+17
19209.0	7.284294925942781e+17
19210.0	7.282900335241897e+17
19211.0	7.281497481762131e+17
19212.0	7.28013474959633e+17
19213.0	7.278577640800255e+17
19214.0	7.277097076654079e+17
19215.0	7.275909102960637e+17
19216.0	7.274415276425216e+17
19217.0	7.27315838472465e+17
19218.0	7.270991635240274e+17
19219.0	7.270218527145983e+17
19220.0	7.268957692799658e+17
19221.0	7.267284247991635e+17
19222.0	7.266193022910463e+17
19223.0	7.264792775491583e+17
19224.0	7.263135487142569e+17
19225.0	7.261815437612372e+17
19226.0	7.260607181662889e+17
19227.0	7.259211633262591e+17
19228.0	7.257850411046228e+17
19229.0	7.256451336634365e+17
19230.0	7.25498050467157e+17
19231.0	7.253588424960681e+17
19232.0	7.252062156881919e+17
19233.0	7.25080900510242e+17
19234.0	7.249470033668777e+17
19235.0	7.248064642635091e+17
19236.0	7.246707452542975e+17
19237.0	7.245299553315497e+17
19238.0	7.243825659510783e+17
19239.0	7.242535304254803e+17
19240.0	7.240724364569257e+17
19241.0	7.239570385709738e+17
19242.0	7.238286049279999e+17
19243.0	7.236776164152659e+17
19244.0	7.235568523367763e+17
19245.0	7.234178297539241e+17
19246.0	7.232774310199293e+17
19247.0	7.231366275355987e+17
19248.0	7.230015204753405e+17
19249.0	7.228616419748521e+17
19250.0	7.227211390823081e+17
19251.0	7.225684882270889e+17
19252.0	7.224091386489513e+17
19253.0	7.223032713401684e+17
19254.0	7.221595322624681e+17
19255.0	7.220094417502207e+17
19256.0	7.218791965873492e+17
19257.0	7.217476342732116e+17
19258.0	7.216080398669139e+17
19259.0	7.214629973393407e+17
19260.0	7.213194794412713e+17
19261.0	7.211898774050131e+17
19262.0	7.210462420664319e+17
19263.0	7.209058219414868e+17
19264.0	7.207231291042472e+17
19265.0	7.206173593829375e+17
19266.0	7.204842058896723e+17
19267.0	7.203554320886442e+17
19268.0	7.202146713862143e+17
19269.0	7.200760464233812e+17
19270.0	7.199355134716586e+17
19271.0	7.197659372016982e+17
19272.0	7.196543488622591e+17
19273.0	7.184501875321507e+17
19274.0	7.187706600401572e+17
19275.0	7.192387619826344e+17
19276.0	7.190971933174441e+17
19277.0	7.189574695867731e+17
19278.0	7.188177850029395e+17
19279.0	7.186649433068884e+17
19280.0	7.185299538269523e+17
19281.0	7.183977871136084e+17
19282.0	7.182597890594131e+17
19283.0	7.180993416921088e+17
19284.0	7.179323800114516e+17
19285.0	7.178157218769577e+17
19286.0	7.176955370318505e+17
19287.0	7.175588355768319e+17
19288.0	7.170810654840145e+17
19289.0	7.16620567535069e+17
19290.0	7.171372343448916e+17
19291.0	7.169698621816832e+17
19292.0	7.168557483119955e+17
19293.0	7.167145319683411e+17
19294.0	7.165733013640531e+17
19295.0	7.164335944105983e+17
19296.0	7.162920732808532e+17
19297.0	7.161487775410857e+17
19298.0	7.1600753882781e+17
19299.0	7.158694184397481e+17
19300.0	7.157277425401853e+17
19301.0	7.155853102678015e+17
19302.0	7.154421337860777e+17
19303.0	7.15292897793365e+17
19304.0	7.151530304776874e+17
19305.0	7.150171242627071e+17
19306.0	7.148756312347987e+17
19307.0	7.147278842200061e+17
19308.0	7.145878427009023e+17
19309.0	7.144152101814271e+17
19310.0	7.142545170279081e+17
19311.0	7.141557836709888e+17
19312.0	7.140154902140244e+17
19313.0	7.138305523056639e+17
19314.0	7.135149428135254e+17
19315.0	7.133736792140458e+17
19316.0	7.134464755542698e+17
19317.0	7.133037096949075e+17
19318.0	7.131590433964032e+17
19319.0	7.130165263990781e+17
19320.0	7.128604387311616e+17
19321.0	7.12727285936947e+17
19322.0	7.12561821483008e+17
19323.0	7.124193922864467e+17
19324.0	7.12290820231441e+17
19325.0	7.121264592988842e+17
19326.0	7.120001525874687e+17
19327.0	7.118522951226708e+17
19328.0	7.117074343482708e+17
19329.0	7.115607698833407e+17
19330.0	7.114100310715049e+17
19331.0	7.112618243609939e+17
19332.0	7.111173124128765e+17
19333.0	7.109666952358569e+17
19334.0	7.108078144410963e+17
19335.0	7.106725201750697e+17
19336.0	7.105217732542463e+17
19337.0	7.103703876807338e+17
19338.0	7.102009123536893e+17
19339.0	7.100704981603667e+17
19340.0	7.099155956629501e+17
19341.0	7.097662423695359e+17
19342.0	7.095705374031871e+17
19343.0	7.094621894432084e+17
19344.0	7.093084345073663e+17
19345.0	7.089947545348773e+17
19346.0	7.089154287818067e+17
19347.0	7.088385617297407e+17
19348.0	7.086897241959081e+17
19349.0	7.085300632606036e+17
19350.0	7.08373567906338e+17
19351.0	7.082147531019602e+17
19352.0	7.080521263742973e+17
19353.0	7.079004167208959e+17
19354.0	7.077388684886015e+17
19355.0	7.075690293755901e+17
19356.0	7.074160453528233e+17
19357.0	7.072516805055827e+17
19358.0	7.070725308765526e+17
19359.0	7.06863922553378e+17
19360.0	7.067498983019859e+17
19361.0	7.06580324548608e+17
19362.0	7.064182604169215e+17
19363.0	7.062472674508799e+17
19364.0	7.060747404880553e+17
19365.0	7.059019264950271e+17
19366.0	7.057280026891604e+17
19367.0	7.055517063053311e+17
19368.0	7.053732129450666e+17
19369.0	7.051606517699923e+17
19370.0	7.048784023737683e+17
19371.0	7.0482249397917e+17
19372.0	7.046418142680404e+17
19373.0	7.044514046104916e+17
19374.0	7.042629861288617e+17
19375.0	7.040705075609599e+17
19376.0	7.038747637273939e+17
19377.0	7.036768060702719e+17
19378.0	7.034762607372969e+17
19379.0	7.032716968416595e+17
19380.0	7.030655385512618e+17
19381.0	7.028547331817471e+17
19382.0	7.026333376140628e+17
19383.0	7.024118331342847e+17
19384.0	7.02200344023313e+17
19385.0	7.019741684170751e+17
19386.0	7.017438986108927e+17
19387.0	7.01508234510336e+17
19388.0	7.012656944775167e+17
19389.0	7.010192360559955e+17
19390.0	7.007645662358185e+17
19391.0	6.995992886902772e+17
19392.0	7.002062827727526e+17
19393.0	6.99973625848354e+17
19394.0	6.996925286973437e+17
19395.0	6.994020794367999e+17
19396.0	6.991041043365887e+17
19397.0	6.988028174838442e+17
19398.0	6.984859088759466e+17
19399.0	6.98103249309969e+17
19400.0	6.978153424966996e+17
19401.0	6.974712424256851e+17
19402.0	6.971107916993876e+17
19403.0	6.967330967912448e+17
19404.0	6.963435294162943e+17
19405.0	6.959319218126845e+17
19406.0	6.955076680329897e+17
19407.0	6.950628344113833e+17
19408.0	6.945326198598314e+17
19409.0	6.940968169242623e+17
19410.0	6.935981245945172e+17
19411.0	6.930582995643049e+17
19412.0	6.924926867647145e+17
19413.0	6.918993719853056e+17
19414.0	6.912659032462676e+17
19415.0	6.906017676438186e+17
19416.0	6.898787109481129e+17
19417.0	6.891285340924585e+17
19418.0	6.883587442518697e+17
19419.0	6.875160737655466e+17
19420.0	6.866183742204585e+17
19421.0	6.856547235790847e+17
19422.0	6.846289601888255e+17
19423.0	6.835224931467263e+17
19424.0	6.823499511365631e+17
19425.0	6.810670855094271e+17
19426.0	6.797117743955967e+17
19427.0	6.782452250968063e+17
19428.0	6.767060343674196e+17
19429.0	6.750024770431656e+17
19430.0	6.730980333890218e+17
19431.0	6.709490425178796e+17
19432.0	6.688822964955816e+17
19433.0	6.665396043470166e+17
19434.0	6.640787613111636e+17
19435.0	6.613529594778962e+17
19436.0	6.583264387705514e+17
19437.0	6.550909708402688e+17
19438.0	6.504257248646486e+17
19439.0	6.471705334994263e+17
19440.0	6.430699034072404e+17
19441.0	6.38486968620373e+17
19442.0	6.332642059703639e+17
19443.0	6.272402347174572e+17
19444.0	6.2082304222167e+17
19445.0	6.138167983166807e+17
19446.0	6.056029318021121e+17
19447.0	5.964892165810853e+17
19448.0	5.856656327966725e+17
19449.0	5.7023093136861875e+17
19450.0	5.3374043400000634e+17
19451.0	5.200087934304266e+17
19452.0	5.5459686719160365e+17
19453.0	5.790698192240646e+17
19454.0	5.908447554611878e+17
19455.0	6.004391400876716e+17
19456.0	6.089077590502063e+17
19457.0	6.162315274267304e+17
19458.0	6.223611451583148e+17
19459.0	6.28639386374417e+17
19460.0	6.339995043714385e+17
19461.0	6.386258641857194e+17
19462.0	6.427183830532096e+17
19463.0	6.465685470664019e+17
19464.0	6.502879444948308e+17
19465.0	6.535274229486934e+17
19466.0	6.563672776944297e+17
19467.0	6.589700279457108e+17
19468.0	6.612870280249343e+17
19469.0	6.632545614211753e+17
19470.0	6.654498976038911e+17
19471.0	6.673088076141908e+17
19472.0	6.68975865475891e+17
19473.0	6.704791441549993e+17
19474.0	6.718499912504659e+17
19475.0	6.730232336394921e+17
19476.0	6.742063715800404e+17
19477.0	6.752513531314175e+17
19478.0	6.762109394922153e+17
19479.0	6.770797716701183e+17
19480.0	6.778746477827411e+17
19481.0	6.785974573640361e+17
19482.0	6.792638033646931e+17
19483.0	6.798620193980415e+17
19484.0	6.804101985730559e+17
19485.0	6.808998399442943e+17
19486.0	6.813644620824575e+17
19487.0	6.817782959527251e+17
19488.0	6.821618953923242e+17
19489.0	6.824896592084991e+17
19490.0	6.827075903509843e+17
19491.0	6.830943159451647e+17
19492.0	6.833566984612522e+17
19493.0	6.835878893365929e+17
19494.0	6.83795469705762e+17
19495.0	6.839665151705087e+17
19496.0	6.841093653353812e+17
19497.0	6.842986331635711e+17
19498.0	6.842465349446313e+17
19499.0	6.831256451590825e+17
19500.0	6.846539810996223e+17
19501.0	6.847401813169492e+17
19502.0	6.848203522222761e+17
19503.0	6.848879419632297e+17
19504.0	6.84935479365905e+17
19505.0	6.849864136654847e+17
19506.0	6.850218732901716e+17
19507.0	6.850464476474026e+17
19508.0	6.850665166230868e+17
19509.0	6.850780902457343e+17
19510.0	6.850650831497898e+17
19511.0	6.842436632444924e+17
19512.0	6.848010011716265e+17
19513.0	6.846310465754447e+17
19514.0	6.847120756353702e+17
19515.0	6.849519176821417e+17
19516.0	6.849725482052265e+17
19517.0	6.849341418023593e+17
19518.0	6.848991471861759e+17
19519.0	6.848538245158228e+17
19520.0	6.848034767197523e+17
19521.0	6.847548145445546e+17
19522.0	6.846950829719551e+17
19523.0	6.846415064705706e+17
19524.0	6.845798795618985e+17
19525.0	6.845074412055209e+17
19526.0	6.844457348147881e+17
19527.0	6.84377111527424e+17
19528.0	6.843048530367827e+17
19529.0	6.842297350793898e+17
19530.0	6.841550513023657e+17
19531.0	6.840765182028457e+17
19532.0	6.839956207741609e+17
19533.0	6.839132388414804e+17
19534.0	6.838281945743359e+17
19535.0	6.837405657071615e+17
19536.0	6.836510612870484e+17
19537.0	6.835659176848042e+17
19538.0	6.834629131982164e+17
19539.0	6.833394941951999e+17
19540.0	6.832867861244585e+17
19541.0	6.831948010531497e+17
19542.0	6.830986827748692e+17
19543.0	6.830019091365887e+17
19544.0	6.829044405021353e+17
19545.0	6.827604880741716e+17
19546.0	6.826323651592191e+17
19547.0	6.8259921540765e+17
19548.0	6.825024446354772e+17
19549.0	6.823904298751316e+17
19550.0	6.822971998644906e+17
19551.0	6.821932436204201e+17
19552.0	6.820881163266729e+17
19553.0	6.819799967465471e+17
19554.0	6.818730822598655e+17
19555.0	6.817682999476223e+17
19556.0	6.816619200948906e+17
19557.0	6.815529771728895e+17
19558.0	6.814441682589011e+17
19559.0	6.813300114675027e+17
19560.0	6.812221255800147e+17
19561.0	6.811115006022995e+17
19562.0	6.810024718368767e+17
19563.0	6.808895723580074e+17
19564.0	6.807795604477267e+17
19565.0	6.806672288776191e+17
19566.0	6.805525268267007e+17
19567.0	6.804398537703423e+17
19568.0	6.80324921172514e+17
19569.0	6.802124394463231e+17
19570.0	6.801006787209898e+17
19571.0	6.799853490623828e+17
19572.0	6.798676640923647e+17
19573.0	6.79753747075345e+17
19574.0	6.796312172647764e+17
19575.0	6.795237749948415e+17
19576.0	6.794083790662314e+17
19577.0	6.792778194004649e+17
19578.0	6.791690864033791e+17
19579.0	6.79056410550818e+17
19580.0	6.789391876532905e+17
19581.0	6.78823740973602e+17
19582.0	6.787075628072959e+17
19583.0	6.785897969571156e+17
19584.0	6.78470193652258e+17
19585.0	6.783423613326676e+17
19586.0	6.782087907857748e+17
19587.0	6.78091881062946e+17
19588.0	6.7794701923997e+17
19589.0	6.778488040893097e+17
19590.0	6.777511566376959e+17
19591.0	6.776400316290387e+17
19592.0	6.775212892050771e+17
19593.0	6.773988976667305e+17
19594.0	6.772588772589565e+17
19595.0	6.771571688123049e+17
19596.0	6.767564036243456e+17
19597.0	6.76903136666146e+17
19598.0	6.767806762014035e+17
19599.0	6.766823105451348e+17
19600.0	6.765625988175188e+17
19601.0	6.764356945575936e+17
19602.0	6.763158279902548e+17
19603.0	6.761513533221546e+17
19604.0	6.760707083905706e+17
19605.0	6.759308714136916e+17
19606.0	6.758342758236159e+17
19607.0	6.757176922778281e+17
19608.0	6.755944686594729e+17
19609.0	6.754698814728874e+17
19610.0	6.753538813547859e+17
19611.0	6.752320166909268e+17
19612.0	6.751114677802323e+17
19613.0	6.749882658324477e+17
19614.0	6.748642956279807e+17
19615.0	6.747465332031487e+17
19616.0	6.746178657277267e+17
19617.0	6.74502965006609e+17
19618.0	6.743325193273341e+17
19619.0	6.742013345005567e+17
19620.0	6.740805363782996e+17
19621.0	6.740157374573225e+17
19622.0	6.738945519910911e+17
19623.0	6.73772595192354e+17
19624.0	6.736495287904938e+17
19625.0	6.735281053674154e+17
19626.0	6.734058349046441e+17
19627.0	6.732839442361002e+17
19628.0	6.731358597895508e+17
19629.0	6.73031283347729e+17
19630.0	6.728113478172671e+17
19631.0	6.716767336398849e+17
19632.0	6.726719181772115e+17
19633.0	6.725464914307753e+17
19634.0	6.724279225111891e+17
19635.0	6.723015266708137e+17
19636.0	6.721827703357439e+17
19637.0	6.720191420082858e+17
19638.0	6.719376652763135e+17
19639.0	6.718125918999891e+17
19640.0	6.716828164292607e+17
19641.0	6.715296352043008e+17
19642.0	6.714474467688447e+17
19643.0	6.713225724122452e+17
19644.0	6.711969870512127e+17
19645.0	6.710573610478249e+17
19646.0	6.709585812739412e+17
19647.0	6.708359980559018e+17
19648.0	6.707129087950847e+17
19649.0	6.705900026156372e+17
19650.0	6.704681778675711e+17
19651.0	6.703449262172842e+17
19652.0	6.702218540832084e+17
19653.0	6.70099668275473e+17
19654.0	6.699764850622464e+17
19655.0	6.698533659519658e+17
19656.0	6.697312068479657e+17
19657.0	6.696086807423657e+17
19658.0	6.694861854649002e+17
19659.0	6.693642025216681e+17
19660.0	6.692416808200873e+17
19661.0	6.691190156034047e+17
19662.0	6.689963480798547e+17
19663.0	6.688687891589802e+17
19664.0	6.687457391149055e+17
19665.0	6.686283534783828e+17
