# Flux units: erg / (cm m2 s)
# Wavelength units: Angstrom
wave	flux
19000.0	5.593493248409599e+17
19001.0	5.59229878542882e+17
19002.0	5.5914282121953274e+17
19003.0	5.5903766715214496e+17
19004.0	5.58934269169937e+17
19005.0	5.5882986196828154e+17
19006.0	5.5872797323646285e+17
19007.0	5.5862150586258765e+17
19008.0	5.5851500731105274e+17
19009.0	5.5840558008674976e+17
19010.0	5.582450033251668e+17
19011.0	5.582065031796053e+17
19012.0	5.5797223892800826e+17
19013.0	5.58008039969041e+17
19014.0	5.578990125318143e+17
19015.0	5.577970308961619e+17
19016.0	5.5769221754606925e+17
19017.0	5.5759726766107296e+17
19018.0	5.574882857320447e+17
19019.0	5.573907876675583e+17
19020.0	5.572869412443477e+17
19021.0	5.571865528150698e+17
19022.0	5.570831109324798e+17
19023.0	5.5697326952065696e+17
19024.0	5.568679306941779e+17
19025.0	5.567637002824362e+17
19026.0	5.566537383542783e+17
19027.0	5.5645771497035066e+17
19028.0	5.5646607435803296e+17
19029.0	5.56360239485201e+17
19030.0	5.562618163669674e+17
19031.0	5.561601833478825e+17
19032.0	5.560552575904425e+17
19033.0	5.5593913534818976e+17
19034.0	5.558416191782911e+17
19035.0	5.5568813959850656e+17
19036.0	5.481482803303735e+17
19037.0	5.554994334575273e+17
19038.0	5.5543101310457165e+17
19039.0	5.553363965968384e+17
19040.0	5.552357044300458e+17
19041.0	5.551330261904041e+17
19042.0	5.548279308397223e+17
19043.0	5.5493183157917e+17
19044.0	5.5482686241068365e+17
19045.0	5.5472147444094285e+17
19046.0	5.5461584271223456e+17
19047.0	5.5451981733778765e+17
19048.0	5.54356717073203e+17
19049.0	5.5391220235851034e+17
19050.0	5.5419831687577594e+17
19051.0	5.5296587712866797e+17
19052.0	5.538138264261973e+17
19053.0	5.539033532159317e+17
19054.0	5.5380603089278285e+17
19055.0	5.5361459125398195e+17
19056.0	5.535794729058303e+17
19057.0	5.535001589667156e+17
19058.0	5.5319319421474106e+17
19059.0	5.5321934877600403e+17
19060.0	5.53190918455296e+17
19061.0	5.530927253247317e+17
19062.0	5.529909004861439e+17
19063.0	5.5288923356310176e+17
19064.0	5.5276945234984954e+17
19065.0	5.5266194178266426e+17
19066.0	5.5250280373725856e+17
19067.0	5.524799714841941e+17
19068.0	5.5238024659380896e+17
19069.0	5.522786403483647e+17
19070.0	5.5217258415609165e+17
19071.0	5.5206951025377274e+17
19072.0	5.518963205909161e+17
19073.0	5.5187095358013434e+17
19074.0	5.5176996159051085e+17
19075.0	5.516682557303466e+17
19076.0	5.515636952967849e+17
19077.0	5.5146245136930125e+17
19078.0	5.513564129329151e+17
19079.0	5.512612359962623e+17
19080.0	5.5115797237159245e+17
19081.0	5.51051504718097e+17
19082.0	5.509507225135786e+17
19083.0	5.5084176099682976e+17
19084.0	5.5072385596566176e+17
19085.0	5.5064806922649594e+17
19086.0	5.503852568641535e+17
19087.0	5.50102878073651e+17
19088.0	5.5020936180531174e+17
19089.0	5.5012547320872954e+17
19090.0	5.501317638258688e+17
19091.0	5.5001915815799475e+17
19092.0	5.4973762570813466e+17
19093.0	5.49838884315682e+17
19094.0	5.4973945337610234e+17
19095.0	5.496385105297407e+17
19096.0	5.4953494100049914e+17
19097.0	5.4943583777587194e+17
19098.0	5.4925031650973e+17
19099.0	5.4913290361023155e+17
19100.0	5.491186755523924e+17
19101.0	5.4902596724326394e+17
19102.0	5.489118918912681e+17
19103.0	5.48828451386163e+17
19104.0	5.4872776390301005e+17
19105.0	5.484421172603567e+17
19106.0	5.4848917756095136e+17
19107.0	5.483720510625108e+17
19108.0	5.482470032015358e+17
19109.0	5.477490764021753e+17
19110.0	5.4808644258802336e+17
19111.0	5.4796281093379386e+17
19112.0	5.478560485605374e+17
19113.0	5.478177586195113e+17
19114.0	5.476816621229395e+17
19115.0	5.475861401348779e+17
19116.0	5.475130812312234e+17
19117.0	5.474101779671721e+17
19118.0	5.4727014120161274e+17
19119.0	5.459998464628034e+17
19120.0	5.470448121457319e+17
19121.0	5.4696555406076576e+17
19122.0	5.4691161034806605e+17
19123.0	5.468113371922431e+17
19124.0	5.466742528671743e+17
19125.0	5.466074389326505e+17
19126.0	5.465066339390804e+17
19127.0	5.4615022197800934e+17
19128.0	5.4626839866026643e+17
19129.0	5.461962913043796e+17
19130.0	5.4610509979538765e+17
19131.0	5.460056848640681e+17
19132.0	5.4590564309401594e+17
19133.0	5.457934571361621e+17
19134.0	5.456874142957568e+17
19135.0	5.456019646491306e+17
19136.0	5.4550427182912845e+17
19137.0	5.453806521286655e+17
19138.0	5.4530077251775136e+17
19139.0	5.452032066453503e+17
19140.0	5.451030973470036e+17
19141.0	5.450026044795562e+17
19142.0	5.4489697953163936e+17
19143.0	5.4479354862414496e+17
19144.0	5.44696614064401e+17
19145.0	5.446008554476885e+17
19146.0	5.4441304171479046e+17
19147.0	5.443874500291241e+17
19148.0	5.44231714123503e+17
19149.0	5.441210169338538e+17
19150.0	5.4409944870420474e+17
19151.0	5.4399945474921805e+17
19152.0	5.4389187036228256e+17
19153.0	5.436619112841212e+17
19154.0	5.4366632362202445e+17
19155.0	5.435960284151807e+17
19156.0	5.4349604256918176e+17
19157.0	5.433272113474218e+17
19158.0	5.429015059191123e+17
19159.0	5.4317807189360634e+17
19160.0	5.4308084135581e+17
19161.0	5.4297799317695136e+17
19162.0	5.421613677805573e+17
19163.0	5.427415733327188e+17
19164.0	5.42686724629026e+17
19165.0	5.4242641039414586e+17
19166.0	5.4245327945509536e+17
19167.0	5.42322351878963e+17
19168.0	5.422877899052373e+17
19169.0	5.421791805702143e+17
19170.0	5.4209174170501114e+17
19171.0	5.419488719667199e+17
19172.0	5.4188588211896314e+17
19173.0	5.417921562716843e+17
19174.0	5.4168767182493005e+17
19175.0	5.41595904577809e+17
19176.0	5.4149656304680954e+17
19177.0	5.4137468992443725e+17
19178.0	5.412706738416298e+17
19179.0	5.411334999681706e+17
19180.0	5.41094254285073e+17
19181.0	5.409774183819945e+17
19182.0	5.4089441317573965e+17
19183.0	5.4080017352622074e+17
19184.0	5.407004677898239e+17
19185.0	5.405994790158336e+17
19186.0	5.405017146130432e+17
19187.0	5.4039152171854496e+17
19188.0	5.4030085344897683e+17
19189.0	5.4020095729117856e+17
19190.0	5.400975667888128e+17
19191.0	5.3999043769357645e+17
19192.0	5.399025763920553e+17
19193.0	5.3978224572497914e+17
19194.0	5.396703268743851e+17
19195.0	5.3959802699994445e+17
19196.0	5.394892635941545e+17
19197.0	5.393738796892158e+17
19198.0	5.3919796254037325e+17
19199.0	5.3474178689051194e+17
19200.0	5.3585703351965146e+17
19201.0	5.389114933248e+17
19202.0	5.388817350874453e+17
19203.0	5.387840619107668e+17
19204.0	5.3870029557814605e+17
19205.0	5.386094559712598e+17
19206.0	5.3851160866106003e+17
19207.0	5.384002187821055e+17
19208.0	5.382819403879763e+17
19209.0	5.382175544661332e+17
19210.0	5.381186286605653e+17
19211.0	5.3802186662652576e+17
19212.0	5.379216174481407e+17
19213.0	5.377733191619924e+17
19214.0	5.376550322394453e+17
19215.0	5.376062088631637e+17
19216.0	5.37527050183202e+17
19217.0	5.3742655738565965e+17
19218.0	5.3721184662978534e+17
19219.0	5.3720953417018016e+17
19220.0	5.371261040110249e+17
19221.0	5.369889975959551e+17
19222.0	5.369325400970579e+17
19223.0	5.36833809326626e+17
19224.0	5.367318399243605e+17
19225.0	5.366187851863379e+17
19226.0	5.3653728454683296e+17
19227.0	5.3643917005946874e+17
19228.0	5.363438590448981e+17
19229.0	5.362450506798421e+17
19230.0	5.3614406582053536e+17
19231.0	5.360451078586366e+17
19232.0	5.359473805055317e+17
19233.0	5.358397490724862e+17
19234.0	5.357486905928362e+17
19235.0	5.356487245299712e+17
19236.0	5.3555464300571296e+17
19237.0	5.354534248731988e+17
19238.0	5.353376525058047e+17
19239.0	5.352591693884074e+17
19240.0	5.3516006833083725e+17
19241.0	5.3505881825170765e+17
19242.0	5.3496176464363514e+17
19243.0	5.3484352707406496e+17
19244.0	5.347671528527187e+17
19245.0	5.346678955573247e+17
19246.0	5.34567838617873e+17
19247.0	5.3447054229940896e+17
19248.0	5.343718120882175e+17
19249.0	5.342668237657428e+17
19250.0	5.341445293255338e+17
19251.0	5.34034078970675e+17
19252.0	5.339410584655188e+17
19253.0	5.3387776432100685e+17
19254.0	5.337824937115648e+17
19255.0	5.3365895621946016e+17
19256.0	5.3358213873008634e+17
19257.0	5.334878549005653e+17
19258.0	5.333897397840554e+17
19259.0	5.332806215401471e+17
19260.0	5.3301483227054035e+17
19261.0	5.3309244576890874e+17
19262.0	5.329861184148821e+17
19263.0	5.328863374606335e+17
19264.0	5.3271894852020883e+17
19265.0	5.326712859175593e+17
19266.0	5.3255893239726074e+17
19267.0	5.3250550842873165e+17
19268.0	5.3240628000413005e+17
19269.0	5.3230876096812365e+17
19270.0	5.32210132328994e+17
19271.0	5.3206236077752326e+17
19272.0	5.320094313174356e+17
19273.0	5.3186207297481363e+17
19274.0	5.317532900655102e+17
19275.0	5.317200672631466e+17
19276.0	5.316191072900436e+17
19277.0	5.315217491055956e+17
19278.0	5.314197532093097e+17
19279.0	5.3132016547266554e+17
19280.0	5.3121535491877536e+17
19281.0	5.31127070621696e+17
19282.0	5.310290704291156e+17
19283.0	5.30873294397986e+17
19284.0	5.3081477414038176e+17
19285.0	5.3071080042004474e+17
19286.0	5.306294684614655e+17
19287.0	5.3052636533882874e+17
19288.0	5.2841959391231834e+17
19289.0	5.252928503807913e+17
19290.0	5.302289424886442e+17
19291.0	5.3010602994783584e+17
19292.0	5.3004110743470074e+17
19293.0	5.299431703663956e+17
19294.0	5.2984339954838176e+17
19295.0	5.297486806297258e+17
19296.0	5.295623973983574e+17
19297.0	5.2952798194565114e+17
19298.0	5.294499736933717e+17
19299.0	5.292552234904234e+17
19300.0	5.292541700210687e+17
19301.0	5.291586745270272e+17
19302.0	5.2905926448906234e+17
19303.0	5.289493005336575e+17
19304.0	5.288596018473642e+17
19305.0	5.287626896572415e+17
19306.0	5.286618817975636e+17
19307.0	5.2855352691698336e+17
19308.0	5.284575069951317e+17
19309.0	5.282002026627071e+17
19310.0	5.280479919297874e+17
19311.0	5.2814200208097274e+17
19312.0	5.2806636186282656e+17
19313.0	5.2795550333228365e+17
19314.0	5.158985379698022e+17
19315.0	5.1679023420759014e+17
19316.0	5.275229331565227e+17
19317.0	5.2757360803839994e+17
19318.0	5.2747944542426445e+17
19319.0	5.2738503268980045e+17
19320.0	5.272487825418921e+17
19321.0	5.271088145629183e+17
19322.0	5.270663324150442e+17
19323.0	5.2692350643732474e+17
19324.0	5.268767824500053e+17
19325.0	5.2663580458571085e+17
19326.0	5.266790112296959e+17
19327.0	5.2657929864260256e+17
19328.0	5.263202813564246e+17
19329.0	5.263810589185364e+17
19330.0	5.2627604487099725e+17
19331.0	5.2617597374081683e+17
19332.0	5.260813893894143e+17
19333.0	5.259786066416981e+17
19334.0	5.2587842072739834e+17
19335.0	5.254562949278381e+17
19336.0	5.256774507910485e+17
19337.0	5.255842176346794e+17
19338.0	5.254552202073427e+17
19339.0	5.253825422163966e+17
19340.0	5.25255794753536e+17
19341.0	5.250585235641686e+17
19342.0	5.24982132216081e+17
19343.0	5.2498195235034445e+17
19344.0	5.2475542610029235e+17
19345.0	5.244125693607931e+17
19346.0	5.245466662229332e+17
19347.0	5.244092285277525e+17
19348.0	5.244713692386644e+17
19349.0	5.243633617862656e+17
19350.0	5.2420488084848634e+17
19351.0	5.241598090674175e+17
19352.0	5.238898064796327e+17
19353.0	5.2396312123583136e+17
19354.0	5.238618283748009e+17
19355.0	5.237455122158932e+17
19356.0	5.236555667647145e+17
19357.0	5.2355361323089914e+17
19358.0	5.23447486714129e+17
19359.0	5.233012990716585e+17
19360.0	5.231116586494634e+17
19361.0	5.231324126948009e+17
19362.0	5.230349574821205e+17
19363.0	5.229303214112767e+17
19364.0	5.228252263437651e+17
19365.0	5.227196371872426e+17
19366.0	5.226141950410751e+17
19367.0	5.2250688160617805e+17
19368.0	5.223920241562964e+17
19369.0	5.222737770796372e+17
19370.0	5.2216788956829e+17
19371.0	5.220617151665492e+17
19372.0	5.219602645996885e+17
19373.0	5.218481435137366e+17
19374.0	5.2174203398389754e+17
19375.0	5.216314449373865e+17
19376.0	5.2152236017800525e+17
19377.0	5.2140959456733856e+17
19378.0	5.2129820468838394e+17
19379.0	5.211859552567294e+17
19380.0	5.2107194680388256e+17
19381.0	5.209577556890964e+17
19382.0	5.208217857206953e+17
19383.0	5.2069518387008845e+17
19384.0	5.2059133905469434e+17
19385.0	5.2047470140238496e+17
19386.0	5.203558972522496e+17
19387.0	5.202340014806357e+17
19388.0	5.2011211563554125e+17
19389.0	5.1998531057090554e+17
19390.0	5.1982363196566176e+17
19391.0	5.128043238522779e+17
19392.0	5.1943488171103514e+17
19393.0	5.194488117635754e+17
19394.0	5.1931168423717536e+17
19395.0	5.191155802527062e+17
19396.0	5.1899114748641274e+17
19397.0	5.188801522914645e+17
19398.0	5.1868905609625594e+17
19399.0	5.184126930561706e+17
19400.0	5.1835864658302285e+17
19401.0	5.1825757609000954e+17
19402.0	5.180802764286634e+17
19403.0	5.1788881134441805e+17
19404.0	5.1773375938996896e+17
19405.0	5.174915158245375e+17
19406.0	5.173245457552724e+17
19407.0	5.17006433661747e+17
19408.0	5.167389935839916e+17
19409.0	5.166153637472938e+17
19410.0	5.164326557406549e+17
19411.0	5.1624220693626874e+17
19412.0	5.1604230305218554e+17
19413.0	5.1577671678689274e+17
19414.0	5.1559774751293434e+17
19415.0	5.153578184343551e+17
19416.0	5.1507234578541216e+17
19417.0	5.148018038101332e+17
19418.0	5.1459404357522765e+17
19419.0	5.1432280024241485e+17
19420.0	5.140292438414676e+17
19421.0	5.136794349032788e+17
19422.0	5.133219554219347e+17
19423.0	5.129302959281494e+17
19424.0	5.124372745770326e+17
19425.0	5.11899093713988e+17
19426.0	5.1124341781299194e+17
19427.0	5.1037213294592e+17
19428.0	5.0934724043298157e+17
19429.0	5.083786988137131e+17
19430.0	5.0763417930519936e+17
19431.0	5.059012269703187e+17
19432.0	5.0648962183113363e+17
19433.0	5.0580751510405126e+17
19434.0	5.050024891252734e+17
19435.0	5.039378889965568e+17
19436.0	5.0245085576560576e+17
19437.0	5.01676179281238e+17
19438.0	4.876248441072313e+17
19439.0	4.9644312772389574e+17
19440.0	4.9253257517028506e+17
19441.0	4.90083692262195e+17
19442.0	4.877953609498624e+17
19443.0	4.8531262560447155e+17
19444.0	4.8245364525192525e+17
19445.0	4.780962402183856e+17
19446.0	4.694386687694162e+17
19447.0	4.609269076852732e+17
19448.0	4.526861489711789e+17
19449.0	4.3836282716378515e+17
19450.0	4.0093389558907315e+17
19451.0	3.797819631250135e+17
19452.0	4.2399072182599795e+17
19453.0	4.4678850001851776e+17
19454.0	4.567904281078439e+17
19455.0	4.641000611206482e+17
19456.0	4.737983274024978e+17
19457.0	4.795800947261441e+17
19458.0	4.5323134466790234e+17
19459.0	4.8438420858471194e+17
19460.0	4.8742465438132883e+17
19461.0	4.8944497302350496e+17
19462.0	4.9286202237037184e+17
19463.0	4.9651748735112525e+17
19464.0	4.986204426600451e+17
19465.0	4.9995316961389216e+17
19466.0	5.0091941624982176e+17
19467.0	5.017245043742035e+17
19468.0	5.023611723186175e+17
19469.0	5.02750185276484e+17
19470.0	5.034089367207935e+17
19471.0	5.038605709170005e+17
19472.0	5.042508352454655e+17
19473.0	5.047677001662468e+17
19474.0	5.0562448679239686e+17
19475.0	5.063008176832511e+17
19476.0	5.069630738879827e+17
19477.0	5.073998407445161e+17
19478.0	5.077078309339135e+17
19479.0	5.078193945269588e+17
19480.0	5.0815839446411936e+17
19481.0	5.082804222864042e+17
19482.0	5.0844467262914554e+17
19483.0	5.085244897449301e+17
19484.0	5.086257176641535e+17
19485.0	5.0869484846230176e+17
19486.0	5.086240193205591e+17
19487.0	5.0878443299362125e+17
19488.0	5.0885042519408634e+17
19489.0	5.0885727959558816e+17
19490.0	5.086658869329917e+17
19491.0	5.088909332228778e+17
19492.0	5.088977400190293e+17
19493.0	5.089063572865023e+17
19494.0	5.0895224395093325e+17
19495.0	5.0898653378423443e+17
19496.0	5.0894350693608083e+17
19497.0	5.090002692909738e+17
19498.0	5.082994621196978e+17
19499.0	4.982545824000609e+17
19500.0	5.089896838463487e+17
19501.0	5.0898339127186765e+17
19502.0	5.0894378431938554e+17
19503.0	5.089485274480639e+17
19504.0	5.089062696255487e+17
19505.0	5.088535259032234e+17
19506.0	5.0880425695204685e+17
19507.0	5.087763036635136e+17
19508.0	5.087252928877908e+17
19509.0	5.086624081073492e+17
19510.0	5.085223588287827e+17
19511.0	4.8711759099328934e+17
19512.0	5.067902984126424e+17
19513.0	5.053180261957582e+17
19514.0	5.061059179533623e+17
19515.0	5.081678712842924e+17
19516.0	5.082295383883774e+17
19517.0	5.0816983114274125e+17
19518.0	5.0807896755841683e+17
19519.0	5.080012591988736e+17
19520.0	5.078493451430567e+17
19521.0	5.079126478159871e+17
19522.0	5.0781960654902605e+17
19523.0	5.077339896894805e+17
19524.0	5.076032754636118e+17
19525.0	5.076124028982613e+17
19526.0	5.075404586308949e+17
19527.0	5.074619646083072e+17
19528.0	5.073748311583402e+17
19529.0	5.072902272232106e+17
19530.0	5.0722800360488954e+17
19531.0	5.071485363639636e+17
19532.0	5.070685816051028e+17
19533.0	5.069881760284671e+17
19534.0	5.069069462710953e+17
19535.0	5.0682331730193056e+17
19536.0	5.0673860452461216e+17
19537.0	5.0666862549838496e+17
19538.0	5.064629028563628e+17
19539.0	5.064216270602242e+17
19540.0	5.0641915067323725e+17
19541.0	5.0631340213316256e+17
19542.0	5.062439602574676e+17
19543.0	5.0605284686561286e+17
19544.0	5.0607965580820474e+17
19545.0	5.0593136444265786e+17
19546.0	5.0578219059554976e+17
19547.0	5.0583472005884576e+17
19548.0	5.0574997456595616e+17
19549.0	5.056514392500906e+17
19550.0	5.055797261587795e+17
19551.0	5.0549458765960525e+17
19552.0	5.0541067557492045e+17
19553.0	5.053214809041579e+17
19554.0	5.052323104205483e+17
19555.0	5.0513643366427296e+17
19556.0	5.050555344180564e+17
19557.0	5.049773461602304e+17
19558.0	5.0489164779137696e+17
19559.0	5.0480597409901216e+17
19560.0	5.046730737319934e+17
19561.0	5.0462843557205325e+17
19562.0	5.045034211257001e+17
19563.0	5.044642168963072e+17
19564.0	5.0437691511493965e+17
19565.0	5.0428948764426234e+17
19566.0	5.0419761665802234e+17
19567.0	5.0411426115747834e+17
19568.0	5.0402351934778016e+17
19569.0	5.0393577227113805e+17
19570.0	5.038497140310016e+17
19571.0	5.037617255721641e+17
19572.0	5.0367035965003085e+17
19573.0	5.0356969642393594e+17
19574.0	5.0348104673307296e+17
19575.0	5.034109889238356e+17
19576.0	5.033143234985983e+17
19577.0	5.032094683452757e+17
19578.0	5.031396033342121e+17
19579.0	5.0305379367649274e+17
19580.0	5.029656409407487e+17
19581.0	5.0287830420684794e+17
19582.0	5.02792400666624e+17
19583.0	5.027038292694356e+17
19584.0	5.0261209676513274e+17
19585.0	5.0251468810922656e+17
19586.0	5.024236085182464e+17
19587.0	5.0232962157554336e+17
19588.0	5.0219973726262624e+17
19589.0	5.021767549932885e+17
19590.0	5.020700788828841e+17
19591.0	5.020011909349375e+17
19592.0	5.019136024728915e+17
19593.0	5.018109356976809e+17
19594.0	5.016897573617662e+17
19595.0	5.0164331830749856e+17
19596.0	5.0148152275107834e+17
19597.0	5.014714890671445e+17
19598.0	5.013103899749032e+17
19599.0	5.012955450747562e+17
19600.0	5.0120801225714336e+17
19601.0	5.011092528955391e+17
19602.0	5.0102136838553594e+17
19603.0	5.0080806747504614e+17
19604.0	5.008350109848917e+17
19605.0	5.007194805589334e+17
19606.0	5.0067250141812045e+17
19607.0	5.0058479509613216e+17
19608.0	5.00493290901777e+17
19609.0	5.0039907613846176e+17
19610.0	5.0025955590144006e+17
19611.0	5.001449678656854e+17
19612.0	5.0013934428269216e+17
19613.0	5.000487438210389e+17
19614.0	4.9995551332106234e+17
19615.0	4.9986995588082336e+17
19616.0	4.9966130365726726e+17
19617.0	4.996084266958848e+17
19618.0	4.995116756369406e+17
19619.0	4.9939058719894163e+17
19620.0	4.9929157729757843e+17
19621.0	4.992191894825642e+17
19622.0	4.992471626940415e+17
19623.0	4.991514584634708e+17
19624.0	4.9904887410633376e+17
19625.0	4.989783254936234e+17
19626.0	4.9888700340196685e+17
19627.0	4.987930284130303e+17
19628.0	4.985878017474563e+17
19629.0	4.9829665427510586e+17
19630.0	4.980929607674539e+17
19631.0	4.9361926795646266e+17
19632.0	4.9830098069968205e+17
19633.0	4.982336233231701e+17
19634.0	4.981719051184809e+17
19635.0	4.9806474323776826e+17
19636.0	4.978658030649342e+17
19637.0	4.9773797619793914e+17
19638.0	4.9780760765617466e+17
19639.0	4.977302696536746e+17
19640.0	4.976298548002816e+17
19641.0	4.973649633913519e+17
19642.0	4.97454990421743e+17
19643.0	4.9736460673570125e+17
19644.0	4.972786239231317e+17
19645.0	4.97158307586594e+17
19646.0	4.9696862459221306e+17
19647.0	4.970181345061546e+17
19648.0	4.969321702883327e+17
19649.0	4.968427915575296e+17
19650.0	4.967546914603007e+17
19651.0	4.966651713814527e+17
19652.0	4.96576043679744e+17
19653.0	4.964851814935209e+17
19654.0	4.963982739068244e+17
19655.0	4.9630884533370874e+17
