# Flux units: erg / (cm m2 s)
# Wavelength units: Angstrom
wave	flux
19000.0	3.684962948961621e+17
19001.0	3.6841100484280314e+17
19002.0	3.6836832101881165e+17
19003.0	3.683028679961258e+17
19004.0	3.6823270393118714e+17
19005.0	3.681643484501333e+17
19006.0	3.680789565450921e+17
19007.0	3.680454880963242e+17
19008.0	3.6796677974480205e+17
19009.0	3.6789501422469114e+17
19010.0	3.677286612074493e+17
19011.0	3.6777793798799354e+17
19012.0	3.6768156819128314e+17
19013.0	3.676592131102037e+17
19014.0	3.675838332185258e+17
19015.0	3.675029304770559e+17
19016.0	3.6744059263385594e+17
19017.0	3.6739854662369274e+17
19018.0	3.673339092533247e+17
19019.0	3.672671006315861e+17
19020.0	3.67206275813649e+17
19021.0	3.6714226793840634e+17
19022.0	3.670794607525887e+17
19023.0	3.670019940548608e+17
19024.0	3.6693309128704e+17
19025.0	3.6688591962767354e+17
19026.0	3.6681629061611514e+17
19027.0	3.667490083176447e+17
19028.0	3.666913531352404e+17
19029.0	3.6662531990050125e+17
19030.0	3.6656321463145805e+17
19031.0	3.6649051790595405e+17
19032.0	3.664357400160938e+17
19033.0	3.663560263598079e+17
19034.0	3.663075572624042e+17
19035.0	3.662403766758058e+17
19036.0	3.652123143875238e+17
19037.0	3.661081826994859e+17
19038.0	3.6604867810863776e+17
19039.0	3.659873261365931e+17
19040.0	3.6592316887422285e+17
19041.0	3.6585807320623776e+17
19042.0	3.6502342656327584e+17
19043.0	3.657357409473878e+17
19044.0	3.6567083395317754e+17
19045.0	3.656048712526506e+17
19046.0	3.6552865585561594e+17
19047.0	3.654754835453269e+17
19048.0	3.652582617295529e+17
19049.0	3.6378632764347565e+17
19050.0	3.6526472759869414e+17
19051.0	3.6508718991059603e+17
19052.0	3.651464264854187e+17
19053.0	3.6509687658577914e+17
19054.0	3.6503131178489165e+17
19055.0	3.646889962504192e+17
19056.0	3.648190038758739e+17
19057.0	3.648419858655914e+17
19058.0	3.639688642428916e+17
19059.0	3.6438323169853414e+17
19060.0	3.64645421416448e+17
19061.0	3.645862837572949e+17
19062.0	3.645205922884266e+17
19063.0	3.6446064596746234e+17
19064.0	3.6437181522247674e+17
19065.0	3.6430284485645645e+17
19066.0	3.639485854821039e+17
19067.0	3.641985539069269e+17
19068.0	3.6414233394544634e+17
19069.0	3.64079465173265e+17
19070.0	3.640066842121557e+17
19071.0	3.6394780296478714e+17
19072.0	3.635639397034664e+17
19073.0	3.638229551721131e+17
19074.0	3.6376003334198605e+17
19075.0	3.6369803908218874e+17
19076.0	3.636209825174869e+17
19077.0	3.635646777611605e+17
19078.0	3.634897951741269e+17
19079.0	3.6344108784025594e+17
19080.0	3.6337824744953165e+17
19081.0	3.6330412354218656e+17
19082.0	3.632411701848746e+17
19083.0	3.631776255705087e+17
19084.0	3.630921281787221e+17
19085.0	3.6305308396202656e+17
19086.0	3.625742057340927e+17
19087.0	3.622785409963342e+17
19088.0	3.6249865331670976e+17
19089.0	3.627712319062016e+17
19090.0	3.627432663842815e+17
19091.0	3.6261489789283014e+17
19092.0	3.6203182609312557e+17
19093.0	3.62556969521425e+17
19094.0	3.624944553077418e+17
19095.0	3.624288247960917e+17
19096.0	3.6236416904069114e+17
19097.0	3.623021108876629e+17
19098.0	3.619225881717418e+17
19099.0	3.6180104136622106e+17
19100.0	3.620995109049685e+17
19101.0	3.6203912627923616e+17
19102.0	3.619505733369854e+17
19103.0	3.619223465798314e+17
19104.0	3.6186297844367354e+17
19105.0	3.611152180663654e+17
19106.0	3.6172402359883085e+17
19107.0	3.615061873874259e+17
19108.0	3.6136402376021344e+17
19109.0	3.615043975380991e+17
19110.0	3.614814214903125e+17
19111.0	3.612326723496615e+17
19112.0	3.6112234789382784e+17
19113.0	3.6128967699551565e+17
19114.0	3.6111515815772134e+17
19115.0	3.6112206939204256e+17
19116.0	3.6109345592005965e+17
19117.0	3.6103740939304954e+17
19118.0	3.6095634062704634e+17
19119.0	3.558299554632966e+17
19120.0	3.608422619196074e+17
19121.0	3.607845000620714e+17
19122.0	3.607285637753514e+17
19123.0	3.6066616343702176e+17
19124.0	3.606012656702805e+17
19125.0	3.605407048138751e+17
19126.0	3.6047753992383136e+17
19127.0	3.599874224291837e+17
19128.0	3.6034962966009165e+17
19129.0	3.6027515468950176e+17
19130.0	3.6022437760641696e+17
19131.0	3.601630514992468e+17
19132.0	3.600974555906047e+17
19133.0	3.6002903656584525e+17
19134.0	3.599744021910869e+17
19135.0	3.5990888443630925e+17
19136.0	3.5983911449613645e+17
19137.0	3.5974650852802554e+17
19138.0	3.59722321514769e+17
19139.0	3.596636740998485e+17
19140.0	3.596012629961386e+17
19141.0	3.595374247804927e+17
19142.0	3.5946258875023354e+17
19143.0	3.5939536027866445e+17
19144.0	3.593415026191018e+17
19145.0	3.592858553199274e+17
19146.0	3.59100366769357e+17
19147.0	3.591216444036436e+17
19148.0	3.5882883074403014e+17
19149.0	3.587233420410881e+17
19150.0	3.589734269277525e+17
19151.0	3.58910325231889e+17
19152.0	3.588491947190954e+17
19153.0	3.5823532057995866e+17
19154.0	3.5863463929227936e+17
19155.0	3.586625244932778e+17
19156.0	3.585993255594666e+17
19157.0	3.583466716616025e+17
19158.0	3.580609108639749e+17
19159.0	3.583975600335529e+17
19160.0	3.583472257291604e+17
19161.0	3.582871348445183e+17
19162.0	3.58158550765841e+17
19163.0	3.581629909958655e+17
19164.0	3.5809526445069645e+17
19165.0	3.574288790235809e+17
19166.0	3.579375647719423e+17
19167.0	3.5789462677312845e+17
19168.0	3.57850419368209e+17
19169.0	3.577858630178133e+17
19170.0	3.5772759539711994e+17
19171.0	3.576589764438699e+17
19172.0	3.576019018929492e+17
19173.0	3.57540319793425e+17
19174.0	3.5746360275763194e+17
19175.0	3.5741392800754336e+17
19176.0	3.5735318372024314e+17
19177.0	3.572600774415701e+17
19178.0	3.572129199729322e+17
19179.0	3.571424106468693e+17
19180.0	3.571032977833984e+17
19181.0	3.569903828555092e+17
19182.0	3.569700810959531e+17
19183.0	3.5691832499240954e+17
19184.0	3.568505743998976e+17
19185.0	3.567904882688e+17
19186.0	3.5673285958041594e+17
19187.0	3.566563602290005e+17
19188.0	3.566035382829055e+17
19189.0	3.565473170631338e+17
19190.0	3.5648573132854605e+17
19191.0	3.5641041470095354e+17
19192.0	3.5636120572832416e+17
19193.0	3.562369843549525e+17
19194.0	3.56136698965743e+17
19195.0	3.5617411677115725e+17
19196.0	3.561084713697279e+17
19197.0	3.5604513143739725e+17
19198.0	3.559881939004074e+17
19199.0	3.555039217975295e+17
19200.0	3.5559146489118726e+17
19201.0	3.55799361650688e+17
19202.0	3.557436144571733e+17
19203.0	3.5567891333338445e+17
19204.0	3.556143011288405e+17
19205.0	3.55555785904401e+17
19206.0	3.5549256320286714e+17
19207.0	3.5540857932567885e+17
19208.0	3.553029136930131e+17
19209.0	3.553066706010112e+17
19210.0	3.552431384996522e+17
19211.0	3.5518624101826554e+17
19212.0	3.5512489051422714e+17
19213.0	3.550439911981055e+17
19214.0	3.54974900944896e+17
19215.0	3.5493822902654285e+17
19216.0	3.54878728769809e+17
19217.0	3.548175602985642e+17
19218.0	3.545790026175826e+17
19219.0	3.546706723471359e+17
19220.0	3.546273471441578e+17
19221.0	3.545008044332374e+17
19222.0	3.5450776033689594e+17
19223.0	3.5444347479872845e+17
19224.0	3.543784676305578e+17
19225.0	3.542917182390271e+17
19226.0	3.5426072666658125e+17
19227.0	3.5419919846386336e+17
19228.0	3.5413997083688954e+17
19229.0	3.5407606509294925e+17
19230.0	3.540156801176917e+17
19231.0	3.539554111149397e+17
19232.0	3.538950729061717e+17
19233.0	3.538211148136447e+17
19234.0	3.537656510851754e+17
19235.0	3.5370536712273914e+17
19236.0	3.53649888923921e+17
19237.0	3.5358314440512845e+17
19238.0	3.5349758591631354e+17
19239.0	3.5346590801592314e+17
19240.0	3.5340190776033274e+17
19241.0	3.533394567408299e+17
19242.0	3.532764010425002e+17
19243.0	3.5319406056352416e+17
19244.0	3.5315769713623034e+17
19245.0	3.530880801483434e+17
19246.0	3.530295642248533e+17
19247.0	3.5297382800643405e+17
19248.0	3.5291447175413754e+17
19249.0	3.5284304848923296e+17
19250.0	3.526915960165717e+17
19251.0	3.5261281021023546e+17
19252.0	3.526230222918997e+17
19253.0	3.526012756645205e+17
19254.0	3.5254697354854394e+17
19255.0	3.5245338128984736e+17
19256.0	3.5241734816399354e+17
19257.0	3.5236368679785805e+17
19258.0	3.523018712853163e+17
19259.0	3.5222948137314976e+17
19260.0	3.521468637904895e+17
19261.0	3.521182545827157e+17
19262.0	3.520449914863615e+17
19263.0	3.5197936195338234e+17
19264.0	3.5179884099665894e+17
19265.0	3.518210679067988e+17
19266.0	3.51677471575245e+17
19267.0	3.5175323975461536e+17
19268.0	3.516884086074026e+17
19269.0	3.516308908234069e+17
19270.0	3.5157039424471034e+17
19271.0	3.5142320793845786e+17
19272.0	3.5144132729678496e+17
19273.0	3.513331731486036e+17
19274.0	3.512503650047315e+17
19275.0	3.5126690936695456e+17
19276.0	3.5120201250897914e+17
19277.0	3.5114326048112634e+17
19278.0	3.510763769211562e+17
19279.0	3.5101756697695565e+17
19280.0	3.5094159467479034e+17
19281.0	3.508986232963072e+17
19282.0	3.5084160372572154e+17
19283.0	3.507740829111637e+17
19284.0	3.507141459225258e+17
19285.0	3.506263111499775e+17
19286.0	3.505896792522751e+17
19287.0	3.505335564238847e+17
19288.0	3.5022189321256934e+17
19289.0	3.497521247333022e+17
19290.0	3.503551086766762e+17
19291.0	3.5024678542813875e+17
19292.0	3.502337102796117e+17
19293.0	3.501713370294954e+17
19294.0	3.5010978051522554e+17
19295.0	3.5005087843614714e+17
19296.0	3.4968716066160704e+17
19297.0	3.498665971810306e+17
19298.0	3.4986420195382605e+17
19299.0	3.494622766912856e+17
19300.0	3.497333398787414e+17
19301.0	3.496827396205225e+17
19302.0	3.4962553211016525e+17
19303.0	3.4955007392481274e+17
19304.0	3.4949905434105165e+17
19305.0	3.494393336736426e+17
19306.0	3.4938241972961274e+17
19307.0	3.493116625201834e+17
19308.0	3.4925459604329805e+17
19309.0	3.4918405536481274e+17
19310.0	3.491189208645632e+17
19311.0	3.490740023154005e+17
19312.0	3.4901914756491936e+17
19313.0	3.4895879513047034e+17
19314.0	3.436291265921018e+17
19315.0	3.4384715070833395e+17
19316.0	3.4837948687974464e+17
19317.0	3.487167347862186e+17
19318.0	3.4865838296487245e+17
19319.0	3.4859917896581114e+17
19320.0	3.4841067513009466e+17
19321.0	3.482102863145642e+17
19322.0	3.484071459728042e+17
19323.0	3.4835269216283296e+17
19324.0	3.482989204515498e+17
19325.0	3.48224379490577e+17
19326.0	3.481792523446954e+17
19327.0	3.481105836190378e+17
19328.0	3.4743790558249024e+17
19329.0	3.4799917238408525e+17
19330.0	3.4793076625681056e+17
19331.0	3.4787091759322445e+17
19332.0	3.4781899920506874e+17
19333.0	3.47757141889297e+17
19334.0	3.4767396695354035e+17
19335.0	3.463791165221561e+17
19336.0	3.4756091640982195e+17
19337.0	3.475172840090282e+17
19338.0	3.474151894067881e+17
19339.0	3.473958653045418e+17
19340.0	3.47198611591441e+17
19341.0	3.4681494860813715e+17
19342.0	3.4699671377018906e+17
19343.0	3.471580278205098e+17
19344.0	3.46646916645957e+17
19345.0	3.4629816351894125e+17
19346.0	3.4677839315162445e+17
19347.0	3.4634696553922554e+17
19348.0	3.468589279128234e+17
19349.0	3.467927642352298e+17
19350.0	3.46545281634577e+17
19351.0	3.466641292307114e+17
19352.0	3.4600115433198835e+17
19353.0	3.4655582261957965e+17
19354.0	3.464993991644501e+17
19355.0	3.464209744876885e+17
19356.0	3.4637819496366074e+17
19357.0	3.4631917750626976e+17
19358.0	3.4625857753797965e+17
19359.0	3.460453923203751e+17
19360.0	3.456677737136126e+17
19361.0	3.460692829011967e+17
19362.0	3.46021533126929e+17
19363.0	3.4596058492654925e+17
19364.0	3.459014996961962e+17
19365.0	3.4584055429201914e+17
19366.0	3.4577740530537805e+17
19367.0	3.457209547620352e+17
19368.0	3.456624744551765e+17
19369.0	3.4559353386871456e+17
19370.0	3.4553939393249274e+17
19371.0	3.4547309802946554e+17
19372.0	3.4542347542855674e+17
19373.0	3.4535906706718714e+17
19374.0	3.4530257674786125e+17
19375.0	3.4524447539636896e+17
19376.0	3.4518655349118285e+17
19377.0	3.451252924656298e+17
19378.0	3.4506652296151034e+17
19379.0	3.450074389894485e+17
19380.0	3.449441380990976e+17
19381.0	3.448779239500458e+17
19382.0	3.448162385657856e+17
19383.0	3.4474633856723616e+17
19384.0	3.4469498053809485e+17
19385.0	3.446479663049386e+17
19386.0	3.445886454945109e+17
19387.0	3.4453011761725434e+17
19388.0	3.4446703916482554e+17
19389.0	3.444066344413866e+17
19390.0	3.4434714082563405e+17
19391.0	3.433803744804849e+17
19392.0	3.4421770201770656e+17
19393.0	3.441695500096853e+17
19394.0	3.441090332983296e+17
19395.0	3.438671429282478e+17
19396.0	3.4394045366490464e+17
19397.0	3.4393239528843936e+17
19398.0	3.437225827456342e+17
19399.0	3.4339983217131494e+17
19400.0	3.4362683258743475e+17
19401.0	3.4369265006018554e+17
19402.0	3.436362182514005e+17
19403.0	3.435730005131264e+17
19404.0	3.4351542645555194e+17
19405.0	3.4345024822968314e+17
19406.0	3.43396175646993e+17
19407.0	3.431083585219239e+17
19408.0	3.4307324632541926e+17
19409.0	3.4321518244659194e+17
19410.0	3.4316018435577165e+17
19411.0	3.431003212917418e+17
19412.0	3.430367534339413e+17
19413.0	3.427442989815126e+17
19414.0	3.429126555129173e+17
19415.0	3.4285830778388474e+17
19416.0	3.4276540150360736e+17
19417.0	3.4273251990787405e+17
19418.0	3.426808001549653e+17
19419.0	3.4262237325557754e+17
19420.0	3.425628510137002e+17
19421.0	3.4249955127678285e+17
19422.0	3.4243391258623994e+17
19423.0	3.423826517600938e+17
19424.0	3.423230254295722e+17
19425.0	3.42257255841792e+17
19426.0	3.422026925954389e+17
19427.0	3.4213916297570976e+17
19428.0	3.4207920260382714e+17
19429.0	3.420218289640789e+17
19430.0	3.4194862850266445e+17
19431.0	3.4173941941534746e+17
19432.0	3.418355000847018e+17
19433.0	3.417713186351786e+17
19434.0	3.417069167749802e+17
19435.0	3.41627493224721e+17
19436.0	3.414949194541737e+17
19437.0	3.4151104732200954e+17
19438.0	3.3938326404027757e+17
19439.0	3.413283588887894e+17
19440.0	3.4129295064432634e+17
19441.0	3.4120945931823776e+17
19442.0	3.4112889442795514e+17
19443.0	3.4102952374654285e+17
19444.0	3.409145558117034e+17
19445.0	3.4076384370360314e+17
19446.0	3.405490739129002e+17
19447.0	3.4019670316373325e+17
19448.0	3.394582723515733e+17
19449.0	3.368035492211369e+17
19450.0	3.1003692708659117e+17
19451.0	2.819380363657217e+17
19452.0	3.2122252855432614e+17
19453.0	3.3780365930441414e+17
19454.0	3.3935599728940365e+17
19455.0	3.398247496635733e+17
19456.0	3.4000408111568205e+17
19457.0	3.4007869904213325e+17
19458.0	3.215158744361961e+17
19459.0	3.3966111431066086e+17
19460.0	3.4007584736979616e+17
19461.0	3.4005142998439245e+17
19462.0	3.4000825577635834e+17
19463.0	3.3996826256343034e+17
19464.0	3.3991809222137165e+17
19465.0	3.3987282061666976e+17
19466.0	3.3981523897439565e+17
19467.0	3.3976960155647994e+17
19468.0	3.3971654525364896e+17
19469.0	3.391431958855672e+17
19470.0	3.3960508875516576e+17
19471.0	3.3955410538222925e+17
19472.0	3.3947766412192416e+17
19473.0	3.39422875886114e+17
19474.0	3.38920498580684e+17
19475.0	3.390855680010919e+17
19476.0	3.3925386867834874e+17
19477.0	3.3919984156890445e+17
19478.0	3.3915607313285114e+17
19479.0	3.3865428299502854e+17
19480.0	3.3903656154344096e+17
19481.0	3.3892872923818675e+17
19482.0	3.389207764183722e+17
19483.0	3.3887131141843616e+17
19484.0	3.3880831091015674e+17
19485.0	3.3874049324373325e+17
19486.0	3.38212888632799e+17
19487.0	3.3863508832201376e+17
19488.0	3.3858316014714874e+17
19489.0	3.385107721573718e+17
19490.0	3.3806850237398976e+17
19491.0	3.384016352488106e+17
19492.0	3.3834973017757005e+17
19493.0	3.3829320231922336e+17
19494.0	3.3823435277380256e+17
19495.0	3.381760462858922e+17
19496.0	3.3798483268512403e+17
19497.0	3.38053263593745e+17
19498.0	3.3793544486038195e+17
19499.0	3.364625369617739e+17
19500.0	3.37883350765841e+17
19501.0	3.378330885685248e+17
19502.0	3.377749096224085e+17
19503.0	3.3771749442409805e+17
19504.0	3.3765991774508365e+17
19505.0	3.37593424220433e+17
19506.0	3.3754498378410656e+17
19507.0	3.3747864709147296e+17
19508.0	3.374286838082218e+17
19509.0	3.3737014250919245e+17
19510.0	3.372215011639295e+17
19511.0	3.292009200265826e+17
19512.0	3.3698423323142765e+17
19513.0	3.366255754652322e+17
19514.0	3.367487669971623e+17
19515.0	3.369031414666584e+17
19516.0	3.369165982269439e+17
19517.0	3.36878275535394e+17
19518.0	3.3673659778334694e+17
19519.0	3.366738545257128e+17
19520.0	3.363403138946384e+17
19521.0	3.3667518366569805e+17
19522.0	3.365661851342164e+17
19523.0	3.3646319193729734e+17
19524.0	3.362062896988166e+17
19525.0	3.364392009028949e+17
19526.0	3.363875368992767e+17
19527.0	3.3632440217326925e+17
19528.0	3.3624698731014816e+17
19529.0	3.3617402837073926e+17
19530.0	3.3615797739847674e+17
19531.0	3.3610002470010874e+17
19532.0	3.360413551602346e+17
19533.0	3.3598105892945914e+17
19534.0	3.359275848389973e+17
19535.0	3.358669460733951e+17
19536.0	3.3580335217595725e+17
19537.0	3.357522586675883e+17
19538.0	3.352989059601755e+17
19539.0	3.3549241129369645e+17
19540.0	3.355765921983146e+17
19541.0	3.3545449709240314e+17
19542.0	3.3543545348423674e+17
19543.0	3.3501198501806106e+17
19544.0	3.3532882211307514e+17
19545.0	3.351860369249617e+17
19546.0	3.349985615325867e+17
19547.0	3.351805129916415e+17
19548.0	3.351212307688106e+17
19549.0	3.3504672301274445e+17
19550.0	3.350014667871573e+17
19551.0	3.349501254653269e+17
19552.0	3.3488738517865805e+17
19553.0	3.3482865670881274e+17
19554.0	3.347634473751893e+17
19555.0	3.346774852545195e+17
19556.0	3.3463340790797645e+17
19557.0	3.3460117856146765e+17
19558.0	3.3454673901213005e+17
19559.0	3.3448998242440525e+17
19560.0	3.3429479437107174e+17
19561.0	3.343701439589034e+17
19562.0	3.3418350809142605e+17
19563.0	3.342607294922752e+17
19564.0	3.3420029163383456e+17
19565.0	3.3414368065836365e+17
19566.0	3.3408050863800314e+17
19567.0	3.3403280070191776e+17
19568.0	3.3397226081703245e+17
19569.0	3.339132308466346e+17
19570.0	3.338585829801984e+17
19571.0	3.3380030389507405e+17
19572.0	3.3373996187647994e+17
19573.0	3.336464223611561e+17
19574.0	3.336015496697172e+17
19575.0	3.3357514428907514e+17
19576.0	3.3349938243611296e+17
19577.0	3.3340482513797114e+17
19578.0	3.333933709830826e+17
19579.0	3.333411778680149e+17
19580.0	3.332843501169322e+17
19581.0	3.332254963772074e+17
19582.0	3.3317358976805536e+17
19583.0	3.331194413034154e+17
19584.0	3.3305943315141965e+17
19585.0	3.3298280632811514e+17
19586.0	3.329215515241131e+17
19587.0	3.3288746927390714e+17
19588.0	3.3271651167982944e+17
19589.0	3.3277004218367994e+17
19590.0	3.3267294208873805e+17
19591.0	3.326594496768682e+17
19592.0	3.3259918951710714e+17
19593.0	3.3251461812278605e+17
19594.0	3.3241426293336736e+17
19595.0	3.3242816544331085e+17
19596.0	3.3237105691852794e+17
19597.0	3.323182806903467e+17
19598.0	3.320418523938813e+17
19599.0	3.3220515132866554e+17
19600.0	3.3214840501698554e+17
19601.0	3.3207965495678285e+17
19602.0	3.3202758393091405e+17
19603.0	3.318702998377811e+17
19604.0	3.31916963217408e+17
19605.0	3.31804318961937e+17
19606.0	3.3180201593951565e+17
19607.0	3.317514069082112e+17
19608.0	3.316892231707306e+17
19609.0	3.3162707948885325e+17
19610.0	3.313786722888365e+17
19611.0	3.3123159804040557e+17
19612.0	3.3146895681454074e+17
19613.0	3.3140836523485856e+17
19614.0	3.3134840633098234e+17
19615.0	3.312989868741973e+17
19616.0	3.3103403712948934e+17
19617.0	3.3088185344983066e+17
19618.0	3.30973860681045e+17
19619.0	3.3084359049215955e+17
19620.0	3.3072629020972326e+17
19621.0	3.3054684470749843e+17
19622.0	3.3090264150398285e+17
19623.0	3.3083144263434234e+17
19624.0	3.307461798439595e+17
19625.0	3.3073180589424634e+17
19626.0	3.306736921695573e+17
19627.0	3.3062031769381536e+17
19628.0	3.3054448387358726e+17
19629.0	3.294656189519184e+17
19630.0	3.304411297917611e+17
19631.0	3.2994476603473894e+17
19632.0	3.3031396503060474e+17
19633.0	3.302616116232192e+17
19634.0	3.302047775107754e+17
19635.0	3.301024505790461e+17
19636.0	3.2960924020462886e+17
19637.0	3.2953936918172966e+17
19638.0	3.299484941068968e+17
19639.0	3.299233881915391e+17
19640.0	3.29851991875038e+17
19641.0	3.292383599220069e+17
19642.0	3.2974419242516474e+17
19643.0	3.2967910570502816e+17
19644.0	3.2964202201087994e+17
19645.0	3.295345243411796e+17
19646.0	3.290275572438349e+17
19647.0	3.29471846724403e+17
19648.0	3.294330977168042e+17
19649.0	3.2936568217927674e+17
19650.0	3.293221285614933e+17
19651.0	3.292660825238186e+17
19652.0	3.292077858925226e+17
19653.0	3.2915147921380685e+17
19654.0	3.2909719387504634e+17
