# Flux units: erg / (cm m2 s)
# Wavelength units: Angstrom
wave	flux
19000.0	6.678313973405011e+17
19001.0	6.677011486124714e+17
19002.0	6.675880746505555e+17
19003.0	6.674653894410237e+17
19004.0	6.673429480603647e+17
19005.0	6.672211191878996e+17
19006.0	6.670993194658473e+17
19007.0	6.669751666693459e+17
19008.0	6.668532251099133e+17
19009.0	6.667206453275305e+17
19010.0	6.665951329473876e+17
19011.0	6.664715787479721e+17
19012.0	6.663187338362877e+17
19013.0	6.662421736674644e+17
19014.0	6.661204039346857e+17
19015.0	6.660004578852863e+17
19016.0	6.658809603467946e+17
19017.0	6.65759600677137e+17
19018.0	6.656366446553769e+17
19019.0	6.655159433516372e+17
19020.0	6.653930989682687e+17
19021.0	6.652723433482921e+17
19022.0	6.6514958431901e+17
19023.0	6.650230254600191e+17
19024.0	6.648982886066857e+17
19025.0	6.647687638854314e+17
19026.0	6.646340888384852e+17
19027.0	6.644981550809087e+17
19028.0	6.644009025929215e+17
19029.0	6.642834780891818e+17
19030.0	6.641625112859988e+17
19031.0	6.640350009491455e+17
19032.0	6.639004799729663e+17
19033.0	6.637443176464384e+17
19034.0	6.635449744708948e+17
19035.0	6.629399830986751e+17
19036.0	6.605383941139114e+17
19037.0	6.628014056712873e+17
19038.0	6.630701236136618e+17
19039.0	6.630240225503914e+17
19040.0	6.629281023131647e+17
19041.0	6.628174846055764e+17
19042.0	6.626246195325608e+17
19043.0	6.625851234495146e+17
19044.0	6.624635286192128e+17
19045.0	6.623385464690003e+17
19046.0	6.62218408460288e+17
19047.0	6.62091445969442e+17
19048.0	6.619470827793066e+17
19049.0	6.616697789568339e+17
19050.0	6.616321103320404e+17
19051.0	6.612174238995795e+17
19052.0	6.612111590075049e+17
19053.0	6.612982984693075e+17
19054.0	6.612259289694208e+17
19055.0	6.610830388188502e+17
19056.0	6.609984899689129e+17
19057.0	6.608891607515133e+17
19058.0	6.606935146452307e+17
19059.0	6.606227521230164e+17
19060.0	6.605290687780178e+17
19061.0	6.604096207323136e+17
19062.0	6.602885781520383e+17
19063.0	6.601670593085439e+17
19064.0	6.600413984500393e+17
19065.0	6.599147631149055e+17
19066.0	6.59773590741538e+17
19067.0	6.596826200626516e+17
19068.0	6.595626092811604e+17
19069.0	6.594414832342355e+17
19070.0	6.593186854775465e+17
19071.0	6.5919456917149e+17
19072.0	6.590501750833151e+17
19073.0	6.589566408458239e+17
19074.0	6.588354065858559e+17
19075.0	6.587139949068287e+17
19076.0	6.585921869359785e+17
19077.0	6.584701332488191e+17
19078.0	6.583482003576148e+17
19079.0	6.582279612661759e+17
19080.0	6.581053048575316e+17
19081.0	6.57980656783633e+17
19082.0	6.578608569057279e+17
19083.0	6.577312159323476e+17
19084.0	6.575977417845417e+17
19085.0	6.574879767789567e+17
19086.0	6.572864872382463e+17
19087.0	6.571601824841725e+17
19088.0	6.57060858639155e+17
19089.0	6.569746823992662e+17
19090.0	6.568730023340714e+17
19091.0	6.567527408730111e+17
19092.0	6.56577025610001e+17
19093.0	6.565250901300564e+17
19094.0	6.56407697433122e+17
19095.0	6.562889585743188e+17
19096.0	6.561691705103699e+17
19097.0	6.560493395946153e+17
19098.0	6.558969316595028e+17
19099.0	6.55770079199232e+17
19100.0	6.556775381729279e+17
19101.0	6.555614704566271e+17
19102.0	6.554408603090941e+17
19103.0	6.553223822660947e+17
19104.0	6.551999819896148e+17
19105.0	6.550051521647959e+17
19106.0	6.549457080418301e+17
19107.0	6.547999350063103e+17
19108.0	6.546483486654464e+17
19109.0	6.545058004205567e+17
19110.0	6.544158897121961e+17
19111.0	6.543072887657811e+17
19112.0	6.541992797754708e+17
19113.0	6.541102382667091e+17
19114.0	6.53975808516642e+17
19115.0	6.538623779689812e+17
19116.0	6.537497792217087e+17
19117.0	6.536276099115689e+17
19118.0	6.534810726738602e+17
19119.0	6.531181645747538e+17
19120.0	6.532315909980159e+17
19121.0	6.531258388927827e+17
19122.0	6.530280042354003e+17
19123.0	6.529127619581267e+17
19124.0	6.527584477118463e+17
19125.0	6.526698240256681e+17
19126.0	6.52539153700181e+17
19127.0	6.523792232109396e+17
19128.0	6.522816107817642e+17
19129.0	6.521848160321535e+17
19130.0	6.520729854716585e+17
19131.0	6.519546443726847e+17
19132.0	6.518351280297299e+17
19133.0	6.517107015548928e+17
19134.0	6.515868792695466e+17
19135.0	6.514744606676308e+17
19136.0	6.513538254940842e+17
19137.0	6.512306579395923e+17
19138.0	6.511127672389632e+17
19139.0	6.509943226804906e+17
19140.0	6.508746468141738e+17
19141.0	6.507545422899881e+17
19142.0	6.506309395764564e+17
19143.0	6.505124525856084e+17
19144.0	6.503906514654548e+17
19145.0	6.502729747442346e+17
19146.0	6.501080466019668e+17
19147.0	6.500297174155263e+17
19148.0	6.498869080752127e+17
19149.0	6.497621427006122e+17
19150.0	6.496703462331731e+17
19151.0	6.495488948480682e+17
19152.0	6.494210809834154e+17
19153.0	6.492529871202985e+17
19154.0	6.491741087596543e+17
19155.0	6.490537638319443e+17
19156.0	6.489281600858793e+17
19157.0	6.487773835253076e+17
19158.0	6.486202726569302e+17
19159.0	6.485439260480852e+17
19160.0	6.484166549962751e+17
19161.0	6.482653784746666e+17
19162.0	6.480697281041748e+17
19163.0	6.480007411706538e+17
19164.0	6.47934397906944e+17
19165.0	6.477802032682323e+17
19166.0	6.477186622029823e+17
19167.0	6.476011937289556e+17
19168.0	6.474903528843946e+17
19169.0	6.473769915427497e+17
19170.0	6.472602440695807e+17
19171.0	6.471406220301652e+17
19172.0	6.470195639309652e+17
19173.0	6.469045877822804e+17
19174.0	6.46785765876258e+17
19175.0	6.466674065320617e+17
19176.0	6.465469338877951e+17
19177.0	6.46414951653922e+17
19178.0	6.463018263117823e+17
19179.0	6.461808116935338e+17
19180.0	6.460637252506964e+17
19181.0	6.459417746735103e+17
19182.0	6.458227338947241e+17
19183.0	6.457067102885204e+17
19184.0	6.455860315641171e+17
19185.0	6.454639214635689e+17
19186.0	6.453420565200895e+17
19187.0	6.452118408571561e+17
19188.0	6.450931370207914e+17
19189.0	6.449665434888873e+17
19190.0	6.448377473182378e+17
19191.0	6.447048199678634e+17
19192.0	6.445715841264298e+17
19193.0	6.444210366447615e+17
19194.0	6.442611138450772e+17
19195.0	6.440992528575145e+17
19196.0	6.438857137105578e+17
19197.0	6.4360035647488e+17
19198.0	6.431660729259348e+17
19199.0	6.424249389197994e+17
19200.0	6.423697921409024e+17
19201.0	6.428399913751891e+17
19202.0	6.430212183031808e+17
19203.0	6.430487035073876e+17
19204.0	6.430286255139497e+17
19205.0	6.429649287861588e+17
19206.0	6.428804149586601e+17
19207.0	6.427743482806271e+17
19208.0	6.426737517439657e+17
19209.0	6.425715754926079e+17
19210.0	6.424607182902612e+17
19211.0	6.423476541849597e+17
19212.0	6.422305820027562e+17
19213.0	6.421015023670611e+17
19214.0	6.419841409875965e+17
19215.0	6.418777403031551e+17
19216.0	6.417642403397631e+17
19217.0	6.416434132768084e+17
19218.0	6.415117807080788e+17
19219.0	6.413981884699987e+17
19220.0	6.412918040035327e+17
19221.0	6.41172935540736e+17
19222.0	6.410589089824767e+17
19223.0	6.409429573085865e+17
19224.0	6.408228453045588e+17
19225.0	6.407056684744703e+17
19226.0	6.405885505044479e+17
19227.0	6.404706156937215e+17
19228.0	6.403542701047808e+17
19229.0	6.402355785018025e+17
19230.0	6.401161890365437e+17
19231.0	6.399964189381971e+17
19232.0	6.398780026213715e+17
19233.0	6.397546251419645e+17
19234.0	6.396404986194602e+17
19235.0	6.395196011621033e+17
19236.0	6.394026299228159e+17
19237.0	6.392827375605076e+17
19238.0	6.391582357280084e+17
19239.0	6.390450135673513e+17
19240.0	6.389265132945405e+17
19241.0	6.388056293987667e+17
19242.0	6.386872658602666e+17
19243.0	6.385573912641535e+17
19244.0	6.384501933823316e+17
19245.0	6.383303858148692e+17
19246.0	6.382111818077523e+17
19247.0	6.380921441047891e+17
19248.0	6.379715706574163e+17
19249.0	6.378482895770963e+17
19250.0	6.377204172718079e+17
19251.0	6.375958255413929e+17
19252.0	6.374724346402132e+17
19253.0	6.373741339956564e+17
19254.0	6.372553991913471e+17
19255.0	6.371214604544681e+17
19256.0	6.370148031485267e+17
19257.0	6.368960365374121e+17
19258.0	6.367744687603711e+17
19259.0	6.366377947780436e+17
19260.0	6.364586822686036e+17
19261.0	6.364046994789716e+17
19262.0	6.362875618656255e+17
19263.0	6.361657718603776e+17
19264.0	6.360360760115199e+17
19265.0	6.359243422695423e+17
19266.0	6.358045010078377e+17
19267.0	6.356940111566164e+17
19268.0	6.35574132216081e+17
19269.0	6.354537781308074e+17
19270.0	6.353304706263721e+17
19271.0	6.352034708062207e+17
19272.0	6.350899580502015e+17
19273.0	6.349575627472895e+17
19274.0	6.348230939202899e+17
19275.0	6.347315318445395e+17
19276.0	6.346096986379604e+17
19277.0	6.344889268699136e+17
19278.0	6.343648166455978e+17
19279.0	6.342412214818131e+17
19280.0	6.34120336118033e+17
19281.0	6.339978764222463e+17
19282.0	6.338739036312916e+17
19283.0	6.337455392642388e+17
19284.0	6.336109403439103e+17
19285.0	6.334791637707433e+17
19286.0	6.33321787892258e+17
19287.0	6.330669447774207e+17
19288.0	6.316886168611494e+17
19289.0	6.310677278184782e+17
19290.0	6.326632022627668e+17
19291.0	6.32693790482978e+17
19292.0	6.326331126054911e+17
19293.0	6.325269019230208e+17
19294.0	6.324119769448445e+17
19295.0	6.322969269065044e+17
19296.0	6.321416444750506e+17
19297.0	6.320467415662591e+17
19298.0	6.319342028674387e+17
19299.0	6.317721845934762e+17
19300.0	6.316896234242047e+17
19301.0	6.3156759574173e+17
19302.0	6.314430141475497e+17
19303.0	6.313139622641663e+17
19304.0	6.311943820279807e+17
19305.0	6.310674014317226e+17
19306.0	6.309386206401875e+17
19307.0	6.308051054581075e+17
19308.0	6.306682200828585e+17
19309.0	6.305111018045439e+17
19310.0	6.303680193451348e+17
19311.0	6.302546733826047e+17
19312.0	6.301136273975978e+17
19313.0	6.298515598038356e+17
19314.0	6.247021507073377e+17
19315.0	6.248738099385714e+17
19316.0	6.29435487293713e+17
19317.0	6.295016750186495e+17
19318.0	6.29413964292642e+17
19319.0	6.293047043511636e+17
19320.0	6.291701400338431e+17
19321.0	6.290275654347433e+17
19322.0	6.289293725138943e+17
19323.0	6.287999172083711e+17
19324.0	6.286725858983935e+17
19325.0	6.285441633004201e+17
19326.0	6.284269529158995e+17
19327.0	6.283049945792511e+17
19328.0	6.281204949057536e+17
19329.0	6.280570645861716e+17
19330.0	6.279297780853418e+17
19331.0	6.277997304042836e+17
19332.0	6.276733474264403e+17
19333.0	6.275421894432084e+17
19334.0	6.274114428512938e+17
19335.0	6.271575231124822e+17
19336.0	6.271479165485055e+17
19337.0	6.270199551142569e+17
19338.0	6.268736570916863e+17
19339.0	6.267532326819156e+17
19340.0	6.266149476674217e+17
19341.0	6.26434450128896e+17
19342.0	6.263201374491988e+17
19343.0	6.26211785085201e+17
19344.0	6.260229058592768e+17
19345.0	6.258539151840595e+17
19346.0	6.257482476639571e+17
19347.0	6.255986194339156e+17
19348.0	6.255306268300628e+17
19349.0	6.253907481897642e+17
19350.0	6.252301338891604e+17
19351.0	6.251137569128447e+17
19352.0	6.249084790068563e+17
19353.0	6.248361752876371e+17
19354.0	6.246919660983635e+17
19355.0	6.245407067734015e+17
19356.0	6.244036502705494e+17
19357.0	6.242599986440874e+17
19358.0	6.241125051749716e+17
19359.0	6.23952204608307e+17
19360.0	6.237703469968042e+17
19361.0	6.236719707149652e+17
19362.0	6.235251524588884e+17
19363.0	6.233756970341716e+17
19364.0	6.232247807333716e+17
19365.0	6.230714776638803e+17
19366.0	6.229163735602516e+17
19367.0	6.227594169723562e+17
19368.0	6.226015570711894e+17
19369.0	6.224322463006719e+17
19370.0	6.222727380380329e+17
19371.0	6.221105638757716e+17
19372.0	6.219503585198079e+17
19373.0	6.217829586042879e+17
19374.0	6.216170761879551e+17
19375.0	6.21446277627904e+17
19376.0	6.212749951150762e+17
19377.0	6.210999295497555e+17
19378.0	6.209206866673663e+17
19379.0	6.20741338787567e+17
19380.0	6.205572809839958e+17
19381.0	6.203667457070419e+17
19382.0	6.201745204751018e+17
19383.0	6.199870917094057e+17
19384.0	6.197975160892073e+17
19385.0	6.196022144051882e+17
19386.0	6.194017614867114e+17
19387.0	6.191934207601321e+17
19388.0	6.189734297250474e+17
19389.0	6.187167429339818e+17
19390.0	6.182697192565418e+17
19391.0	6.159513567974732e+17
19392.0	6.173163881409193e+17
19393.0	6.177784575557631e+17
19394.0	6.176429593067519e+17
19395.0	6.174165869177514e+17
19396.0	6.17206354420258e+17
19397.0	6.169776014142122e+17
19398.0	6.167087518405972e+17
19399.0	6.164369159225344e+17
19400.0	6.161881571349844e+17
19401.0	6.159453634865833e+17
19402.0	6.156713658941439e+17
19403.0	6.153878024923817e+17
19404.0	6.150952109910697e+17
19405.0	6.147943573400234e+17
19406.0	6.144807205688659e+17
19407.0	6.14141281907507e+17
19408.0	6.138182010317481e+17
19409.0	6.13492532969472e+17
19410.0	6.131516056797183e+17
19411.0	6.127934316216319e+17
19412.0	6.124218154483711e+17
19413.0	6.120190324506624e+17
19414.0	6.116333175439359e+17
19415.0	6.112101075167913e+17
19416.0	6.107575294623743e+17
19417.0	6.103076290516308e+17
19418.0	6.098436612248915e+17
19419.0	6.09353899057698e+17
19420.0	6.088439679505748e+17
19421.0	6.083025241287338e+17
19422.0	6.077420736785065e+17
19423.0	6.071617067854505e+17
19424.0	6.065457858958675e+17
19425.0	6.05907685876258e+17
19426.0	6.0521873159837e+17
19427.0	6.044821231064406e+17
19428.0	6.036976957041321e+17
19429.0	6.028384475807743e+17
19430.0	6.018002510850732e+17
19431.0	6.007565712359423e+17
19432.0	6.000306954786131e+17
19433.0	5.990664511335082e+17
19434.0	5.979598374305791e+17
19435.0	5.966272006542676e+17
19436.0	5.952132022796288e+17
19437.0	5.935616947301033e+17
19438.0	5.88432141748361e+17
19439.0	5.894316917871954e+17
19440.0	5.889978076758015e+17
19441.0	5.871997471599273e+17
19442.0	5.85051617099776e+17
19443.0	5.825800102914729e+17
19444.0	5.797807058670931e+17
19445.0	5.76484239474688e+17
19446.0	5.725988198197929e+17
19447.0	5.6784735146693946e+17
19448.0	5.618261222402733e+17
19449.0	5.536723820522153e+17
19450.0	5.4068694940822106e+17
19451.0	5.310752722954925e+17
19452.0	5.481172872200191e+17
19453.0	5.5780715007399277e+17
19454.0	5.644863983495848e+17
19455.0	5.6955192080684365e+17
19456.0	5.735536645898241e+17
19457.0	5.766007143880019e+17
19458.0	5.673240288559213e+17
19459.0	5.799118874782405e+17
19460.0	5.84155115238195e+17
19461.0	5.861852783312895e+17
19462.0	5.878769126473728e+17
19463.0	5.893755111123625e+17
19464.0	5.907349676665514e+17
19465.0	5.919690535381674e+17
19466.0	5.930784059118931e+17
19467.0	5.940986543516329e+17
19468.0	5.950216045854719e+17
19469.0	5.957911880663037e+17
19470.0	5.966088424652799e+17
19471.0	5.97333068742656e+17
19472.0	5.979991750388393e+17
19473.0	5.986074189540009e+17
19474.0	5.991245793634986e+17
19475.0	5.996585791346004e+17
19476.0	6.001604302645929e+17
19477.0	6.006033440833535e+17
19478.0	6.010027866674516e+17
19479.0	6.013365723856895e+17
19480.0	6.017170469989034e+17
19481.0	6.020423801460052e+17
19482.0	6.023454704096596e+17
19483.0	6.02623057207842e+17
19484.0	6.028800185161044e+17
19485.0	6.031175533461501e+17
19486.0	6.032933954169516e+17
19487.0	6.035360515620863e+17
19488.0	6.037169722359807e+17
19489.0	6.038628388044799e+17
19490.0	6.039895961239551e+17
19491.0	6.041602686451711e+17
19492.0	6.042929684545535e+17
19493.0	6.044024850874367e+17
19494.0	6.044975287850324e+17
19495.0	6.045618999569066e+17
19496.0	6.045765001194153e+17
19497.0	6.044831810497194e+17
19498.0	6.031131970022056e+17
19499.0	6.011254884444841e+17
19500.0	6.04464128074274e+17
19501.0	6.048651329667072e+17
19502.0	6.049892569623209e+17
19503.0	6.0505589284864e+17
19504.0	6.050960568046932e+17
19505.0	6.051174545358847e+17
19506.0	6.051285291062611e+17
19507.0	6.05126284874001e+17
19508.0	6.051062165274623e+17
19509.0	6.0502137910941e+17
19510.0	6.045903369185961e+17
19511.0	5.970443104157672e+17
19512.0	6.033291910053887e+17
19513.0	6.0357581775831e+17
19514.0	6.038323209087654e+17
19515.0	6.048637721247744e+17
19516.0	6.04970493813282e+17
19517.0	6.049907255279615e+17
19518.0	6.049660496685737e+17
19519.0	6.049373036565843e+17
19520.0	6.048741588991999e+17
19521.0	6.04888301183522e+17
19522.0	6.048436619750057e+17
19523.0	6.047992201084927e+17
19524.0	6.047305657133738e+17
19525.0	6.047192344515924e+17
19526.0	6.046705456425642e+17
19527.0	6.046171116776106e+17
19528.0	6.045569148168874e+17
19529.0	6.044960402265428e+17
19530.0	6.044439071249748e+17
19531.0	6.043820828742996e+17
19532.0	6.043185177078441e+17
19533.0	6.04253294043682e+17
19534.0	6.041893892784127e+17
19535.0	6.041233164774058e+17
19536.0	6.040516946122068e+17
19537.0	6.039803944501247e+17
19538.0	6.038537630995796e+17
19539.0	6.038192756446548e+17
19540.0	6.03756330885666e+17
19541.0	6.036711159802538e+17
19542.0	6.036006802642259e+17
19543.0	6.034779180892159e+17
19544.0	6.034404235280383e+17
19545.0	6.03339947577617e+17
19546.0	6.03256440103458e+17
19547.0	6.032016630524586e+17
19548.0	6.031240381595647e+17
19549.0	6.030379424503123e+17
19550.0	6.029639495450623e+17
19551.0	6.028799381951828e+17
19552.0	6.027948682029737e+17
19553.0	6.027083153844906e+17
19554.0	6.026219097860778e+17
19555.0	6.025286852979369e+17
19556.0	6.024442071220223e+17
19557.0	6.023595953575252e+17
19558.0	6.022719985068713e+17
19559.0	6.021840638749353e+17
19560.0	6.020740353272489e+17
19561.0	6.020014998727338e+17
19562.0	6.018943977608531e+17
19563.0	6.018209109682858e+17
19564.0	6.017288163557375e+17
19565.0	6.016361918627839e+17
19566.0	6.015419852783615e+17
19567.0	6.014496176865279e+17
19568.0	6.013540208301396e+17
19569.0	6.012605892132863e+17
19570.0	6.011663038458537e+17
19571.0	6.010731871513257e+17
19572.0	6.009761053715113e+17
19573.0	6.008754095696554e+17
19574.0	6.007772716640937e+17
19575.0	6.006905295426899e+17
19576.0	6.005895569866751e+17
19577.0	6.004843032346623e+17
19578.0	6.003983321661437e+17
19579.0	6.002995196067837e+17
19580.0	6.002020771168255e+17
19581.0	6.001150446097748e+17
19582.0	6.000180397255338e+17
19583.0	5.999192915487401e+17
19584.0	5.998176922238975e+17
19585.0	5.997116536477011e+17
19586.0	5.9960892325888e+17
19587.0	5.995148120249684e+17
19588.0	5.994066188348073e+17
19589.0	5.993169077054122e+17
19590.0	5.992149294252031e+17
19591.0	5.991230413821268e+17
19592.0	5.990245246610089e+17
19593.0	5.989190010754387e+17
19594.0	5.98803680015155e+17
19595.0	5.987241469935615e+17
19596.0	5.985883835247274e+17
19597.0	5.985214244672851e+17
19598.0	5.984021170006697e+17
19599.0	5.98318258463266e+17
19600.0	5.982181354635263e+17
19601.0	5.98111261032448e+17
19602.0	5.980029873116499e+17
19603.0	5.978857660918442e+17
19604.0	5.97793627439104e+17
19605.0	5.976893922039124e+17
19606.0	5.976053363944106e+17
19607.0	5.9750553237149e+17
19608.0	5.974028205774163e+17
19609.0	5.972990784525652e+17
19610.0	5.971760632212138e+17
19611.0	5.970638594375679e+17
19612.0	5.969942003668308e+17
19613.0	5.968914206949375e+17
19614.0	5.967864396425897e+17
19615.0	5.966785787811156e+17
19616.0	5.9653733496477e+17
19617.0	5.96436606587153e+17
19618.0	5.963398567165952e+17
19619.0	5.962230545077587e+17
19620.0	5.961245813374973e+17
19621.0	5.960044177435305e+17
19622.0	5.959491588369066e+17
19623.0	5.95838571188497e+17
19624.0	5.957210350463657e+17
19625.0	5.956149524998825e+17
19626.0	5.95489745604881e+17
19627.0	5.953431167216297e+17
19628.0	5.951573657474388e+17
19629.0	5.947827043696639e+17
19630.0	5.943136025750185e+17
19631.0	5.938267836208467e+17
19632.0	5.944529157532329e+17
19633.0	5.946034003902464e+17
19634.0	5.946076051101012e+17
19635.0	5.945406668144637e+17
19636.0	5.944163422612138e+17
19637.0	5.943026112615764e+17
19638.0	5.942788877189119e+17
19639.0	5.94182655774993e+17
19640.0	5.940677723903316e+17
19641.0	5.939425489977344e+17
19642.0	5.938742802688681e+17
19643.0	5.937727492412756e+17
19644.0	5.936718533711188e+17
19645.0	5.935669274039636e+17
19646.0	5.934148903152296e+17
19647.0	5.933672257552383e+17
19648.0	5.932649198998868e+17
19649.0	5.931611523295914e+17
19650.0	5.930572641031508e+17
19651.0	5.929527167418367e+17
19652.0	5.92848467595537e+17
19653.0	5.927430471898452e+17
19654.0	5.926398598316032e+17
19655.0	5.925354607389354e+17
19656.0	5.924315678987604e+17
19657.0	5.923272795357183e+17
19658.0	5.922223605590698e+17
19659.0	5.921181850228052e+17
19660.0	5.920135227375615e+17
19661.0	5.919085979587924e+17
19662.0	5.918030861172736e+17
19663.0	5.916961637313193e+17
19664.0	5.915899146709673e+17
19665.0	5.914890688528383e+17
