# Flux units: erg / (cm m2 s)
# Wavelength units: Angstrom
wave	flux
19000.0	6.043137440306516e+17
19001.0	6.041907550137001e+17
19002.0	6.040910484384425e+17
19003.0	6.039794275232426e+17
19004.0	6.038679501231444e+17
19005.0	6.03755749974562e+17
19006.0	6.036454267770198e+17
19007.0	6.035338371792895e+17
19008.0	6.034153909430953e+17
19009.0	6.032969375765844e+17
19010.0	6.031467429057875e+17
19011.0	6.030842107265023e+17
19012.0	6.029607187425961e+17
19013.0	6.028648157020159e+17
19014.0	6.027476517344596e+17
19015.0	6.026377546082986e+17
19016.0	6.02525845754129e+17
19017.0	6.024201366405119e+17
19018.0	6.023078057694548e+17
19019.0	6.021974692200447e+17
19020.0	6.020848190925481e+17
19021.0	6.019757183948116e+17
19022.0	6.018640225413801e+17
19023.0	6.017490773606399e+17
19024.0	6.016397693244756e+17
19025.0	6.015308446476969e+17
19026.0	6.014166459831635e+17
19027.0	6.013015962943487e+17
19028.0	6.011977443486377e+17
19029.0	6.010849998493011e+17
19030.0	6.009773195526143e+17
19031.0	6.008662800378538e+17
19032.0	6.007544734547967e+17
19033.0	6.006332158465363e+17
19034.0	6.005301422238378e+17
19035.0	6.004064747782143e+17
19036.0	5.997268162663762e+17
19037.0	6.001903967491412e+17
19038.0	6.000856472223743e+17
19039.0	5.999781621705386e+17
19040.0	5.998682899305812e+17
19041.0	5.997567305318399e+17
19042.0	5.99625056719121e+17
19043.0	5.995362988152148e+17
19044.0	5.9942423232512e+17
19045.0	5.993146918546089e+17
19046.0	5.991973536137215e+17
19047.0	5.990894303969279e+17
19048.0	5.989574241157119e+17
19049.0	5.988408253306196e+17
19050.0	5.987539047415807e+17
19051.0	5.985597318146729e+17
19052.0	5.985164648426154e+17
19053.0	5.984289091660457e+17
19054.0	5.983191501023913e+17
19055.0	5.98175948804369e+17
19056.0	5.980938151045802e+17
19057.0	5.979871004764841e+17
19058.0	5.978645541683199e+17
19059.0	5.977618312593407e+17
19060.0	5.976543457181696e+17
19061.0	5.975463196710228e+17
19062.0	5.974353821477546e+17
19063.0	5.973250326659071e+17
19064.0	5.972016713345705e+17
19065.0	5.970845439972692e+17
19066.0	5.969835563417599e+17
19067.0	5.96882821882402e+17
19068.0	5.967740455441748e+17
19069.0	5.966639312229716e+17
19070.0	5.965503319244799e+17
19071.0	5.964428605041321e+17
19072.0	5.96329052119586e+17
19073.0	5.962227578306557e+17
19074.0	5.961131325652991e+17
19075.0	5.960029882548223e+17
19076.0	5.958908658406739e+17
19077.0	5.957807042636458e+17
19078.0	5.956683996069887e+17
19079.0	5.955623981503827e+17
19080.0	5.954511327723519e+17
19081.0	5.953372702812841e+17
19082.0	5.952284647227391e+17
19083.0	5.951110302924799e+17
19084.0	5.949874453348351e+17
19085.0	5.949011992597844e+17
19086.0	5.947439456452605e+17
19087.0	5.94661796286737e+17
19088.0	5.945553828795732e+17
19089.0	5.944364585626282e+17
19090.0	5.943487736315901e+17
19091.0	5.942397456351232e+17
19092.0	5.941169988392276e+17
19093.0	5.940239856741033e+17
19094.0	5.939146222731261e+17
19095.0	5.938049739390976e+17
19096.0	5.93693637607424e+17
19097.0	5.935852270125056e+17
19098.0	5.934711264247805e+17
19099.0	5.933599840796671e+17
19100.0	5.932544358875135e+17
19101.0	5.931464326294185e+17
19102.0	5.93024535110178e+17
19103.0	5.929276104769535e+17
19104.0	5.928185331275092e+17
19105.0	5.926980564986537e+17
19106.0	5.925972104708095e+17
19107.0	5.924846708632233e+17
19108.0	5.923747910735188e+17
19109.0	5.92238567629346e+17
19110.0	5.921557494191443e+17
19111.0	5.92048750207522e+17
19112.0	5.919392225296383e+17
19113.0	5.918332907683839e+17
19114.0	5.917219754082303e+17
19115.0	5.916084681747114e+17
19116.0	5.915028482599594e+17
19117.0	5.913932104116905e+17
19118.0	5.912702875249322e+17
19119.0	5.903986569773043e+17
19120.0	5.910586725848404e+17
19121.0	5.909549761079977e+17
19122.0	5.908502932706644e+17
19123.0	5.907413255323647e+17
19124.0	5.90628916367633e+17
19125.0	5.905221878284287e+17
19126.0	5.904080460666196e+17
19127.0	5.901075639610025e+17
19128.0	5.901858147838633e+17
19129.0	5.900751361190569e+17
19130.0	5.899748053614591e+17
19131.0	5.898674863341567e+17
19132.0	5.897583710961664e+17
19133.0	5.896436786921471e+17
19134.0	5.895399560708095e+17
19135.0	5.894316595609599e+17
19136.0	5.893229753576106e+17
19137.0	5.89197528338705e+17
19138.0	5.891035560061609e+17
19139.0	5.889969044324351e+17
19140.0	5.888884439252991e+17
19141.0	5.887797172895744e+17
19142.0	5.886679785144319e+17
19143.0	5.885560603628884e+17
19144.0	5.884486483618473e+17
19145.0	5.883448083699028e+17
19146.0	5.881639215300608e+17
19147.0	5.881178857581225e+17
19148.0	5.880148851163135e+17
19149.0	5.879049826074623e+17
19150.0	5.878011066843135e+17
19151.0	5.876924448505855e+17
19152.0	5.875837177255252e+17
19153.0	5.874652635900585e+17
19154.0	5.873534753221289e+17
19155.0	5.872582158275924e+17
19156.0	5.871496570339327e+17
19157.0	5.870355668620627e+17
19158.0	5.86908084347426e+17
19159.0	5.868208157709652e+17
19160.0	5.867144710105769e+17
19161.0	5.866056851652608e+17
19162.0	5.864483179550038e+17
19163.0	5.863827941883904e+17
19164.0	5.862823949238271e+17
19165.0	5.861640687845376e+17
19166.0	5.860516724124329e+17
19167.0	5.859534231481001e+17
19168.0	5.858493672893098e+17
19169.0	5.857409675995817e+17
19170.0	5.856338160648191e+17
19171.0	5.855233457870164e+17
19172.0	5.854174131169961e+17
19173.0	5.853096879412566e+17
19174.0	5.851956098629631e+17
19175.0	5.850932169058985e+17
19176.0	5.849851473778006e+17
19177.0	5.848598155624447e+17
19178.0	5.84767227699746e+17
19179.0	5.846574856230228e+17
19180.0	5.84551979164194e+17
19181.0	5.844303392451241e+17
19182.0	5.843354305342121e+17
19183.0	5.842297839856297e+17
19184.0	5.841214611215699e+17
19185.0	5.840126780724563e+17
19186.0	5.839058241934676e+17
19187.0	5.837906407063551e+17
19188.0	5.83689796915473e+17
19189.0	5.835825173845332e+17
19190.0	5.834742948342442e+17
19191.0	5.833627173300905e+17
19192.0	5.83258646581521e+17
19193.0	5.831487836389375e+17
19194.0	5.830389497069567e+17
19195.0	5.829335468474367e+17
19196.0	5.828222162479786e+17
19197.0	5.82711555129344e+17
19198.0	5.82586217931298e+17
19199.0	5.82152545772066e+17
19200.0	5.821154087753044e+17
19201.0	5.822663248663892e+17
19202.0	5.821746524105385e+17
19203.0	5.820698212346537e+17
19204.0	5.819622952184489e+17
19205.0	5.818567301092692e+17
19206.0	5.817498221936639e+17
19207.0	5.816296065903274e+17
19208.0	5.815104201293823e+17
19209.0	5.814244088654505e+17
19210.0	5.813170127328595e+17
19211.0	5.812112314772138e+17
19212.0	5.81103587041826e+17
19213.0	5.809839890497535e+17
19214.0	5.808749710497108e+17
19215.0	5.807794842238975e+17
19216.0	5.806735107992233e+17
19217.0	5.805630898743977e+17
19218.0	5.803730479874045e+17
19219.0	5.803308918068563e+17
19220.0	5.802405549572095e+17
19221.0	5.801041343807487e+17
19222.0	5.800260418928639e+17
19223.0	5.799199717195776e+17
19224.0	5.798095317106687e+17
19225.0	5.796928795181055e+17
19226.0	5.795982005851476e+17
19227.0	5.794912014434303e+17
19228.0	5.793869919333033e+17
19229.0	5.792796221549225e+17
19230.0	5.791715760450218e+17
19231.0	5.79063735456017e+17
19232.0	5.789571337945087e+17
19233.0	5.788429435185833e+17
19234.0	5.78741396972066e+17
19235.0	5.786325339515561e+17
19236.0	5.785292167097001e+17
19237.0	5.78420485460241e+17
19238.0	5.78304260247825e+17
19239.0	5.782081165241001e+17
19240.0	5.78100574359825e+17
19241.0	5.779913509786964e+17
19242.0	5.77884984967168e+17
19243.0	5.777614615259817e+17
19244.0	5.776727954074282e+17
19245.0	5.775649758598484e+17
19246.0	5.7745686396928e+17
19247.0	5.773507987592532e+17
19248.0	5.772445182416212e+17
19249.0	5.771372438836563e+17
19250.0	5.770262204470612e+17
19251.0	5.769101478374057e+17
19252.0	5.767823968174079e+17
19253.0	5.767062502069588e+17
19254.0	5.766021841420287e+17
19255.0	5.764727716883114e+17
19256.0	5.763857023412906e+17
19257.0	5.762811858780158e+17
19258.0	5.761740678976852e+17
19259.0	5.760583207660202e+17
19260.0	5.759453925561683e+17
19261.0	5.758511363391487e+17
19262.0	5.757387253568852e+17
19263.0	5.756286126434985e+17
19264.0	5.7546997183283194e+17
19265.0	5.754003321957034e+17
19266.0	5.752869572225707e+17
19267.0	5.752104990452394e+17
19268.0	5.7510277911237965e+17
19269.0	5.7499600303773005e+17
19270.0	5.748874410284373e+17
19271.0	5.747443717810859e+17
19272.0	5.7467071644740256e+17
19273.0	5.7452895463451296e+17
19274.0	5.744079625956009e+17
19275.0	5.743517427040255e+17
19276.0	5.7424253050770765e+17
19277.0	5.741360901870932e+17
19278.0	5.740293619275094e+17
19279.0	5.739198310339924e+17
19280.0	5.7380619950926496e+17
19281.0	5.737054746968063e+17
19282.0	5.735965294679379e+17
19283.0	5.7348579173335034e+17
19284.0	5.7337701189986976e+17
19285.0	5.732581523150164e+17
19286.0	5.731620157216085e+17
19287.0	5.7305761453178874e+17
19288.0	5.727811363580583e+17
19289.0	5.724576797425657e+17
19290.0	5.7273527381087565e+17
19291.0	5.726015528282795e+17
19292.0	5.7252396260829856e+17
19293.0	5.7241620394803174e+17
19294.0	5.7230820306670925e+17
19295.0	5.722020995487062e+17
19296.0	5.7208862775705594e+17
19297.0	5.7198405397162643e+17
19298.0	5.7187573334452896e+17
19299.0	5.7176582468403194e+17
19300.0	5.71663136727586e+17
19301.0	5.715556660062889e+17
19302.0	5.7144669777865363e+17
19303.0	5.7133168702696096e+17
19304.0	5.712292029835945e+17
19305.0	5.711222802481151e+17
19306.0	5.7101513227851085e+17
19307.0	5.7090209424779936e+17
19308.0	5.7079595920261114e+17
19309.0	5.706781585397076e+17
19310.0	5.705601947882837e+17
19311.0	5.7046160473675085e+17
19312.0	5.703577451713876e+17
19313.0	5.70248604487953e+17
19314.0	5.6918197082084614e+17
19315.0	5.691623671332879e+17
19316.0	5.699139017550506e+17
19317.0	5.6981508933550074e+17
19318.0	5.6970685923546445e+17
19319.0	5.6960048147988474e+17
19320.0	5.694893626228735e+17
19321.0	5.693774567047167e+17
19322.0	5.692647348546217e+17
19323.0	5.691585578663936e+17
19324.0	5.690521701143892e+17
19325.0	5.6893546367549434e+17
19326.0	5.688337825617236e+17
19327.0	5.6871938851252896e+17
19328.0	5.686016948043775e+17
19329.0	5.6850149490906445e+17
19330.0	5.683874785569449e+17
19331.0	5.6827517949269325e+17
19332.0	5.681704989622271e+17
19333.0	5.6805856060811936e+17
19334.0	5.679489558249471e+17
19335.0	5.678190877999103e+17
19336.0	5.677265494999039e+17
19337.0	5.676149462007807e+17
19338.0	5.674794634007892e+17
19339.0	5.673914743827115e+17
19340.0	5.672615169490943e+17
19341.0	5.67151520068403e+17
19342.0	5.67008418804531e+17
19343.0	5.66936136196642e+17
19344.0	5.668141323517951e+17
19345.0	5.6648441294137984e+17
19346.0	5.664860292863315e+17
19347.0	5.664664782372863e+17
19348.0	5.663706395093674e+17
19349.0	5.6625262948078925e+17
19350.0	5.661357366749866e+17
19351.0	5.660226116124671e+17
19352.0	5.658942538863956e+17
19353.0	5.657964307633492e+17
19354.0	5.6567865827218765e+17
19355.0	5.6555076821101216e+17
19356.0	5.654449787065685e+17
19357.0	5.6532785598300154e+17
19358.0	5.652096898564096e+17
19359.0	5.650852477927423e+17
19360.0	5.6496026655129594e+17
19361.0	5.648494875727189e+17
19362.0	5.6472689792341325e+17
19363.0	5.646057769096533e+17
19364.0	5.644845875287381e+17
19365.0	5.6436281618814285e+17
19366.0	5.6424042283226445e+17
19367.0	5.641173702716073e+17
19368.0	5.639935974790484e+17
19369.0	5.638638983446526e+17
19370.0	5.6373943426088954e+17
19371.0	5.6361085067154765e+17
19372.0	5.6349008316770976e+17
19373.0	5.6335076957006496e+17
19374.0	5.632204651976021e+17
19375.0	5.630907272658943e+17
19376.0	5.6295990895138125e+17
19377.0	5.628263110017023e+17
19378.0	5.6269306977757856e+17
19379.0	5.6255849008114336e+17
19380.0	5.6241270383356576e+17
19381.0	5.622662416738986e+17
19382.0	5.62118385467392e+17
19383.0	5.6197523478063776e+17
19384.0	5.6184251448907085e+17
19385.0	5.6168597817043616e+17
19386.0	5.615285023976105e+17
19387.0	5.613801974704809e+17
19388.0	5.6122740407883085e+17
19389.0	5.6105055607412045e+17
19390.0	5.6087711824827725e+17
19391.0	5.601979582993742e+17
19392.0	5.6052983127517856e+17
19393.0	5.6035667565608954e+17
19394.0	5.601918033679701e+17
19395.0	5.6001042320807245e+17
19396.0	5.5979561046070605e+17
19397.0	5.5962192265434445e+17
19398.0	5.594103156135252e+17
19399.0	5.5913672095389e+17
19400.0	5.590093736356522e+17
19401.0	5.588321392656383e+17
19402.0	5.5863742219769165e+17
19403.0	5.5843343809467725e+17
19404.0	5.5822841750923936e+17
19405.0	5.580010255548415e+17
19406.0	5.577705593853269e+17
19407.0	5.5754105755620685e+17
19408.0	5.5722549636846944e+17
19409.0	5.570537165509972e+17
19410.0	5.5678672847940256e+17
19411.0	5.565305596149758e+17
19412.0	5.5624531192053754e+17
19413.0	5.5591257638611616e+17
19414.0	5.55620607389423e+17
19415.0	5.552562370860373e+17
19416.0	5.549019155660798e+17
19417.0	5.544980563798697e+17
19418.0	5.5411491160282445e+17
19419.0	5.536285664651945e+17
19420.0	5.5312333102120934e+17
19421.0	5.525714328267435e+17
19422.0	5.51963844551202e+17
19423.0	5.513156910645246e+17
19424.0	5.5072437857594016e+17
19425.0	5.501699998700884e+17
19426.0	5.496403040141311e+17
19427.0	5.4901178986659834e+17
19428.0	5.4834143495017805e+17
19429.0	5.475715437472426e+17
19430.0	5.4672493327155194e+17
19431.0	5.456291027047765e+17
19432.0	5.4463460379634355e+17
19433.0	5.433940907130882e+17
19434.0	5.4188762715914214e+17
19435.0	5.400808755560444e+17
19436.0	5.378898083359396e+17
19437.0	5.355643713443155e+17
19438.0	5.323600615702525e+17
19439.0	5.314379063667372e+17
19440.0	5.292981621183824e+17
19441.0	5.2655414386360294e+17
19442.0	5.231075559910055e+17
19443.0	5.185955419215192e+17
19444.0	5.130264791482369e+17
19445.0	5.0742285139531117e+17
19446.0	5.020091559182334e+17
19447.0	4.9484530635680384e+17
19448.0	4.8470856320068326e+17
19449.0	4.686382292620631e+17
19450.0	4.3582399950356634e+17
19451.0	4.135627227048666e+17
19452.0	4.5572981375631405e+17
19453.0	4.7764763158336915e+17
19454.0	4.8990251622509146e+17
19455.0	4.981307152356692e+17
19456.0	5.040246961995778e+17
19457.0	5.091030658099879e+17
19458.0	5.122066838366935e+17
19459.0	5.1950900484942534e+17
19460.0	5.233038960448847e+17
19461.0	5.261940236484605e+17
19462.0	5.284050351336107e+17
19463.0	5.301839668270418e+17
19464.0	5.3188108246930765e+17
19465.0	5.3414368571118925e+17
19466.0	5.362303687284049e+17
19467.0	5.379297279038808e+17
19468.0	5.393840766014805e+17
19469.0	5.405185275505318e+17
19470.0	5.4151806675408224e+17
19471.0	5.4232732045148154e+17
19472.0	5.4301659489457485e+17
19473.0	5.436712884196692e+17
19474.0	5.441191442470228e+17
19475.0	5.445237728083967e+17
19476.0	5.44959114650146e+17
19477.0	5.45299615518993e+17
19478.0	5.4567070572653216e+17
19479.0	5.4607404992211616e+17
19480.0	5.4649966566222515e+17
19481.0	5.468725193648809e+17
19482.0	5.472367620915199e+17
19483.0	5.474847047374163e+17
19484.0	5.4771714866107725e+17
19485.0	5.4792415664756045e+17
19486.0	5.480679828968789e+17
19487.0	5.4824312983169696e+17
19488.0	5.483565296211284e+17
19489.0	5.484344684576768e+17
19490.0	5.4840736822067174e+17
19491.0	5.486237827028308e+17
19492.0	5.4868178042006176e+17
19493.0	5.4875493893843616e+17
19494.0	5.4878565291786234e+17
19495.0	5.488097105368404e+17
19496.0	5.487787117641726e+17
19497.0	5.488539930897066e+17
19498.0	5.4877981186020685e+17
19499.0	5.480138630933158e+17
19500.0	5.488572387819519e+17
19501.0	5.4885331074635085e+17
19502.0	5.488388182376447e+17
19503.0	5.488336977614164e+17
19504.0	5.4883283869805216e+17
19505.0	5.488164611992234e+17
19506.0	5.4879805470583456e+17
19507.0	5.488031704984234e+17
19508.0	5.4876822055157754e+17
19509.0	5.487323384905726e+17
19510.0	5.486950798589952e+17
19511.0	5.470741101281266e+17
19512.0	5.4848216042045414e+17
19513.0	5.4832741430067155e+17
19514.0	5.4837571681430163e+17
19515.0	5.484592885312171e+17
19516.0	5.484532237773481e+17
19517.0	5.484074432987134e+17
19518.0	5.483610336744787e+17
19519.0	5.482983853828779e+17
19520.0	5.482273375780864e+17
19521.0	5.4817278023871136e+17
19522.0	5.4810911895278925e+17
19523.0	5.480526583780692e+17
19524.0	5.4797990426050554e+17
19525.0	5.479136385215145e+17
19526.0	5.4784285153252685e+17
19527.0	5.477691336338089e+17
19528.0	5.476940150472704e+17
19529.0	5.476183831478271e+17
19530.0	5.4755528082281805e+17
19531.0	5.4747920887098016e+17
19532.0	5.474015604899839e+17
19533.0	5.473230787706879e+17
19534.0	5.472435816103935e+17
19535.0	5.471617748566015e+17
19536.0	5.4707818384588794e+17
19537.0	5.470010195574783e+17
19538.0	5.4689666625262925e+17
19539.0	5.467757247550806e+17
19540.0	5.467497265714515e+17
19541.0	5.466677741355007e+17
19542.0	5.465905387536383e+17
19543.0	5.4649945713541114e+17
19544.0	5.464198607798271e+17
19545.0	5.462759558873087e+17
19546.0	5.461489989189631e+17
19547.0	5.4616234386609485e+17
19548.0	5.460767394496511e+17
19549.0	5.4597788648516256e+17
19550.0	5.459019179229183e+17
19551.0	5.4581415392925e+17
19552.0	5.4572561252133536e+17
19553.0	5.456342084310356e+17
19554.0	5.455435451247274e+17
19555.0	5.454574674509823e+17
19556.0	5.453704904485545e+17
19557.0	5.4528075128722765e+17
19558.0	5.451904788201471e+17
19559.0	5.451003937685503e+17
19560.0	5.4500431281957536e+17
19561.0	5.4491585124324685e+17
19562.0	5.448250960816809e+17
19563.0	5.44740685853491e+17
19564.0	5.4464922101568845e+17
19565.0	5.445596026503167e+17
19566.0	5.444659883016191e+17
19567.0	5.443770673790975e+17
19568.0	5.442822233303721e+17
19569.0	5.4419014857086285e+17
19570.0	5.4410019298344934e+17
19571.0	5.440072730716842e+17
19572.0	5.4391033802260474e+17
19573.0	5.4381904578041165e+17
19574.0	5.437172426822995e+17
19575.0	5.436353704274602e+17
19576.0	5.4354098362777594e+17
19577.0	5.4344457929796256e+17
19578.0	5.433504031222442e+17
19579.0	5.4326141781715616e+17
19580.0	5.4316805673451514e+17
19581.0	5.430755605173589e+17
19582.0	5.429834231229098e+17
19583.0	5.4288934285694285e+17
19584.0	5.4279496598377805e+17
19585.0	5.426873967662419e+17
19586.0	5.425897514816854e+17
19587.0	5.425088163741696e+17
19588.0	5.423657392974506e+17
19589.0	5.423187979053738e+17
19590.0	5.422149159703892e+17
19591.0	5.421324918849536e+17
19592.0	5.420384739044009e+17
19593.0	5.419409378115583e+17
19594.0	5.41818810933794e+17
19595.0	5.417510865556821e+17
19596.0	5.4165220423106554e+17
19597.0	5.4156205130164896e+17
19598.0	5.414160243010217e+17
19599.0	5.413770022442324e+17
19600.0	5.4128406010265594e+17
19601.0	5.411810195450538e+17
19602.0	5.410848577858217e+17
19603.0	5.4094992471927443e+17
19604.0	5.408956581150719e+17
19605.0	5.407733926155605e+17
19606.0	5.407110830140073e+17
19607.0	5.406168400789504e+17
19608.0	5.405194322619049e+17
19609.0	5.4041996881646925e+17
19610.0	5.4032669490544634e+17
19611.0	5.4022847947516576e+17
19612.0	5.4013921846449485e+17
19613.0	5.400423312304811e+17
19614.0	5.3994322262316365e+17
19615.0	5.398517923184639e+17
19616.0	5.3974814568393376e+17
19617.0	5.396530016725674e+17
19618.0	5.394949655407273e+17
19619.0	5.393808358724947e+17
19620.0	5.392954616534355e+17
19621.0	5.392687913325908e+17
19622.0	5.3918138825878176e+17
19623.0	5.390854195773439e+17
19624.0	5.389877710771541e+17
19625.0	5.388940940935167e+17
19626.0	5.387974371966975e+17
19627.0	5.387009577189375e+17
19628.0	5.385959020778836e+17
19629.0	5.3847730030291616e+17
19630.0	5.383453006626815e+17
19631.0	5.379588227421526e+17
19632.0	5.3821058437174605e+17
19633.0	5.3811948387915085e+17
19634.0	5.380301174516394e+17
19635.0	5.37929914200883e+17
19636.0	5.378308396373333e+17
19637.0	5.3769676752158726e+17
19638.0	5.376459872927743e+17
19639.0	5.3755043014246394e+17
19640.0	5.374422115767636e+17
19641.0	5.3723342618405574e+17
19642.0	5.372656933142528e+17
19643.0	5.3716971771221325e+17
19644.0	5.3706713524251296e+17
19645.0	5.369495587651583e+17
19646.0	5.368755045531647e+17
19647.0	5.3678827687116794e+17
19648.0	5.3669262618787834e+17
19649.0	5.365959412591274e+17
19650.0	5.3650087015874554e+17
19651.0	5.364042299692372e+17
19652.0	5.3630816579747834e+17
19653.0	5.362129901191167e+17
19654.0	5.36116347273216e+17
19655.0	5.360200462630912e+17
19656.0	5.3592476677570554e+17
19657.0	5.3582933629337594e+17
19658.0	5.357335172087807e+17
19659.0	5.3563772315019936e+17
