# Flux units: erg / (cm m2 s)
# Wavelength units: Angstrom
wave	flux
19000.0	6.772575591989245e+17
19001.0	6.771234276638719e+17
19002.0	6.770067215745023e+17
19003.0	6.768810438688767e+17
19004.0	6.767553718255615e+17
19005.0	6.766294147792896e+17
19006.0	6.765044404584445e+17
19007.0	6.763778548957183e+17
19008.0	6.762478644669098e+17
19009.0	6.76121680159266e+17
19010.0	6.759592469987325e+17
19011.0	6.758730345480191e+17
19012.0	6.757373806903295e+17
19013.0	6.75626911670818e+17
19014.0	6.755048118463146e+17
19015.0	6.753807098707967e+17
19016.0	6.752538318951763e+17
19017.0	6.751325461151743e+17
19018.0	6.750053602077353e+17
19019.0	6.748800086791507e+17
19020.0	6.747525479748948e+17
19021.0	6.74628362183202e+17
19022.0	6.745027819951444e+17
19023.0	6.743729986251434e+17
19024.0	6.742488465276927e+17
19025.0	6.741245041486505e+17
19026.0	6.739959694928553e+17
19027.0	6.738666846857898e+17
19028.0	6.737462379763027e+17
19029.0	6.736198345162751e+17
19030.0	6.734952033594026e+17
19031.0	6.733691013300221e+17
19032.0	6.732427001069567e+17
19033.0	6.731089208934399e+17
19034.0	6.729893315695955e+17
19035.0	6.728597152727039e+17
19036.0	6.722964333177512e+17
19037.0	6.726100480688127e+17
19038.0	6.724838597066751e+17
19039.0	6.723600224616447e+17
19040.0	6.722339179855871e+17
19041.0	6.721070310621183e+17
19042.0	6.719727818768383e+17
19043.0	6.718554585956351e+17
19044.0	6.717281943246163e+17
19045.0	6.716030555171498e+17
19046.0	6.714724504829951e+17
19047.0	6.713495482182314e+17
19048.0	6.712053485360467e+17
19049.0	6.71090810622225e+17
19050.0	6.709680466995881e+17
19051.0	6.707710295452329e+17
19052.0	6.707097530007552e+17
19053.0	6.705933038125055e+17
19054.0	6.704672129679359e+17
19055.0	6.703186148589568e+17
19056.0	6.702121705537533e+17
19057.0	6.70087866692403e+17
19058.0	6.699606828821161e+17
19059.0	6.69836109816354e+17
19060.0	6.697079376183296e+17
19061.0	6.695837872685055e+17
19062.0	6.694571462710612e+17
19063.0	6.693308880038569e+17
19064.0	6.691941766922239e+17
19065.0	6.690630319210495e+17
19066.0	6.689470948573181e+17
19067.0	6.688262166937599e+17
19068.0	6.687000058920959e+17
19069.0	6.685738982703101e+17
19070.0	6.684455420821503e+17
19071.0	6.683215225247059e+17
19072.0	6.681953257040553e+17
19073.0	6.680686922563583e+17
19074.0	6.679429627510783e+17
19075.0	6.678167752278016e+17
19076.0	6.676887528363348e+17
19077.0	6.675632851954345e+17
19078.0	6.674352598679551e+17
19079.0	6.673119653658623e+17
19080.0	6.671845972858195e+17
19081.0	6.670557817514665e+17
19082.0	6.669296242873684e+17
19083.0	6.667979574651561e+17
19084.0	6.666609124966397e+17
19085.0	6.665550323952298e+17
19086.0	6.663956069700948e+17
19087.0	6.662905317556224e+17
19088.0	6.661691597127679e+17
19089.0	6.660282996752383e+17
19090.0	6.659213096910847e+17
19091.0	6.657959683686399e+17
19092.0	6.656647646674943e+17
19093.0	6.655460350361597e+17
19094.0	6.654198795294036e+17
19095.0	6.652937777097386e+17
19096.0	6.651664192765951e+17
19097.0	6.650416508960767e+17
19098.0	6.649154656796671e+17
19099.0	6.647893320531968e+17
19100.0	6.646623583076351e+17
19101.0	6.645374301940393e+17
19102.0	6.644026626626899e+17
19103.0	6.642854745079807e+17
19104.0	6.641594247675901e+17
19105.0	6.640326137610239e+17
19106.0	6.639051135604052e+17
19107.0	6.637796998163113e+17
19108.0	6.636546060976127e+17
19109.0	6.634946317079892e+17
19110.0	6.634012731419305e+17
19111.0	6.632769465614333e+17
19112.0	6.631510257958911e+17
19113.0	6.630253127882067e+17
19114.0	6.628991973370538e+17
19115.0	6.627686967410687e+17
19116.0	6.626453384855551e+17
19117.0	6.625196473581567e+17
19118.0	6.62386516234513e+17
19119.0	6.618891083404622e+17
19120.0	6.621381970100223e+17
19121.0	6.620146783223807e+17
19122.0	6.618916128292863e+17
19123.0	6.617656589287423e+17
19124.0	6.616373143448233e+17
19125.0	6.615135256139092e+17
19126.0	6.613867511676927e+17
19127.0	6.61111272846131e+17
19128.0	6.611289333126484e+17
19129.0	6.610024535861929e+17
19130.0	6.608828062411434e+17
19131.0	6.607581127988564e+17
19132.0	6.606320599826431e+17
19133.0	6.604977223674537e+17
19134.0	6.603772762871123e+17
19135.0	6.60254262244147e+17
19136.0	6.601288975035049e+17
19137.0	6.599891277753002e+17
19138.0	6.59875897086225e+17
19139.0	6.597512892776447e+17
19140.0	6.596255499157501e+17
19141.0	6.594996916453375e+17
19142.0	6.593716193416532e+17
19143.0	6.592431545210195e+17
19144.0	6.591189366429011e+17
19145.0	6.589962474487807e+17
19146.0	6.588187217843542e+17
19147.0	6.587365710277289e+17
19148.0	6.586182369192617e+17
19149.0	6.584924191937876e+17
19150.0	6.583662556479487e+17
19151.0	6.582411173298175e+17
19152.0	6.581150006203731e+17
19153.0	6.579869727763114e+17
19154.0	6.578525787477331e+17
19155.0	6.577375645007872e+17
19156.0	6.576114319927978e+17
19157.0	6.574841308119037e+17
19158.0	6.57337170928162e+17
19159.0	6.572317883411113e+17
19160.0	6.571068461066921e+17
19161.0	6.56981211812113e+17
19162.0	6.568023666895529e+17
19163.0	6.567279674261503e+17
19164.0	6.566047641501695e+17
19165.0	6.564773883805695e+17
19166.0	6.563422548961962e+17
19167.0	6.562222385922047e+17
19168.0	6.561001366705492e+17
19169.0	6.559738244366333e+17
19170.0	6.558495842587988e+17
19171.0	6.557208068926121e+17
19172.0	6.555977895641087e+17
19173.0	6.554720376193023e+17
19174.0	6.553413575770111e+17
19175.0	6.552204009799679e+17
19176.0	6.550945158660095e+17
19177.0	6.549553148854271e+17
19178.0	6.548409490079743e+17
19179.0	6.547121661192874e+17
19180.0	6.545893164930388e+17
19181.0	6.54454299820032e+17
19182.0	6.543374802747391e+17
19183.0	6.542127448195072e+17
19184.0	6.540857342339753e+17
19185.0	6.539602510042452e+17
19186.0	6.538345414918143e+17
19187.0	6.537023145203027e+17
19188.0	6.535823035990015e+17
19189.0	6.534564170869418e+17
19190.0	6.533300236932435e+17
19191.0	6.532011911719594e+17
19192.0	6.530782680055805e+17
19193.0	6.529518512635904e+17
19194.0	6.528245612675072e+17
19195.0	6.526488163647487e+17
19196.0	6.523940104394068e+17
19197.0	6.522677012114089e+17
19198.0	6.521372922609663e+17
19199.0	6.516881738782036e+17
19200.0	6.516593904670036e+17
19201.0	6.517596771145043e+17
19202.0	6.516377905004543e+17
19203.0	6.51511748239906e+17
19204.0	6.513845076667049e+17
19205.0	6.512041474916351e+17
19206.0	6.510644704575487e+17
19207.0	6.509303651368959e+17
19208.0	6.507938128592895e+17
19209.0	6.506854330925055e+17
19210.0	6.505593862881279e+17
19211.0	6.504337131263315e+17
19212.0	6.503071647531007e+17
19213.0	6.501711817124521e+17
19214.0	6.500427493976746e+17
19215.0	6.49926071689762e+17
19216.0	6.498006257893373e+17
19217.0	6.496736892332714e+17
19218.0	6.494777688894121e+17
19219.0	6.494066399947433e+17
19220.0	6.492915979954857e+17
19221.0	6.491395720216576e+17
19222.0	6.49039345492514e+17
19223.0	6.48911167422464e+17
19224.0	6.487820640190463e+17
19225.0	6.486464149848063e+17
19226.0	6.485300159883945e+17
19227.0	6.484027348702548e+17
19228.0	6.482780510748671e+17
19229.0	6.481507489852073e+17
19230.0	6.48023135818001e+17
19231.0	6.478949385939625e+17
19232.0	6.477680429323604e+17
19233.0	6.476351274658472e+17
19234.0	6.47511699305267e+17
19235.0	6.473835071842985e+17
19236.0	6.472585212592127e+17
19237.0	6.471294823781716e+17
19238.0	6.469948997457236e+17
19239.0	6.468754110152703e+17
19240.0	6.46745399824657e+17
19241.0	6.466169380099412e+17
19242.0	6.464900033413119e+17
19243.0	6.463487977630377e+17
19244.0	6.4623523935901e+17
19245.0	6.461064006161748e+17
19246.0	6.459770279384404e+17
19247.0	6.458500702710441e+17
19248.0	6.456415812059136e+17
19249.0	6.453735963579734e+17
19250.0	6.452433121880746e+17
19251.0	6.451075285166761e+17
19252.0	6.449617619823274e+17
19253.0	6.448565423439871e+17
19254.0	6.44729378246929e+17
19255.0	6.445835893429588e+17
19256.0	6.444691618791423e+17
19257.0	6.443420526575615e+17
19258.0	6.442125463912447e+17
19259.0	6.440764679301801e+17
19260.0	6.439442472501247e+17
19261.0	6.438223508493651e+17
19262.0	6.436883892535296e+17
19263.0	6.435582617408852e+17
19264.0	6.433874337508008e+17
19265.0	6.432860317679615e+17
19266.0	6.431552936345599e+17
19267.0	6.430420652523519e+17
19268.0	6.429113513760084e+17
19269.0	6.427804460296874e+17
19270.0	6.426490314948607e+17
19271.0	6.424896432592212e+17
19272.0	6.42383535546914e+17
19273.0	6.421802646852947e+17
19274.0	6.420644547089747e+17
19275.0	6.418533919490048e+17
19276.0	6.41589681656081e+17
19277.0	6.414579907865257e+17
19278.0	6.413260098808489e+17
19279.0	6.411919783799465e+17
19280.0	6.410541732637354e+17
19281.0	6.409272877383679e+17
19282.0	6.407956414682452e+17
19283.0	6.4065797371549e+17
19284.0	6.40524611625506e+17
19285.0	6.403793884632403e+17
19286.0	6.402577712633172e+17
19287.0	6.401266009068884e+17
19288.0	6.398800907556179e+17
19289.0	6.395627999767204e+17
19290.0	6.397226075029503e+17
19291.0	6.395655250859348e+17
19292.0	6.393902109381971e+17
19293.0	6.391507730126163e+17
19294.0	6.389140274107732e+17
19295.0	6.387785381096106e+17
19296.0	6.386413824813737e+17
19297.0	6.385034716687017e+17
19298.0	6.383647163329193e+17
19299.0	6.382290036151635e+17
19300.0	6.380908745588735e+17
19301.0	6.379521743781887e+17
19302.0	6.378128664428543e+17
19303.0	6.376680497086463e+17
19304.0	6.375321983691434e+17
19305.0	6.373935670449491e+17
19306.0	6.372539324432383e+17
19307.0	6.371094241301844e+17
19308.0	6.36970244051217e+17
19309.0	6.368192974815231e+17
19310.0	6.366718852420948e+17
19311.0	6.365428484582057e+17
19312.0	6.364030329421823e+17
19313.0	6.362606439410346e+17
19314.0	6.35712655606852e+17
19315.0	6.356022623644337e+17
19316.0	6.358261929694548e+17
19317.0	6.356817061172566e+17
19318.0	6.355355906168148e+17
19319.0	6.353908622426111e+17
19320.0	6.352436257445203e+17
19321.0	6.350958867688106e+17
19322.0	6.348429055055188e+17
19323.0	6.346439212225876e+17
19324.0	6.344980628329812e+17
19325.0	6.343380197266772e+17
19326.0	6.341958958055423e+17
19327.0	6.340429348514474e+17
19328.0	6.338908611324585e+17
19329.0	6.33737929957922e+17
19330.0	6.335801979830271e+17
19331.0	6.334244049649663e+17
19332.0	6.332722758112596e+17
19333.0	6.331150130391722e+17
19334.0	6.32958024294946e+17
19335.0	6.327985409185108e+17
19336.0	6.326401071666516e+17
19337.0	6.324314016754345e+17
19338.0	6.320952211494228e+17
19339.0	6.319488540606463e+17
19340.0	6.317757123526655e+17
19341.0	6.316156821787988e+17
19342.0	6.314191485577897e+17
19343.0	6.312823177084927e+17
19344.0	6.311121648615423e+17
19345.0	6.307716154785787e+17
19346.0	6.307057752517289e+17
19347.0	6.305255265752406e+17
19348.0	6.301531169095677e+17
19349.0	6.299718532814163e+17
19350.0	6.297926338871295e+17
19351.0	6.296107035044521e+17
19352.0	6.294241468044627e+17
19353.0	6.292467441729536e+17
19354.0	6.290609009240745e+17
19355.0	6.285274364859731e+17
19356.0	6.283365799253332e+17
19357.0	6.281409464718676e+17
19358.0	6.279425424009898e+17
19359.0	6.277382570770431e+17
19360.0	6.273534466020695e+17
19361.0	6.269069534341802e+17
19362.0	6.266977851714218e+17
19363.0	6.264827473996457e+17
19364.0	6.262523012928854e+17
19365.0	6.255305546181289e+17
19366.0	6.252979860537344e+17
19367.0	6.250598469642922e+17
19368.0	6.245817479681362e+17
19369.0	6.239603562381312e+17
19370.0	6.23701207949858e+17
19371.0	6.233375898249897e+17
19372.0	6.228285356769279e+17
19373.0	6.225538492399615e+17
19374.0	6.222774794889897e+17
19375.0	6.219944022070612e+17
19376.0	6.217063852933119e+17
19377.0	6.214118361705129e+17
19378.0	6.211130640127316e+17
19379.0	6.208089625722879e+17
19380.0	6.204985652019199e+17
19381.0	6.201814812721151e+17
19382.0	6.198529563295743e+17
19383.0	6.195216128147455e+17
19384.0	6.191942958317567e+17
19385.0	6.188519522653524e+17
19386.0	6.185028239927977e+17
19387.0	6.181432932171775e+17
19388.0	6.177716239859711e+17
19389.0	6.173939947186857e+17
19390.0	6.170102826620244e+17
19391.0	6.162660819206138e+17
19392.0	6.162234129164969e+17
19393.0	6.158289059796307e+17
19394.0	6.154244103776938e+17
19395.0	6.150159334025897e+17
19396.0	6.146037782325929e+17
19397.0	6.141879291390634e+17
19398.0	6.137656751336106e+17
19399.0	6.132883706784425e+17
19400.0	6.129013802838698e+17
19401.0	6.124483062530047e+17
19402.0	6.119837779973459e+17
19403.0	6.115093063051946e+17
19404.0	6.110300895969279e+17
19405.0	6.105195829613908e+17
19406.0	6.100219955511295e+17
19407.0	6.095194553668948e+17
19408.0	6.089517220670124e+17
19409.0	6.084877506052095e+17
19410.0	6.079618782767786e+17
19411.0	6.074241784304979e+17
19412.0	6.068768225274537e+17
19413.0	6.062748727246847e+17
19414.0	6.056911788397907e+17
19415.0	6.051134470182228e+17
19416.0	6.045133383051946e+17
19417.0	6.038520481185791e+17
19418.0	6.03200486829807e+17
19419.0	6.025626337148927e+17
19420.0	6.017528080542378e+17
19421.0	6.010608621191168e+17
19422.0	6.001215064943274e+17
19423.0	5.992055586510163e+17
19424.0	5.981188607617702e+17
19425.0	5.968581617516541e+17
19426.0	5.953691866977627e+17
19427.0	5.93638625465686e+17
19428.0	5.914048477877596e+17
19429.0	5.885876290016602e+17
19430.0	5.863004884522324e+17
19431.0	5.846700918833153e+17
19432.0	5.830728229759657e+17
19433.0	5.813453393843542e+17
19434.0	5.795279959752703e+17
19435.0	5.775692640463529e+17
19436.0	5.7551461292878496e+17
19437.0	5.733377529348096e+17
19438.0	5.7043741576615226e+17
19439.0	5.681419832175272e+17
19440.0	5.647721568403453e+17
19441.0	5.6028382849488186e+17
19442.0	5.542175870462641e+17
19443.0	5.4785884986627456e+17
19444.0	5.426254077493246e+17
19445.0	5.3635289867878406e+17
19446.0	5.284467370710355e+17
19447.0	5.1775035583146656e+17
19448.0	5.032328095072264e+17
19449.0	4.825685772206076e+17
19450.0	4.464227622322176e+17
19451.0	4.298563775365112e+17
19452.0	4.668298740367364e+17
19453.0	4.93948562204263e+17
19454.0	5.107588614761125e+17
19455.0	5.2296459964033696e+17
19456.0	5.318271019166382e+17
19457.0	5.3862024770573626e+17
19458.0	5.433060806535863e+17
19459.0	5.4931979186995315e+17
19460.0	5.558089310098766e+17
19461.0	5.607991002092885e+17
19462.0	5.6441862056400186e+17
19463.0	5.6724977828058426e+17
19464.0	5.6957775401451514e+17
19465.0	5.716345887566506e+17
19466.0	5.735201745403902e+17
19467.0	5.753200667088213e+17
19468.0	5.769706873727657e+17
19469.0	5.785033509262676e+17
19470.0	5.799882447126528e+17
19471.0	5.81387535061265e+17
19472.0	5.829027186431316e+17
19473.0	5.855380536732332e+17
19474.0	5.877339994980355e+17
19475.0	5.893743026634751e+17
19476.0	5.908559267801764e+17
19477.0	5.919618419217751e+17
19478.0	5.928834938787156e+17
19479.0	5.937145029416276e+17
19480.0	5.943445410895188e+17
19481.0	5.949216924893181e+17
19482.0	5.954573254524928e+17
19483.0	5.959478373515263e+17
19484.0	5.963499330426196e+17
19485.0	5.96818679509811e+17
19486.0	5.972002836490921e+17
19487.0	5.975594221873833e+17
19488.0	5.97907044704802e+17
19489.0	5.982740545535999e+17
19490.0	5.985149435685544e+17
19491.0	5.989319718207487e+17
19492.0	5.992385699206484e+17
19493.0	5.995324189442045e+17
19494.0	5.998175268285097e+17
19495.0	6.000934741431635e+17
19496.0	6.003325038930601e+17
19497.0	6.00631523934208e+17
19498.0	6.00869398572783e+17
19499.0	6.005661872335525e+17
19500.0	6.01380073959151e+17
19501.0	6.016098187083776e+17
19502.0	6.0182601676445e+17
19503.0	6.020220922975572e+17
19504.0	6.022115500578131e+17
19505.0	6.02397581910562e+17
19506.0	6.025790971270484e+17
19507.0	6.027541896058195e+17
19508.0	6.029281452883968e+17
19509.0	6.030954625761279e+17
19510.0	6.032415688491008e+17
19511.0	6.026857366771022e+17
19512.0	6.034835102149288e+17
19513.0	6.035254160654331e+17
19514.0	6.037335345638057e+17
19515.0	6.039413840674817e+17
19516.0	6.04098151981602e+17
19517.0	6.042049272173908e+17
19518.0	6.043140962822825e+17
19519.0	6.044109710032895e+17
19520.0	6.044989581339305e+17
19521.0	6.045860318849706e+17
19522.0	6.046617153743529e+17
19523.0	6.047362613684905e+17
19524.0	6.048025923289087e+17
19525.0	6.048629810091348e+17
19526.0	6.049196024354132e+17
19527.0	6.049695717654527e+17
19528.0	6.050141436553897e+17
19529.0	6.050550031668563e+17
19530.0	6.05112890364177e+17
19531.0	6.054539406868479e+17
19532.0	6.054761781876052e+17
19533.0	6.054954080927743e+17
19534.0	6.060285008456367e+17
19535.0	6.06077781680674e+17
19536.0	6.060738586782378e+17
19537.0	6.061511902494723e+17
19538.0	6.065305310724096e+17
19539.0	6.0647326861667e+17
19540.0	6.065004505027923e+17
19541.0	6.064795003737428e+17
19542.0	6.066903595002537e+17
19543.0	6.068124598140927e+17
19544.0	6.067773841080319e+17
19545.0	6.067042248207016e+17
19546.0	6.066248682394963e+17
19547.0	6.066594899121492e+17
19548.0	6.068724324193622e+17
19549.0	6.06873700986607e+17
19550.0	6.068314689590612e+17
19551.0	6.067795956946259e+17
19552.0	6.067258956010835e+17
19553.0	6.066693445692074e+17
19554.0	6.066117945939284e+17
19555.0	6.065970261000193e+17
19556.0	6.067436696633343e+17
19557.0	6.066806838700714e+17
19558.0	6.066169982571859e+17
19559.0	6.065520534443348e+17
19560.0	6.064836230949545e+17
19561.0	6.064162488713215e+17
19562.0	6.063504032617812e+17
19563.0	6.06280968446498e+17
19564.0	6.062105347577171e+17
19565.0	6.061390831113556e+17
19566.0	6.061316782773588e+17
19567.0	6.061775943718228e+17
19568.0	6.060997940172116e+17
19569.0	6.0602410074112e+17
19570.0	6.059481872640682e+17
19571.0	6.058699186853204e+17
19572.0	6.057886128013312e+17
19573.0	6.057102173448874e+17
19574.0	6.056231916885332e+17
19575.0	6.055503671066623e+17
19576.0	6.054686338230953e+17
19577.0	6.053848189763583e+17
19578.0	6.052996976738303e+17
19579.0	6.052168859647999e+17
19580.0	6.051329217309354e+17
19581.0	6.050489521842857e+17
19582.0	6.049650220640937e+17
19583.0	6.048792481977683e+17
19584.0	6.049242456697513e+17
19585.0	6.048278242131967e+17
19586.0	6.047371439199572e+17
19587.0	6.046582234065578e+17
19588.0	6.045322520297472e+17
19589.0	6.044791659124052e+17
19590.0	6.043830702134612e+17
19591.0	6.0429966522013e+17
19592.0	6.042090144268287e+17
19593.0	6.041158224445437e+17
19594.0	6.040047451111423e+17
19595.0	6.039308804117844e+17
19596.0	6.038242250631849e+17
19597.0	6.037459112558591e+17
19598.0	6.036231687940778e+17
19599.0	6.03559290802449e+17
19600.0	6.034658496785066e+17
19601.0	6.033654478274559e+17
19602.0	6.032721170836138e+17
19603.0	6.03142636053026e+17
19604.0	6.030812452137641e+17
19605.0	6.029638878887933e+17
19606.0	6.028930753844564e+17
19607.0	6.027974152639827e+17
19608.0	6.026991790718975e+17
19609.0	6.025990894168745e+17
19610.0	6.025062568864426e+17
19611.0	6.024081286277802e+17
19612.0	6.02311257821457e+17
19613.0	6.022123261438634e+17
19614.0	6.021114959145641e+17
19615.0	6.021413427915434e+17
19616.0	6.020552486901076e+17
19617.0	6.01968211010082e+17
19618.0	6.018306953008467e+17
19619.0	6.018027137706665e+17
19620.0	6.017073336199849e+17
19621.0	6.016632607124137e+17
19622.0	6.015636406796287e+17
19623.0	6.014632227504127e+17
19624.0	6.013617346445312e+17
19625.0	6.012617325805567e+17
19626.0	6.011606848765951e+17
19627.0	6.010592735264767e+17
19628.0	6.00950185271842e+17
19629.0	6.00846896271633e+17
19630.0	6.007314670682112e+17
19631.0	6.002981612115284e+17
19632.0	6.005488653871786e+17
19633.0	6.004453326979071e+17
19634.0	6.00346854564386e+17
19635.0	6.004627280844115e+17
19636.0	6.003705370727763e+17
19637.0	6.002366256687786e+17
19638.0	6.001653371109375e+17
19639.0	6.000620627907924e+17
19640.0	5.999532444396201e+17
19641.0	5.997840799105025e+17
19642.0	5.997526127039828e+17
19643.0	5.996489636926803e+17
19644.0	5.995409584073386e+17
19645.0	5.994194646597631e+17
19646.0	5.993386023234217e+17
19647.0	5.992353439416319e+17
19648.0	5.991314293609811e+17
19649.0	5.990271663734784e+17
19650.0	5.989232655641257e+17
19651.0	5.988184724165974e+17
19652.0	5.987145370741418e+17
19653.0	5.986101825110015e+17
19654.0	5.985051031721299e+17
19655.0	5.984002783576063e+17
19656.0	5.982960675192831e+17
19657.0	5.981919642648573e+17
19658.0	5.980871827914751e+17
19659.0	5.979821779714047e+17
19660.0	5.978773983854591e+17
19661.0	5.977723962916863e+17
19662.0	5.976673060476244e+17
19663.0	5.975583574633129e+17
19664.0	5.974550969843711e+17
19665.0	5.973517547165012e+17
