# Flux units: erg / (cm m2 s)
# Wavelength units: Angstrom
wave	flux
19000.0	6.512760945552042e+17
19001.0	6.511509024101716e+17
19002.0	6.510321554423805e+17
19003.0	6.509097078401705e+17
19004.0	6.507872387072e+17
19005.0	6.506661959871146e+17
19006.0	6.505441634112852e+17
19007.0	6.503972970605226e+17
19008.0	6.502981890124457e+17
19009.0	6.501760565422761e+17
19010.0	6.500415409487871e+17
19011.0	6.49932259336738e+17
19012.0	6.497720460815018e+17
19013.0	6.49690293084706e+17
19014.0	6.495665614662314e+17
19015.0	6.494454192013311e+17
19016.0	6.493231886543529e+17
19017.0	6.492015216121172e+17
19018.0	6.490780673769472e+17
19019.0	6.489589666196138e+17
19020.0	6.488359193018367e+17
19021.0	6.487159428437331e+17
19022.0	6.485943526271657e+17
19023.0	6.484704786120704e+17
19024.0	6.4834883303069e+17
19025.0	6.48223951683584e+17
19026.0	6.481015990823593e+17
19027.0	6.479484879721811e+17
19028.0	6.478626597896191e+17
19029.0	6.477404234405204e+17
19030.0	6.476195286395562e+17
19031.0	6.474979277974185e+17
19032.0	6.473761913394516e+17
19033.0	6.472516484726783e+17
19034.0	6.471323991670783e+17
19035.0	6.470169452172627e+17
19036.0	6.441317440334499e+17
19037.0	6.467696261944659e+17
19038.0	6.46645585875217e+17
19039.0	6.465254806519808e+17
19040.0	6.464049622898003e+17
19041.0	6.462834909817514e+17
19042.0	6.461591247650815e+17
19043.0	6.460404730778964e+17
19044.0	6.459188658044927e+17
19045.0	6.457960467966634e+17
19046.0	6.456742558826495e+17
19047.0	6.45554164011281e+17
19048.0	6.454269783135571e+17
19049.0	6.453098871171753e+17
19050.0	6.451889363222527e+17
19051.0	6.447015195399502e+17
19052.0	6.448912509086377e+17
19053.0	6.448200505709908e+17
19054.0	6.447047693565951e+17
19055.0	6.445751854257491e+17
19056.0	6.444614951108605e+17
19057.0	6.44340021006609e+17
19058.0	6.44213445230592e+17
19059.0	6.440983251473748e+17
19060.0	6.439760342723242e+17
19061.0	6.438558401997482e+17
19062.0	6.437344789921791e+17
19063.0	6.436133681845588e+17
19064.0	6.434886486676822e+17
19065.0	6.433653817081855e+17
19066.0	6.432480513665706e+17
19067.0	6.431288008026793e+17
19068.0	6.430077453598719e+17
19069.0	6.428866924336468e+17
19070.0	6.427602153635837e+17
19071.0	6.426378392043519e+17
19072.0	6.425168685563901e+17
19073.0	6.423960535870121e+17
19074.0	6.422752756673193e+17
19075.0	6.421543213771433e+17
19076.0	6.420327024295936e+17
19077.0	6.419120906043391e+17
19078.0	6.417906199953405e+17
19079.0	6.41671011307793e+17
19080.0	6.415504667312127e+17
19081.0	6.414276968666452e+17
19082.0	6.413067206262783e+17
19083.0	6.411838068271785e+17
19084.0	6.410589625996627e+17
19085.0	6.409458772432212e+17
19086.0	6.408106994390356e+17
19087.0	6.4062897010333e+17
19088.0	6.40578552472098e+17
19089.0	6.404161746064724e+17
19090.0	6.403395281048916e+17
19091.0	6.402191631843328e+17
19092.0	6.400797673084244e+17
19093.0	6.399788086635177e+17
19094.0	6.398578582880255e+17
19095.0	6.397371294416895e+17
19096.0	6.396150020046847e+17
19097.0	6.394962999858516e+17
19098.0	6.393762366357501e+17
19099.0	6.392557574204073e+17
19100.0	6.391312060951209e+17
19101.0	6.390133690116778e+17
19102.0	6.388912522701482e+17
19103.0	6.387740026688852e+17
19104.0	6.386536051026601e+17
19105.0	6.385332947779583e+17
19106.0	6.383986511882921e+17
19107.0	6.382920660243796e+17
19108.0	6.381721368920063e+17
19109.0	6.378209578145105e+17
19110.0	6.379286015508479e+17
19111.0	6.378105934097065e+17
19112.0	6.376911649374208e+17
19113.0	6.37571132695074e+17
19114.0	6.374519644793514e+17
19115.0	6.373251247418025e+17
19116.0	6.372097966910121e+17
19117.0	6.370897391430313e+17
19118.0	6.369556854123177e+17
19119.0	6.367383479735635e+17
19120.0	6.367095273029631e+17
19121.0	6.365956546057556e+17
19122.0	6.364900787311956e+17
19123.0	6.363699201004884e+17
19124.0	6.362374406318761e+17
19125.0	6.361277641960105e+17
19126.0	6.360070762441385e+17
19127.0	6.358348365212329e+17
19128.0	6.356203270220456e+17
19129.0	6.356477288295081e+17
19130.0	6.355300184140457e+17
19131.0	6.354056629627561e+17
19132.0	6.352906941541034e+17
19133.0	6.351394945280682e+17
19134.0	6.349822688056662e+17
19135.0	6.34930381140787e+17
19136.0	6.348117077131264e+17
19137.0	6.34686607912687e+17
19138.0	6.345609534155433e+17
19139.0	6.344523145805824e+17
19140.0	6.343328460526932e+17
19141.0	6.342132003154601e+17
19142.0	6.340919157238442e+17
19143.0	6.339720555178665e+17
19144.0	6.338530796808874e+17
19145.0	6.33733657010722e+17
19146.0	6.335920951263231e+17
19147.0	6.334925387770537e+17
19148.0	6.333746337458857e+17
19149.0	6.332556027538089e+17
19150.0	6.331365036042921e+17
19151.0	6.330174844261716e+17
19152.0	6.328952263365972e+17
19153.0	6.327780116878676e+17
19154.0	6.326551291363327e+17
19155.0	6.325389773242365e+17
19156.0	6.324201837297663e+17
19157.0	6.322990485951828e+17
19158.0	6.320224067736914e+17
19159.0	6.320611627717971e+17
19160.0	6.319394935625044e+17
19161.0	6.318102511878144e+17
19162.0	6.313476176390829e+17
19163.0	6.315806778458111e+17
19164.0	6.314659028140031e+17
19165.0	6.313401686949887e+17
19166.0	6.312153704650067e+17
19167.0	6.310743894218068e+17
19168.0	6.309862643684692e+17
19169.0	6.308621291880447e+17
19170.0	6.307504872314196e+17
19171.0	6.306103879707306e+17
19172.0	6.305108565775699e+17
19173.0	6.303921425350655e+17
19174.0	6.302725174897321e+17
19175.0	6.301553273077759e+17
19176.0	6.300362120101887e+17
19177.0	6.299122617286655e+17
19178.0	6.297912174706687e+17
19179.0	6.296495156363263e+17
19180.0	6.295406583480319e+17
19181.0	6.294372816868691e+17
19182.0	6.293199795869012e+17
19183.0	6.292006625432916e+17
19184.0	6.290797772494164e+17
19185.0	6.28965008089634e+17
19186.0	6.288463132710227e+17
19187.0	6.287242576265215e+17
19188.0	6.28606564966946e+17
19189.0	6.284827257645737e+17
19190.0	6.283624319374676e+17
19191.0	6.282465491899732e+17
19192.0	6.281318387504468e+17
19193.0	6.280041591734272e+17
19194.0	6.278898645991423e+17
19195.0	6.277747760431103e+17
19196.0	6.276569579039402e+17
19197.0	6.275376167430826e+17
19198.0	6.274166056200874e+17
19199.0	6.252687232335867e+17
19200.0	6.258099655191218e+17
19201.0	6.270607705855316e+17
19202.0	6.269415666483199e+17
19203.0	6.268159023644671e+17
19204.0	6.267007617990655e+17
19205.0	6.265849357445801e+17
19206.0	6.264647980853929e+17
19207.0	6.26343470502161e+17
19208.0	6.262212813389823e+17
19209.0	6.261078767960063e+17
19210.0	6.259907080749055e+17
19211.0	6.258719220301823e+17
19212.0	6.257533099791699e+17
19213.0	6.256135387130538e+17
19214.0	6.254847846951593e+17
19215.0	6.25389348200994e+17
19216.0	6.252783883780095e+17
19217.0	6.251601257824256e+17
19218.0	6.250144366329855e+17
19219.0	6.249179391197183e+17
19220.0	6.248020702134272e+17
19221.0	6.246736534874794e+17
19222.0	6.245670452548948e+17
19223.0	6.244480133540521e+17
19224.0	6.243278559816361e+17
19225.0	6.242066168982185e+17
19226.0	6.240920645839532e+17
19227.0	6.23973338587682e+17
19228.0	6.238556445999104e+17
19229.0	6.23737019896081e+17
19230.0	6.236126959020714e+17
19231.0	6.234951991863978e+17
19232.0	6.233800287016276e+17
19233.0	6.232579908829183e+17
19234.0	6.231410189445801e+17
19235.0	6.230224233911636e+17
19236.0	6.229045679226879e+17
19237.0	6.227854101228202e+17
19238.0	6.226610395021311e+17
19239.0	6.225487123360425e+17
19240.0	6.224251503072595e+17
19241.0	6.223091216678911e+17
19242.0	6.221921268705962e+17
19243.0	6.220685138810195e+17
19244.0	6.219553249951741e+17
19245.0	6.218367344749225e+17
19246.0	6.21717495095842e+17
19247.0	6.215991957301929e+17
19248.0	6.214799943095636e+17
19249.0	6.216022182854652e+17
19250.0	6.216000749262166e+17
19251.0	6.214781606297599e+17
19252.0	6.213537624664745e+17
19253.0	6.212437539815423e+17
19254.0	6.211255048077311e+17
19255.0	6.210010340130815e+17
19256.0	6.208830968255828e+17
19257.0	6.207689172451327e+17
19258.0	6.206504670243497e+17
19259.0	6.205294015851178e+17
19260.0	6.203714680040105e+17
19261.0	6.202934954732201e+17
19262.0	6.201729587260074e+17
19263.0	6.200540804065962e+17
19264.0	6.199198821821097e+17
19265.0	6.198117643496106e+17
19266.0	6.196932749120852e+17
19267.0	6.195798100410367e+17
19268.0	6.194606978891773e+17
19269.0	6.1932829671424e+17
19270.0	6.192076404293631e+17
19271.0	6.190776637019476e+17
19272.0	6.18968109879569e+17
19273.0	6.187095527784445e+17
19274.0	6.18533851566353e+17
19275.0	6.184586663602857e+17
19276.0	6.183385643526825e+17
19277.0	6.182189072908287e+17
19278.0	6.18100819108386e+17
19279.0	6.179750121482921e+17
19280.0	6.178580697098921e+17
19281.0	6.177405008521897e+17
19282.0	6.176211714353833e+17
19283.0	6.174671463164586e+17
19284.0	6.173303235761491e+17
19285.0	6.172547445948415e+17
19286.0	6.171404206604287e+17
19287.0	6.17021549191714e+17
19288.0	6.162418756135587e+17
19289.0	6.151723319383354e+17
19290.0	6.166609443946496e+17
19291.0	6.165322091113129e+17
19292.0	6.164203191315113e+17
19293.0	6.162994627084287e+17
19294.0	6.161800338167124e+17
19295.0	6.160582657616553e+17
19296.0	6.15937420173858e+17
19297.0	6.158149950111744e+17
19298.0	6.15694535299345e+17
19299.0	6.155742702731263e+17
19300.0	6.154528841094484e+17
19301.0	6.153313085030399e+17
19302.0	6.152095155617791e+17
19303.0	6.150848883195903e+17
19304.0	6.149648913793024e+17
19305.0	6.148438787183956e+17
19306.0	6.147205459782314e+17
19307.0	6.145922181715284e+17
19308.0	6.14468940866082e+17
19309.0	6.142773467370835e+17
19310.0	6.141297354779305e+17
19311.0	6.140960492049748e+17
19312.0	6.139817054175231e+17
19313.0	6.138578403502761e+17
19314.0	6.121473868911962e+17
19315.0	6.121228211322899e+17
19316.0	6.13483647476258e+17
19317.0	6.133650593327786e+17
19318.0	6.132404399898623e+17
19319.0	6.131167865252521e+17
19320.0	6.129935208939519e+17
19321.0	6.128706893731156e+17
19322.0	6.127384113709055e+17
19323.0	6.125862567717546e+17
19324.0	6.124934190683475e+17
19325.0	6.123015455287978e+17
19326.0	6.122426781925376e+17
19327.0	6.119599589643604e+17
19328.0	6.11813362307345e+17
19329.0	6.11686148088354e+17
19330.0	6.115573461155839e+17
19331.0	6.114293498686122e+17
19332.0	6.113016476423508e+17
19333.0	6.111728949526527e+17
19334.0	6.110446666208595e+17
19335.0	6.109158334704297e+17
19336.0	6.107742750113791e+17
19337.0	6.106365253298857e+17
19338.0	6.104983992795135e+17
19339.0	6.103672875734356e+17
19340.0	6.102341458242218e+17
19341.0	6.101038389351764e+17
19342.0	6.099560250212351e+17
19343.0	6.098389656316586e+17
19344.0	6.097056045203455e+17
19345.0	6.095082460894547e+17
19346.0	6.094107903175338e+17
19347.0	6.092870960283647e+17
19348.0	6.090475502392659e+17
19349.0	6.087295640447657e+17
19350.0	6.085913359329961e+17
19351.0	6.084533385079466e+17
19352.0	6.083122712717994e+17
19353.0	6.081741552877567e+17
19354.0	6.080317013448019e+17
19355.0	6.078792330816169e+17
19356.0	6.077390604206079e+17
19357.0	6.075950663292244e+17
19358.0	6.074317813754538e+17
19359.0	6.072622977996116e+17
19360.0	6.071086361870336e+17
19361.0	6.068551965562195e+17
19362.0	6.067070740114089e+17
19363.0	6.065581295927295e+17
19364.0	6.064153081588393e+17
19365.0	6.062565746540544e+17
19366.0	6.061012567807316e+17
19367.0	6.059440728615594e+17
19368.0	6.057859296351571e+17
19369.0	6.056209465475071e+17
19370.0	6.05428133274146e+17
19371.0	6.052680022272682e+17
19372.0	6.051042030518271e+17
19373.0	6.049361384789334e+17
19374.0	6.04767530394146e+17
19375.0	6.045956295710036e+17
19376.0	6.044219929351508e+17
19377.0	6.042455369580543e+17
19378.0	6.040324483492521e+17
19379.0	6.038477797152084e+17
19380.0	6.03663636837171e+17
19381.0	6.034758323317418e+17
19382.0	6.032815060331178e+17
19383.0	6.030706065014783e+17
19384.0	6.028489504675156e+17
19385.0	6.026498310580906e+17
19386.0	6.024466428941652e+17
19387.0	6.022213631213567e+17
19388.0	6.019703666726227e+17
19389.0	6.017547498771795e+17
19390.0	6.015336855197011e+17
19391.0	5.990670151275828e+17
19392.0	6.010029235415717e+17
19393.0	6.007815569145855e+17
19394.0	6.005047332700159e+17
19395.0	6.002528323196244e+17
19396.0	6.000006019066537e+17
19397.0	5.997662438424573e+17
19398.0	5.994949584267946e+17
19399.0	5.991751971329364e+17
19400.0	5.989162978465108e+17
19401.0	5.986181156874921e+17
19402.0	5.982830855192576e+17
19403.0	5.980086896776532e+17
19404.0	5.976925638666922e+17
19405.0	5.973262106361855e+17
19406.0	5.96992996811298e+17
19407.0	5.966764666694314e+17
19408.0	5.962936294047744e+17
19409.0	5.958983560986624e+17
19410.0	5.955519679649108e+17
19411.0	5.950060370766506e+17
19412.0	5.94480466108962e+17
19413.0	5.940501297496061e+17
19414.0	5.935656164043434e+17
19415.0	5.932254855430143e+17
19416.0	5.924815087075325e+17
19417.0	5.918318452015104e+17
19418.0	5.91251684598306e+17
19419.0	5.902373531331245e+17
19420.0	5.894402717253628e+17
19421.0	5.884014430082387e+17
19422.0	5.872110090059775e+17
19423.0	5.859569111313062e+17
19424.0	5.847546310863523e+17
19425.0	5.833038587319639e+17
19426.0	5.81445835607245e+17
19427.0	5.79379702652382e+17
19428.0	5.764054096281609e+17
19429.0	5.740927783359832e+17
19430.0	5.7377111653307686e+17
19431.0	5.735531096135002e+17
19432.0	5.749990980146512e+17
19433.0	5.739773194928126e+17
19434.0	5.7173476075984186e+17
19435.0	5.687751643671204e+17
19436.0	5.6578724523758886e+17
19437.0	5.636040348576429e+17
19438.0	5.579467816697863e+17
19439.0	5.5799004836222304e+17
19440.0	5.5381882638609235e+17
19441.0	5.473691370520545e+17
19442.0	5.381274115331424e+17
19443.0	5.3612555321125414e+17
19444.0	5.3328285416816544e+17
19445.0	5.256087622123529e+17
19446.0	5.1776620275083725e+17
19447.0	5.0257656318089e+17
19448.0	4.9324206441103366e+17
19449.0	4.726412678266865e+17
19450.0	4.3723523830579104e+17
19451.0	4.2715752033157e+17
19452.0	4.5605017308801875e+17
19453.0	4.8433953917720186e+17
19454.0	4.972727992232608e+17
19455.0	5.1045817832352614e+17
19456.0	5.213725649447604e+17
19457.0	5.284022492069888e+17
19458.0	5.308641814336917e+17
19459.0	5.3462859059473306e+17
19460.0	5.410358455260482e+17
19461.0	5.491238426552995e+17
19462.0	5.54031667740673e+17
19463.0	5.573482475683839e+17
19464.0	5.5981889541898214e+17
19465.0	5.6200668255354874e+17
19466.0	5.642415162174119e+17
19467.0	5.671740642426876e+17
19468.0	5.694658847266135e+17
19469.0	5.710906801520638e+17
19470.0	5.705256312766463e+17
19471.0	5.6968267306106835e+17
19472.0	5.6953735818335526e+17
19473.0	5.7054911099043955e+17
19474.0	5.732266356157101e+17
19475.0	5.753446672804513e+17
19476.0	5.773328630065833e+17
19477.0	5.78472342996036e+17
19478.0	5.798888890608302e+17
19479.0	5.805964900958204e+17
19480.0	5.815223530640726e+17
19481.0	5.82733909860898e+17
19482.0	5.83122411253487e+17
19483.0	5.839417555375443e+17
19484.0	5.844691362075988e+17
19485.0	5.848688726026922e+17
19486.0	5.853639438499836e+17
19487.0	5.856223075237889e+17
19488.0	5.858352401743872e+17
19489.0	5.86049848868864e+17
19490.0	5.862142388819283e+17
19491.0	5.866232674080086e+17
19492.0	5.868475745916244e+17
19493.0	5.869807065541289e+17
19494.0	5.871591727912276e+17
19495.0	5.87279376580608e+17
19496.0	5.873583919551827e+17
19497.0	5.874845634701994e+17
19498.0	5.873880619024385e+17
19499.0	5.841875183337455e+17
19500.0	5.877419756661418e+17
19501.0	5.87856110507349e+17
19502.0	5.879184090639017e+17
19503.0	5.879683380587178e+17
19504.0	5.880356098714281e+17
19505.0	5.880837905405268e+17
19506.0	5.880946523897855e+17
19507.0	5.88117951189265e+17
19508.0	5.881445443349161e+17
19509.0	5.881855426079401e+17
19510.0	5.881892052839081e+17
19511.0	5.847734457554246e+17
19512.0	5.877398499229688e+17
19513.0	5.872945333971611e+17
19514.0	5.875322190823411e+17
19515.0	5.88210860265745e+17
19516.0	5.882460079740244e+17
19517.0	5.882301019848704e+17
19518.0	5.882058665973076e+17
19519.0	5.881854478166698e+17
19520.0	5.881845479986516e+17
19521.0	5.881498057397588e+17
19522.0	5.881097650263379e+17
19523.0	5.880698659405823e+17
19524.0	5.880277525419347e+17
19525.0	5.879890505804457e+17
19526.0	5.879669219218772e+17
19527.0	5.879156169157289e+17
19528.0	5.878618561445887e+17
19529.0	5.87806439252514e+17
19530.0	5.877492350276948e+17
19531.0	5.876895421125972e+17
19532.0	5.87628243198498e+17
19533.0	5.875653378659668e+17
19534.0	5.875196625245524e+17
19535.0	5.874623537916586e+17
19536.0	5.873938039046144e+17
19537.0	5.873260165420372e+17
19538.0	5.872527851126783e+17
19539.0	5.871667279211178e+17
19540.0	5.871117591205204e+17
19541.0	5.870408705594708e+17
19542.0	5.869655182103892e+17
19543.0	5.868892160611667e+17
19544.0	5.868116809263785e+17
19545.0	5.867885789096618e+17
19546.0	5.867285206706857e+17
19547.0	5.866696465536339e+17
19548.0	5.865991361789951e+17
19549.0	5.865239550274218e+17
19550.0	5.864434403289769e+17
19551.0	5.863592994450089e+17
19552.0	5.862744323173033e+17
19553.0	5.861957842239487e+17
19554.0	5.861090163075754e+17
19555.0	5.860225998738772e+17
19556.0	5.859354196574207e+17
19557.0	5.858473013149695e+17
19558.0	5.857583134932991e+17
19559.0	5.856685788758016e+17
19560.0	5.855782220333055e+17
19561.0	5.856258330460161e+17
19562.0	5.855852286181376e+17
19563.0	5.854932360669866e+17
19564.0	5.854009142629716e+17
19565.0	5.853081120014335e+17
19566.0	5.852139949654015e+17
19567.0	5.851211941019648e+17
19568.0	5.850264195388755e+17
19569.0	5.849326791513428e+17
19570.0	5.848382437676372e+17
19571.0	5.847430418049705e+17
19572.0	5.846468135660201e+17
19573.0	5.845512243292841e+17
19574.0	5.844529917023571e+17
19575.0	5.843666777494868e+17
19576.0	5.842814983558484e+17
19577.0	5.841830773347667e+17
19578.0	5.840860165264724e+17
19579.0	5.83989140267554e+17
19580.0	5.839029534719999e+17
19581.0	5.838106587212457e+17
19582.0	5.837130732754259e+17
19583.0	5.836147514496342e+17
19584.0	5.835150880058025e+17
19585.0	5.834138382761983e+17
19586.0	5.833120771910314e+17
19587.0	5.832050307934889e+17
19588.0	5.831044379617962e+17
19589.0	5.830164117542228e+17
19590.0	5.82917242818833e+17
19591.0	5.828208482058239e+17
19592.0	5.827208179002025e+17
19593.0	5.82619846742289e+17
19594.0	5.825099421362857e+17
19595.0	5.824185279097514e+17
19596.0	5.82058619506961e+17
19597.0	5.822305836640938e+17
19598.0	5.822663765961384e+17
19599.0	5.821759926304767e+17
19600.0	5.820740122531156e+17
19601.0	5.819703782014975e+17
19602.0	5.818950040420351e+17
19603.0	5.817925879463935e+17
19604.0	5.817324635073193e+17
19605.0	5.816258672285012e+17
19606.0	5.815332872650751e+17
19607.0	5.814314627061075e+17
19608.0	5.813290551388842e+17
19609.0	5.812246630367232e+17
19610.0	5.811248316809215e+17
19611.0	5.810222326437203e+17
19612.0	5.809199131568809e+17
19613.0	5.808171030762836e+17
19614.0	5.807135412365993e+17
19615.0	5.80611806855168e+17
19616.0	5.80489967706658e+17
19617.0	5.804065071387988e+17
19618.0	5.802863197771091e+17
19619.0	5.801789367866708e+17
19620.0	5.800767687841108e+17
19621.0	5.799947015640403e+17
19622.0	5.798917055359657e+17
19623.0	5.797886011550377e+17
19624.0	5.796852121905833e+17
19625.0	5.795817498258089e+17
19626.0	5.794787225501695e+17
19627.0	5.793750246053203e+17
19628.0	5.792212401695402e+17
19629.0	5.791650241926484e+17
19630.0	5.789690726711296e+17
19631.0	5.767322753739434e+17
19632.0	5.788563917854036e+17
19633.0	5.787510045147135e+17
19634.0	5.786504987847338e+17
19635.0	5.785456470567593e+17
19636.0	5.78443161964817e+17
19637.0	5.783273085774506e+17
19638.0	5.782357321711615e+17
19639.0	5.781305693656404e+17
19640.0	5.780255676912979e+17
19641.0	5.779019013641556e+17
19642.0	5.778207390651732e+17
19643.0	5.777157531893759e+17
19644.0	5.776131561095167e+17
19645.0	5.775025971920896e+17
19646.0	5.774074759697748e+17
19647.0	5.77303544472098e+17
19648.0	5.771995773228372e+17
19649.0	5.770955325090473e+17
19650.0	5.769916537896959e+17
19651.0	5.768877171889492e+17
19652.0	5.767837017352874e+17
19653.0	5.766786283383465e+17
19654.0	5.765756403493545e+17
19655.0	5.764714543972351e+17
19656.0	5.7636735820322125e+17
19657.0	5.762635314932393e+17
19658.0	5.7615926039674854e+17
19659.0	5.760553547639466e+17
19660.0	5.7595132812547405e+17
19661.0	5.758472520641194e+17
19662.0	5.757431724376062e+17
19663.0	5.7563682599949645e+17
19664.0	5.7552577257362765e+17
