# Flux units: erg / (cm m2 s)
# Wavelength units: Angstrom
wave	flux
19000.0	4.9377877440157005e+17
19001.0	4.936812531286015e+17
19002.0	4.936065955659775e+17
19003.0	4.9351913740697594e+17
19004.0	4.9343136264792736e+17
19005.0	4.933431154005332e+17
19006.0	4.932573094477823e+17
19007.0	4.9317073852388685e+17
19008.0	4.9308062970456736e+17
19009.0	4.929801303359487e+17
19010.0	4.9288973812148896e+17
19011.0	4.9281721524988576e+17
19012.0	4.9272350757792403e+17
19013.0	4.9265339377472845e+17
19014.0	4.925612756740778e+17
19015.0	4.9247441639178234e+17
19016.0	4.923923834251946e+17
19017.0	4.923084197505706e+17
19018.0	4.9222082884184736e+17
19019.0	4.92135632670993e+17
19020.0	4.9204797024938656e+17
19021.0	4.919633312918187e+17
19022.0	4.9187701034844154e+17
19023.0	4.917841822220287e+17
19024.0	4.9169711455272954e+17
19025.0	4.9161596064235514e+17
19026.0	4.91528601608738e+17
19027.0	4.9144279992019616e+17
19028.0	4.91356109738257e+17
19029.0	4.912687720955903e+17
19030.0	4.9118426057495885e+17
19031.0	4.91098883559697e+17
19032.0	4.910117283692543e+17
19033.0	4.90911615296034e+17
19034.0	4.9082557313406285e+17
19035.0	4.906901914167978e+17
19036.0	4.904169668345855e+17
19037.0	4.905285639820628e+17
19038.0	4.9048147858554874e+17
19039.0	4.9040558587030176e+17
19040.0	4.903219287293951e+17
19041.0	4.9023678750392314e+17
19042.0	4.899730689622012e+17
19043.0	4.9006774426009594e+17
19044.0	4.8998146428108794e+17
19045.0	4.898933037858815e+17
19046.0	4.898040869552127e+17
19047.0	4.8971656783899296e+17
19048.0	4.8960418404980045e+17
19049.0	4.891828666324304e+17
19050.0	4.894490238823081e+17
19051.0	4.893403479277568e+17
19052.0	4.89267960951603e+17
19053.0	4.89201286058257e+17
19054.0	4.891200997119315e+17
19055.0	4.889604180148224e+17
19056.0	4.889343713869823e+17
19057.0	4.888666117767168e+17
19058.0	4.885984704812369e+17
19059.0	4.8862364343555405e+17
19060.0	4.8861049030792525e+17
19061.0	4.885232828983979e+17
19062.0	4.8843700592530765e+17
19063.0	4.8835243980881914e+17
19064.0	4.8826218929192954e+17
19065.0	4.881684766567082e+17
19066.0	4.880247247164757e+17
19067.0	4.880070743162879e+17
19068.0	4.8792689914675194e+17
19069.0	4.8784101636833274e+17
19070.0	4.877514477054634e+17
19071.0	4.8766801852497914e+17
19072.0	4.8751607098463546e+17
19073.0	4.874994488879785e+17
19074.0	4.8741158891465376e+17
19075.0	4.8732860272257696e+17
19076.0	4.872415695863808e+17
19077.0	4.871558042484734e+17
19078.0	4.8706832763453434e+17
19079.0	4.8698524769976314e+17
19080.0	4.8690035009344845e+17
19081.0	4.868102918154921e+17
19082.0	4.8673011811396256e+17
19083.0	4.8663693983307085e+17
19084.0	4.865392287678464e+17
19085.0	4.864721610779306e+17
19086.0	4.862612512702462e+17
19087.0	4.8615112492537146e+17
19088.0	4.8611985617933626e+17
19089.0	4.861153682740566e+17
19090.0	4.8604549536372045e+17
19091.0	4.8595133246996486e+17
19092.0	4.8573194080092186e+17
19093.0	4.8579345760911354e+17
19094.0	4.857086158569471e+17
19095.0	4.8562286198347085e+17
19096.0	4.8553848426113696e+17
19097.0	4.8545344174161914e+17
19098.0	4.8529541658487443e+17
19099.0	4.851941250520405e+17
19100.0	4.851957819419307e+17
19101.0	4.8511007993801376e+17
19102.0	4.8502161829178016e+17
19103.0	4.849412382304938e+17
19104.0	4.8485927698650445e+17
19105.0	4.846120834433028e+17
19106.0	4.846871963675306e+17
19107.0	4.845630869820755e+17
19108.0	4.8445416601026554e+17
19109.0	4.8442903604756486e+17
19110.0	4.843454610451114e+17
19111.0	4.842152466404692e+17
19112.0	4.841226557019475e+17
19113.0	4.840935426883583e+17
19114.0	4.839752633854633e+17
19115.0	4.8391339949861536e+17
19116.0	4.838308357428564e+17
19117.0	4.8373698909962234e+17
19118.0	4.835650268299264e+17
19119.0	4.826925295992824e+17
19120.0	4.834407699447808e+17
19121.0	4.834005339166036e+17
19122.0	4.833266275538262e+17
19123.0	4.8324485330589e+17
19124.0	4.831562324159145e+17
19125.0	4.830696025620479e+17
19126.0	4.829666218431828e+17
19127.0	4.828315375020714e+17
19128.0	4.8279412452010656e+17
19129.0	4.827250659338921e+17
19130.0	4.82653028552977e+17
19131.0	4.8257204625954125e+17
19132.0	4.824879907995647e+17
19133.0	4.824012363748692e+17
19134.0	4.823197991392596e+17
19135.0	4.8223560456820045e+17
19136.0	4.821497946308607e+17
19137.0	4.820609642354005e+17
19138.0	4.8198079675542176e+17
19139.0	4.818993319073109e+17
19140.0	4.818157724237823e+17
19141.0	4.817314818730665e+17
19142.0	4.816441752682496e+17
19143.0	4.815604370374655e+17
19144.0	4.814740658323454e+17
19145.0	4.813932643833172e+17
19146.0	4.8124530506683725e+17
19147.0	4.812223364289876e+17
19148.0	4.81083488468992e+17
19149.0	4.809878117111125e+17
19150.0	4.809747205892778e+17
19151.0	4.808893732137642e+17
19152.0	4.808051226487466e+17
19153.0	4.805933792930472e+17
19154.0	4.8062400274541216e+17
19155.0	4.80551975850257e+17
19156.0	4.8046821266336416e+17
19157.0	4.803454938994005e+17
19158.0	4.802103571294892e+17
19159.0	4.802130967789566e+17
19160.0	4.801298099251883e+17
19161.0	4.8004457090252794e+17
19162.0	4.799576287827285e+17
19163.0	4.7987656190416205e+17
19164.0	4.797948236573353e+17
19165.0	4.7957513244508134e+17
19166.0	4.7962149019975674e+17
19167.0	4.795444030166358e+17
19168.0	4.794622545668777e+17
19169.0	4.7937888837085856e+17
19170.0	4.7929586051536205e+17
19171.0	4.7921056857456634e+17
19172.0	4.7912815763128314e+17
19173.0	4.7904483729298765e+17
19174.0	4.789588489579179e+17
19175.0	4.7887630428624205e+17
19176.0	4.7879373263121056e+17
19177.0	4.78694549435187e+17
19178.0	4.7862544485143885e+17
19179.0	4.785426926316202e+17
19180.0	4.7845699768811514e+17
19181.0	4.783672359474516e+17
19182.0	4.782854073133738e+17
19183.0	4.782075703984128e+17
19184.0	4.7812540265485645e+17
19185.0	4.7804046611141965e+17
19186.0	4.7795773556217165e+17
19187.0	4.778689512341504e+17
19188.0	4.777908975435775e+17
19189.0	4.777066725638143e+17
19190.0	4.776230991691775e+17
19191.0	4.7753584967679994e+17
19192.0	4.774531507945471e+17
19193.0	4.773513054737749e+17
19194.0	4.772543513406121e+17
19195.0	4.771938226405375e+17
19196.0	4.771014978306047e+17
19197.0	4.770056502247423e+17
19198.0	4.768989121085439e+17
19199.0	4.767770631034196e+17
19200.0	4.7669923912089594e+17
19201.0	4.766517953211049e+17
19202.0	4.765911828747604e+17
19203.0	4.765192784532821e+17
19204.0	4.764447909696851e+17
19205.0	4.7636432471545165e+17
19206.0	4.76283828052514e+17
19207.0	4.7618658248512845e+17
19208.0	4.7611082377789434e+17
19209.0	4.7603820786264736e+17
19210.0	4.759561061094741e+17
19211.0	4.7587614645725856e+17
19212.0	4.757929457265323e+17
19213.0	4.757005580020393e+17
19214.0	4.7562304055323296e+17
19215.0	4.75542990164241e+17
19216.0	4.7545868591213216e+17
19217.0	4.7536828440029856e+17
19218.0	4.7526802005251405e+17
19219.0	4.751855582183423e+17
19220.0	4.751214635210068e+17
19221.0	4.750366292486826e+17
19222.0	4.749576093302783e+17
19223.0	4.748779971761493e+17
19224.0	4.7479305511021216e+17
19225.0	4.7471376319119354e+17
19226.0	4.746329752338432e+17
19227.0	4.7455131982452045e+17
19228.0	4.744717854747306e+17
19229.0	4.743868053105323e+17
19230.0	4.743056429416447e+17
19231.0	4.7422323989763405e+17
19232.0	4.7414138288209914e+17
19233.0	4.7405363049267194e+17
19234.0	4.739749875023871e+17
19235.0	4.738900255834111e+17
19236.0	4.7381112177732256e+17
19237.0	4.737261999838549e+17
19238.0	4.7363822690413216e+17
19239.0	4.7356379240857594e+17
19240.0	4.7347984460240205e+17
19241.0	4.7339758227729056e+17
19242.0	4.7331358176269645e+17
19243.0	4.732192496287743e+17
19244.0	4.731514365411327e+17
19245.0	4.7306863391976096e+17
19246.0	4.729869698422102e+17
19247.0	4.7290413765099514e+17
19248.0	4.728220404416511e+17
19249.0	4.7273533348249594e+17
19250.0	4.72629870015283e+17
19251.0	4.725428639323475e+17
19252.0	4.7246342164753056e+17
19253.0	4.724081103121066e+17
19254.0	4.723288432792916e+17
19255.0	4.722263471423487e+17
19256.0	4.7216242783682554e+17
19257.0	4.720810435193513e+17
19258.0	4.719983277200726e+17
19259.0	4.719081241793877e+17
19260.0	4.7182067021469005e+17
19261.0	4.717486097651029e+17
19262.0	4.7165884292136954e+17
19263.0	4.7156943622853965e+17
19264.0	4.714737911376555e+17
19265.0	4.7139872700716365e+17
19266.0	4.7131273370883405e+17
19267.0	4.712560713880917e+17
19268.0	4.711745803255808e+17
19269.0	4.710931236563626e+17
19270.0	4.71005899399714e+17
19271.0	4.709149041142442e+17
19272.0	4.708438694516053e+17
19273.0	4.7074977555415046e+17
19274.0	4.706449113830738e+17
19275.0	4.706043275072853e+17
19276.0	4.705201956410708e+17
19277.0	4.70439534072081e+17
19278.0	4.703545302100651e+17
19279.0	4.7027293107432096e+17
19280.0	4.7019073452987725e+17
19281.0	4.7011001410082125e+17
19282.0	4.7002964494472525e+17
19283.0	4.699469475304789e+17
19284.0	4.698613189268821e+17
19285.0	4.697771149186387e+17
19286.0	4.69690046480384e+17
19287.0	4.695971769002666e+17
19288.0	4.694020275393876e+17
19289.0	4.692827958498644e+17
19290.0	4.6934998112010234e+17
19291.0	4.692620165687979e+17
19292.0	4.6921004564698445e+17
19293.0	4.6913033066250234e+17
19294.0	4.690484696623785e+17
19295.0	4.6896848267728205e+17
19296.0	4.688074590825132e+17
19297.0	4.6879219006832634e+17
19298.0	4.6872161118672205e+17
19299.0	4.68554370514944e+17
19300.0	4.685602725997225e+17
19301.0	4.6847965080671565e+17
19302.0	4.683969414387029e+17
19303.0	4.683099830310229e+17
19304.0	4.682337131779413e+17
19305.0	4.6815049958468256e+17
19306.0	4.680697721651198e+17
19307.0	4.679831469948927e+17
19308.0	4.6790155093497165e+17
19309.0	4.678182689745578e+17
19310.0	4.677332992262144e+17
19311.0	4.6764759505524045e+17
19312.0	4.67557655056657e+17
19313.0	4.674309452027221e+17
19314.0	4.6589511089520666e+17
19315.0	4.65898139042885e+17
19316.0	4.6708754760772275e+17
19317.0	4.671505411604479e+17
19318.0	4.6708442585716045e+17
19319.0	4.670078668767231e+17
19320.0	4.6689965117713056e+17
19321.0	4.667784358614357e+17
19322.0	4.667682680296789e+17
19323.0	4.6668759387777696e+17
19324.0	4.6660696733122554e+17
19325.0	4.665272591275348e+17
19326.0	4.6644608501459616e+17
19327.0	4.663654567903231e+17
19328.0	4.661386122625024e+17
19329.0	4.662037304399189e+17
19330.0	4.6612279770917536e+17
19331.0	4.6603792561821e+17
19332.0	4.659615363672747e+17
19333.0	4.658796047630334e+17
19334.0	4.657954369656149e+17
19335.0	4.654216953288024e+17
19336.0	4.656346548229461e+17
19337.0	4.655555979946666e+17
19338.0	4.654535200997374e+17
19339.0	4.6538995346527565e+17
19340.0	4.652873346449407e+17
19341.0	4.6510434974433306e+17
19342.0	4.651018918821888e+17
19343.0	4.650546364765525e+17
19344.0	4.6484987565834246e+17
19345.0	4.647526779759274e+17
19346.0	4.647306771038208e+17
19347.0	4.6458328338923514e+17
19348.0	4.646556332457983e+17
19349.0	4.645768110189225e+17
19350.0	4.6444540242602656e+17
19351.0	4.644160920005289e+17
19352.0	4.6418978762915795e+17
19353.0	4.642607933510997e+17
19354.0	4.641813384833706e+17
19355.0	4.640906795111766e+17
19356.0	4.640192379311445e+17
19357.0	4.639387966330197e+17
19358.0	4.6385727152674125e+17
19359.0	4.637439726802259e+17
19360.0	4.635772916684116e+17
19361.0	4.6361393324796576e+17
19362.0	4.635339960352766e+17
19363.0	4.634539380266324e+17
19364.0	4.6337342626420045e+17
19365.0	4.6329156183872845e+17
19366.0	4.632099436189013e+17
19367.0	4.6313008218330445e+17
19368.0	4.630493704224766e+17
19369.0	4.629665025796778e+17
19370.0	4.6288606708367354e+17
19371.0	4.6280044029760845e+17
19372.0	4.6272439812532896e+17
19373.0	4.626425613123582e+17
19374.0	4.625618216594089e+17
19375.0	4.624828578747732e+17
19376.0	4.6240192136915616e+17
19377.0	4.6231998794738336e+17
19378.0	4.622391641287338e+17
19379.0	4.6215820986722976e+17
19380.0	4.6207457181040634e+17
19381.0	4.619928362898773e+17
19382.0	4.6190495184977914e+17
19383.0	4.618268366427477e+17
19384.0	4.617460855253674e+17
19385.0	4.6166700520898554e+17
19386.0	4.615863969775615e+17
19387.0	4.615031954079743e+17
19388.0	4.6141895532871686e+17
19389.0	4.613316419431081e+17
19390.0	4.612229292184916e+17
19391.0	4.6095589815528096e+17
19392.0	4.6100666426327034e+17
19393.0	4.60995502940706e+17
19394.0	4.609249427237545e+17
19395.0	4.608030382140075e+17
19396.0	4.6075469131066016e+17
19397.0	4.606800171805355e+17
19398.0	4.6055266657675936e+17
19399.0	4.6043358084901536e+17
19400.0	4.603799710728192e+17
19401.0	4.6034488900539725e+17
19402.0	4.602660179847851e+17
19403.0	4.60181917995281e+17
19404.0	4.6009798962271565e+17
19405.0	4.6001060115906554e+17
19406.0	4.5992592794801485e+17
19407.0	4.597827747446782e+17
19408.0	4.597214626884265e+17
19409.0	4.596524223474347e+17
19410.0	4.5957967731752954e+17
19411.0	4.594947614659925e+17
19412.0	4.594064890527742e+17
19413.0	4.592655837167615e+17
19414.0	4.592271177547776e+17
19415.0	4.5913546137709216e+17
19416.0	4.590299484170923e+17
19417.0	4.58951224267025e+17
19418.0	4.588564389385557e+17
19419.0	4.5876016092719776e+17
19420.0	4.586624652410879e+17
19421.0	4.5856159817181856e+17
19422.0	4.584531452843348e+17
19423.0	4.5835011080847354e+17
19424.0	4.582425781512874e+17
19425.0	4.581293361375914e+17
19426.0	4.5801087578057376e+17
19427.0	4.578872230849194e+17
19428.0	4.577562425207466e+17
19429.0	4.576146562394793e+17
19430.0	4.5745164755053216e+17
19431.0	4.572852826494293e+17
19432.0	4.571429488033791e+17
19433.0	4.5697002450015565e+17
19434.0	4.5677192353764685e+17
19435.0	4.565403270731092e+17
19436.0	4.5627701551868576e+17
19437.0	4.559622123115861e+17
19438.0	4.552676180230144e+17
19439.0	4.551641478987774e+17
19440.0	4.5491189972991994e+17
19441.0	4.544281542918142e+17
19442.0	4.53824381784337e+17
19443.0	4.530866327213398e+17
19444.0	4.521399836213247e+17
19445.0	4.5094326026021555e+17
19446.0	4.4936214606424736e+17
19447.0	4.4722565338016416e+17
19448.0	4.441358293008386e+17
19449.0	4.39260724330496e+17
19450.0	4.2927473242931104e+17
19451.0	4.2040921556691674e+17
19452.0	4.3535128550441e+17
19453.0	4.4177452017472877e+17
19454.0	4.453786683353769e+17
19455.0	4.4774303343138125e+17
19456.0	4.493900676857856e+17
19457.0	4.504365387743231e+17
19458.0	4.4669579849018406e+17
19459.0	4.5120035333952954e+17
19460.0	4.526219056556713e+17
19461.0	4.530864652287998e+17
19462.0	4.534089347847508e+17
19463.0	4.5364925603075405e+17
19464.0	4.538271891718144e+17
19465.0	4.5396246057888416e+17
19466.0	4.5406056339210234e+17
19467.0	4.541349782443348e+17
19468.0	4.541797259455145e+17
19469.0	4.5409626747480723e+17
19470.0	4.5421603687410336e+17
19471.0	4.542212166298282e+17
19472.0	4.542073020263082e+17
19473.0	4.541909303295998e+17
19474.0	4.540503457879378e+17
19475.0	4.540803477143551e+17
19476.0	4.5407863930443085e+17
19477.0	4.540476720589482e+17
19478.0	4.5400664498503674e+17
19479.0	4.5385383963962e+17
19480.0	4.5390157864850765e+17
19481.0	4.5384093719156045e+17
19482.0	4.5378866302156794e+17
19483.0	4.5373023392017056e+17
19484.0	4.536655724325546e+17
19485.0	4.5359959015860896e+17
19486.0	4.5342631381347014e+17
19487.0	4.534662272996692e+17
19488.0	4.533935973335039e+17
19489.0	4.53292312301841e+17
19490.0	4.531966526707028e+17
19491.0	4.5317492869256525e+17
19492.0	4.5311989732693325e+17
19493.0	4.5305055387757216e+17
19494.0	4.5297667547682125e+17
19495.0	4.5289887707955194e+17
19496.0	4.527961067749375e+17
19497.0	4.5272089829048314e+17
19498.0	4.525124977950719e+17
19499.0	4.522670625740117e+17
19500.0	4.5248572932751354e+17
19501.0	4.524522181667498e+17
19502.0	4.523873212388692e+17
19503.0	4.523171461988352e+17
19504.0	4.522419140864681e+17
19505.0	4.521644583638355e+17
19506.0	4.520917928858965e+17
19507.0	4.5201160429458765e+17
19508.0	4.519301144204628e+17
19509.0	4.518324992649897e+17
19510.0	4.516297039675391e+17
19511.0	4.496505707342499e+17
19512.0	4.513398725279743e+17
19513.0	4.5136897484608845e+17
19514.0	4.513302112982357e+17
19515.0	4.5136548560459085e+17
19516.0	4.5130322430743885e+17
19517.0	4.512483200991231e+17
19518.0	4.511506454544383e+17
19519.0	4.510756879990782e+17
19520.0	4.5092621488837946e+17
19521.0	4.5095807307393696e+17
19522.0	4.5086309278023674e+17
19523.0	4.5078041570836474e+17
19524.0	4.5064874783757664e+17
19525.0	4.5065070503963296e+17
19526.0	4.505761925300223e+17
19527.0	4.504988702561622e+17
19528.0	4.504145061653161e+17
19529.0	4.503337742718294e+17
19530.0	4.5027063217083725e+17
19531.0	4.501934540412244e+17
19532.0	4.501161330256553e+17
19533.0	4.5003852735665485e+17
19534.0	4.4996276403568634e+17
19535.0	4.4988391167972685e+17
19536.0	4.498029814655658e+17
19537.0	4.4972604611624954e+17
19538.0	4.4953821518670515e+17
19539.0	4.495524152825173e+17
19540.0	4.4949187371991034e+17
19541.0	4.4939820736184314e+17
19542.0	4.4933400920500896e+17
19543.0	4.491601117533525e+17
19544.0	4.4917440845796685e+17
19545.0	4.49070928756736e+17
19546.0	4.489911231752874e+17
19547.0	4.489509044136618e+17
19548.0	4.488825589989374e+17
19549.0	4.487976142067027e+17
19550.0	4.4873108925972474e+17
19551.0	4.4865625294984525e+17
19552.0	4.4857811006040736e+17
19553.0	4.48501063422225e+17
19554.0	4.484225226331477e+17
19555.0	4.4833444672307194e+17
19556.0	4.48263342854417e+17
19557.0	4.4819442030346234e+17
19558.0	4.4811873066243405e+17
19559.0	4.480421974769663e+17
19560.0	4.479259919777791e+17
19561.0	4.4788615783383034e+17
19562.0	4.477751286650196e+17
19563.0	4.4773584404479994e+17
19564.0	4.4765638721972896e+17
19565.0	4.47580894011938e+17
19566.0	4.4750205745452365e+17
19567.0	4.4742801897117005e+17
19568.0	4.473492017075541e+17
19569.0	4.472730221718187e+17
19570.0	4.471971727278079e+17
19571.0	4.4712064730180256e+17
19572.0	4.4704113888679245e+17
19573.0	4.469549982285822e+17
19574.0	4.468776338019667e+17
19575.0	4.4681458823987194e+17
19576.0	4.4673140121053856e+17
19577.0	4.46640591872546e+17
19578.0	4.4658284909909325e+17
19579.0	4.465051733153109e+17
19580.0	4.464283956718249e+17
19581.0	4.4635258956895565e+17
19582.0	4.4627799855595514e+17
19583.0	4.462019658208596e+17
19584.0	4.461238729834495e+17
19585.0	4.460360497801897e+17
19586.0	4.4595630900073805e+17
19587.0	4.458881704351061e+17
19588.0	4.457975615149396e+17
19589.0	4.4573180776065696e+17
19590.0	4.456523517045418e+17
19591.0	4.4558626729929376e+17
19592.0	4.4551161001629e+17
19593.0	4.4542454800930125e+17
19594.0	4.453248498226516e+17
19595.0	4.452807237173247e+17
19596.0	4.4520379528861005e+17
19597.0	4.451250224147115e+17
19598.0	4.450056466508459e+17
19599.0	4.4496992502196896e+17
19600.0	4.448975743265449e+17
19601.0	4.448168320871083e+17
19602.0	4.4473587705664845e+17
19603.0	4.4465294105640954e+17
19604.0	4.44584540906018e+17
19605.0	4.444953760148138e+17
19606.0	4.4443944930508794e+17
19607.0	4.4436645289656314e+17
19608.0	4.4428759921240736e+17
19609.0	4.442107868960085e+17
19610.0	4.44089150472192e+17
19611.0	4.439871851943253e+17
19612.0	4.4398636723514016e+17
19613.0	4.439074193888596e+17
19614.0	4.438290017725098e+17
19615.0	4.437548250169344e+17
19616.0	4.4362651510592845e+17
19617.0	4.435163585620651e+17
19618.0	4.434740608237568e+17
19619.0	4.4337945578045446e+17
19620.0	4.433092924145663e+17
19621.0	4.4317891603988454e+17
19622.0	4.432193448662358e+17
19623.0	4.4314101491083936e+17
19624.0	4.4305492171816954e+17
19625.0	4.4299418204460365e+17
19626.0	4.429150841121451e+17
19627.0	4.428382917885951e+17
19628.0	4.427551687923028e+17
19629.0	4.424086718862676e+17
19630.0	4.4256533815842125e+17
19631.0	4.4246418433856845e+17
19632.0	4.424329076233557e+17
19633.0	4.423701448971606e+17
19634.0	4.423059269571926e+17
19635.0	4.422200824168446e+17
19636.0	4.4203766213946e+17
19637.0	4.419363909490004e+17
19638.0	4.419999093489663e+17
19639.0	4.419284672096938e+17
19640.0	4.4181520184770554e+17
19641.0	4.416795735752704e+17
19642.0	4.416912446455807e+17
19643.0	4.4161975748744525e+17
19644.0	4.415457236178261e+17
19645.0	4.4146923251520845e+17
19646.0	4.4127459199330963e+17
19647.0	4.4132570566929056e+17
19648.0	4.41254722736401e+17
19649.0	4.4117847441407994e+17
19650.0	4.4110379664889165e+17
19651.0	4.410283521649321e+17
19652.0	4.4095278632577696e+17
19653.0	4.408772933277013e+17
19654.0	4.40801845837824e+17
19655.0	4.407251210425685e+17
