# Flux units: erg / (cm m2 s)
# Wavelength units: Angstrom
wave	flux
19000.0	5.6277881603140256e+17
19001.0	5.62660116599057e+17
19002.0	5.6256943162217805e+17
19003.0	5.624637587193855e+17
19004.0	5.6235872852377594e+17
19005.0	5.6225380199738016e+17
19006.0	5.6214967301789005e+17
19007.0	5.620422653509631e+17
19008.0	5.619321894775466e+17
19009.0	5.6182511064405325e+17
19010.0	5.616597553818281e+17
19011.0	5.616214450285226e+17
19012.0	5.6146352004573856e+17
19013.0	5.6141689825962656e+17
19014.0	5.6130551774795085e+17
19015.0	5.612022232252415e+17
19016.0	5.610954574266367e+17
19017.0	5.6099923869477536e+17
19018.0	5.608913654601043e+17
19019.0	5.6078893007066445e+17
19020.0	5.6068320173315405e+17
19021.0	5.6058116354430285e+17
19022.0	5.6047615557850445e+17
19023.0	5.6036694296275616e+17
19024.0	5.602633433743358e+17
19025.0	5.6015984319092045e+17
19026.0	5.60050670351155e+17
19027.0	5.599123095595689e+17
19028.0	5.598503059324926e+17
19029.0	5.5974308805782176e+17
19030.0	5.596425395459413e+17
19031.0	5.595391011586047e+17
19032.0	5.594337869387092e+17
19033.0	5.5931739178707616e+17
19034.0	5.592227402569043e+17
19035.0	5.591083835370154e+17
19036.0	5.559335585316851e+17
19037.0	5.589055257444352e+17
19038.0	5.588053678620671e+17
19039.0	5.587046708019199e+17
19040.0	5.586014741463039e+17
19041.0	5.584963998405972e+17
19042.0	5.58346317926673e+17
19043.0	5.5828961967472634e+17
19044.0	5.581838835777535e+17
19045.0	5.580798669357055e+17
19046.0	5.579686803406847e+17
19047.0	5.578715490680831e+17
19048.0	5.577319863287806e+17
19049.0	5.575857281520979e+17
19050.0	5.5755312897283405e+17
19051.0	5.56999302377198e+17
19052.0	5.572889059262464e+17
19053.0	5.5724861390411085e+17
19054.0	5.571462291958441e+17
19055.0	5.569981144804011e+17
19056.0	5.569311680757758e+17
19057.0	5.5683403715269965e+17
19058.0	5.5669262521466854e+17
19059.0	5.5661307779263136e+17
19060.0	5.565204816811349e+17
19061.0	5.564202434079402e+17
19062.0	5.563158372548607e+17
19063.0	5.5621247800005965e+17
19064.0	5.560915396482388e+17
19065.0	5.559823927432532e+17
19066.0	5.558811934152021e+17
19067.0	5.557965993366868e+17
19068.0	5.556946859283796e+17
19069.0	5.55591356523042e+17
19070.0	5.5548365595388576e+17
19071.0	5.553821136715775e+17
19072.0	5.552668585317715e+17
19073.0	5.5517670881798816e+17
19074.0	5.550739894042623e+17
19075.0	5.5497056408917325e+17
19076.0	5.5486421939869005e+17
19077.0	5.5476159470632954e+17
19078.0	5.546542445013673e+17
19079.0	5.5455662291462816e+17
19080.0	5.5445176622339405e+17
19081.0	5.54344294383616e+17
19082.0	5.542409123397631e+17
19083.0	5.541311783021225e+17
19084.0	5.5401168286078285e+17
19085.0	5.5393499658321914e+17
19086.0	5.5376451616112634e+17
19087.0	5.536251362934783e+17
19088.0	5.535944692203519e+17
19089.0	5.5346133110620154e+17
19090.0	5.5341600221429754e+17
19091.0	5.5331115537967776e+17
19092.0	5.53163632480529e+17
19093.0	5.53111871623441e+17
19094.0	5.530091789134507e+17
19095.0	5.529062076317696e+17
19096.0	5.5280078142395725e+17
19097.0	5.5269995301218976e+17
19098.0	5.525819061436415e+17
19099.0	5.524755620123987e+17
19100.0	5.523850411027113e+17
19101.0	5.5228646503219194e+17
19102.0	5.521683797857619e+17
19103.0	5.520823056771754e+17
19104.0	5.5197989964786336e+17
19105.0	5.518433496771242e+17
19106.0	5.517594735236437e+17
19107.0	5.516597078786047e+17
19108.0	5.5155491284363936e+17
19109.0	5.512627750262098e+17
19110.0	5.513557687577258e+17
19111.0	5.512495389212671e+17
19112.0	5.51146307522833e+17
19113.0	5.510545906073599e+17
19114.0	5.5094581755467085e+17
19115.0	5.5083586723075405e+17
19116.0	5.5074439701026125e+17
19117.0	5.506412884350292e+17
19118.0	5.505182495058602e+17
19119.0	5.4936794506635776e+17
19120.0	5.503098106325673e+17
19121.0	5.5021670260626765e+17
19122.0	5.501321366994943e+17
19123.0	5.500297370315434e+17
19124.0	5.499134213619711e+17
19125.0	5.498236659826687e+17
19126.0	5.497210181517311e+17
19127.0	5.493677222789117e+17
19128.0	5.494924104783189e+17
19129.0	5.494044747279018e+17
19130.0	5.4931087470974285e+17
19131.0	5.4921038198210554e+17
19132.0	5.491079080749738e+17
19133.0	5.489940226550442e+17
19134.0	5.4889220012332365e+17
19135.0	5.488003189309439e+17
19136.0	5.486995941883904e+17
19137.0	5.4857451410117965e+17
19138.0	5.484928037464745e+17
19139.0	5.483930670421332e+17
19140.0	5.482911300059135e+17
19141.0	5.4818903819987616e+17
19142.0	5.4808269623569043e+17
19143.0	5.479763881055573e+17
19144.0	5.4787781049712634e+17
19145.0	5.4778065986082125e+17
19146.0	5.475946644286122e+17
19147.0	5.475630529380351e+17
19148.0	5.4746161446475085e+17
19149.0	5.473573237948415e+17
19150.0	5.472697790933674e+17
19151.0	5.471682075208362e+17
19152.0	5.470636931547135e+17
19153.0	5.4693823453156685e+17
19154.0	5.468427390375253e+17
19155.0	5.467603315195903e+17
19156.0	5.466587180739242e+17
19157.0	5.465437113767251e+17
19158.0	5.4630717507065146e+17
19159.0	5.46349067988719e+17
19160.0	5.462476746741077e+17
19161.0	5.461465085509632e+17
19162.0	5.4573439287732934e+17
19163.0	5.45936305623313e+17
19164.0	5.458444960137215e+17
19165.0	5.4570926088738125e+17
19166.0	5.4561589756777805e+17
19167.0	5.4551068317231776e+17
19168.0	5.454372416782336e+17
19169.0	5.453305467633662e+17
19170.0	5.45235515928303e+17
19171.0	5.4511445251631776e+17
19172.0	5.4503045997090125e+17
19173.0	5.449303191453696e+17
19174.0	5.448215665748649e+17
19175.0	5.4472840367308794e+17
19176.0	5.4462677946204154e+17
19177.0	5.445049678561279e+17
19178.0	5.4441608174632954e+17
19179.0	5.4429466580309325e+17
19180.0	5.442190858431145e+17
19181.0	5.441001911659177e+17
19182.0	5.440160674086911e+17
19183.0	5.4391774446441805e+17
19184.0	5.4381559617508685e+17
19185.0	5.437137059053567e+17
19186.0	5.4361369426438816e+17
19187.0	5.435032873205758e+17
19188.0	5.4341053273429325e+17
19189.0	5.4330951893428896e+17
19190.0	5.432068019672404e+17
19191.0	5.431001259966462e+17
19192.0	5.4300643810781856e+17
19193.0	5.4290054675169274e+17
19194.0	5.427964341998933e+17
19195.0	5.4270178043275936e+17
19196.0	5.4259706809548794e+17
19197.0	5.4249409828181325e+17
19198.0	5.42380016079121e+17
19199.0	5.404210899539281e+17
19200.0	5.4090944276507366e+17
19201.0	5.420791223025662e+17
19202.0	5.419906983351636e+17
19203.0	5.4188696201243296e+17
19204.0	5.417881095372799e+17
19205.0	5.4169104222781434e+17
19206.0	5.4158965995820365e+17
19207.0	5.4147647638514336e+17
19208.0	5.413560184209406e+17
19209.0	5.4128815479193594e+17
19210.0	5.411871754551294e+17
19211.0	5.4108818610585594e+17
19212.0	5.40986747982097e+17
19213.0	5.408593693463892e+17
19214.0	5.40749716258816e+17
19215.0	5.406773271855104e+17
19216.0	5.4058404670341114e+17
19217.0	5.4048227995593376e+17
19218.0	5.4026825447942803e+17
19219.0	5.402620330683049e+17
19220.0	5.401769498640383e+17
19221.0	5.400352540415317e+17
19222.0	5.3997876047162016e+17
19223.0	5.398762853761024e+17
19224.0	5.3977255345739085e+17
19225.0	5.396573253708457e+17
19226.0	5.395743228908883e+17
19227.0	5.3947367455457274e+17
19228.0	5.3937636068993696e+17
19229.0	5.392756346191871e+17
19230.0	5.391730750783488e+17
19231.0	5.390721330708479e+17
19232.0	5.389726190141439e+17
19233.0	5.3886356683052365e+17
19234.0	5.387694167993002e+17
19235.0	5.3866767605650765e+17
19236.0	5.385716034961407e+17
19237.0	5.3846890792004256e+17
19238.0	5.383551529429674e+17
19239.0	5.382703332808021e+17
19240.0	5.3816825384796154e+17
19241.0	5.380661250621439e+17
19242.0	5.379667630489599e+17
19243.0	5.3784689780981754e+17
19244.0	5.377681095568042e+17
19245.0	5.376668834551125e+17
19246.0	5.375647453020158e+17
19247.0	5.3746556867706874e+17
19248.0	5.373657646541481e+17
19249.0	5.372369700214101e+17
19250.0	5.371293515208021e+17
19251.0	5.370167327107753e+17
19252.0	5.3689938566184954e+17
19253.0	5.368326434499241e+17
19254.0	5.36735731819042e+17
19255.0	5.366107359674366e+17
19256.0	5.3653127802388474e+17
19257.0	5.3643489627340794e+17
19258.0	5.363344332554239e+17
19259.0	5.3622443896122016e+17
19260.0	5.3606687133313683e+17
19261.0	5.3603142002715296e+17
19262.0	5.359247215471274e+17
19263.0	5.358235440993619e+17
19264.0	5.356533426683902e+17
19265.0	5.356025666338815e+17
19266.0	5.3549094152437754e+17
19267.0	5.354313152987135e+17
19268.0	5.353300172647083e+17
19269.0	5.3523007462004045e+17
19270.0	5.351297704263678e+17
19271.0	5.3498054505922566e+17
19272.0	5.3492446197186554e+17
19273.0	5.3475411786465254e+17
19274.0	5.3465733276194106e+17
19275.0	5.346282705693354e+17
19276.0	5.345251709419519e+17
19277.0	5.3442555181793274e+17
19278.0	5.343247538847743e+17
19279.0	5.342215746355198e+17
19280.0	5.341128359761236e+17
19281.0	5.340231792328704e+17
19282.0	5.3392460497988256e+17
19283.0	5.337976036218196e+17
19284.0	5.337129450209279e+17
19285.0	5.335994010872489e+17
19286.0	5.335174604652542e+17
19287.0	5.33420328423697e+17
19288.0	5.3251405264540954e+17
19289.0	5.311465302349104e+17
19290.0	5.331182594031615e+17
19291.0	5.329860376046251e+17
19292.0	5.3291962870005754e+17
19293.0	5.328181550645247e+17
19294.0	5.327168173244415e+17
19295.0	5.3261793150457165e+17
19296.0	5.3250070699922765e+17
19297.0	5.324091562480982e+17
19298.0	5.323113956900862e+17
19299.0	5.321966668655274e+17
19300.0	5.32112387220002e+17
19301.0	5.320113279117994e+17
19302.0	5.3188014259568634e+17
19303.0	5.317694259025236e+17
19304.0	5.3167517353028256e+17
19305.0	5.315760099775828e+17
19306.0	5.3147475220889594e+17
19307.0	5.313669353177087e+17
19308.0	5.312689146429439e+17
19309.0	5.31102776374067e+17
19310.0	5.309779438206975e+17
19311.0	5.3095807449388365e+17
19312.0	5.3086688102754976e+17
19313.0	5.307653017654612e+17
19314.0	5.258214358646781e+17
19315.0	5.261301430004466e+17
19316.0	5.3040621446758394e+17
19317.0	5.303221680952662e+17
19318.0	5.3022073046084256e+17
19319.0	5.301216177291264e+17
19320.0	5.300128126599167e+17
19321.0	5.2990367288524794e+17
19322.0	5.298019440263168e+17
19323.0	5.29683560145442e+17
19324.0	5.296068680657578e+17
19325.0	5.294422602984106e+17
19326.0	5.2940415469704525e+17
19327.0	5.293008119398398e+17
19328.0	5.291716580649642e+17
19329.0	5.2909825264189434e+17
19330.0	5.2898976291444045e+17
19331.0	5.288858920244564e+17
19332.0	5.2878798906982394e+17
19333.0	5.2868259110365856e+17
19334.0	5.285808567222272e+17
19335.0	5.2841970855662925e+17
19336.0	5.2837220379962016e+17
19337.0	5.282697879835988e+17
19338.0	5.281375317218644e+17
19339.0	5.2806079336502605e+17
19340.0	5.2792131094664525e+17
19341.0	5.277773564215294e+17
19342.0	5.2763624500538016e+17
19343.0	5.2759396530257914e+17
19344.0	5.2746657981617485e+17
19345.0	5.270756498516644e+17
19346.0	5.2716098003053216e+17
19347.0	5.2713485944313165e+17
19348.0	5.2706557212753914e+17
19349.0	5.269538462848341e+17
19350.0	5.2683771551416314e+17
19351.0	5.2673991301311136e+17
19352.0	5.26598302474786e+17
19353.0	5.265303977416021e+17
19354.0	5.26383483855394e+17
19355.0	5.2624018846515194e+17
19356.0	5.261443026212181e+17
19357.0	5.2603549936954016e+17
19358.0	5.259245193439915e+17
19359.0	5.258021916289706e+17
19360.0	5.25677299306769e+17
19361.0	5.255887317543594e+17
19362.0	5.2548348548218874e+17
19363.0	5.253205188760917e+17
19364.0	5.2518339827029325e+17
19365.0	5.25070561775889e+17
19366.0	5.2495702105784314e+17
19367.0	5.2484303364642125e+17
19368.0	5.247284989482324e+17
19369.0	5.245941061080404e+17
19370.0	5.243896530119338e+17
19371.0	5.2427466980283725e+17
19372.0	5.241643103944703e+17
19373.0	5.2404275170508794e+17
19374.0	5.239258854632106e+17
19375.0	5.23806102921762e+17
19376.0	5.2368554079901e+17
19377.0	5.235620042855764e+17
19378.0	5.2343948656858445e+17
19379.0	5.233157420176726e+17
19380.0	5.231906068452692e+17
19381.0	5.23063463649826e+17
19382.0	5.2292638093257376e+17
19383.0	5.227921666998271e+17
19384.0	5.2267573338002765e+17
19385.0	5.2254447340530336e+17
19386.0	5.223496129620649e+17
19387.0	5.2219363665291936e+17
19388.0	5.2205657420813645e+17
19389.0	5.2191678441717754e+17
19390.0	5.217725459376809e+17
19391.0	5.1881022793099514e+17
19392.0	5.214515761250301e+17
19393.0	5.2133892753544525e+17
19394.0	5.2112025595849363e+17
19395.0	5.209034003753643e+17
19396.0	5.207537574652586e+17
19397.0	5.2060220349044045e+17
19398.0	5.2042680580614816e+17
19399.0	5.201034624368638e+17
19400.0	5.199243623006207e+17
19401.0	5.197640511782911e+17
19402.0	5.195861868937216e+17
19403.0	5.192729062189735e+17
19404.0	5.1899844501613216e+17
19405.0	5.18800044790033e+17
19406.0	5.1838043389515085e+17
19407.0	5.1810799525560314e+17
19408.0	5.176108792851118e+17
19409.0	5.173168115985067e+17
19410.0	5.167935266663083e+17
19411.0	5.1635239850257043e+17
19412.0	5.1566906130650445e+17
19413.0	5.149351075293867e+17
19414.0	5.1430492670525414e+17
19415.0	5.1386829700246176e+17
19416.0	5.135010213746004e+17
19417.0	5.131476418953214e+17
19418.0	5.1281366184099834e+17
19419.0	5.123828095822506e+17
19420.0	5.1198742582613325e+17
19421.0	5.1157398922635936e+17
19422.0	5.111383219066196e+17
19423.0	5.1059933524787194e+17
19424.0	5.1012419966730234e+17
19425.0	5.095699783876606e+17
19426.0	5.0899192696012794e+17
19427.0	5.083092277177002e+17
19428.0	5.075781517923669e+17
19429.0	5.0668183098490906e+17
19430.0	5.0553626918475155e+17
19431.0	5.0353863019288083e+17
19432.0	5.018311955141957e+17
19433.0	4.988745244388015e+17
19434.0	4.971762148879017e+17
19435.0	4.9556924574378656e+17
19436.0	4.9378663879147475e+17
19437.0	4.9234376626885965e+17
19438.0	4.85930134108024e+17
19439.0	4.885613479548248e+17
19440.0	4.8668833284969805e+17
19441.0	4.8473646965282106e+17
19442.0	4.826487054139392e+17
19443.0	4.80322898414797e+17
19444.0	4.769392950771706e+17
19445.0	4.6963261066007904e+17
19446.0	4.619461758462634e+17
19447.0	4.555072037978107e+17
19448.0	4.469014127094454e+17
19449.0	4.284039858312525e+17
19450.0	3.8769182942167814e+17
19451.0	3.662095219075799e+17
19452.0	4.128889257328652e+17
19453.0	4.389898256995672e+17
19454.0	4.514418953377108e+17
19455.0	4.582911085554346e+17
19456.0	4.64481809334273e+17
19457.0	4.731778821870931e+17
19458.0	4.6497081820448877e+17
19459.0	4.7995984351505376e+17
19460.0	4.821891787259902e+17
19461.0	4.8403300147527674e+17
19462.0	4.8582394579517434e+17
19463.0	4.875770456790355e+17
19464.0	4.8924059759192736e+17
19465.0	4.9075515692154874e+17
19466.0	4.921951278945619e+17
19467.0	4.9360994031370234e+17
19468.0	4.9490542960749216e+17
19469.0	4.971408156611932e+17
19470.0	4.996610962489343e+17
19471.0	5.012476933089958e+17
19472.0	5.023241229129042e+17
19473.0	5.031406948319232e+17
19474.0	5.037723835083435e+17
19475.0	5.041633403863035e+17
19476.0	5.046509756219392e+17
19477.0	5.051055240904704e+17
19478.0	5.0539490492197536e+17
19479.0	5.0569667754502803e+17
19480.0	5.060074121374378e+17
19481.0	5.0623747104003405e+17
19482.0	5.064554216161279e+17
19483.0	5.0667519482702496e+17
19484.0	5.0688931194907296e+17
19485.0	5.070489565265918e+17
19486.0	5.071825186149717e+17
19487.0	5.073481293103104e+17
19488.0	5.077500189212671e+17
19489.0	5.082673057890304e+17
19490.0	5.0847837001700634e+17
19491.0	5.0905381838957216e+17
19492.0	5.0942653382000634e+17
19493.0	5.0955887606497274e+17
19494.0	5.0989635815342035e+17
19495.0	5.0994961994219514e+17
19496.0	5.1006570003169254e+17
19497.0	5.1022827817533434e+17
19498.0	5.0998882221424666e+17
19499.0	5.0589397795471014e+17
19500.0	5.1042322278427296e+17
19501.0	5.104131888207188e+17
19502.0	5.103940952304299e+17
19503.0	5.1052541721094816e+17
19504.0	5.105040988220074e+17
19505.0	5.104730462224383e+17
19506.0	5.1044156230860794e+17
19507.0	5.1040174095728634e+17
19508.0	5.104266782616233e+17
19509.0	5.1043591495789216e+17
19510.0	5.1035405430729376e+17
19511.0	5.019442457782892e+17
19512.0	5.096392924768921e+17
19513.0	5.089628936383125e+17
19514.0	5.092874193818953e+17
19515.0	5.1004152273524064e+17
19516.0	5.1007764219385165e+17
19517.0	5.1008146767871994e+17
19518.0	5.100372409800019e+17
19519.0	5.0997358144170656e+17
19520.0	5.0989472831679136e+17
19521.0	5.098569258237951e+17
19522.0	5.0978421644547405e+17
19523.0	5.097199873206954e+17
19524.0	5.096429901753003e+17
19525.0	5.095889044155051e+17
19526.0	5.095219429812906e+17
19527.0	5.0945086777371296e+17
19528.0	5.0937777720306336e+17
19529.0	5.093045629703509e+17
19530.0	5.092366630606164e+17
19531.0	5.0916330363508045e+17
19532.0	5.0908920552270496e+17
19533.0	5.09019775181346e+17
19534.0	5.089813745106942e+17
19535.0	5.08937330893346e+17
19536.0	5.0887122810306554e+17
19537.0	5.0879903140850336e+17
19538.0	5.086884415231317e+17
19539.0	5.0855977740315334e+17
19540.0	5.085652135706624e+17
19541.0	5.085487563101525e+17
19542.0	5.0847088849715194e+17
19543.0	5.083713931750058e+17
19544.0	5.083105638132394e+17
19545.0	5.081647600194899e+17
19546.0	5.0801661538467834e+17
19547.0	5.0806813478966605e+17
19548.0	5.079860079405739e+17
19549.0	5.078901139177471e+17
19550.0	5.078203819360255e+17
19551.0	5.0779088912820896e+17
19552.0	5.0770911914448205e+17
19553.0	5.0762215465506125e+17
19554.0	5.0753531417722874e+17
19555.0	5.0745233979910816e+17
19556.0	5.07370771771119e+17
19557.0	5.0728665731126605e+17
19558.0	5.072017994110293e+17
19559.0	5.071168651045545e+17
19560.0	5.0702043574872736e+17
19561.0	5.069422495181481e+17
19562.0	5.0685153315389434e+17
19563.0	5.067743207707989e+17
19564.0	5.0668812943141536e+17
19565.0	5.066017561291434e+17
19566.0	5.065126462532266e+17
19567.0	5.0646658293869216e+17
19568.0	5.0638410684388685e+17
19569.0	5.0629720946333005e+17
19570.0	5.0621289996834125e+17
19571.0	5.061250526478335e+17
19572.0	5.060338231803903e+17
19573.0	5.05945619903283e+17
19574.0	5.0585010308819616e+17
19575.0	5.057756293059924e+17
19576.0	5.056857825607679e+17
19577.0	5.0559248697917434e+17
19578.0	5.055058544689151e+17
19579.0	5.054198246801407e+17
19580.0	5.053318561442474e+17
19581.0	5.052446096577877e+17
19582.0	5.051587839918078e+17
19583.0	5.050703124889598e+17
19584.0	5.049802990900564e+17
19585.0	5.048777715657387e+17
19586.0	5.0478480048346445e+17
19587.0	5.047035634559658e+17
19588.0	5.0455992252497926e+17
19589.0	5.0453473447116794e+17
19590.0	5.04431195979776e+17
19591.0	5.043586328428543e+17
19592.0	5.042704091534676e+17
19593.0	5.041769542582271e+17
19594.0	5.040567971654313e+17
19595.0	5.0399908899498656e+17
19596.0	5.038628983362901e+17
19597.0	5.03822305932083e+17
19598.0	5.0366660882377363e+17
19599.0	5.0364513419700896e+17
19600.0	5.035570001259179e+17
19601.0	5.0345819497649485e+17
19602.0	5.0337231359617696e+17
19603.0	5.0323127418224614e+17
19604.0	5.0322186796619085e+17
19605.0	5.030993820560041e+17
19606.0	5.0305043928186874e+17
19607.0	5.029620044791807e+17
19608.0	5.028698944875178e+17
19609.0	5.027751934645588e+17
19610.0	5.026822734129834e+17
19611.0	5.025866898385578e+17
19612.0	5.0251342121970336e+17
19613.0	5.024221892356777e+17
19614.0	5.023285119025151e+17
19615.0	5.022434519766356e+17
19616.0	5.021185336497493e+17
19617.0	5.020474353035946e+17
19618.0	5.018900871774207e+17
19619.0	5.0177652073431014e+17
19620.0	5.016908093631145e+17
19621.0	5.016830218687828e+17
19622.0	5.0161469302155936e+17
19623.0	5.015235835112106e+17
19624.0	5.014301553896106e+17
19625.0	5.013446503082666e+17
19626.0	5.012539153492649e+17
19627.0	5.0116362624477856e+17
19628.0	5.010259470275925e+17
19629.0	5.0091688372906656e+17
19630.0	5.007810689499136e+17
19631.0	4.987143817876818e+17
19632.0	5.0070542104221e+17
19633.0	5.0061336131229005e+17
19634.0	5.005340688340308e+17
19635.0	5.004367458118314e+17
19636.0	5.003302106300414e+17
19637.0	5.001976464364885e+17
19638.0	5.0017125699420154e+17
19639.0	5.000835201936041e+17
19640.0	4.999823330989398e+17
19641.0	4.997329320935428e+17
19642.0	4.998121313184426e+17
19643.0	4.9972120328164685e+17
19644.0	4.996263216239957e+17
19645.0	4.995051815261523e+17
19646.0	4.994298281983998e+17
19647.0	4.9936463627113805e+17
19648.0	4.992748644641451e+17
19649.0	4.9918443135522125e+17
19650.0	4.9909527813816314e+17
19651.0	4.990047080852138e+17
19652.0	4.9891448951493965e+17
19653.0	4.98824257942323e+17
19654.0	4.987346114751146e+17
19655.0	4.9864414397289805e+17
