# Flux units: erg / (cm m2 s)
# Wavelength units: Angstrom
wave	flux
19000.0	7.031157113749504e+17
19001.0	7.029803549633193e+17
19002.0	7.028572259964243e+17
19003.0	7.027272577974272e+17
19004.0	7.025972535274153e+17
19005.0	7.024689861186899e+17
19006.0	7.02339474469683e+17
19007.0	7.021949106520063e+17
19008.0	7.020765566905002e+17
19009.0	7.01945262252578e+17
19010.0	7.01793127366656e+17
19011.0	7.016869851212458e+17
19012.0	7.015122091726163e+17
19013.0	7.014309219532799e+17
19014.0	7.012975451832319e+17
19015.0	7.011690738614271e+17
19016.0	7.010384266046122e+17
19017.0	7.009109763861161e+17
19018.0	7.007783738845865e+17
19019.0	7.006510390094506e+17
19020.0	7.005197204542803e+17
19021.0	7.003915692277759e+17
19022.0	7.002619458704723e+17
19023.0	7.001291052722857e+17
19024.0	6.999995309883391e+17
19025.0	6.998657855389693e+17
19026.0	6.997341856858111e+17
19027.0	6.995644407349247e+17
19028.0	6.994797728366592e+17
19029.0	6.993492874799785e+17
19030.0	6.992199702369619e+17
19031.0	6.990895985459199e+17
19032.0	6.989591579284819e+17
19033.0	6.988230533229225e+17
19034.0	6.98696915362338e+17
19035.0	6.985609574875135e+17
19036.0	6.954442725960358e+17
19037.0	6.983037281632255e+17
19038.0	6.981744110600191e+17
19039.0	6.980458036330493e+17
19040.0	6.979153888804863e+17
19041.0	6.977848253699412e+17
19042.0	6.976480045869738e+17
19043.0	6.975239003045885e+17
19044.0	6.973929052700671e+17
19045.0	6.972609665171455e+17
19046.0	6.971288937562111e+17
19047.0	6.970003220507306e+17
19048.0	6.968581341664595e+17
19049.0	6.967333454435667e+17
19050.0	6.966060409072297e+17
19051.0	6.960173069369338e+17
19052.0	6.962619511122601e+17
19053.0	6.9621299295901e+17
19054.0	6.960862304665599e+17
19055.0	6.959398266077183e+17
19056.0	6.95823534006818e+17
19057.0	6.95693186502929e+17
19058.0	6.955576124768255e+17
19059.0	6.954319354702505e+17
19060.0	6.953002731918676e+17
19061.0	6.951709168719188e+17
19062.0	6.950397927227391e+17
19063.0	6.949090674518697e+17
19064.0	6.947712717728425e+17
19065.0	6.946479296653994e+17
19066.0	6.945279350319785e+17
19067.0	6.944006193807359e+17
19068.0	6.942697892522666e+17
19069.0	6.941388972578132e+17
19070.0	6.9400645875357e+17
19071.0	6.938755750079146e+17
19072.0	6.937450565861375e+17
19073.0	6.936147957645311e+17
19074.0	6.934841640965459e+17
19075.0	6.93353188495633e+17
19076.0	6.932209336319997e+17
19077.0	6.930903947979434e+17
19078.0	6.929585880257876e+17
19079.0	6.928292247852371e+17
19080.0	6.926977467067049e+17
19081.0	6.925648050257919e+17
19082.0	6.924333960134655e+17
19083.0	6.922980867178495e+17
19084.0	6.921593089425407e+17
19085.0	6.920426387144703e+17
19086.0	6.918839321231359e+17
19087.0	6.916911308734464e+17
19088.0	6.916371253646676e+17
19089.0	6.914601155996329e+17
19090.0	6.913834499440639e+17
19091.0	6.912538462300842e+17
19092.0	6.911001342159529e+17
19093.0	6.909942162959017e+17
19094.0	6.908629675758932e+17
19095.0	6.907318243426303e+17
19096.0	6.90600370311441e+17
19097.0	6.904703891101012e+17
19098.0	6.903390104365738e+17
19099.0	6.902078353965055e+17
19100.0	6.900724944338943e+17
19101.0	6.899446071689215e+17
19102.0	6.898094029406207e+17
19103.0	6.896843023712255e+17
19104.0	6.895531619341652e+17
19105.0	6.894203959945898e+17
19106.0	6.89273871409698e+17
19107.0	6.891578803093503e+17
19108.0	6.890269073648297e+17
19109.0	6.886339816805713e+17
19110.0	6.887555810547027e+17
19111.0	6.886336943707476e+17
19112.0	6.885037797889364e+17
19113.0	6.883734252945407e+17
19114.0	6.882423403621033e+17
19115.0	6.881023677693951e+17
19116.0	6.879786743190868e+17
19117.0	6.878471563946665e+17
19118.0	6.876976932803924e+17
19119.0	6.873602434181798e+17
19120.0	6.874298134298623e+17
19121.0	6.873054791598079e+17
19122.0	6.87193517597218e+17
19123.0	6.870623383628457e+17
19124.0	6.869152966901759e+17
19125.0	6.867977952908627e+17
19126.0	6.866680282786473e+17
19127.0	6.864320715554815e+17
19128.0	6.863132543330985e+17
19129.0	6.86270457192994e+17
19130.0	6.861438189917524e+17
19131.0	6.860102139117567e+17
19132.0	6.858818244487849e+17
19133.0	6.857281444511743e+17
19134.0	6.855777988553385e+17
19135.0	6.854872004908372e+17
19136.0	6.85357370773777e+17
19137.0	6.852162042724351e+17
19138.0	6.850910124070227e+17
19139.0	6.849635295428607e+17
19140.0	6.848326252451155e+17
19141.0	6.847014374124202e+17
19142.0	6.845677597709652e+17
19143.0	6.844357375513939e+17
19144.0	6.843061226526036e+17
19145.0	6.841757718631763e+17
19146.0	6.840069672053418e+17
19147.0	6.839081371697151e+17
19148.0	6.837805560889343e+17
19149.0	6.836496331265364e+17
19150.0	6.835194735274666e+17
19151.0	6.833886613645993e+17
19152.0	6.832540237867689e+17
19153.0	6.831239800203945e+17
19154.0	6.829866865393663e+17
19155.0	6.828621145920852e+17
19156.0	6.827308726528681e+17
19157.0	6.82592025252113e+17
19158.0	6.822925310448978e+17
19159.0	6.823329757396991e+17
19160.0	6.822014316008788e+17
19161.0	6.82064359788817e+17
19162.0	6.815357748641795e+17
19163.0	6.817957319540735e+17
19164.0	6.816794114610516e+17
19165.0	6.815398964669097e+17
19166.0	6.814005050649257e+17
19167.0	6.812467865496234e+17
19168.0	6.811510366710441e+17
19169.0	6.810145060640084e+17
19170.0	6.808905012565332e+17
19171.0	6.80735856009762e+17
19172.0	6.80624970146338e+17
19173.0	6.804950696853503e+17
19174.0	6.803617479305897e+17
19175.0	6.802335939777876e+17
19176.0	6.801018469744639e+17
19177.0	6.799605199710889e+17
19178.0	6.798268308652031e+17
19179.0	6.79673581412898e+17
19180.0	6.795684441926313e+17
19181.0	6.794359640249684e+17
19182.0	6.793088850023763e+17
19183.0	6.791785660896595e+17
19184.0	6.790446764261375e+17
19185.0	6.789153202459987e+17
19186.0	6.787836502780585e+17
19187.0	6.786465044365311e+17
19188.0	6.785183659327487e+17
19189.0	6.783833873580032e+17
19190.0	6.782494748355241e+17
19191.0	6.781166213748052e+17
19192.0	6.779904496500735e+17
19193.0	6.778551656600918e+17
19194.0	6.777236362712404e+17
19195.0	6.77592466334242e+17
19196.0	6.774584570631508e+17
19197.0	6.773221699354623e+17
19198.0	6.771726197893801e+17
19199.0	6.746805012267002e+17
19200.0	6.752478548721672e+17
19201.0	6.767783392051197e+17
19202.0	6.766612809340244e+17
19203.0	6.765263866647891e+17
19204.0	6.763988661917012e+17
19205.0	6.762695736251732e+17
19206.0	6.761364589292201e+17
19207.0	6.759986713591807e+17
19208.0	6.758599898431487e+17
19209.0	6.757388187773609e+17
19210.0	6.756068519925076e+17
19211.0	6.754738864040617e+17
19212.0	6.753407055080106e+17
19213.0	6.751827096414889e+17
19214.0	6.750374427186516e+17
19215.0	6.749313925382141e+17
19216.0	6.748081792658088e+17
19217.0	6.746752276583764e+17
19218.0	6.744911996343635e+17
19219.0	6.74398677901858e+17
19220.0	6.742724977186131e+17
19221.0	6.741213777144489e+17
19222.0	6.740075249401855e+17
19223.0	6.738742069602986e+17
19224.0	6.737376065181012e+17
19225.0	6.735979662540797e+17
19226.0	6.734718616382122e+17
19227.0	6.733376544658771e+17
19228.0	6.732049417240575e+17
19229.0	6.730707483929257e+17
19230.0	6.729329082542762e+17
19231.0	6.727989251975849e+17
19232.0	6.726666669785087e+17
19233.0	6.72528352813602e+17
19234.0	6.723972092308138e+17
19235.0	6.722625681577299e+17
19236.0	6.721291247681536e+17
19237.0	6.719932352604841e+17
19238.0	6.718499421771092e+17
19239.0	6.717241515048959e+17
19240.0	6.715857137478313e+17
19241.0	6.71451202069026e+17
19242.0	6.713170935327401e+17
19243.0	6.711722880532479e+17
19244.0	6.710470894769491e+17
19245.0	6.709112879797588e+17
19246.0	6.707744045618516e+17
19247.0	6.706392533215914e+17
19248.0	6.705025101332479e+17
19249.0	6.703655454856531e+17
19250.0	6.702291086912169e+17
19251.0	6.700859490566143e+17
19252.0	6.699398827693395e+17
19253.0	6.698187361004201e+17
19254.0	6.696826633715711e+17
19255.0	6.695347935335764e+17
19256.0	6.694037427847167e+17
19257.0	6.692708712884905e+17
19258.0	6.691334420518227e+17
19259.0	6.689912185858729e+17
19260.0	6.688046774747133e+17
19261.0	6.687193803609427e+17
19262.0	6.68578052448802e+17
19263.0	6.684387157824852e+17
19264.0	6.682716547667284e+17
19265.0	6.681531401633791e+17
19266.0	6.680149407126868e+17
19267.0	6.678863472667305e+17
19268.0	6.67746787533346e+17
19269.0	6.676070040338431e+17
19270.0	6.674668323515049e+17
19271.0	6.673067333211476e+17
19272.0	6.671840604149076e+17
19273.0	6.669428088722771e+17
19274.0	6.668371928023037e+17
19275.0	6.667635048229546e+17
19276.0	6.66620944065058e+17
19277.0	6.664795338047487e+17
19278.0	6.663385182983508e+17
19279.0	6.661919533083304e+17
19280.0	6.660490680511144e+17
19281.0	6.659095822772905e+17
19282.0	6.657667335105193e+17
19283.0	6.655884014911487e+17
19284.0	6.654466730928809e+17
19285.0	6.653242982618451e+17
19286.0	6.65189605319202e+17
19287.0	6.650465278230527e+17
19288.0	6.640477789661856e+17
19289.0	6.628405205620022e+17
19290.0	6.646102129027753e+17
19291.0	6.644490282467327e+17
19292.0	6.643187055591423e+17
19293.0	6.641714072649727e+17
19294.0	6.640246330490879e+17
19295.0	6.638769389524308e+17
19296.0	6.637281735606271e+17
19297.0	6.635785003117225e+17
19298.0	6.634300930435753e+17
19299.0	6.632809782662483e+17
19300.0	6.631315912785919e+17
19301.0	6.629808558221994e+17
19302.0	6.628292499079167e+17
19303.0	6.62674171109922e+17
19304.0	6.625243576314537e+17
19305.0	6.623727989729962e+17
19306.0	6.62218554282257e+17
19307.0	6.620613513489066e+17
19308.0	6.619081755765417e+17
19309.0	6.616727123831465e+17
19310.0	6.614892377975465e+17
19311.0	6.614339530959529e+17
19312.0	6.612897522952873e+17
19313.0	6.611326865855828e+17
19314.0	6.588063597024609e+17
19315.0	6.587715706770796e+17
19316.0	6.606481559737684e+17
19317.0	6.60497777033216e+17
19318.0	6.603370794756777e+17
19319.0	6.601769103305385e+17
19320.0	6.600142952071168e+17
19321.0	6.59851064779298e+17
19322.0	6.59676633113122e+17
19323.0	6.594859269182804e+17
19324.0	6.593533697152339e+17
19325.0	6.591134642645674e+17
19326.0	6.590208996802559e+17
19327.0	6.58854256976418e+17
19328.0	6.586851418002772e+17
19329.0	6.585161644070227e+17
19330.0	6.583425674073427e+17
19331.0	6.581698373003945e+17
19332.0	6.579979645091839e+17
19333.0	6.578231775155539e+17
19334.0	6.576485494161408e+17
19335.0	6.574697463764308e+17
19336.0	6.572923270376106e+17
19337.0	6.571140589813759e+17
19338.0	6.569212923346941e+17
19339.0	6.567521299726333e+17
19340.0	6.565657307687594e+17
19341.0	6.563832753990314e+17
19342.0	6.561734312241833e+17
19343.0	6.560125846989482e+17
19344.0	6.558233323896831e+17
19345.0	6.555208753960274e+17
19346.0	6.553908665122815e+17
19347.0	6.55244407218722e+17
19348.0	6.550549321919146e+17
19349.0	6.548557811154943e+17
19350.0	6.546575486615551e+17
19351.0	6.544582523224063e+17
19352.0	6.542522212592297e+17
19353.0	6.540539814652585e+17
19354.0	6.538198015191721e+17
19355.0	6.535980704071679e+17
19356.0	6.533930017969492e+17
19357.0	6.531809807084202e+17
19358.0	6.529648295586473e+17
19359.0	6.52744248594705e+17
19360.0	6.525280362080937e+17
19361.0	6.523084722929664e+17
19362.0	6.5208861603485e+17
19363.0	6.518639577180841e+17
19364.0	6.516367378699604e+17
19365.0	6.514070443611476e+17
19366.0	6.51174655173154e+17
19367.0	6.509396056779433e+17
19368.0	6.507017890605737e+17
19369.0	6.504560726813353e+17
19370.0	6.502053101349545e+17
19371.0	6.49967515607586e+17
19372.0	6.49720991265587e+17
19373.0	6.494669632438272e+17
19374.0	6.492119287988224e+17
19375.0	6.489522047025151e+17
19376.0	6.486893594847914e+17
19377.0	6.484226044067839e+17
19378.0	6.481113007871316e+17
19379.0	6.478075734786047e+17
19380.0	6.475271645429759e+17
19381.0	6.472423868203008e+17
19382.0	6.469495623953065e+17
19383.0	6.466556951265279e+17
19384.0	6.46367152316962e+17
19385.0	6.460682715267072e+17
19386.0	6.457659479818239e+17
19387.0	6.454595205201919e+17
19388.0	6.45119053065967e+17
19389.0	6.447201456750591e+17
19390.0	6.443987962079914e+17
19391.0	6.415579192404614e+17
19392.0	6.436953928324433e+17
19393.0	6.434129858002943e+17
19394.0	6.430565369293484e+17
19395.0	6.425473533171028e+17
19396.0	6.421862028410879e+17
19397.0	6.418249006710783e+17
19398.0	6.414477291421695e+17
19399.0	6.408309091336191e+17
19400.0	6.404376428019711e+17
19401.0	6.400368815286953e+17
19402.0	6.394129809757523e+17
19403.0	6.388938899281236e+17
19404.0	6.383725138236756e+17
19405.0	6.376190587000147e+17
19406.0	6.370627151025496e+17
19407.0	6.361889215523498e+17
19408.0	6.353742228094976e+17
19409.0	6.345562419538605e+17
19410.0	6.333526255337471e+17
19411.0	6.321678098715992e+17
19412.0	6.308021080686591e+17
19413.0	6.294566059638781e+17
19414.0	6.285201321754623e+17
19415.0	6.277268478711124e+17
19416.0	6.268804356461908e+17
19417.0	6.26005709562402e+17
19418.0	6.251503216667305e+17
19419.0	6.242177717196116e+17
19420.0	6.232422475628543e+17
19421.0	6.22232021692143e+17
19422.0	6.21147028857378e+17
19423.0	6.200772219196756e+17
19424.0	6.189891439646036e+17
19425.0	6.178617323858602e+17
19426.0	6.166240275988479e+17
19427.0	6.153926966859094e+17
19428.0	6.139708171441492e+17
19429.0	6.125310027584852e+17
19430.0	6.108848781787136e+17
19431.0	6.086920923425457e+17
19432.0	6.070365714732375e+17
19433.0	6.04360433205248e+17
19434.0	6.008596336039245e+17
19435.0	5.962490704472756e+17
19436.0	5.929700121640956e+17
19437.0	5.903460290876755e+17
19438.0	5.843153630964403e+17
19439.0	5.839324018900993e+17
19440.0	5.804984510360234e+17
19441.0	5.765009843246417e+17
19442.0	5.717385277341697e+17
19443.0	5.656498039073455e+17
19444.0	5.572378376885587e+17
19445.0	5.491418033640791e+17
19446.0	5.405745125610835e+17
19447.0	5.2925319938921696e+17
19448.0	5.138125758136327e+17
19449.0	4.9277314360060576e+17
19450.0	4.589561566287186e+17
19451.0	4.481926282171716e+17
19452.0	4.768598567769435e+17
19453.0	5.0432835115636154e+17
19454.0	5.2182441640591264e+17
19455.0	5.347587110469632e+17
19456.0	5.442747714502658e+17
19457.0	5.5194862621818886e+17
19458.0	5.5716231421187974e+17
19459.0	5.672881076480694e+17
19460.0	5.7249235922670874e+17
19461.0	5.765976547131393e+17
19462.0	5.801186545019564e+17
19463.0	5.832996108107773e+17
19464.0	5.861973665950378e+17
19465.0	5.88895111750178e+17
19466.0	5.913887508179624e+17
19467.0	5.953031722674849e+17
19468.0	5.991985071172266e+17
19469.0	6.018956227073366e+17
19470.0	6.040420993728506e+17
19471.0	6.05741429677534e+17
19472.0	6.071721416545619e+17
19473.0	6.085084043367763e+17
19474.0	6.096541707490644e+17
19475.0	6.10705701286707e+17
19476.0	6.117370425420457e+17
19477.0	6.126920178947412e+17
19478.0	6.135578863774378e+17
19479.0	6.143967261360127e+17
19480.0	6.15242633716258e+17
19481.0	6.160474266315432e+17
19482.0	6.168054885690025e+17
19483.0	6.175211848903338e+17
19484.0	6.181916153741312e+17
19485.0	6.18824143540497e+17
19486.0	6.194254702794067e+17
19487.0	6.199974651319635e+17
19488.0	6.205351202390015e+17
19489.0	6.214548227533486e+17
19490.0	6.226234956578817e+17
19491.0	6.237218387525637e+17
19492.0	6.245684053278712e+17
19493.0	6.252197298481833e+17
19494.0	6.260290283547306e+17
19495.0	6.264503187188399e+17
19496.0	6.269640475585192e+17
19497.0	6.27310519857971e+17
19498.0	6.274546041967958e+17
19499.0	6.240587300732913e+17
19500.0	6.283751047473837e+17
19501.0	6.286143439328598e+17
19502.0	6.287716314513408e+17
19503.0	6.290422351527936e+17
19504.0	6.292787863486464e+17
19505.0	6.294097927077887e+17
19506.0	6.295322068254719e+17
19507.0	6.296873994289153e+17
19508.0	6.299117205935443e+17
19509.0	6.300062546132991e+17
19510.0	6.300826428156585e+17
19511.0	6.258226630754286e+17
19512.0	6.29604351720379e+17
19513.0	6.292432162040474e+17
19514.0	6.296750353896777e+17
19515.0	6.305148241095338e+17
19516.0	6.306379037933567e+17
19517.0	6.306931901027668e+17
19518.0	6.30750363848977e+17
19519.0	6.307984808345599e+17
19520.0	6.308440146182141e+17
19521.0	6.308891730815657e+17
19522.0	6.309263588021588e+17
19523.0	6.309613861339135e+17
19524.0	6.309978706367828e+17
19525.0	6.310798255893164e+17
19526.0	6.311014132525738e+17
19527.0	6.311186763087871e+17
19528.0	6.311318467728724e+17
19529.0	6.311424831083859e+17
19530.0	6.311498843073194e+17
19531.0	6.311537450942464e+17
19532.0	6.311546209348266e+17
19533.0	6.311524842165588e+17
19534.0	6.311472032382975e+17
19535.0	6.311387685628585e+17
19536.0	6.311263566386516e+17
19537.0	6.311153800052735e+17
19538.0	6.31092062331426e+17
19539.0	6.310496024832682e+17
19540.0	6.310578968592384e+17
19541.0	6.310362851486377e+17
19542.0	6.310113611262633e+17
19543.0	6.309836642495146e+17
19544.0	6.309551919158611e+17
19545.0	6.308959872177491e+17
19546.0	6.308392200394068e+17
19547.0	6.308548633952255e+17
19548.0	6.308170736249513e+17
19549.0	6.307717496264019e+17
19550.0	6.307360556799316e+17
19551.0	6.306960096537258e+17
19552.0	6.306812695412735e+17
19553.0	6.306327636738047e+17
19554.0	6.305832218132479e+17
19555.0	6.305340486320127e+17
19556.0	6.304828609964714e+17
19557.0	6.304289202896895e+17
19558.0	6.303738225841491e+17
19559.0	6.303170098976084e+17
19560.0	6.302574039444138e+17
19561.0	6.301978103644159e+17
19562.0	6.301386940263082e+17
19563.0	6.300764239910228e+17
19564.0	6.300129625636864e+17
19565.0	6.299485353978537e+17
19566.0	6.298817328578559e+17
19567.0	6.298160350975316e+17
19568.0	6.297464848689834e+17
19569.0	6.296785118385491e+17
19570.0	6.296088032051199e+17
19571.0	6.295372050377385e+17
19572.0	6.294633397092351e+17
19573.0	6.293903960790356e+17
19574.0	6.293118732555603e+17
19575.0	6.292420876566527e+17
19576.0	6.291658942098089e+17
19577.0	6.290879426505385e+17
19578.0	6.29008193692194e+17
19579.0	6.289302619160573e+17
19580.0	6.288505960049321e+17
19581.0	6.287705160460969e+17
19582.0	6.286901521328809e+17
19583.0	6.286080229769215e+17
19584.0	6.285236256811689e+17
19585.0	6.284348096861524e+17
19586.0	6.283472893116415e+17
19587.0	6.282578102670676e+17
19588.0	6.28158529343761e+17
19589.0	6.280982267166719e+17
19590.0	6.280071127323988e+17
19591.0	6.279253864393386e+17
19592.0	6.278373850480639e+17
19593.0	6.277474332355242e+17
19594.0	6.276437262030164e+17
19595.0	6.275670220297556e+17
19596.0	6.272776801353728e+17
19597.0	6.273816372882089e+17
19598.0	6.272775234082131e+17
19599.0	6.272055908149929e+17
19600.0	6.271133051518975e+17
19601.0	6.27016316625442e+17
19602.0	6.269239203725311e+17
19603.0	6.267717389298345e+17
19604.0	6.267310775992319e+17
19605.0	6.266266599817215e+17
19606.0	6.265494510239743e+17
19607.0	6.264542754854228e+17
19608.0	6.263578229211136e+17
19609.0	6.262589663914666e+17
19610.0	6.261651791675391e+17
19611.0	6.260677225567571e+17
19612.0	6.259713627564714e+17
19613.0	6.258730633003007e+17
19614.0	6.257731621792426e+17
19615.0	6.256765349221716e+17
19616.0	6.255552713020756e+17
19617.0	6.254788385002835e+17
19618.0	6.253466447336788e+17
19619.0	6.25239479427618e+17
19620.0	6.251410856695124e+17
19621.0	6.250799922763091e+17
19622.0	6.249804044697599e+17
19623.0	6.248796937781247e+17
19624.0	6.247786911629312e+17
19625.0	6.246772547867988e+17
19626.0	6.245756939796479e+17
19627.0	6.244731070360233e+17
19628.0	6.24313207025391e+17
19629.0	6.242589335005866e+17
19630.0	6.239905527103489e+17
19631.0	6.215011963065688e+17
19632.0	6.239546696007679e+17
19633.0	6.23853063704849e+17
19634.0	6.23755407794722e+17
19635.0	6.236498408680106e+17
19636.0	6.235481914212351e+17
19637.0	6.234212552845996e+17
19638.0	6.23340833350178e+17
19639.0	6.232363222695935e+17
19640.0	6.231267933334185e+17
19641.0	6.22984627888674e+17
19642.0	6.229238684319744e+17
19643.0	6.22817732268305e+17
19644.0	6.227102588207103e+17
19645.0	6.225925988767059e+17
19646.0	6.225027657629695e+17
19647.0	6.223982898446336e+17
19648.0	6.222927739486208e+17
19649.0	6.221868969230336e+17
19650.0	6.220812123460948e+17
19651.0	6.219752272472746e+17
19652.0	6.218691112162644e+17
19653.0	6.217616187544915e+17
19654.0	6.216565059310932e+17
19655.0	6.215497401324883e+17
19656.0	6.214430062804991e+17
19657.0	6.213367065389738e+17
19658.0	6.212298803423914e+17
19659.0	6.21122845479185e+17
19660.0	6.210159016323753e+17
19661.0	6.209087486995114e+17
19662.0	6.208014795145215e+17
19663.0	6.206902234338644e+17
19664.0	6.205770652363433e+17
19665.0	6.204791470424063e+17
