# Flux units: erg / (cm m2 s)
# Wavelength units: Angstrom
wave	flux
19000.0	8.7175951548416e+17
19001.0	8.715846959147688e+17
19002.0	8.714496738590719e+17
19003.0	8.712930922419539e+17
19004.0	8.711367940199762e+17
19005.0	8.709821777139028e+17
19006.0	8.708266160117075e+17
19007.0	8.706027806872919e+17
19008.0	8.705015054423379e+17
19009.0	8.703463157749075e+17
19010.0	8.701148974284797e+17
19011.0	8.700369819402237e+17
19012.0	8.697936389079036e+17
19013.0	8.697291457516883e+17
19014.0	8.695587262868137e+17
19015.0	8.694075880374271e+17
19016.0	8.692491360403455e+17
19017.0	8.690820071467689e+17
19018.0	8.689351774262611e+17
19019.0	8.687816984756221e+17
19020.0	8.686164024928937e+17
19021.0	8.684641315018067e+17
19022.0	8.683089190453245e+17
19023.0	8.681416591496531e+17
19024.0	8.679878839413416e+17
19025.0	8.678232651988991e+17
19026.0	8.676613481474728e+17
19027.0	8.674344231589204e+17
19028.0	8.673553834573821e+17
19029.0	8.671923470860288e+17
19030.0	8.670391719428093e+17
19031.0	8.668809476964352e+17
19032.0	8.667211514249213e+17
19033.0	8.665428909883391e+17
19034.0	8.663959724883967e+17
19035.0	8.662238301432489e+17
19036.0	8.6087756334585e+17
19037.0	8.659113849738579e+17
19038.0	8.657541888912042e+17
19039.0	8.655990442426365e+17
19040.0	8.654398880219135e+17
19041.0	8.652774896041981e+17
19042.0	8.650997312258047e+17
19043.0	8.64958213591313e+17
19044.0	8.647941705869994e+17
19045.0	8.646325049141928e+17
19046.0	8.644626522395987e+17
19047.0	8.643111208441174e+17
19048.0	8.641115109807446e+17
19049.0	8.639754877446825e+17
19050.0	8.63817308237551e+17
19051.0	8.627955920011249e+17
19052.0	8.633788689722028e+17
19053.0	8.633260976373757e+17
19054.0	8.631821303895382e+17
19055.0	8.629683207099734e+17
19056.0	8.628524274767186e+17
19057.0	8.626929742992724e+17
19058.0	8.625142021576019e+17
19059.0	8.623707424205481e+17
19060.0	8.622037731901439e+17
19061.0	8.620471313148588e+17
19062.0	8.618837326954493e+17
19063.0	8.617214640215379e+17
19064.0	8.615326820335613e+17
19065.0	8.613578238765736e+17
19066.0	8.612196163867987e+17
19067.0	8.6106746926749e+17
19068.0	8.609074149064703e+17
19069.0	8.60744614954052e+17
19070.0	8.605751382289066e+17
19071.0	8.604137549725693e+17
19072.0	8.602541144495443e+17
19073.0	8.600896204177408e+17
19074.0	8.599281907444392e+17
19075.0	8.5976464504477e+17
19076.0	8.595968119275517e+17
19077.0	8.59435397633365e+17
19078.0	8.59263162873719e+17
19079.0	8.591089795596285e+17
19080.0	8.589423116200617e+17
19081.0	8.58772320952866e+17
19082.0	8.586072355241981e+17
19083.0	8.584254885025107e+17
19084.0	8.582342636120746e+17
19085.0	8.581194706845692e+17
19086.0	8.578617852297213e+17
19087.0	8.576447929122816e+17
19088.0	8.575824313013586e+17
19089.0	8.573424786647724e+17
19090.0	8.57282633216819e+17
19091.0	8.571260928436905e+17
19092.0	8.569238862867113e+17
19093.0	8.568056471792298e+17
19094.0	8.566410737352705e+17
19095.0	8.564761014130003e+17
19096.0	8.56310397604113e+17
19097.0	8.561490922220204e+17
19098.0	8.559839851227818e+17
19099.0	8.558185814862504e+17
19100.0	8.556453414917458e+17
19101.0	8.554864149790717e+17
19102.0	8.553081422391974e+17
19103.0	8.551576097871187e+17
19104.0	8.54993447105331e+17
19105.0	8.54825198752017e+17
19106.0	8.54632634200883e+17
19107.0	8.544886970122239e+17
19108.0	8.543224742281213e+17
19109.0	8.535757118155427e+17
19110.0	8.539597013254143e+17
19111.0	8.538290056942932e+17
19112.0	8.536675644167507e+17
19113.0	8.535025452580864e+17
19114.0	8.533355518405289e+17
19115.0	8.531500377746093e+17
19116.0	8.529991630673236e+17
19117.0	8.528306466979839e+17
19118.0	8.526298863370237e+17
19119.0	8.521316451046735e+17
19120.0	8.522875085171365e+17
19121.0	8.521392447640914e+17
19122.0	8.52006622269713e+17
19123.0	8.518386245959679e+17
19124.0	8.516381070852095e+17
19125.0	8.515024483341651e+17
19126.0	8.513362101709482e+17
19127.0	8.50853289752439e+17
19128.0	8.506016503868069e+17
19129.0	8.508199077063337e+17
19130.0	8.506684460761084e+17
19131.0	8.504902566630739e+17
19132.0	8.503362750950058e+17
19133.0	8.500495362555907e+17
19134.0	8.498125157171203e+17
19135.0	8.498329377832957e+17
19136.0	8.496678270489939e+17
19137.0	8.494677148478122e+17
19138.0	8.493133432094719e+17
19139.0	8.491627128902996e+17
19140.0	8.489976306772649e+17
19141.0	8.488303758147583e+17
19142.0	8.486553455514966e+17
19143.0	8.484837048451073e+17
19144.0	8.483177088330412e+17
19145.0	8.481548381366954e+17
19146.0	8.478595136968022e+17
19147.0	8.478049439842303e+17
19148.0	8.476497446699007e+17
19149.0	8.474806545197737e+17
19150.0	8.473137051424083e+17
19151.0	8.471459015251284e+17
19152.0	8.469704953124182e+17
19153.0	8.468051160028498e+17
19154.0	8.466150335010132e+17
19155.0	8.46467163173683e+17
19156.0	8.46294548549905e+17
19157.0	8.460905464113833e+17
19158.0	8.45519369028676e+17
19159.0	8.456730898508456e+17
19160.0	8.455119823000915e+17
19161.0	8.453058409267199e+17
19162.0	8.442821701446323e+17
19163.0	8.449642452047188e+17
19164.0	8.448463044520618e+17
19165.0	8.446663140048893e+17
19166.0	8.444765656492714e+17
19167.0	8.44253892985924e+17
19168.0	8.441488646777513e+17
19169.0	8.43980624713045e+17
19170.0	8.438274954275498e+17
19171.0	8.436217536315391e+17
19172.0	8.434809054079656e+17
19173.0	8.433171792134144e+17
19174.0	8.431386341234006e+17
19175.0	8.429789390744234e+17
19176.0	8.428058145630889e+17
19177.0	8.426036415605417e+17
19178.0	8.424375854301184e+17
19179.0	8.422351835583828e+17
19180.0	8.420838565653162e+17
19181.0	8.419261508747263e+17
19182.0	8.417662904303615e+17
19183.0	8.416013288734717e+17
19184.0	8.414114692289876e+17
19185.0	8.412581514794323e+17
19186.0	8.410892154000724e+17
19187.0	8.408968387537577e+17
19188.0	8.40738216747554e+17
19189.0	8.4055169171456e+17
19190.0	8.403730776981503e+17
19191.0	8.402055352461994e+17
19192.0	8.400407903950162e+17
19193.0	8.398321169203199e+17
19194.0	8.396732926088531e+17
19195.0	8.395128509737641e+17
19196.0	8.393274783956991e+17
19197.0	8.391273215950845e+17
19198.0	8.38835303245414e+17
19199.0	8.33634028783751e+17
19200.0	8.348121522940602e+17
19201.0	8.383307142135807e+17
19202.0	8.382600024424448e+17
19203.0	8.38099477480516e+17
19204.0	8.379398651991379e+17
19205.0	8.377358139872595e+17
19206.0	8.374822929170431e+17
19207.0	8.372931787401898e+17
19208.0	8.3710124780858e+17
19209.0	8.369547460826451e+17
19210.0	8.367825534058493e+17
19211.0	8.366084302307327e+17
19212.0	8.364299774154067e+17
19213.0	8.361947878304426e+17
19214.0	8.359864308858879e+17
19215.0	8.358759355820713e+17
19216.0	8.357191129322834e+17
19217.0	8.355433120355668e+17
19218.0	8.352107410576722e+17
19219.0	8.351528609207634e+17
19220.0	8.350015191078228e+17
19221.0	8.347641210819927e+17
19222.0	8.346509285610838e+17
19223.0	8.344677504428713e+17
19224.0	8.342786547209556e+17
19225.0	8.340826644021245e+17
19226.0	8.339260574793727e+17
19227.0	8.337449144374612e+17
19228.0	8.335711344962217e+17
19229.0	8.333819797744296e+17
19230.0	8.331679641545386e+17
19231.0	8.329900405205673e+17
19232.0	8.326849434921641e+17
19233.0	8.324766914052096e+17
19234.0	8.323042892928338e+17
19235.0	8.321185958505128e+17
19236.0	8.319427556671488e+17
19237.0	8.31754952909346e+17
19238.0	8.315485527474173e+17
19239.0	8.313885445237417e+17
19240.0	8.311734676051283e+17
19241.0	8.310040972754943e+17
19242.0	8.308291892062889e+17
19243.0	8.306090812200275e+17
19244.0	8.304613709753002e+17
19245.0	8.302731879339348e+17
19246.0	8.300836341940221e+17
19247.0	8.298979002067625e+17
19248.0	8.297102262140927e+17
19249.0	8.29520552796706e+17
19250.0	8.292569399514451e+17
19251.0	8.290298506859858e+17
19252.0	8.287993082500436e+17
19253.0	8.28668926492672e+17
19254.0	8.284774053445631e+17
19255.0	8.28249820312371e+17
19256.0	8.280811111448575e+17
19257.0	8.279045759653203e+17
19258.0	8.277126137162412e+17
19259.0	8.275034127379113e+17
19260.0	8.272469671193256e+17
19261.0	8.271274139364012e+17
19262.0	8.269228454270292e+17
19263.0	8.267289951819091e+17
19264.0	8.264488823641427e+17
19265.0	8.263122969515347e+17
19266.0	8.261263561850879e+17
19267.0	8.259501420096168e+17
19268.0	8.257496102382249e+17
19269.0	8.25549153125444e+17
19270.0	8.253467599219369e+17
19271.0	8.250862761672707e+17
19272.0	8.24936668139793e+17
19273.0	8.239087644661069e+17
19274.0	8.240721066022221e+17
19275.0	8.243351100151123e+17
19276.0	8.24128100980053e+17
19277.0	8.239230599124308e+17
19278.0	8.237178636555604e+17
19279.0	8.234944720885075e+17
19280.0	8.232882652839933e+17
19281.0	8.230933478681256e+17
19282.0	8.228826971985236e+17
19283.0	8.22609253044497e+17
19284.0	8.223074319073276e+17
19285.0	8.222164852757846e+17
19286.0	8.220341792931837e+17
19287.0	8.218277689251155e+17
19288.0	8.202951280208543e+17
19289.0	8.180837954617286e+17
19290.0	8.211817402728448e+17
19291.0	8.20912451275981e+17
19292.0	8.207481740896937e+17
19293.0	8.205272928135849e+17
19294.0	8.203055273781928e+17
19295.0	8.200496099622911e+17
19296.0	8.198221975956137e+17
19297.0	8.195921658860884e+17
19298.0	8.193674626203647e+17
19299.0	8.191471941320701e+17
19300.0	8.189188109238271e+17
19301.0	8.18687880794385e+17
19302.0	8.184557592029866e+17
19303.0	8.182088166189736e+17
19304.0	8.179831323055446e+17
19305.0	8.177532977283071e+17
19306.0	8.175146412714666e+17
19307.0	8.172651000365055e+17
19308.0	8.170277604513108e+17
19309.0	8.166331264969382e+17
19310.0	8.16303860630596e+17
19311.0	8.162828808617981e+17
19312.0	8.160637957264723e+17
19313.0	8.158113839098537e+17
19314.0	8.138583297403558e+17
19315.0	8.136964245727939e+17
19316.0	8.150447769867603e+17
19317.0	8.148084458520575e+17
19318.0	8.145527445826217e+17
19319.0	8.142978639986684e+17
19320.0	8.13978300256529e+17
19321.0	8.137107584669012e+17
19322.0	8.134100182018728e+17
19323.0	8.131010687052457e+17
19324.0	8.128947081095849e+17
19325.0	8.12519964942882e+17
19326.0	8.12355332079616e+17
19327.0	8.120889462401705e+17
19328.0	8.118162783120042e+17
19329.0	8.115371561888425e+17
19330.0	8.112477982861992e+17
19331.0	8.10961661329408e+17
19332.0	8.1067999508125e+17
19333.0	8.1038663511354e+17
19334.0	8.100600766704297e+17
19335.0	8.097148296669864e+17
19336.0	8.094190892919464e+17
19337.0	8.091179434377215e+17
19338.0	8.087743376654335e+17
19339.0	8.085016730927101e+17
19340.0	8.081813127124308e+17
19341.0	8.078703407224147e+17
19342.0	8.074757460546898e+17
19343.0	8.072257758822397e+17
19344.0	8.068172480162473e+17
19345.0	8.061079700985166e+17
19346.0	8.059740634480639e+17
19347.0	8.057458797488808e+17
19348.0	8.054135338653011e+17
19349.0	8.050565541352786e+17
19350.0	8.047060846641152e+17
19351.0	8.042835604056745e+17
19352.0	8.038075653423101e+17
19353.0	8.03454246121199e+17
19354.0	8.030811625007786e+17
19355.0	8.02685339041792e+17
19356.0	8.023176139243519e+17
19357.0	8.01781598650368e+17
19358.0	8.013043754947924e+17
19359.0	8.008720803255636e+17
19360.0	8.004952627959124e+17
19361.0	8.00046956010974e+17
19362.0	7.993831270121471e+17
19363.0	7.989528431514964e+17
19364.0	7.985152434459987e+17
19365.0	7.979709442818045e+17
19366.0	7.97293142937873e+17
19367.0	7.968302946407764e+17
19368.0	7.963255944598862e+17
19369.0	7.954749178860883e+17
19370.0	7.949215755228498e+17
19371.0	7.942953936180564e+17
19372.0	7.935513723229523e+17
19373.0	7.930057820121772e+17
19374.0	7.922453201638739e+17
19375.0	7.91707565372211e+17
19376.0	7.911613510888106e+17
19377.0	7.906029475987455e+17
19378.0	7.900216645997906e+17
19379.0	7.894274383981225e+17
19380.0	7.888411964735488e+17
19381.0	7.882430737634646e+17
19382.0	7.876220688880979e+17
19383.0	7.869986553637545e+17
19384.0	7.863852859391997e+17
19385.0	7.857412009274026e+17
19386.0	7.8507909578752e+17
19387.0	7.843541805258066e+17
19388.0	7.83648988139793e+17
19389.0	7.829411281764352e+17
19390.0	7.822141509948755e+17
19391.0	7.780205601663606e+17
19392.0	7.806744500983121e+17
19393.0	7.798463534202879e+17
19394.0	7.790466133131265e+17
19395.0	7.782227533015721e+17
19396.0	7.773822125430099e+17
19397.0	7.764014292183721e+17
19398.0	7.755088563011581e+17
19399.0	7.745118200485202e+17
19400.0	7.734950372922711e+17
19401.0	7.725201430500692e+17
19402.0	7.714020787574099e+17
19403.0	7.702738442562217e+17
19404.0	7.69077372343637e+17
19405.0	7.67843280879616e+17
19406.0	7.665074846739117e+17
19407.0	7.652361925296127e+17
19408.0	7.635988949325142e+17
19409.0	7.622824625700861e+17
19410.0	7.607271748009983e+17
19411.0	7.58943216513843e+17
19412.0	7.571210957925034e+17
19413.0	7.55338545812821e+17
19414.0	7.537713746018301e+17
19415.0	7.522476920318634e+17
19416.0	7.506371626227027e+17
19417.0	7.489732057497599e+17
19418.0	7.472941669984936e+17
19419.0	7.455252313101651e+17
19420.0	7.436641719287807e+17
19421.0	7.417326381738668e+17
19422.0	7.397200950722557e+17
19423.0	7.3761733752477e+17
19424.0	7.354250401153024e+17
19425.0	7.33113428877858e+17
19426.0	7.305934454565544e+17
19427.0	7.279382650770772e+17
19428.0	7.251219392582995e+17
19429.0	7.220950757365074e+17
19430.0	7.188561089178287e+17
19431.0	7.150829862999386e+17
19432.0	7.11948048426598e+17
19433.0	7.083647349817344e+17
19434.0	7.048092825507156e+17
19435.0	7.009525557799592e+17
19436.0	6.96836816896e+17
19437.0	6.927273682796543e+17
19438.0	6.86514495291392e+17
19439.0	6.831409194860547e+17
19440.0	6.779323306475519e+17
19441.0	6.723350644654075e+17
19442.0	6.663753159060141e+17
19443.0	6.600882786751827e+17
19444.0	6.534484224638971e+17
19445.0	6.463857687352663e+17
19446.0	6.38913858170607e+17
19447.0	6.310409322976594e+17
19448.0	6.22675877411772e+17
19449.0	6.130596434673663e+17
19450.0	5.970928817842824e+17
19451.0	5.86426443121734e+17
19452.0	6.062733238381228e+17
19453.0	6.178552041613998e+17
19454.0	6.263832659187026e+17
19455.0	6.342414851637247e+17
19456.0	6.416754067286701e+17
19457.0	6.486993298347345e+17
19458.0	6.547786415734792e+17
19459.0	6.615036196465325e+17
19460.0	6.673593233921362e+17
19461.0	6.729068437307392e+17
19462.0	6.780392078748333e+17
19463.0	6.828739837034493e+17
19464.0	6.873969922321065e+17
19465.0	6.915228291126614e+17
19466.0	6.953358963944104e+17
19467.0	6.990176759491241e+17
19468.0	7.024276769778348e+17
19469.0	7.056343726817279e+17
19470.0	7.090124844171263e+17
19471.0	7.122140818046972e+17
19472.0	7.15206884222566e+17
19473.0	7.180395742582102e+17
19474.0	7.206892378696362e+17
19475.0	7.230795360676518e+17
19476.0	7.254038743613437e+17
19477.0	7.275073435424084e+17
19478.0	7.295184303816701e+17
19479.0	7.313278353713833e+17
19480.0	7.331245974705491e+17
19481.0	7.347730629612883e+17
19482.0	7.364139781455872e+17
19483.0	7.379221159258794e+17
19484.0	7.39368405058628e+17
19485.0	7.407696360417961e+17
19486.0	7.420806127332009e+17
19487.0	7.433372854910973e+17
19488.0	7.44543883572019e+17
19489.0	7.459505512120323e+17
19490.0	7.473973358318931e+17
19491.0	7.489803447347878e+17
19492.0	7.502687163645953e+17
19493.0	7.515428865004884e+17
19494.0	7.526812426960892e+17
19495.0	7.537021248252585e+17
19496.0	7.547840922386433e+17
19497.0	7.556795806165674e+17
19498.0	7.564245488457048e+17
19499.0	7.524308874865288e+17
19500.0	7.583712205428049e+17
19501.0	7.590539922767871e+17
19502.0	7.598085724525906e+17
19503.0	7.604945489144488e+17
19504.0	7.610864597204991e+17
19505.0	7.617297727007402e+17
19506.0	7.623364394876927e+17
19507.0	7.628584773834067e+17
19508.0	7.633642106213714e+17
19509.0	7.638840137919144e+17
19510.0	7.643712993624063e+17
19511.0	7.607497098177174e+17
19512.0	7.644499270434797e+17
19513.0	7.640949334562107e+17
19514.0	7.649377328474779e+17
19515.0	7.663654789622444e+17
19516.0	7.668752693504681e+17
19517.0	7.672161853156009e+17
19518.0	7.675562908013908e+17
19519.0	7.678733351649279e+17
19520.0	7.681785489347923e+17
19521.0	7.684793189793792e+17
19522.0	7.687580727028394e+17
19523.0	7.690393259518634e+17
19524.0	7.693306399380819e+17
19525.0	7.695842777497599e+17
19526.0	7.698329567756288e+17
19527.0	7.700680868014762e+17
19528.0	7.703997407647057e+17
19529.0	7.707531529595561e+17
19530.0	7.709892008389293e+17
19531.0	7.715819973421738e+17
19532.0	7.717682666624339e+17
19533.0	7.720894246595244e+17
19534.0	7.724734284300287e+17
19535.0	7.726270134965587e+17
19536.0	7.728209850968742e+17
19537.0	7.73225621487616e+17
19538.0	7.733460400952659e+17
19539.0	7.733968458394285e+17
19540.0	7.736751497936896e+17
19541.0	7.739626023638355e+17
19542.0	7.74078259877205e+17
19543.0	7.74175606317602e+17
19544.0	7.742665047146496e+17
19545.0	7.744161405643433e+17
19546.0	7.744867146224982e+17
19547.0	7.747043493675007e+17
19548.0	7.747724570350931e+17
19549.0	7.748144207669928e+17
19550.0	7.748912559423488e+17
19551.0	7.750768737473878e+17
19552.0	7.751476733192873e+17
19553.0	7.751860263146834e+17
19554.0	7.752207168438271e+17
19555.0	7.752592766184105e+17
19556.0	7.75292152132403e+17
19557.0	7.753173948519764e+17
19558.0	7.753871957600936e+17
19559.0	7.754738148485802e+17
19560.0	7.754846743210664e+17
19561.0	7.754953958009513e+17
19562.0	7.755063511831892e+17
19563.0	7.75510775754479e+17
19564.0	7.755106461504851e+17
19565.0	7.75505856954368e+17
19566.0	7.754933589071187e+17
19567.0	7.754883309152936e+17
19568.0	7.754936667690322e+17
19569.0	7.755397630088531e+17
19570.0	7.755250430989654e+17
19571.0	7.755027229704191e+17
19572.0	7.754714734482772e+17
19573.0	7.754485219371688e+17
19574.0	7.754035164960083e+17
19575.0	7.753904157272745e+17
19576.0	7.753566001299455e+17
19577.0	7.753151142690815e+17
19578.0	7.752749005406208e+17
19579.0	7.752359123877887e+17
19580.0	7.751937074834089e+17
19581.0	7.751516738464425e+17
19582.0	7.751081382292138e+17
19583.0	7.750596606033919e+17
19584.0	7.750574496459433e+17
19585.0	7.749905868477778e+17
19586.0	7.749248229572608e+17
19587.0	7.748727772370259e+17
19588.0	7.747590119140012e+17
19589.0	7.747747848738131e+17
19590.0	7.74709332480273e+17
19591.0	7.746615079075839e+17
19592.0	7.745995748147199e+17
19593.0	7.745290933108735e+17
19594.0	7.744121821200383e+17
19595.0	7.743906247955795e+17
19596.0	7.733905981440008e+17
19597.0	7.742399399504554e+17
19598.0	7.741369711853567e+17
19599.0	7.741057004120745e+17
19600.0	7.740313272931667e+17
19601.0	7.73940853219874e+17
19602.0	7.738658780785322e+17
19603.0	7.736436065304573e+17
19604.0	7.73693517210146e+17
19605.0	7.73572131955234e+17
19606.0	7.73546132303599e+17
19607.0	7.734639731583657e+17
19608.0	7.733739579419304e+17
19609.0	7.732794057468585e+17
19610.0	7.732035299486377e+17
19611.0	7.731128623781204e+17
19612.0	7.730548218789887e+17
19613.0	7.7296531668992e+17
19614.0	7.728671439716351e+17
19615.0	7.727822374174717e+17
19616.0	7.726503159311017e+17
19617.0	7.725941824421888e+17
19618.0	7.724054930085203e+17
19619.0	7.722827468417705e+17
19620.0	7.721896556625917e+17
19621.0	7.722055450842451e+17
19622.0	7.721087668322303e+17
19623.0	7.720091273658365e+17
19624.0	7.719064038277119e+17
19625.0	7.718067726101162e+17
19626.0	7.717023169642496e+17
19627.0	7.715979682731348e+17
19628.0	7.713675564198572e+17
19629.0	7.713598801444861e+17
19630.0	7.709102479594836e+17
19631.0	7.657829870250662e+17
19632.0	7.710433979574952e+17
19633.0	7.709545290443432e+17
19634.0	7.708636089767254e+17
19635.0	7.707490053521408e+17
19636.0	7.706478591519402e+17
19637.0	7.704563410796544e+17
19638.0	7.704324163502079e+17
19639.0	7.703176190885888e+17
19640.0	7.701985928500564e+17
19641.0	7.700127159768408e+17
19642.0	7.699886436078932e+17
19643.0	7.698734343258111e+17
19644.0	7.697545167197523e+17
19645.0	7.696055972571816e+17
19646.0	7.695402666382676e+17
19647.0	7.694263743676415e+17
19648.0	7.693109243325097e+17
19649.0	7.691955300816212e+17
19650.0	7.690816913582762e+17
19651.0	7.689644732841981e+17
19652.0	7.688476673703935e+17
19653.0	7.687305394738515e+17
19654.0	7.686137269889705e+17
19655.0	7.685595663608489e+17
19656.0	7.684535518319955e+17
19657.0	7.683348105265148e+17
19658.0	7.682169630272169e+17
19659.0	7.680983261599059e+17
19660.0	7.679791540994047e+17
19661.0	7.678593013033641e+17
19662.0	7.677389952428713e+17
19663.0	7.676063545731753e+17
19664.0	7.674730382011049e+17
19665.0	7.673764191928317e+17
19666.0	7.672514483672404e+17
