# Flux units: erg / (cm m2 s)
# Wavelength units: Angstrom
wave	flux
19000.0	5.0959954459579725e+17
19001.0	5.0949704755008845e+17
19002.0	5.094109720434004e+17
19003.0	5.0931609625777485e+17
19004.0	5.092215073625428e+17
19005.0	5.091273130115071e+17
19006.0	5.090337245276841e+17
19007.0	5.0893258629666125e+17
19008.0	5.0884021122498554e+17
19009.0	5.087390992083625e+17
19010.0	5.0861921530456736e+17
19011.0	5.085561250032298e+17
19012.0	5.0843691659209376e+17
19013.0	5.0837543445681485e+17
19014.0	5.082769513600341e+17
19015.0	5.0818393071506765e+17
19016.0	5.0808822312905376e+17
19017.0	5.0799864181336736e+17
19018.0	5.0790276316965536e+17
19019.0	5.0780978600564045e+17
19020.0	5.0771439627796474e+17
19021.0	5.0762185280498336e+17
19022.0	5.0752753884637856e+17
19023.0	5.0743093682503674e+17
19024.0	5.0733807067026765e+17
19025.0	5.0724346073361056e+17
19026.0	5.071470010389844e+17
19027.0	5.070325265989632e+17
19028.0	5.069635741985449e+17
19029.0	5.0686841942179834e+17
19030.0	5.067762782524757e+17
19031.0	5.0668251144082765e+17
19032.0	5.0658802362832205e+17
19033.0	5.064870042359125e+17
19034.0	5.0639952258880845e+17
19035.0	5.062974760113492e+17
19036.0	5.0430026001503584e+17
19037.0	5.0611663272236365e+17
19038.0	5.060229528027135e+17
19039.0	5.059310357490346e+17
19040.0	5.0583718211529376e+17
19041.0	5.0574226564491936e+17
19042.0	5.0563930722577056e+17
19043.0	5.055557253726207e+17
19044.0	5.0546073955642016e+17
19045.0	5.053672792085845e+17
19046.0	5.0526988844837523e+17
19047.0	5.051775505661952e+17
19048.0	5.0506888069338445e+17
19049.0	5.049818325275989e+17
19050.0	5.0489513081132365e+17
19051.0	5.045650449585491e+17
19052.0	5.046430323791189e+17
19053.0	5.0461659246537376e+17
19054.0	5.045241524518911e+17
19055.0	5.0440941314157216e+17
19056.0	5.0433473488704845e+17
19057.0	5.0424288934625254e+17
19058.0	5.0414469810312525e+17
19059.0	5.0405480948476576e+17
19060.0	5.0396104134492154e+17
19061.0	5.0386951128569165e+17
19062.0	5.03775544685363e+17
19063.0	5.03682159415569e+17
19064.0	5.035779417265493e+17
19065.0	5.0348146993834656e+17
19066.0	5.033965905772543e+17
19067.0	5.033075515850751e+17
19068.0	5.0321491073433594e+17
19069.0	5.031215646113792e+17
19070.0	5.0302629812633594e+17
19071.0	5.0293415402100045e+17
19072.0	5.0284002517101216e+17
19073.0	5.027477491548159e+17
19074.0	5.0265485510792525e+17
19075.0	5.0256153156430496e+17
19076.0	5.024666341780138e+17
19077.0	5.023732730254676e+17
19078.0	5.0227880038236154e+17
19079.0	5.0218809646120954e+17
19080.0	5.020935873975636e+17
19081.0	5.019987778120361e+17
19082.0	5.0190521386489165e+17
19083.0	5.0180735026681165e+17
19084.0	5.0170458960909645e+17
19085.0	5.0162899049512954e+17
19086.0	5.0150557170182816e+17
19087.0	5.013917446526294e+17
19088.0	5.0133913123334816e+17
19089.0	5.012185112991061e+17
19090.0	5.011611043495935e+17
19091.0	5.0106754767257594e+17
19092.0	5.0096077061925536e+17
19093.0	5.008845081761108e+17
19094.0	5.0079130319148365e+17
19095.0	5.0069825521363616e+17
19096.0	5.00604037444403e+17
19097.0	5.005122048360447e+17
19098.0	5.004182912237568e+17
19099.0	5.0032509735403514e+17
19100.0	5.002303422245546e+17
19101.0	5.001391284158464e+17
19102.0	5.000386454050132e+17
19103.0	4.9995495946321914e+17
19104.0	4.9986240557438285e+17
19105.0	4.9976678984362656e+17
19106.0	4.996679070296746e+17
19107.0	4.9958191547897165e+17
19108.0	4.9949009510399994e+17
19109.0	4.9926954944211603e+17
19110.0	4.9929773292803405e+17
19111.0	4.992116140802048e+17
19112.0	4.9911918860697594e+17
19113.0	4.9902731111956474e+17
19114.0	4.9893410865151994e+17
19115.0	4.988347568444756e+17
19116.0	4.9874783443790496e+17
19117.0	4.9865493368012794e+17
19118.0	4.9854673147221325e+17
19119.0	4.9791308657240685e+17
19120.0	4.983643275526143e+17
19121.0	4.982753477001215e+17
19122.0	4.9819418372341754e+17
19123.0	4.9810161585356794e+17
19124.0	4.9800192451761485e+17
19125.0	4.9791478736267936e+17
19126.0	4.9782338816573434e+17
19127.0	4.9757900298868045e+17
19128.0	4.9759600844472314e+17
19129.0	4.975410283195051e+17
19130.0	4.97452317811234e+17
19131.0	4.973608731060906e+17
19132.0	4.9726923504353274e+17
19133.0	4.971590004856149e+17
19134.0	4.9706660765805216e+17
19135.0	4.9699168284835834e+17
19136.0	4.969003718017023e+17
19137.0	4.967946822615039e+17
19138.0	4.9671255170744314e+17
19139.0	4.966234139394047e+17
19140.0	4.965313672118271e+17
19141.0	4.96439044289331e+17
19142.0	4.96344951230737e+17
19143.0	4.9625040665531725e+17
19144.0	4.961592628215807e+17
19145.0	4.9606988814527123e+17
19146.0	4.959307140082347e+17
19147.0	4.958747926112938e+17
19148.0	4.957922191387306e+17
19149.0	4.956996442084692e+17
19150.0	4.956091412643838e+17
19151.0	4.9551763560202234e+17
19152.0	4.954235403064661e+17
19153.0	4.953304178797226e+17
19154.0	4.952305204636329e+17
19155.0	4.951491519447038e+17
19156.0	4.9505746858366285e+17
19157.0	4.949628540332714e+17
19158.0	4.947826494668798e+17
19159.0	4.947801546249556e+17
19160.0	4.946872359714815e+17
19161.0	4.9459440861402445e+17
19162.0	4.9430548747823795e+17
19163.0	4.9440224895303674e+17
19164.0	4.9432212516372474e+17
19165.0	4.942234529038336e+17
19166.0	4.9412280869191674e+17
19167.0	4.9402764923153056e+17
19168.0	4.9395212519560525e+17
19169.0	4.938578899501055e+17
19170.0	4.9377121493756576e+17
19171.0	4.936667562857813e+17
19172.0	4.9358665437675514e+17
19173.0	4.9349532788107936e+17
19174.0	4.933996286137683e+17
19175.0	4.933126021884585e+17
19176.0	4.932212419286357e+17
19177.0	4.9311700075151354e+17
19178.0	4.930317637561001e+17
19179.0	4.929289236862293e+17
19180.0	4.928507601747968e+17
19181.0	4.927527395000319e+17
19182.0	4.926677447955796e+17
19183.0	4.9257938563017376e+17
19184.0	4.924863229023573e+17
19185.0	4.923960167410345e+17
19186.0	4.923048427782143e+17
19187.0	4.9220794135347194e+17
19188.0	4.9212095260699296e+17
19189.0	4.9202851902477645e+17
19190.0	4.9193615408933536e+17
19191.0	4.918430566187008e+17
19192.0	4.9175577622828365e+17
19193.0	4.9166302646545056e+17
19194.0	4.915713027691861e+17
19195.0	4.914814384078847e+17
19196.0	4.913886715183104e+17
19197.0	4.9129769189157536e+17
19198.0	4.912058903909717e+17
19199.0	4.8995810592249126e+17
19200.0	4.901826268758019e+17
19201.0	4.909320911891113e+17
19202.0	4.908416723408212e+17
19203.0	4.9074710057233056e+17
19204.0	4.906566627098623e+17
19205.0	4.9056689306992634e+17
19206.0	4.90475050185523e+17
19207.0	4.90374437011456e+17
19208.0	4.90276557824546e+17
19209.0	4.9020192591708154e+17
19210.0	4.901109689395881e+17
19211.0	4.900204121686015e+17
19212.0	4.89929171935778e+17
19213.0	4.898226034092714e+17
19214.0	4.897231384958293e+17
19215.0	4.8965048028801696e+17
19216.0	4.895640303697919e+17
19217.0	4.894730610890068e+17
19218.0	4.893115001339902e+17
19219.0	4.8927889704004256e+17
19220.0	4.891968289112062e+17
19221.0	4.8908179299368954e+17
19222.0	4.8901492635074554e+17
19223.0	4.8892418705762976e+17
19224.0	4.888306917572607e+17
19225.0	4.887308691395925e+17
19226.0	4.8865085475170976e+17
19227.0	4.885595965532842e+17
19228.0	4.884702507477674e+17
19229.0	4.8837914669001376e+17
19230.0	4.882862871762261e+17
19231.0	4.881948755361791e+17
19232.0	4.881044705989973e+17
19233.0	4.880088850672298e+17
19234.0	4.8792167514112e+17
19235.0	4.8783033019050656e+17
19236.0	4.8774141646820685e+17
19237.0	4.876489791111168e+17
19238.0	4.8755012943216634e+17
19239.0	4.874680830438058e+17
19240.0	4.873735799919957e+17
19241.0	4.8728309662132896e+17
19242.0	4.8719304092986016e+17
19243.0	4.8709175540886176e+17
19244.0	4.870129448561322e+17
19245.0	4.8692153125874336e+17
19246.0	4.868293618477738e+17
19247.0	4.867396817562283e+17
19248.0	4.866487481270272e+17
19249.0	4.8655661220058445e+17
19250.0	4.8646450975866874e+17
19251.0	4.863632810704895e+17
19252.0	4.8626439091650554e+17
19253.0	4.8619126455446176e+17
19254.0	4.8610166897814176e+17
19255.0	4.859982489758378e+17
19256.0	4.859144170722645e+17
19257.0	4.8582877378860365e+17
19258.0	4.857378213549396e+17
19259.0	4.856416577781759e+17
19260.0	4.855178905081172e+17
19261.0	4.8546328479443616e+17
19262.0	4.853687072238249e+17
19263.0	4.852750598100309e+17
19264.0	4.851448013651966e+17
19265.0	4.850814754837845e+17
19266.0	4.8498807651259725e+17
19267.0	4.849175151072596e+17
19268.0	4.848261261164543e+17
19269.0	4.847348373695145e+17
19270.0	4.8464322125714765e+17
19271.0	4.8452371386204154e+17
19272.0	4.8445835290432845e+17
19273.0	4.842468064012969e+17
19274.0	4.841934501008724e+17
19275.0	4.8418736675225594e+17
19276.0	4.840943971379882e+17
19277.0	4.84003480216098e+17
19278.0	4.8391214225599123e+17
19279.0	4.838180584947711e+17
19280.0	4.837231372009471e+17
19281.0	4.836373598393685e+17
19282.0	4.8354748317477536e+17
19283.0	4.834367507529727e+17
19284.0	4.8334936690305696e+17
19285.0	4.8325791856285005e+17
19286.0	4.831783324134058e+17
19287.0	4.8308944350740474e+17
19288.0	4.823698367665485e+17
19289.0	4.8174848579119674e+17
19290.0	4.82814497722641e+17
19291.0	4.827025941113513e+17
19292.0	4.8263070388060154e+17
19293.0	4.8253853412010656e+17
19294.0	4.824464704755028e+17
19295.0	4.823553174142975e+17
19296.0	4.822616121191082e+17
19297.0	4.8216901894362445e+17
19298.0	4.820771526410239e+17
19299.0	4.8198570269300045e+17
19300.0	4.8189417116576416e+17
19301.0	4.8180216001986554e+17
19302.0	4.817083972627113e+17
19303.0	4.81611831452194e+17
19304.0	4.815221522694143e+17
19305.0	4.8139750727133856e+17
19306.0	4.812772402877781e+17
19307.0	4.8118053522636794e+17
19308.0	4.8108938412250445e+17
19309.0	4.8095395144444576e+17
19310.0	4.8084969642612045e+17
19311.0	4.8080498521538554e+17
19312.0	4.807204113394346e+17
19313.0	4.8062768373650765e+17
19314.0	4.780557133152278e+17
19315.0	4.780778580519603e+17
19316.0	4.803424400965632e+17
19317.0	4.802543623689557e+17
19318.0	4.8016052313565856e+17
19319.0	4.8006806837220685e+17
19320.0	4.7997356916517536e+17
19321.0	4.798794063413247e+17
19322.0	4.797761064359251e+17
19323.0	4.7967399946048845e+17
19324.0	4.795969043780949e+17
19325.0	4.794608094893398e+17
19326.0	4.794087202881534e+17
19327.0	4.793129891441321e+17
19328.0	4.7921702116174496e+17
19329.0	4.791246150522196e+17
19330.0	4.7902639584706554e+17
19331.0	4.7893039172375885e+17
19332.0	4.788379731012266e+17
19333.0	4.787414755180543e+17
19334.0	4.7864655072897696e+17
19335.0	4.78546394943761e+17
19336.0	4.784535477332649e+17
19337.0	4.783577134792703e+17
19338.0	4.782440888052394e+17
19339.0	4.7816392440108365e+17
19340.0	4.7805635112905376e+17
19341.0	4.77962747196211e+17
19342.0	4.7783843089175885e+17
19343.0	4.777739968752297e+17
19344.0	4.7767444024634016e+17
19345.0	4.7741963795606163e+17
19346.0	4.7738888923381734e+17
19347.0	4.7737210439816525e+17
19348.0	4.7728115797633696e+17
19349.0	4.771784231135914e+17
19350.0	4.7707800909905914e+17
19351.0	4.769779713135957e+17
19352.0	4.768717820220757e+17
19353.0	4.767791117413034e+17
19354.0	4.766779956002815e+17
19355.0	4.765682779204266e+17
19356.0	4.7647370230715725e+17
19357.0	4.7637110718463994e+17
19358.0	4.7626596374282234e+17
19359.0	4.761563386172757e+17
19360.0	4.7605463149882016e+17
19361.0	4.759525011750911e+17
19362.0	4.7585045606563834e+17
19363.0	4.757444989288447e+17
19364.0	4.756379672423082e+17
19365.0	4.7553136320402765e+17
19366.0	4.75423806849024e+17
19367.0	4.753156614040234e+17
19368.0	4.752068949224106e+17
19369.0	4.7509086914914976e+17
19370.0	4.7497295915472205e+17
19371.0	4.748718520314538e+17
19372.0	4.7476394363453434e+17
19373.0	4.74649605509393e+17
19374.0	4.745378457627306e+17
19375.0	4.744232131275434e+17
19376.0	4.743081442847402e+17
19377.0	4.741910381985791e+17
19378.0	4.740740573123924e+17
19379.0	4.739562883863893e+17
19380.0	4.7383672961105914e+17
19381.0	4.737156835355306e+17
19382.0	4.7358868525329056e+17
19383.0	4.73461776519441e+17
19384.0	4.733459650751146e+17
19385.0	4.7322095706002765e+17
19386.0	4.73094248464384e+17
19387.0	4.7296554862291616e+17
19388.0	4.7283540887688525e+17
19389.0	4.7270368312470176e+17
19390.0	4.725701433360383e+17
19391.0	4.707641096579737e+17
19392.0	4.721978455184721e+17
19393.0	4.721598313529343e+17
19394.0	4.7201783577750176e+17
19395.0	4.7187256473026554e+17
19396.0	4.7172412216005965e+17
19397.0	4.7149090669417805e+17
19398.0	4.7133818152987296e+17
19399.0	4.7112859586396154e+17
19400.0	4.7102409436037114e+17
19401.0	4.7087665115299834e+17
19402.0	4.7071772981329914e+17
19403.0	4.705531635695615e+17
19404.0	4.703885232963583e+17
19405.0	4.7021847237099514e+17
19406.0	4.7004711107515725e+17
19407.0	4.698710680971946e+17
19408.0	4.696145823531007e+17
19409.0	4.6937201589616646e+17
19410.0	4.6918636908052474e+17
19411.0	4.689926132072447e+17
19412.0	4.687938585624575e+17
19413.0	4.6858914381168634e+17
19414.0	4.682959290367998e+17
19415.0	4.679871439568896e+17
19416.0	4.6774303700200096e+17
19417.0	4.675065664066902e+17
19418.0	4.6706990545633274e+17
19419.0	4.6681526303894176e+17
19420.0	4.663877783868757e+17
19421.0	4.660036336178516e+17
19422.0	4.65441888875315e+17
19423.0	4.6492624540576416e+17
19424.0	4.642481377378301e+17
19425.0	4.63423771613594e+17
19426.0	4.62413707503207e+17
19427.0	4.611932898896557e+17
19428.0	4.601144226261674e+17
19429.0	4.594838679497385e+17
19430.0	4.587813583803734e+17
19431.0	4.578648476614658e+17
19432.0	4.574014230669993e+17
19433.0	4.566027211199829e+17
19434.0	4.55686799700787e+17
19435.0	4.546718513932968e+17
19436.0	4.535436366053375e+17
19437.0	4.524967785223511e+17
19438.0	4.4817762428300077e+17
19439.0	4.4905957239903565e+17
19440.0	4.467155447141718e+17
19441.0	4.419842550879572e+17
19442.0	4.378012024482474e+17
19443.0	4.345921512232277e+17
19444.0	4.3101193387376614e+17
19445.0	4.2709883132313626e+17
19446.0	4.227001747505148e+17
19447.0	4.149818842677245e+17
19448.0	4.025877455874733e+17
19449.0	3.868056531675837e+17
19450.0	3.361325579938458e+17
19451.0	3.1856055427617965e+17
19452.0	3.657114736481624e+17
19453.0	3.967616076305762e+17
19454.0	4.083254718802592e+17
19455.0	4.193056376313172e+17
19456.0	4.243179788304385e+17
19457.0	4.282473331206825e+17
19458.0	4.257821833734871e+17
19459.0	4.3435003956865926e+17
19460.0	4.3817470340191635e+17
19461.0	4.4320341958328346e+17
19462.0	4.464937473321647e+17
19463.0	4.4839028423393235e+17
19464.0	4.497651884796585e+17
19465.0	4.508350443509077e+17
19466.0	4.5180164051217056e+17
19467.0	4.525991003160575e+17
19468.0	4.534170312594772e+17
19469.0	4.540444383204691e+17
19470.0	4.5467629532829005e+17
19471.0	4.552251229427029e+17
19472.0	4.5571918441130656e+17
19473.0	4.561702430790997e+17
19474.0	4.56784962859827e+17
19475.0	4.577571525449033e+17
19476.0	4.5880622794670016e+17
19477.0	4.595074223221422e+17
19478.0	4.600423477062311e+17
19479.0	4.605342453334015e+17
19480.0	4.6087370790229325e+17
19481.0	4.6110126630065485e+17
19482.0	4.6141888374592864e+17
19483.0	4.615562002257236e+17
19484.0	4.617151219149483e+17
19485.0	4.619076183785471e+17
19486.0	4.619628805707092e+17
19487.0	4.620170105105065e+17
19488.0	4.62203205242061e+17
19489.0	4.6224439134999885e+17
19490.0	4.621774151658153e+17
19491.0	4.6231487851615565e+17
19492.0	4.623376016474111e+17
19493.0	4.623526847840255e+17
19494.0	4.6248916981295776e+17
19495.0	4.624949339051349e+17
19496.0	4.6246018339744416e+17
19497.0	4.624925249066325e+17
19498.0	4.620779813601277e+17
19499.0	4.598862657006252e+17
19500.0	4.6247136065836365e+17
19501.0	4.6245715776634874e+17
19502.0	4.624392390705151e+17
19503.0	4.624218264174591e+17
19504.0	4.623995158659071e+17
19505.0	4.623760073512276e+17
19506.0	4.623496195167573e+17
19507.0	4.624013176690005e+17
19508.0	4.6237981382191776e+17
19509.0	4.6234665652060154e+17
19510.0	4.622926273140053e+17
19511.0	4.5789859020799936e+17
19512.0	4.617060385204906e+17
19513.0	4.614421338215757e+17
19514.0	4.615559625484963e+17
19515.0	4.620569449682262e+17
19516.0	4.6206380859719674e+17
19517.0	4.620146592535892e+17
19518.0	4.6197191391313914e+17
19519.0	4.6192133570996896e+17
19520.0	4.618689759761749e+17
19521.0	4.6182170875658234e+17
19522.0	4.6176636519492256e+17
19523.0	4.6171476518939296e+17
19524.0	4.6165925700130125e+17
19525.0	4.616034476621824e+17
19526.0	4.6154780980019194e+17
19527.0	4.6148974015064736e+17
19528.0	4.614305019680085e+17
19529.0	4.6137115843843405e+17
19530.0	4.613119267569664e+17
19531.0	4.6125082840050336e+17
19532.0	4.6118896451365536e+17
19533.0	4.61126370398481e+17
19534.0	4.610627241421481e+17
19535.0	4.6099827894080845e+17
19536.0	4.6093108108765856e+17
19537.0	4.608691949010944e+17
19538.0	4.6078740450508794e+17
19539.0	4.6069375429509114e+17
19540.0	4.606676233617407e+17
19541.0	4.6060162032599034e+17
19542.0	4.6053358990349645e+17
19543.0	4.604636439423658e+17
19544.0	4.603962374924969e+17
19545.0	4.6027985387519994e+17
19546.0	4.601851512444244e+17
19547.0	4.601872769875966e+17
19548.0	4.601158885354155e+17
19549.0	4.600384537843028e+17
19550.0	4.5997404045967354e+17
19551.0	4.5990245263824205e+17
19552.0	4.598302239271594e+17
19553.0	4.5975536839338656e+17
19554.0	4.5968193486847994e+17
19555.0	4.596104737150293e+17
19556.0	4.5953844800826016e+17
19557.0	4.5946455297010336e+17
19558.0	4.5939072692824736e+17
19559.0	4.593163326980095e+17
19560.0	4.592394799065769e+17
19561.0	4.591652391179605e+17
19562.0	4.5909196875147936e+17
19563.0	4.5901750133063674e+17
19564.0	4.5894215058937165e+17
19565.0	4.5886656951091194e+17
19566.0	4.587883312010581e+17
19567.0	4.5871456255126176e+17
19568.0	4.5863678785181e+17
19569.0	4.585608609529856e+17
19570.0	4.58485767672081e+17
19571.0	4.584083351579306e+17
19572.0	4.583300694452906e+17
19573.0	4.582527359167146e+17
19574.0	4.581713901868372e+17
19575.0	4.581005727891455e+17
19576.0	4.5802290965818016e+17
19577.0	4.5794209115231565e+17
19578.0	4.578640455008255e+17
19579.0	4.577879671876266e+17
19580.0	4.5770980311695354e+17
19581.0	4.576329113883989e+17
19582.0	4.575560758635178e+17
19583.0	4.574777922551808e+17
19584.0	4.573975096415572e+17
19585.0	4.5731240546577043e+17
19586.0	4.5723038710934176e+17
19587.0	4.5715614135746554e+17
19588.0	4.5704425319519565e+17
19589.0	4.570036877743445e+17
19590.0	4.5691728259536205e+17
19591.0	4.5684712531121485e+17
19592.0	4.5676870720552954e+17
19593.0	4.56687954620143e+17
19594.0	4.565920926837417e+17
19595.0	4.5652582974095354e+17
19596.0	4.563665655169024e+17
19597.0	4.5636370563072e+17
19598.0	4.562548884679338e+17
19599.0	4.5621273053975885e+17
19600.0	4.5613387538759674e+17
19601.0	4.560485912062634e+17
19602.0	4.5596822918048416e+17
19603.0	4.5584371979823776e+17
19604.0	4.558062527097514e+17
19605.0	4.557114615791615e+17
19606.0	4.5565438332327245e+17
19607.0	4.555751582334975e+17
19608.0	4.554934629083818e+17
19609.0	4.554108934903125e+17
19610.0	4.553339459076096e+17
19611.0	4.552530279967402e+17
19612.0	4.551746698696021e+17
19613.0	4.5509364800989856e+17
19614.0	4.5501114255496525e+17
19615.0	4.5493279596216314e+17
19616.0	4.5484126911856634e+17
19617.0	4.5477423589184845e+17
19618.0	4.5464387182045856e+17
19619.0	4.545538930245631e+17
19620.0	4.5447757242040314e+17
19621.0	4.544531550699519e+17
19622.0	4.5437431592605e+17
19623.0	4.542938464561834e+17
19624.0	4.542125846822911e+17
19625.0	4.5413271443865594e+17
19626.0	4.5405225880999245e+17
19627.0	4.5397113335098016e+17
19628.0	4.538612157426347e+17
19629.0	4.5379895276776096e+17
19630.0	4.535767047776937e+17
19631.0	4.523698489567919e+17
19632.0	4.535677338604885e+17
19633.0	4.534829100040191e+17
19634.0	4.5340718156567885e+17
19635.0	4.533233096764074e+17
19636.0	4.5324358050119674e+17
19637.0	4.531363344547839e+17
19638.0	4.53083129848354e+17
19639.0	4.530024179477161e+17
19640.0	4.529055158938282e+17
19641.0	4.527587818034517e+17
19642.0	4.5276078989639674e+17
19643.0	4.5267933273784314e+17
19644.0	4.5259423778952525e+17
19645.0	4.524959983119017e+17
19646.0	4.524367258757802e+17
19647.0	4.523577618115242e+17
19648.0	4.522772177529513e+17
19649.0	4.5219621784343885e+17
19650.0	4.521156667244543e+17
19651.0	4.520344461945515e+17
19652.0	4.519538464216404e+17
19653.0	4.5187249726641485e+17
19654.0	4.5179188127552845e+17
