# Flux units: erg / (cm m2 s)
# Wavelength units: Angstrom
wave	flux
19000.0	6.088010496649898e+17
19001.0	6.086816745302698e+17
19002.0	6.085801268652713e+17
19003.0	6.084696350567081e+17
19004.0	6.083591041013076e+17
19005.0	6.082475677013332e+17
19006.0	6.081374055650644e+17
19007.0	6.080264806946132e+17
19008.0	6.079122637149524e+17
19009.0	6.077906117023059e+17
19010.0	6.076739279825578e+17
19011.0	6.075794238122665e+17
19012.0	6.074622525745834e+17
19013.0	6.073634486834516e+17
19014.0	6.072492038815743e+17
19015.0	6.071399091972778e+17
19016.0	6.070319213882026e+17
19017.0	6.06922921283857e+17
19018.0	6.068120983349929e+17
19019.0	6.067020818109779e+17
19020.0	6.065912002816682e+17
19021.0	6.064824318427135e+17
19022.0	6.063716809659734e+17
19023.0	6.062580662184618e+17
19024.0	6.061488118693887e+17
19025.0	6.060397868788394e+17
19026.0	6.059277598851071e+17
19027.0	6.058160682259796e+17
19028.0	6.057089123571027e+17
19029.0	6.055982726294186e+17
19030.0	6.054904953044991e+17
19031.0	6.053798176183638e+17
19032.0	6.052680213113513e+17
19033.0	6.051476923219967e+17
19034.0	6.050354451972095e+17
19035.0	6.048676324223657e+17
19036.0	6.044338361816403e+17
19037.0	6.046624764308137e+17
19038.0	6.045960445274793e+17
19039.0	6.044956184193706e+17
19040.0	6.043888429039615e+17
19041.0	6.042794722328575e+17
19042.0	6.041392608444415e+17
19043.0	6.040613170446336e+17
19044.0	6.039505802188116e+17
19045.0	6.038405941734057e+17
19046.0	6.037280721818963e+17
19047.0	6.036161405386751e+17
19048.0	6.034980495600297e+17
19049.0	6.033428424163327e+17
19050.0	6.032769063496362e+17
19051.0	6.03125057724962e+17
19052.0	6.030367112123732e+17
19053.0	6.029561368849065e+17
19054.0	6.028520027324415e+17
19055.0	6.027156251475968e+17
19056.0	6.026305659207679e+17
19057.0	6.025254728105983e+17
19058.0	6.023906663421268e+17
19059.0	6.022973043507199e+17
19060.0	6.021971708652201e+17
19061.0	6.020882143117312e+17
19062.0	6.01978492297762e+17
19063.0	6.018683640654505e+17
19064.0	6.017536553036457e+17
19065.0	6.016373503295487e+17
19066.0	6.01526666142242e+17
19067.0	6.014307009560576e+17
19068.0	6.013226489741311e+17
19069.0	6.012133638668287e+17
19070.0	6.011021015646208e+17
19071.0	6.009938680392362e+17
19072.0	6.008763462276436e+17
19073.0	6.007762293096447e+17
19074.0	6.006670700314623e+17
19075.0	6.005577226387455e+17
19076.0	6.004478840930303e+17
19077.0	6.003377933298346e+17
19078.0	6.002277986162004e+17
19079.0	6.00120622195234e+17
19080.0	6.000106084674217e+17
19081.0	5.998982666911744e+17
19082.0	5.997920221047466e+17
19083.0	5.99675708252706e+17
19084.0	5.995556109287423e+17
19085.0	5.994639396612778e+17
19086.0	5.993104426052265e+17
19087.0	5.992226023451305e+17
19088.0	5.991165494383956e+17
19089.0	5.990117393039359e+17
19090.0	5.989166633101993e+17
19091.0	5.988079415678294e+17
19092.0	5.986786984940884e+17
19093.0	5.985941677495636e+17
19094.0	5.984857748406272e+17
19095.0	5.983771413184512e+17
19096.0	5.982680164335615e+17
19097.0	5.981595117464234e+17
19098.0	5.98040594419985e+17
19099.0	5.979293367315113e+17
19100.0	5.978314330079232e+17
19101.0	5.977225004318719e+17
19102.0	5.976102283509759e+17
19103.0	5.975066268052137e+17
19104.0	5.973984587109716e+17
19105.0	5.972665040896e+17
19106.0	5.971799177166847e+17
19107.0	5.970639671612756e+17
19108.0	5.969502119045802e+17
19109.0	5.968439177554601e+17
19110.0	5.967396248485887e+17
19111.0	5.966291034002771e+17
19112.0	5.965208212209663e+17
19113.0	5.964206495673001e+17
19114.0	5.963073530975571e+17
19115.0	5.96199347392785e+17
19116.0	5.960920102600703e+17
19117.0	5.959809932547412e+17
19118.0	5.958398477249193e+17
19119.0	5.953255975332517e+17
19120.0	5.956390145927849e+17
19121.0	5.955469245939712e+17
19122.0	5.954438674688681e+17
19123.0	5.953365413811539e+17
19124.0	5.952236793014953e+17
19125.0	5.951163992812202e+17
19126.0	5.949937005800106e+17
19127.0	5.948274294915072e+17
19128.0	5.947742480935593e+17
19129.0	5.946769331803476e+17
19130.0	5.945782692391594e+17
19131.0	5.944725374763007e+17
19132.0	5.94364849070626e+17
19133.0	5.942539312605865e+17
19134.0	5.94148766777344e+17
19135.0	5.940409668031828e+17
19136.0	5.939322636555603e+17
19137.0	5.938199071992489e+17
19138.0	5.937153274019839e+17
19139.0	5.936096500951722e+17
19140.0	5.935023419031551e+17
19141.0	5.933945800971606e+17
19142.0	5.932844290058921e+17
19143.0	5.931764669917866e+17
19144.0	5.930671514757801e+17
19145.0	5.929628453568511e+17
19146.0	5.928019449348095e+17
19147.0	5.927440394223615e+17
19148.0	5.926314631845206e+17
19149.0	5.925221624883882e+17
19150.0	5.924244397490175e+17
19151.0	5.923161907047082e+17
19152.0	5.922078030386516e+17
19153.0	5.920811313528831e+17
19154.0	5.919873044927828e+17
19155.0	5.918833784477011e+17
19156.0	5.917759595959635e+17
19157.0	5.916613123506176e+17
19158.0	5.915447574659071e+17
19159.0	5.914503403274239e+17
19160.0	5.913423742588244e+17
19161.0	5.912317660583252e+17
19162.0	5.911135384851795e+17
19163.0	5.910133399180627e+17
19164.0	5.90912974697267e+17
19165.0	5.907884395899561e+17
19166.0	5.906951835746303e+17
19167.0	5.905923870556159e+17
19168.0	5.904872438235135e+17
19169.0	5.903807616996692e+17
19170.0	5.902739248076116e+17
19171.0	5.90166624444962e+17
19172.0	5.900592293609472e+17
19173.0	5.899522811101183e+17
19174.0	5.898434353561599e+17
19175.0	5.89737586921745e+17
19176.0	5.896307526161748e+17
19177.0	5.895111493812223e+17
19178.0	5.894161943931561e+17
19179.0	5.893087177299284e+17
19180.0	5.892011286593535e+17
19181.0	5.89088620229427e+17
19182.0	5.889853780656128e+17
19183.0	5.888812525813759e+17
19184.0	5.88774264414754e+17
19185.0	5.886665664320852e+17
19186.0	5.885600155915603e+17
19187.0	5.884473963621034e+17
19188.0	5.883452452765695e+17
19189.0	5.882379458925908e+17
19190.0	5.881301725522602e+17
19191.0	5.88019656696354e+17
19192.0	5.879138439135231e+17
19193.0	5.878017952492201e+17
19194.0	5.876891573551104e+17
19195.0	5.875815148770644e+17
19196.0	5.874636208209919e+17
19197.0	5.873378362305193e+17
19198.0	5.871891926832467e+17
19199.0	5.869896811763027e+17
19200.0	5.868946137109844e+17
19201.0	5.868736623236435e+17
19202.0	5.868065844974931e+17
19203.0	5.867171041247231e+17
19204.0	5.866208308669097e+17
19205.0	5.865191145908905e+17
19206.0	5.864163960859305e+17
19207.0	5.862998758042281e+17
19208.0	5.861972093086378e+17
19209.0	5.861005094901075e+17
19210.0	5.859954321784831e+17
19211.0	5.858906860770643e+17
19212.0	5.857840937129299e+17
19213.0	5.856692226315603e+17
19214.0	5.855662234577578e+17
19215.0	5.854634774801065e+17
19216.0	5.853566506543786e+17
19217.0	5.852436761673728e+17
19218.0	5.851170118915412e+17
19219.0	5.850168524712618e+17
19220.0	5.849269856632831e+17
19221.0	5.848162639369556e+17
19222.0	5.847160799799978e+17
19223.0	5.846126165666473e+17
19224.0	5.845040838475775e+17
19225.0	5.843987207640404e+17
19226.0	5.842949326416553e+17
19227.0	5.841896823149908e+17
19228.0	5.840860761554943e+17
19229.0	5.839799551612244e+17
19230.0	5.838733861453823e+17
19231.0	5.837664528542377e+17
19232.0	5.836610361535146e+17
19233.0	5.835503157553833e+17
19234.0	5.834485573266089e+17
19235.0	5.833400813704531e+17
19236.0	5.832368956200276e+17
19237.0	5.831301377906003e+17
19238.0	5.830183365203284e+17
19239.0	5.829188508450815e+17
19240.0	5.82813069938961e+17
19241.0	5.827053250499924e+17
19242.0	5.82599663821346e+17
19243.0	5.824814922421588e+17
19244.0	5.82389153800738e+17
19245.0	5.822825208916649e+17
19246.0	5.821765703958527e+17
19247.0	5.820705480376319e+17
19248.0	5.819651544055808e+17
19249.0	5.818581067497471e+17
19250.0	5.817477862785023e+17
19251.0	5.816362286273875e+17
19252.0	5.815150408542889e+17
19253.0	5.814336255688703e+17
19254.0	5.81329471283746e+17
19255.0	5.812064145287848e+17
19256.0	5.811164332163071e+17
19257.0	5.810116602713428e+17
19258.0	5.809054857996969e+17
19259.0	5.80791610585907e+17
19260.0	5.806808868323327e+17
19261.0	5.805847844225023e+17
19262.0	5.80474150846464e+17
19263.0	5.803630289136298e+17
19264.0	5.802410055652692e+17
19265.0	5.80146431070481e+17
19266.0	5.800403464967507e+17
19267.0	5.799509659484159e+17
19268.0	5.798453600845823e+17
19269.0	5.797393201102848e+17
19270.0	5.796295625146367e+17
19271.0	5.795136284568234e+17
19272.0	5.794186069890388e+17
19273.0	5.792993793540095e+17
19274.0	5.791768929544873e+17
19275.0	5.791053568628052e+17
19276.0	5.789982566383615e+17
19277.0	5.788929197692244e+17
19278.0	5.787864918218067e+17
19279.0	5.786788655617364e+17
19280.0	5.785719384222378e+17
19281.0	5.784676464241322e+17
19282.0	5.78363090604305e+17
19283.0	5.782559201252694e+17
19284.0	5.781469117721257e+17
19285.0	5.780379975811071e+17
19286.0	5.779288142555818e+17
19287.0	5.778120212742143e+17
19288.0	5.775379374888275e+17
19289.0	5.773585341044052e+17
19290.0	5.77490564223249e+17
19291.0	5.773819622981632e+17
19292.0	5.773017296666623e+17
19293.0	5.771973560893439e+17
19294.0	5.770914473967615e+17
19295.0	5.769869729464319e+17
19296.0	5.76869200105745e+17
19297.0	5.767716597486934e+17
19298.0	5.766667309154304e+17
19299.0	5.765503299616768e+17
19300.0	5.7645660026961914e+17
19301.0	5.763508517295445e+17
19302.0	5.762432957939711e+17
19303.0	5.7613303956548256e+17
19304.0	5.7603098341102925e+17
19305.0	5.7592366410410656e+17
19306.0	5.758174764204031e+17
19307.0	5.757077673388713e+17
19308.0	5.7560069892123296e+17
19309.0	5.754912703687337e+17
19310.0	5.7538099372796576e+17
19311.0	5.7527557332227405e+17
19312.0	5.751681964834815e+17
19313.0	5.7504270262818125e+17
19314.0	5.740030079969962e+17
19315.0	5.7395740284026944e+17
19316.0	5.7470832572279456e+17
19317.0	5.7463642535581e+17
19318.0	5.745349534679039e+17
19319.0	5.7443186097083725e+17
19320.0	5.7432115126818125e+17
19321.0	5.742082542359894e+17
19322.0	5.741096692176213e+17
19323.0	5.740028644818943e+17
19324.0	5.738961088195241e+17
19325.0	5.737893040837972e+17
19326.0	5.73683197420066e+17
19327.0	5.7357623155316045e+17
19328.0	5.734492164237994e+17
19329.0	5.73362441167394e+17
19330.0	5.7325392033218554e+17
19331.0	5.731432792063999e+17
19332.0	5.730396386536106e+17
19333.0	5.729304242902355e+17
19334.0	5.7282330714876576e+17
19335.0	5.726731895133526e+17
19336.0	5.7260502711009274e+17
19337.0	5.7249640945636685e+17
19338.0	5.723705616018089e+17
19339.0	5.722775536795647e+17
19340.0	5.7215774932773536e+17
19341.0	5.720341859008511e+17
19342.0	5.7192907468526925e+17
19343.0	5.718324003121835e+17
19344.0	5.7169829436238496e+17
19345.0	5.7151556846004896e+17
19346.0	5.714294260542122e+17
19347.0	5.7136573331101e+17
19348.0	5.7128630270033914e+17
19349.0	5.7117574622958925e+17
19350.0	5.7105921581165216e+17
19351.0	5.709549277282303e+17
19352.0	5.708216521807187e+17
19353.0	5.7073632899235834e+17
19354.0	5.706250183158441e+17
19355.0	5.705021793151658e+17
19356.0	5.703980541804543e+17
19357.0	5.702853179299156e+17
19358.0	5.7017188640358394e+17
19359.0	5.700518642974719e+17
19360.0	5.699259949121535e+17
19361.0	5.6982938163609594e+17
19362.0	5.6971615968515405e+17
19363.0	5.696015380949673e+17
19364.0	5.6948622849911456e+17
19365.0	5.693702903169023e+17
19366.0	5.692537997448532e+17
19367.0	5.691348342538238e+17
19368.0	5.6901523024991565e+17
19369.0	5.6889487211014816e+17
19370.0	5.687766175536469e+17
19371.0	5.686541185013076e+17
19372.0	5.685388145677651e+17
19373.0	5.6841628874178554e+17
19374.0	5.682955129192447e+17
19375.0	5.681733510889471e+17
19376.0	5.680490269551274e+17
19377.0	5.6791902799790074e+17
19378.0	5.6779347332519245e+17
19379.0	5.6766774934241274e+17
19380.0	5.6754108108199245e+17
19381.0	5.674126451321513e+17
19382.0	5.672767971480916e+17
19383.0	5.67148891288371e+17
19384.0	5.670151079504554e+17
19385.0	5.6688280282507936e+17
19386.0	5.6674902948358816e+17
19387.0	5.666131703147177e+17
19388.0	5.664741254321492e+17
19389.0	5.6632931366120096e+17
19390.0	5.6615727855042554e+17
19391.0	5.657086079096147e+17
19392.0	5.6579993237804365e+17
19393.0	5.657387509044564e+17
19394.0	5.6559924115319456e+17
19395.0	5.65443537613619e+17
19396.0	5.6529418529887565e+17
19397.0	5.651378176611668e+17
19398.0	5.64965903765777e+17
19399.0	5.647765598109694e+17
19400.0	5.646253390036992e+17
19401.0	5.644749335691262e+17
19402.0	5.6429994552852474e+17
19403.0	5.6412220434677754e+17
19404.0	5.63943312667443e+17
19405.0	5.6375676239872e+17
19406.0	5.6356443699281914e+17
19407.0	5.633555306643455e+17
19408.0	5.6312983873126394e+17
19409.0	5.629346028978175e+17
19410.0	5.6272558010750285e+17
19411.0	5.6250093143763616e+17
19412.0	5.622659675761322e+17
19413.0	5.6201514449196365e+17
19414.0	5.617677083082751e+17
19415.0	5.6149783434581325e+17
19416.0	5.612107588435967e+17
19417.0	5.609397492034217e+17
19418.0	5.6064896943172256e+17
19419.0	5.6034365290141005e+17
19420.0	5.600133500633088e+17
19421.0	5.596587299788117e+17
19422.0	5.592915948601343e+17
19423.0	5.589140580772521e+17
19424.0	5.58506214232337e+17
19425.0	5.5807142135507616e+17
19426.0	5.5760958884850336e+17
19427.0	5.5711545265138336e+17
19428.0	5.5659059135993165e+17
19429.0	5.5602593367326714e+17
19430.0	5.554019352532309e+17
19431.0	5.5474581377733965e+17
19432.0	5.540851041523028e+17
19433.0	5.533326502789119e+17
19434.0	5.524990311006207e+17
19435.0	5.5157819913011174e+17
19436.0	5.5057925195257165e+17
19437.0	5.494792347014483e+17
19438.0	5.477403177866581e+17
19439.0	5.468299290039637e+17
19440.0	5.455298286321664e+17
19441.0	5.4386848481061523e+17
19442.0	5.4202106908071245e+17
19443.0	5.398622659149823e+17
19444.0	5.373349400849064e+17
19445.0	5.343669030748161e+17
19446.0	5.3079468677966496e+17
19447.0	5.2629642583299366e+17
19448.0	5.203915430341293e+17
19449.0	5.1187832715564384e+17
19450.0	4.9630015809126317e+17
19451.0	4.832467589879133e+17
19452.0	5.056147026695508e+17
19453.0	5.1634414124619117e+17
19454.0	5.2309161679694464e+17
19455.0	5.2797272143953914e+17
19456.0	5.317600872846677e+17
19457.0	5.3473413396343456e+17
19458.0	5.3461060737652326e+17
19459.0	5.390685752524805e+17
19460.0	5.4122606553115296e+17
19461.0	5.4282012146182816e+17
19462.0	5.4420671264631456e+17
19463.0	5.4541177204681376e+17
19464.0	5.4646548026709325e+17
19465.0	5.473773868285951e+17
19466.0	5.4819737514803194e+17
19467.0	5.4893856640641696e+17
19468.0	5.4959899277612365e+17
19469.0	5.501688496521214e+17
19470.0	5.5071336419382605e+17
19471.0	5.5117827818564256e+17
19472.0	5.5159087781205325e+17
19473.0	5.5196228315163296e+17
19474.0	5.5227967613173754e+17
19475.0	5.5256139522812576e+17
19476.0	5.5286606716381856e+17
19477.0	5.531206381382315e+17
19478.0	5.533417124222292e+17
19479.0	5.535192253639337e+17
19480.0	5.536953074188287e+17
19481.0	5.538525392928766e+17
19482.0	5.539952546108756e+17
19483.0	5.5411015875734176e+17
19484.0	5.542041833788758e+17
19485.0	5.542852988414634e+17
19486.0	5.5434447704555514e+17
19487.0	5.54430388834577e+17
19488.0	5.544841759599273e+17
19489.0	5.545013963041449e+17
19490.0	5.545082174308351e+17
19491.0	5.5458446267733325e+17
19492.0	5.546148409027241e+17
19493.0	5.5463108886746445e+17
19494.0	5.546368352736596e+17
19495.0	5.546300172227924e+17
19496.0	5.545962323836926e+17
19497.0	5.54576234221841e+17
19498.0	5.5436996408333645e+17
19499.0	5.5403216462588576e+17
19500.0	5.544867420351145e+17
19501.0	5.5450054863530656e+17
19502.0	5.544752904667135e+17
19503.0	5.5444202935637325e+17
19504.0	5.544024008731305e+17
19505.0	5.5435876200611834e+17
19506.0	5.54313110921762e+17
19507.0	5.5426131769862816e+17
19508.0	5.542072810121898e+17
19509.0	5.5414022303907834e+17
19510.0	5.5401870181881165e+17
19511.0	5.5259521278279616e+17
19512.0	5.537367268698793e+17
19513.0	5.537033490879827e+17
19514.0	5.536800794389161e+17
19515.0	5.537564150726655e+17
19516.0	5.537151759766868e+17
19517.0	5.5365419177519776e+17
19518.0	5.5358631507394554e+17
19519.0	5.535214708544851e+17
19520.0	5.534379916219732e+17
19521.0	5.5338196285085005e+17
19522.0	5.5330206261794125e+17
19523.0	5.532278642617002e+17
19524.0	5.531438734639103e+17
19525.0	5.5307761324741965e+17
19526.0	5.5300342740418554e+17
19527.0	5.529268206785877e+17
19528.0	5.5284525901195936e+17
19529.0	5.5276370454555296e+17
19530.0	5.526856398798846e+17
19531.0	5.526034398401877e+17
19532.0	5.525205281669119e+17
19533.0	5.524369522556928e+17
19534.0	5.5235253266022394e+17
19535.0	5.522658329711957e+17
19536.0	5.521812894340437e+17
19537.0	5.520970543879508e+17
19538.0	5.5198327948793165e+17
19539.0	5.5190279058445645e+17
19540.0	5.5183363028637005e+17
19541.0	5.51746859503889e+17
19542.0	5.516608539022677e+17
19543.0	5.515576816435199e+17
19544.0	5.5147900817462605e+17
19545.0	5.513591794259284e+17
19546.0	5.5126440031901005e+17
19547.0	5.5121225463453005e+17
19548.0	5.5112815869952e+17
19549.0	5.510316295891626e+17
19550.0	5.50952157384977e+17
19551.0	5.508626793889792e+17
19552.0	5.507759671170388e+17
19553.0	5.506837234668884e+17
19554.0	5.505923277651967e+17
19555.0	5.504994598628011e+17
19556.0	5.5041000857053856e+17
19557.0	5.503191411414356e+17
19558.0	5.502272534478847e+17
19559.0	5.501353021407231e+17
19560.0	5.50035126432563e+17
19561.0	5.4994815019909114e+17
19562.0	5.498518833026388e+17
19563.0	5.4976508714461856e+17
19564.0	5.496720641228799e+17
19565.0	5.495788202011306e+17
19566.0	5.494840137613311e+17
19567.0	5.4939189503153485e+17
19568.0	5.4929648300414285e+17
19569.0	5.492035406528511e+17
19570.0	5.4911112678386323e+17
19571.0	5.490174014958249e+17
19572.0	5.489218103017471e+17
19573.0	5.488285098267988e+17
19574.0	5.4872803555409914e+17
19575.0	5.4864294242331296e+17
19576.0	5.485470227453269e+17
19577.0	5.48449002070562e+17
19578.0	5.483580453027838e+17
19579.0	5.4826231961135763e+17
19580.0	5.4816811687171405e+17
19581.0	5.480752698709332e+17
19582.0	5.4798113396053325e+17
19583.0	5.4788633695791776e+17
19584.0	5.4779125390376954e+17
19585.0	5.476860585923924e+17
19586.0	5.4758848586929485e+17
19587.0	5.4750087063360845e+17
19588.0	5.4739061831980365e+17
19589.0	5.4730855927862605e+17
19590.0	5.472118883308885e+17
19591.0	5.471244786160979e+17
19592.0	5.4703060247292576e+17
19593.0	5.469322229754538e+17
19594.0	5.4681715706866323e+17
19595.0	5.467429277444777e+17
19596.0	5.4664582065902925e+17
19597.0	5.4655119010037754e+17
19598.0	5.4642857374733645e+17
19599.0	5.463595237594452e+17
19600.0	5.462664173409619e+17
19601.0	5.4616604757633696e+17
19602.0	5.460661725997738e+17
19603.0	5.4596170465061536e+17
19604.0	5.458756265574399e+17
19605.0	5.4576888543532365e+17
19606.0	5.456922982132393e+17
19607.0	5.4559843779870714e+17
19608.0	5.455018852701524e+17
19609.0	5.4540443641883296e+17
19610.0	5.453043637507413e+17
19611.0	5.452048513717589e+17
19612.0	5.451205286647124e+17
19613.0	5.450237576129193e+17
19614.0	5.449250875200852e+17
19615.0	5.4483127086612474e+17
19616.0	5.447247760195583e+17
19617.0	5.4462218334371834e+17
19618.0	5.4450266035978234e+17
19619.0	5.4439447821462176e+17
19620.0	5.443136380381866e+17
19621.0	5.442341371030186e+17
19622.0	5.4415925011196576e+17
19623.0	5.440636561915904e+17
19624.0	5.439652726396245e+17
19625.0	5.4387210854946125e+17
19626.0	5.437740000040276e+17
19627.0	5.43674257777186e+17
19628.0	5.435690288414719e+17
19629.0	5.434132584027476e+17
19630.0	5.432970425576105e+17
19631.0	5.431438458137258e+17
19632.0	5.4315261778111136e+17
19633.0	5.430848093072042e+17
19634.0	5.430033827670698e+17
19635.0	5.429073663404713e+17
19636.0	5.4280149350918816e+17
19637.0	5.426788590507349e+17
19638.0	5.4262781157485216e+17
19639.0	5.4253224743403514e+17
19640.0	5.424160333365247e+17
19641.0	5.4227928588397235e+17
19642.0	5.4224282403034445e+17
19643.0	5.4214852279446176e+17
19644.0	5.420483493232639e+17
19645.0	5.419494781834581e+17
19646.0	5.418456836997119e+17
19647.0	5.4176970709838496e+17
19648.0	5.4167446584907085e+17
19649.0	5.415789493136041e+17
19650.0	5.4148387737436154e+17
19651.0	5.4138774343734605e+17
19652.0	5.412920598986751e+17
19653.0	5.4119707261446816e+17
19654.0	5.4110077335197005e+17
19655.0	5.410050659756713e+17
19656.0	5.409100481429503e+17
19657.0	5.4081410483705165e+17
19658.0	5.407189707522047e+17
19659.0	5.406235306928809e+17
