# Flux units: erg / (cm m2 s)
# Wavelength units: Angstrom
wave	flux
19000.0	6.705208981716992e+17
19001.0	6.703221747045715e+17
19002.0	6.70278388687394e+17
19003.0	6.701498720671059e+17
19004.0	6.700260374085631e+17
19005.0	6.698989417485652e+17
19006.0	6.697757356763817e+17
19007.0	6.696427662431572e+17
19008.0	6.695000086325929e+17
19009.0	6.692846732050431e+17
19010.0	6.691134717820927e+17
19011.0	6.690693112834729e+17
19012.0	6.688068081112402e+17
19013.0	6.688998576269993e+17
19014.0	6.687542165722451e+17
19015.0	6.68645220941824e+17
19016.0	6.685461246377983e+17
19017.0	6.684234584424447e+17
19018.0	6.682980372185087e+17
19019.0	6.681804356452351e+17
19020.0	6.680515431454036e+17
19021.0	6.679421367528105e+17
19022.0	6.678135352677716e+17
19023.0	6.676569790261929e+17
19024.0	6.675322636337151e+17
19025.0	6.673819928363008e+17
19026.0	6.672101535296168e+17
19027.0	6.670295198160211e+17
19028.0	6.670075250955604e+17
19029.0	6.668953367609343e+17
19030.0	6.667886150724265e+17
19031.0	6.666479153971197e+17
19032.0	6.664733069410303e+17
19033.0	6.66177452061491e+17
19034.0	6.657964513427455e+17
19035.0	6.638010078593021e+17
19036.0	6.545785179078656e+17
19037.0	6.63973138949734e+17
19038.0	6.653486824073897e+17
19039.0	6.655204241266004e+17
19040.0	6.65498869178914e+17
19041.0	6.654156590110036e+17
19042.0	6.650091179169105e+17
19043.0	6.65213010584098e+17
19044.0	6.650873265171113e+17
19045.0	6.649529889718271e+17
19046.0	6.648135494052521e+17
19047.0	6.646694860379475e+17
19048.0	6.644462631518207e+17
19049.0	6.637826335921486e+17
19050.0	6.63931688460834e+17
19051.0	6.625580111189331e+17
19052.0	6.629596640313343e+17
19053.0	6.637113074253823e+17
19054.0	6.637774230781952e+17
19055.0	6.634702221869062e+17
19056.0	6.635870956989098e+17
19057.0	6.635191279113555e+17
19058.0	6.631365018299045e+17
19059.0	6.631934941724671e+17
19060.0	6.6316694730397e+17
19061.0	6.630531644347732e+17
19062.0	6.62930434555904e+17
19063.0	6.628065703275176e+17
19064.0	6.626390903706966e+17
19065.0	6.624577087427926e+17
19066.0	6.623099790644564e+17
19067.0	6.623191127905619e+17
19068.0	6.622081584201727e+17
19069.0	6.620867193383593e+17
19070.0	6.6195094517405e+17
19071.0	6.618255598813183e+17
19072.0	6.616272301894312e+17
19073.0	6.615988734787583e+17
19074.0	6.614799210599763e+17
19075.0	6.613570668898985e+17
19076.0	6.61229562704691e+17
19077.0	6.610970973569023e+17
19078.0	6.609633825259519e+17
19079.0	6.608613582482089e+17
19080.0	6.607271817641984e+17
19081.0	6.605734583555411e+17
19082.0	6.6047574029981e+17
19083.0	6.602786101089619e+17
19084.0	6.600514088555862e+17
19085.0	6.600683052597247e+17
19086.0	6.594864210771965e+17
19087.0	6.595144841166845e+17
19088.0	6.594398127827624e+17
19089.0	6.593872555671555e+17
19090.0	6.594103870838099e+17
19091.0	6.593011846042966e+17
19092.0	6.58969743501995e+17
19093.0	6.591182131953663e+17
19094.0	6.590115082141695e+17
19095.0	6.589007380436307e+17
19096.0	6.587812531579561e+17
19097.0	6.586644266221567e+17
19098.0	6.584317812320937e+17
19099.0	6.582870908163415e+17
19100.0	6.582580054851583e+17
19101.0	6.581506846403242e+17
19102.0	6.580112545109331e+17
19103.0	6.579198259538601e+17
19104.0	6.57798577712879e+17
19105.0	6.574139882078214e+17
19106.0	6.575023079467689e+17
19107.0	6.572853855343955e+17
19108.0	6.570475146706943e+17
19109.0	6.568057158412969e+17
19110.0	6.568185904671401e+17
19111.0	6.56764545811524e+17
19112.0	6.566971258000723e+17
19113.0	6.566847627395072e+17
19114.0	6.565124998081193e+17
19115.0	6.56397041664e+17
19116.0	6.563067009695743e+17
19117.0	6.561657165709311e+17
19118.0	6.558075032261974e+17
19119.0	6.532573109594772e+17
19120.0	6.556028244066303e+17
19121.0	6.556090731506346e+17
19122.0	6.555914239388329e+17
19123.0	6.554893438069418e+17
19124.0	6.552260291766953e+17
19125.0	6.552155572578985e+17
19126.0	6.549816126122665e+17
19127.0	6.544276380975103e+17
19128.0	6.546512584638461e+17
19129.0	6.546788345446397e+17
19130.0	6.546414302309033e+17
19131.0	6.545400774612308e+17
19132.0	6.544240821665791e+17
19133.0	6.542704527802365e+17
19134.0	6.541493127522985e+17
19135.0	6.540605684798804e+17
19136.0	6.539355273297919e+17
19137.0	6.537816280399871e+17
19138.0	6.536843430461439e+17
19139.0	6.535813728829439e+17
19140.0	6.53464663298321e+17
19141.0	6.533440930665812e+17
19142.0	6.531961789786793e+17
19143.0	6.530808325428563e+17
19144.0	6.529451472977919e+17
19145.0	6.528507542765567e+17
19146.0	6.522851781771268e+17
19147.0	6.525839285944319e+17
19148.0	6.523973486160556e+17
19149.0	6.522609569802922e+17
19150.0	6.522386713848489e+17
19151.0	6.521109253281108e+17
19152.0	6.519595596076372e+17
19153.0	6.516588431103313e+17
19154.0	6.516736329951914e+17
19155.0	6.515612072629587e+17
19156.0	6.514214774505471e+17
19157.0	6.511818454685014e+17
19158.0	6.509156391452673e+17
19159.0	6.509586673216169e+17
19160.0	6.508103424715433e+17
19161.0	6.505623207630163e+17
19162.0	6.501119823970303e+17
19163.0	6.502110310957055e+17
19164.0	6.503206858610004e+17
19165.0	6.500854230854312e+17
19166.0	6.501447078248447e+17
19167.0	6.500521473649321e+17
19168.0	6.499716398667092e+17
19169.0	6.498781497393151e+17
19170.0	6.497712875416233e+17
19171.0	6.49648193806882e+17
19172.0	6.495220677301587e+17
19173.0	6.494223896761684e+17
19174.0	6.492935043765588e+17
19175.0	6.491836721222996e+17
19176.0	6.490643898215082e+17
19177.0	6.48830546817843e+17
19178.0	6.487987318336169e+17
19179.0	6.486725656313855e+17
19180.0	6.485582764397908e+17
19181.0	6.483999506912596e+17
19182.0	6.48298545352977e+17
19183.0	6.482075018330111e+17
19184.0	6.480807510147071e+17
19185.0	6.47947069947904e+17
19186.0	6.478239226658815e+17
19187.0	6.47629465854498e+17
19188.0	6.475432930399572e+17
19189.0	6.473952672437588e+17
19190.0	6.472382464830121e+17
19191.0	6.470531270311935e+17
19192.0	6.468928997250388e+17
19193.0	6.466509614350335e+17
19194.0	6.4636777398272e+17
19195.0	6.460803259564031e+17
19196.0	6.455832855532884e+17
19197.0	6.447992706607785e+17
19198.0	6.433734131711997e+17
19199.0	6.405598389556563e+17
19200.0	6.407298606607018e+17
19201.0	6.431473229889535e+17
19202.0	6.442691455178067e+17
19203.0	6.44740075959091e+17
19204.0	6.450074891233962e+17
19205.0	6.451017490453844e+17
19206.0	6.451152164661929e+17
19207.0	6.449900130664445e+17
19208.0	6.449577797003946e+17
19209.0	6.449395218950825e+17
19210.0	6.448603871226537e+17
19211.0	6.447712647337299e+17
19212.0	6.446536652576084e+17
19213.0	6.444519032968531e+17
19214.0	6.44354690654754e+17
19215.0	6.443033181902163e+17
19216.0	6.442014110733652e+17
19217.0	6.440381726763689e+17
19218.0	6.437733081808895e+17
19219.0	6.436926965241171e+17
19220.0	6.43716506189824e+17
19221.0	6.435778382353747e+17
19222.0	6.43504186396945e+17
19223.0	6.434111103871658e+17
19224.0	6.432775555689129e+17
19225.0	6.431718779824808e+17
19226.0	6.430679990534141e+17
19227.0	6.4295978677917e+17
19228.0	6.428625602259626e+17
19229.0	6.427452489684308e+17
19230.0	6.426232249909247e+17
19231.0	6.424980785638058e+17
19232.0	6.423846911475711e+17
19233.0	6.422232058298365e+17
19234.0	6.421453956186111e+17
19235.0	6.420047260723881e+17
19236.0	6.419121770769065e+17
19237.0	6.417843472738985e+17
19238.0	6.416164347445247e+17
19239.0	6.415536173525674e+17
19240.0	6.414357149078867e+17
19241.0	6.413015066170708e+17
19242.0	6.411867410224468e+17
19243.0	6.40956157482325e+17
19244.0	6.409599670987434e+17
19245.0	6.408331601466708e+17
19246.0	6.407137389445119e+17
19247.0	6.405877087775401e+17
19248.0	6.404719663295146e+17
19249.0	6.403373455289001e+17
19250.0	6.401808833096362e+17
19251.0	6.400083480281082e+17
19252.0	6.39767725351458e+17
19253.0	6.398607700437674e+17
19254.0	6.397514187363668e+17
19255.0	6.394848447823867e+17
19256.0	6.394987487603369e+17
19257.0	6.393867371457193e+17
19258.0	6.392606859373225e+17
19259.0	6.390365462462463e+17
19260.0	6.386953963088552e+17
19261.0	6.388457057637716e+17
19262.0	6.387069681838762e+17
19263.0	6.385524705766057e+17
19264.0	6.383122913077928e+17
19265.0	6.382800561941161e+17
19266.0	6.381717292056576e+17
19267.0	6.381646650889555e+17
19268.0	6.38044257526306e+17
19269.0	6.379190488137727e+17
19270.0	6.377657934195369e+17
19271.0	6.375673726413482e+17
19272.0	6.375240812025171e+17
19273.0	6.372807449509887e+17
19274.0	6.370238692065272e+17
19275.0	6.371942424641535e+17
19276.0	6.370593624555519e+17
19277.0	6.369372197792425e+17
19278.0	6.368035287859197e+17
19279.0	6.36655356748322e+17
19280.0	6.365261178688852e+17
19281.0	6.364104550427305e+17
19282.0	6.362831238725631e+17
19283.0	6.36131243650799e+17
19284.0	6.359432066411178e+17
19285.0	6.357733378883583e+17
19286.0	6.355169347720531e+17
19287.0	6.349060068518569e+17
19288.0	6.298166863331313e+17
19289.0	6.276943162201405e+17
19290.0	6.343899052944041e+17
19291.0	6.347330475261958e+17
19292.0	6.349645333310121e+17
19293.0	6.349100183541076e+17
19294.0	6.348080955785215e+17
19295.0	6.347160263415124e+17
19296.0	6.344754058319191e+17
19297.0	6.34431270219503e+17
19298.0	6.343411351158783e+17
19299.0	6.340990370927958e+17
19300.0	6.341129801476777e+17
19301.0	6.339916963250176e+17
19302.0	6.338522840913235e+17
19303.0	6.33684654887185e+17
19304.0	6.3359488622592e+17
19305.0	6.334528961030825e+17
19306.0	6.333106773906772e+17
19307.0	6.331337713647613e+17
19308.0	6.329589288665085e+17
19309.0	6.32703269470208e+17
19310.0	6.324914857792854e+17
19311.0	6.324276674166783e+17
19312.0	6.32259496448273e+17
19313.0	6.31629514923486e+17
19314.0	6.142282566030739e+17
19315.0	6.150487720067156e+17
19316.0	6.311061831548929e+17
19317.0	6.316776556767914e+17
19318.0	6.316941529929044e+17
19319.0	6.316350279865684e+17
19320.0	6.3147926908218e+17
19321.0	6.312906490642431e+17
19322.0	6.312506711954772e+17
19323.0	6.311077334395561e+17
19324.0	6.309812193198079e+17
19325.0	6.308486550563497e+17
19326.0	6.307604600280404e+17
19327.0	6.306566315704317e+17
19328.0	6.30337504734959e+17
19329.0	6.30432990302481e+17
19330.0	6.303007444566015e+17
19331.0	6.301520649082195e+17
19332.0	6.300523350545748e+17
19333.0	6.29908265116194e+17
19334.0	6.297919475591849e+17
19335.0	6.292328754970629e+17
19336.0	6.295177122895188e+17
19337.0	6.293967440183295e+17
19338.0	6.29117402043733e+17
19339.0	6.291119739153065e+17
19340.0	6.289158561595391e+17
19341.0	6.286124203551405e+17
19342.0	6.285046108738902e+17
19343.0	6.285025038652756e+17
19344.0	6.281191293801815e+17
19345.0	6.274614771930452e+17
19346.0	6.275164901037395e+17
19347.0	6.276731093297834e+17
19348.0	6.278341040537599e+17
19349.0	6.276915437851988e+17
19350.0	6.274868453922132e+17
19351.0	6.274231324464467e+17
19352.0	6.270502442805926e+17
19353.0	6.271765105169748e+17
19354.0	6.270366905270271e+17
19355.0	6.268191192558254e+17
19356.0	6.267441613111295e+17
19357.0	6.265975933850966e+17
19358.0	6.264384570174121e+17
19359.0	6.262337606516733e+17
19360.0	6.259560632636756e+17
19361.0	6.25980087537937e+17
19362.0	6.25841895706897e+17
19363.0	6.256905060788906e+17
19364.0	6.255343183069183e+17
19365.0	6.253730180278953e+17
19366.0	6.25219722158626e+17
19367.0	6.250554242105343e+17
19368.0	6.248958636589055e+17
19369.0	6.24701673046016e+17
19370.0	6.245440527095126e+17
19371.0	6.243607851128147e+17
19372.0	6.242317997790548e+17
19373.0	6.240363066949631e+17
19374.0	6.238755548910932e+17
19375.0	6.23701298057489e+17
19376.0	6.235263316874579e+17
19377.0	6.233413551215958e+17
19378.0	6.23159880589858e+17
19379.0	6.229765198097066e+17
19380.0	6.227860603098451e+17
19381.0	6.225917292576767e+17
19382.0	6.223364119767722e+17
19383.0	6.221601634779133e+17
19384.0	6.219808944510292e+17
19385.0	6.217755256684543e+17
19386.0	6.215576717011625e+17
19387.0	6.213140993103188e+17
19388.0	6.210323277152255e+17
19389.0	6.206188691652607e+17
19390.0	6.194924219269117e+17
19391.0	6.109019022295002e+17
19392.0	6.170533110480893e+17
19393.0	6.19486030856192e+17
19394.0	6.196004558733311e+17
19395.0	6.194065148215297e+17
19396.0	6.192501689942016e+17
19397.0	6.190380879271252e+17
19398.0	6.186848135151616e+17
19399.0	6.182476721072809e+17
19400.0	6.180917967410516e+17
19401.0	6.179789522774698e+17
19402.0	6.177186843197439e+17
19403.0	6.174152002109439e+17
19404.0	6.171288877924351e+17
19405.0	6.168043566661631e+17
19406.0	6.164863585178964e+17
19407.0	6.160630282540371e+17
19408.0	6.155965451031894e+17
19409.0	6.153932277547007e+17
19410.0	6.15117931815458e+17
19411.0	6.147615876623018e+17
19412.0	6.143786440720383e+17
19413.0	6.139043198795776e+17
19414.0	6.135397966938111e+17
19415.0	6.130837021349203e+17
19416.0	6.12513017513028e+17
19417.0	6.121132394545151e+17
19418.0	6.116634446004223e+17
19419.0	6.111637257846783e+17
19420.0	6.106444927598591e+17
19421.0	6.100931590488064e+17
19422.0	6.094857741970089e+17
19423.0	6.089011843388756e+17
19424.0	6.082641122033663e+17
19425.0	6.07589185425681e+17
19426.0	6.068574239413588e+17
19427.0	6.060648486141952e+17
19428.0	6.051963416346624e+17
19429.0	6.041568498679805e+17
19430.0	6.025287454162944e+17
19431.0	6.010207284319575e+17
19432.0	6.010907617045162e+17
19433.0	6.002412034719744e+17
19434.0	5.990287372801364e+17
19435.0	5.972308513172137e+17
19436.0	5.953759096777386e+17
19437.0	5.930240878575615e+17
19438.0	5.777911893546346e+17
19439.0	5.860706901557238e+17
19440.0	5.892941098778623e+17
19441.0	5.879584486588415e+17
19442.0	5.859219582484481e+17
19443.0	5.834793974147754e+17
19444.0	5.806576138278228e+17
19445.0	5.773461737701377e+17
19446.0	5.7344260004904954e+17
19447.0	5.687255221927933e+17
19448.0	5.6279684252084934e+17
19449.0	5.549585650242901e+17
19450.0	5.4296129495367597e+17
19451.0	5.342526424743938e+17
19452.0	5.497480482739541e+17
19453.0	5.588882211646125e+17
19454.0	5.653522368430076e+17
19455.0	5.703017614890324e+17
19456.0	5.741284923452076e+17
19457.0	5.764016632059222e+17
19458.0	5.434866537595158e+17
19459.0	5.75018359447014e+17
19460.0	5.845890544347816e+17
19461.0	5.870766821561684e+17
19462.0	5.889450055827456e+17
19463.0	5.905435509566121e+17
19464.0	5.919688062140415e+17
19465.0	5.932702795912532e+17
19466.0	5.944080398461609e+17
19467.0	5.954966360773972e+17
19468.0	5.964486349422591e+17
19469.0	5.97119846475366e+17
19470.0	5.980940229323433e+17
19471.0	5.988795624543572e+17
19472.0	5.995653514308265e+17
19473.0	6.001886891081727e+17
19474.0	6.006077841036626e+17
19475.0	6.010087427888467e+17
19476.0	6.017423259293011e+17
19477.0	6.02290485600802e+17
19478.0	6.027260166755668e+17
19479.0	6.029802843318952e+17
19480.0	6.034617243009023e+17
19481.0	6.038100121747455e+17
19482.0	6.041369983669588e+17
19483.0	6.044343111166634e+17
19484.0	6.046996143363412e+17
19485.0	6.049411979979433e+17
19486.0	6.050289509466116e+17
19487.0	6.053869786234879e+17
19488.0	6.05553472709154e+17
19489.0	6.055251979971241e+17
19490.0	6.054685848895487e+17
19491.0	6.059618897756159e+17
19492.0	6.061721810632701e+17
19493.0	6.062831781456554e+17
19494.0	6.063445183736489e+17
19495.0	6.063318463326889e+17
19496.0	6.060678971741523e+17
19497.0	6.055511261358761e+17
19498.0	6.001300730806259e+17
19499.0	5.922580317164887e+17
19500.0	6.050063095343785e+17
19501.0	6.064036787519487e+17
19502.0	6.067666371827028e+17
19503.0	6.069298705465344e+17
19504.0	6.070089280039593e+17
19505.0	6.070450874482687e+17
19506.0	6.070624181725865e+17
19507.0	6.07031485669922e+17
19508.0	6.0693891004061e+17
19509.0	6.066137899641514e+17
19510.0	6.049848830722043e+17
19511.0	5.784638055601422e+17
19512.0	6.001941264640681e+17
19513.0	6.009796396318703e+17
19514.0	6.020528920504988e+17
19515.0	6.061917962152618e+17
19516.0	6.067524641401514e+17
19517.0	6.069258834411519e+17
19518.0	6.069588489229651e+17
19519.0	6.069605945223849e+17
19520.0	6.068392603680764e+17
19521.0	6.070045699123881e+17
19522.0	6.069224299910483e+17
19523.0	6.068955094799702e+17
19524.0	6.067787570435415e+17
19525.0	6.068558559008084e+17
19526.0	6.06823592825105e+17
19527.0	6.067664952055124e+17
19528.0	6.067031132602367e+17
19529.0	6.06638523355409e+17
19530.0	6.066209464254463e+17
19531.0	6.065671684576596e+17
19532.0	6.06507366490658e+17
19533.0	6.064457771909119e+17
19534.0	6.063823803558569e+17
19535.0	6.062980249332393e+17
19536.0	6.062162381722963e+17
19537.0	6.06147807753011e+17
19538.0	6.058235912694444e+17
19539.0	6.05852756152593e+17
19540.0	6.059095132646058e+17
19541.0	6.058318429334186e+17
19542.0	6.057794746013011e+17
19543.0	6.0554535763968e+17
19544.0	6.055862653157373e+17
19545.0	6.05279252049647e+17
19546.0	6.051612607556266e+17
19547.0	6.053626329257299e+17
19548.0	6.053279573562707e+17
19549.0	6.051855961773395e+17
19550.0	6.051864848105471e+17
19551.0	6.051063733944319e+17
19552.0	6.050214313983999e+17
19553.0	6.04928678699554e+17
19554.0	6.04839351488785e+17
19555.0	6.047360482279424e+17
19556.0	6.046657017806847e+17
19557.0	6.045945340187988e+17
19558.0	6.045077869341353e+17
19559.0	6.044259715121152e+17
19560.0	6.04257038578483e+17
19561.0	6.042295904239615e+17
19562.0	6.040919709756073e+17
19563.0	6.040700590926505e+17
19564.0	6.039773838486186e+17
19565.0	6.038848626753535e+17
19566.0	6.037807131437737e+17
19567.0	6.036995077133652e+17
19568.0	6.035875550287188e+17
19569.0	6.035007073506643e+17
19570.0	6.034163796104531e+17
19571.0	6.033244264857599e+17
19572.0	6.032044759624364e+17
19573.0	6.031083283240276e+17
19574.0	6.029602882671954e+17
19575.0	6.029423455939242e+17
19576.0	6.028317408886783e+17
19577.0	6.026971375643306e+17
19578.0	6.02640017924642e+17
19579.0	6.025326933049343e+17
19580.0	6.024376245813245e+17
19581.0	6.023560454384298e+17
19582.0	6.022620322813267e+17
19583.0	6.021674584855892e+17
19584.0	6.020640484098047e+17
19585.0	6.01882149274692e+17
19586.0	6.017565522395139e+17
19587.0	6.017177315093161e+17
19588.0	6.015107858781526e+17
19589.0	6.015103758150314e+17
19590.0	6.013983783911423e+17
19591.0	6.013650002597203e+17
19592.0	6.012768821269844e+17
19593.0	6.01145437602884e+17
19594.0	6.008790996484092e+17
19595.0	6.009588198757716e+17
19596.0	6.007220977620308e+17
19597.0	6.007501423465812e+17
19598.0	6.004594628886527e+17
19599.0	6.005404983798442e+17
19600.0	6.0045360903837e+17
19601.0	6.003076739629057e+17
19602.0	6.001589876337321e+17
19603.0	5.999577705829715e+17
19604.0	5.999357265095338e+17
19605.0	5.997624116467034e+17
19606.0	5.998303158206463e+17
19607.0	5.997413812666367e+17
19608.0	5.996395106402301e+17
19609.0	5.995193677381631e+17
19610.0	5.993640092499968e+17
19611.0	5.992218473704106e+17
19612.0	5.992381582497107e+17
19613.0	5.99123578462754e+17
19614.0	5.989903140301481e+17
19615.0	5.988810613587968e+17
19616.0	5.986275120469334e+17
19617.0	5.98513416072943e+17
19618.0	5.982544280769875e+17
19619.0	5.980500177627816e+17
19620.0	5.980468674909522e+17
19621.0	5.980233815556095e+17
19622.0	5.981224373146964e+17
19623.0	5.980008129844564e+17
19624.0	5.97846531174127e+17
19625.0	5.977364111207082e+17
19626.0	5.975412753913171e+17
19627.0	5.972773031641087e+17
19628.0	5.968396994041172e+17
19629.0	5.956939053793275e+17
19630.0	5.940346549349032e+17
19631.0	5.922750182981632e+17
19632.0	5.952752584054099e+17
19633.0	5.96179673800158e+17
19634.0	5.96521517056e+17
19635.0	5.965461397875369e+17
19636.0	5.963945877001555e+17
19637.0	5.960876635630254e+17
19638.0	5.964360966296915e+17
19639.0	5.963560653946879e+17
19640.0	5.961160754287956e+17
19641.0	5.957685295273303e+17
19642.0	5.960510114977108e+17
19643.0	5.959549973080746e+17
19644.0	5.958311042788009e+17
19645.0	5.957109425023657e+17
19646.0	5.954907365092006e+17
19647.0	5.955934062903295e+17
19648.0	5.954950118331731e+17
19649.0	5.953933100974079e+17
19650.0	5.952944860736169e+17
19651.0	5.95186911683106e+17
19652.0	5.950815980224512e+17
19653.0	5.949778551985492e+17
19654.0	5.948727662127786e+17
19655.0	5.947647693859497e+17
19656.0	5.946692235602601e+17
19657.0	5.945605176863402e+17
19658.0	5.944591575067306e+17
19659.0	5.943551841359188e+17
19660.0	5.942524623454207e+17
19661.0	5.941424560275455e+17
19662.0	5.940350867385002e+17
19663.0	5.939131613271379e+17
19664.0	5.938048899132074e+17
19665.0	5.937215860725075e+17
19666.0	5.936118463725567e+17
