# Flux units: erg / (cm m2 s)
# Wavelength units: Angstrom
wave	flux
19000.0	7.373780022897321e+17
19001.0	7.372381941137407e+17
19002.0	7.371107724165119e+17
19003.0	7.369769648914432e+17
19004.0	7.368431607218175e+17
19005.0	7.367093494218752e+17
19006.0	7.365753103712255e+17
19007.0	7.364409068355583e+17
19008.0	7.363084901416957e+17
19009.0	7.361828631871487e+17
19010.0	7.360419359708499e+17
19011.0	7.359216659813718e+17
19012.0	7.357835391620436e+17
19013.0	7.356555382314323e+17
19014.0	7.355178414680745e+17
19015.0	7.353848750407679e+17
19016.0	7.352519161632083e+17
19017.0	7.351188876602025e+17
19018.0	7.349838249197568e+17
19019.0	7.348496867437225e+17
19020.0	7.347143611602259e+17
19021.0	7.34581141536768e+17
19022.0	7.344471958792874e+17
19023.0	7.343092169790803e+17
19024.0	7.34176269565952e+17
19025.0	7.340422005959338e+17
19026.0	7.339066425081855e+17
19027.0	7.337710076646738e+17
19028.0	7.336378908016637e+17
19029.0	7.335032670650365e+17
19030.0	7.333695455231997e+17
19031.0	7.33234585403392e+17
19032.0	7.330993877461672e+17
19033.0	7.329580148151636e+17
19034.0	7.328251289184938e+17
19035.0	7.326692176909654e+17
19036.0	7.32361629106176e+17
19037.0	7.324058563641343e+17
19038.0	7.322852736193875e+17
19039.0	7.321543573678761e+17
19040.0	7.320202215686143e+17
19041.0	7.318855993698985e+17
19042.0	7.317439940744531e+17
19043.0	7.316158055186432e+17
19044.0	7.314800329621501e+17
19045.0	7.313453387612157e+17
19046.0	7.3120831504384e+17
19047.0	7.310717733918036e+17
19048.0	7.309328795740841e+17
19049.0	7.307972141121535e+17
19050.0	7.306635744990548e+17
19051.0	7.305041294305962e+17
19052.0	7.303836800647165e+17
19053.0	7.302622306369535e+17
19054.0	7.301288966488063e+17
19055.0	7.299782969480531e+17
19056.0	7.29857897074961e+17
19057.0	7.297236388020224e+17
19058.0	7.295872341639168e+17
19059.0	7.294535351315114e+17
19060.0	7.293179742475603e+17
19061.0	7.291832274780157e+17
19062.0	7.290477752265385e+17
19063.0	7.289121019352404e+17
19064.0	7.287724397210281e+17
19065.0	7.286316292461908e+17
19066.0	7.285025305264127e+17
19067.0	7.283716153933823e+17
19068.0	7.282364208119807e+17
19069.0	7.281011180175357e+17
19070.0	7.279646894718975e+17
19071.0	7.278305086537727e+17
19072.0	7.276952004067327e+17
19073.0	7.275597860438015e+17
19074.0	7.274245405715113e+17
19075.0	7.272891130664275e+17
19076.0	7.27153212863283e+17
19077.0	7.270173993424211e+17
19078.0	7.268820358703785e+17
19079.0	7.267475351666687e+17
19080.0	7.266113125613565e+17
19081.0	7.264738870296575e+17
19082.0	7.263401548622505e+17
19083.0	7.261986141590867e+17
19084.0	7.260551025524735e+17
19085.0	7.25934706594065e+17
19086.0	7.257741719852372e+17
19087.0	7.256611701653501e+17
19088.0	7.255224864822611e+17
19089.0	7.253801041220948e+17
19090.0	7.2525519271581e+17
19091.0	7.251208757226153e+17
19092.0	7.249827986756948e+17
19093.0	7.24851731149619e+17
19094.0	7.247165263620778e+17
19095.0	7.245811763118079e+17
19096.0	7.244453896344916e+17
19097.0	7.243102041407487e+17
19098.0	7.241746334700883e+17
19099.0	7.24039145427217e+17
19100.0	7.239038459882153e+17
19101.0	7.237677169158825e+17
19102.0	7.236294000945833e+17
19103.0	7.234976175794858e+17
19104.0	7.233622458586451e+17
19105.0	7.232256355598335e+17
19106.0	7.230905943501481e+17
19107.0	7.229542256432468e+17
19108.0	7.228173745913855e+17
19109.0	7.226766042420564e+17
19110.0	7.225449780346879e+17
19111.0	7.224124735400616e+17
19112.0	7.22277840715776e+17
19113.0	7.221430092212905e+17
19114.0	7.220073816479062e+17
19115.0	7.218696363704317e+17
19116.0	7.217346266180266e+17
19117.0	7.215986949576019e+17
19118.0	7.214520660044458e+17
19119.0	7.21143372919603e+17
19120.0	7.211869762049364e+17
19121.0	7.210566728810496e+17
19122.0	7.209232896797356e+17
19123.0	7.207879917786451e+17
19124.0	7.206502175604735e+17
19125.0	7.205149399318527e+17
19126.0	7.203707171110911e+17
19127.0	7.201821781131264e+17
19128.0	7.200971661421225e+17
19129.0	7.199674714117459e+17
19130.0	7.198383040451923e+17
19131.0	7.197043006461266e+17
19132.0	7.195688422430035e+17
19133.0	7.194306632744957e+17
19134.0	7.192974616865449e+17
19135.0	7.191624032802131e+17
19136.0	7.190264579183958e+17
19137.0	7.188867610312704e+17
19138.0	7.187546025667241e+17
19139.0	7.18620639572787e+17
19140.0	7.184854496051199e+17
19141.0	7.183499651973119e+17
19142.0	7.18212765598788e+17
19143.0	7.180770475682474e+17
19144.0	7.179403761724074e+17
19145.0	7.178074695838377e+17
19146.0	7.17634606936883e+17
19147.0	7.175338594751828e+17
19148.0	7.174003045870249e+17
19149.0	7.17264852615168e+17
19150.0	7.171295667377492e+17
19151.0	7.16993943778099e+17
19152.0	7.168580564374867e+17
19153.0	7.167197313673897e+17
19154.0	7.165827641333075e+17
19155.0	7.164469170580138e+17
19156.0	7.163107596042237e+17
19157.0	7.161737374247594e+17
19158.0	7.160356472356863e+17
19159.0	7.1590188431005e+17
19160.0	7.157662452722345e+17
19161.0	7.156288683944617e+17
19162.0	7.154839698713258e+17
19163.0	7.15354727985971e+17
19164.0	7.152238915660457e+17
19165.0	7.150882803504467e+17
19166.0	7.149493623455743e+17
19167.0	7.148168894480383e+17
19168.0	7.146823605026815e+17
19169.0	7.14547011990323e+17
19170.0	7.144115186346666e+17
19171.0	7.142755915879764e+17
19172.0	7.141399890406058e+17
19173.0	7.140040433991679e+17
19174.0	7.138665211188563e+17
19175.0	7.137321589669888e+17
19176.0	7.135965059481599e+17
19177.0	7.134498567225343e+17
19178.0	7.133226689276586e+17
19179.0	7.131864410095615e+17
19180.0	7.130501866673492e+17
19181.0	7.129106133723817e+17
19182.0	7.127773597750612e+17
19183.0	7.126429670047743e+17
19184.0	7.125068377926313e+17
19185.0	7.123706628625748e+17
19186.0	7.122345151954943e+17
19187.0	7.120936201355263e+17
19188.0	7.119617816963753e+17
19189.0	7.118255308494164e+17
19190.0	7.116889027947177e+17
19191.0	7.115502230263123e+17
19192.0	7.114153114206207e+17
19193.0	7.112779838958249e+17
19194.0	7.111392602270378e+17
19195.0	7.110011434740393e+17
19196.0	7.108600279334911e+17
19197.0	7.107146438497619e+17
19198.0	7.105559264930472e+17
19199.0	7.103514366967807e+17
19200.0	7.102243116766547e+17
19201.0	7.10148935979281e+17
19202.0	7.100330029001386e+17
19203.0	7.099042163763881e+17
19204.0	7.097715836758697e+17
19205.0	7.096368068471466e+17
19206.0	7.095018721727827e+17
19207.0	7.093582863269887e+17
19208.0	7.092225030051156e+17
19209.0	7.090925739529556e+17
19210.0	7.089565619017044e+17
19211.0	7.088203365001897e+17
19212.0	7.086831292121087e+17
19213.0	7.085400872277332e+17
19214.0	7.084046601420799e+17
19215.0	7.082706872216233e+17
19216.0	7.081331902469459e+17
19217.0	7.079917256004947e+17
19218.0	7.078336431215956e+17
19219.0	7.077036981310804e+17
19220.0	7.075749357944832e+17
19221.0	7.074319635753641e+17
19222.0	7.072999313593683e+17
19223.0	7.071643310489599e+17
19224.0	7.070245821524649e+17
19225.0	7.068868909815123e+17
19226.0	7.067510647379284e+17
19227.0	7.066134998155261e+17
19228.0	7.064775077571242e+17
19229.0	7.0633933256349e+17
19230.0	7.062010571259901e+17
19231.0	7.060618253871785e+17
19232.0	7.059239042285565e+17
19233.0	7.057817820550484e+17
19234.0	7.056466329119402e+17
19235.0	7.05507155386914e+17
19236.0	7.053698526085117e+17
19237.0	7.052305705380521e+17
19238.0	7.050872907366399e+17
19239.0	7.049533596194131e+17
19240.0	7.04814274122001e+17
19241.0	7.046738126132564e+17
19242.0	7.045349259258538e+17
19243.0	7.043858802147327e+17
19244.0	7.042572750247254e+17
19245.0	7.041176095948799e+17
19246.0	7.039775918434985e+17
19247.0	7.03837990167074e+17
19248.0	7.036982219068756e+17
19249.0	7.035581065680211e+17
19250.0	7.034167654438228e+17
19251.0	7.032719682131284e+17
19252.0	7.031103912498516e+17
19253.0	7.029873637152084e+17
19254.0	7.02847955116578e+17
19255.0	7.02694323003938e+17
19256.0	7.025650171554474e+17
19257.0	7.024250781171711e+17
19258.0	7.022837977404756e+17
19259.0	7.021371087388671e+17
19260.0	7.019959339887273e+17
19261.0	7.018577688614228e+17
19262.0	7.017125259859284e+17
19263.0	7.015672696187562e+17
19264.0	7.014110810079231e+17
19265.0	7.012793549062143e+17
19266.0	7.011385495344468e+17
19267.0	7.010044730845866e+17
19268.0	7.008617187595604e+17
19269.0	7.00718139974178e+17
19270.0	7.005718611055956e+17
19271.0	7.004190906428073e+17
19272.0	7.002837312951636e+17
19273.0	7.001235718668287e+17
19274.0	6.999592741284521e+17
19275.0	6.99839613571345e+17
19276.0	6.996936180279977e+17
19277.0	6.995490026203817e+17
19278.0	6.994039405892948e+17
19279.0	6.992573644144639e+17
19280.0	6.991098062831615e+17
19281.0	6.989646661681151e+17
19282.0	6.988192165134336e+17
19283.0	6.986714994879146e+17
19284.0	6.985220246295892e+17
19285.0	6.983727947186175e+17
19286.0	6.982252126797823e+17
19287.0	6.980755724260691e+17
19288.0	6.9784939556154e+17
19289.0	6.976582637846527e+17
19290.0	6.976289106471593e+17
19291.0	6.97456738103023e+17
19292.0	6.973228285864617e+17
19293.0	6.971735196128596e+17
19294.0	6.970229645115391e+17
19295.0	6.968733645930495e+17
19296.0	6.967220833878015e+17
19297.0	6.965706090348541e+17
19298.0	6.96418203476514e+17
19299.0	6.962675953871529e+17
19300.0	6.961157696913407e+17
19301.0	6.959629931468116e+17
19302.0	6.958089448893097e+17
19303.0	6.956525163642879e+17
19304.0	6.95500198117376e+17
19305.0	6.953373098748586e+17
19306.0	6.951828293244244e+17
19307.0	6.950240343031807e+17
19308.0	6.948679840344746e+17
19309.0	6.947091659445587e+17
19310.0	6.945447911707988e+17
19311.0	6.943894335913983e+17
19312.0	6.942337431939753e+17
19313.0	6.940737829251754e+17
19314.0	6.937122376952489e+17
19315.0	6.935656505453226e+17
19316.0	6.93592342396928e+17
19317.0	6.93434112348433e+17
19318.0	6.932722085090644e+17
19319.0	6.931107805134847e+17
19320.0	6.929469100348755e+17
19321.0	6.927817537923754e+17
19322.0	6.926150299986602e+17
19323.0	6.924499342240425e+17
19324.0	6.922837378640553e+17
19325.0	6.921156056230569e+17
19326.0	6.919478447876778e+17
19327.0	6.91778464321809e+17
19328.0	6.916076597499219e+17
19329.0	6.914367249448959e+17
19330.0	6.912625978550953e+17
19331.0	6.910752592669354e+17
19332.0	6.909029906732372e+17
19333.0	6.907270505955327e+17
19334.0	6.905499122051753e+17
19335.0	6.903699885872468e+17
19336.0	6.90192041325363e+17
19337.0	6.90011293946129e+17
19338.0	6.898173981928105e+17
19339.0	6.896462848502442e+17
19340.0	6.894583803805695e+17
19341.0	6.892712777919146e+17
19342.0	6.890782352299348e+17
19343.0	6.88898473791761e+17
19344.0	6.887041206495914e+17
19345.0	6.884491969342121e+17
19346.0	6.882636702154751e+17
19347.0	6.881124332601343e+17
19348.0	6.879258068647933e+17
19349.0	6.877305329330857e+17
19350.0	6.875344206998185e+17
19351.0	6.873362427718314e+17
19352.0	6.871280898102612e+17
19353.0	6.869309849250473e+17
19354.0	6.867256134860799e+17
19355.0	6.865113589306708e+17
19356.0	6.863066318067028e+17
19357.0	6.860938732197204e+17
19358.0	6.858784502710271e+17
19359.0	6.856366662615039e+17
19360.0	6.854159586295807e+17
19361.0	6.851953393576617e+17
19362.0	6.849716420258474e+17
19363.0	6.847442312669865e+17
19364.0	6.845138140310185e+17
19365.0	6.84280757878784e+17
19366.0	6.84043730559522e+17
19367.0	6.838030726507178e+17
19368.0	6.835573450866687e+17
19369.0	6.833059464041812e+17
19370.0	6.830264154761898e+17
19371.0	6.827699103683924e+17
19372.0	6.825123076112383e+17
19373.0	6.82239838003746e+17
19374.0	6.819753234530303e+17
19375.0	6.817054303365802e+17
19376.0	6.814311124391252e+17
19377.0	6.811501642558121e+17
19378.0	6.808690422185983e+17
19379.0	6.80584035906355e+17
19380.0	6.802930175486633e+17
19381.0	6.79971004752418e+17
19382.0	6.796695744544765e+17
19383.0	6.793701332353023e+17
19384.0	6.790668127043583e+17
19385.0	6.787486311951017e+17
19386.0	6.784230083614036e+17
19387.0	6.780732466790399e+17
19388.0	6.777325922986665e+17
19389.0	6.77386270015488e+17
19390.0	6.770278524081494e+17
19391.0	6.765190605438973e+17
19392.0	6.762718763679743e+17
19393.0	6.759118983397375e+17
19394.0	6.755107932733439e+17
19395.0	6.751163755353427e+17
19396.0	6.747117041920681e+17
19397.0	6.742961832329216e+17
19398.0	6.738663258630825e+17
19399.0	6.733993140901203e+17
19400.0	6.729234024934057e+17
19401.0	6.724617600587092e+17
19402.0	6.719839670370301e+17
19403.0	6.714890653794304e+17
19404.0	6.709828217645738e+17
19405.0	6.704613268215123e+17
19406.0	6.699279525609471e+17
19407.0	6.693791963895124e+17
19408.0	6.687967308065449e+17
19409.0	6.682456002396159e+17
19410.0	6.676536316220755e+17
19411.0	6.670231752321704e+17
19412.0	6.663703557221033e+17
19413.0	6.656926865686527e+17
19414.0	6.649807038141779e+17
19415.0	6.642343213356372e+17
19416.0	6.634749598629887e+17
19417.0	6.627007581039273e+17
19418.0	6.618811149757097e+17
19419.0	6.610015523001684e+17
19420.0	6.601020377399295e+17
19421.0	6.591737164901034e+17
19422.0	6.582010073404756e+17
19423.0	6.571903401590783e+17
19424.0	6.561522590766422e+17
19425.0	6.550548264255487e+17
19426.0	6.538809362262697e+17
19427.0	6.526386005082111e+17
19428.0	6.513329417748479e+17
19429.0	6.499539032735741e+17
19430.0	6.484906299359232e+17
19431.0	6.469261462951254e+17
19432.0	6.453114564160169e+17
19433.0	6.435856871762602e+17
19434.0	6.417421764831913e+17
19435.0	6.397541130873513e+17
19436.0	6.376006860406784e+17
19437.0	6.353104498152788e+17
19438.0	6.326254419225257e+17
19439.0	6.300949196133716e+17
19440.0	6.272374785004883e+17
19441.0	6.240203393291603e+17
19442.0	6.204548576881322e+17
19443.0	6.165000312498857e+17
19444.0	6.120175559158438e+17
19445.0	6.069088401664684e+17
19446.0	6.009717640571561e+17
19447.0	5.939406098311846e+17
19448.0	5.853790195766616e+17
19449.0	5.7450211108891296e+17
19450.0	5.592018652758007e+17
19451.0	5.492680798765056e+17
19452.0	5.6768557793061536e+17
19453.0	5.80049909300156e+17
19454.0	5.893781633804966e+17
19455.0	5.968619939474089e+17
19456.0	6.030670468655789e+17
19457.0	6.083180423544828e+17
19458.0	6.124537215188997e+17
19459.0	6.167903856492545e+17
19460.0	6.203385950765053e+17
19461.0	6.234942201659391e+17
19462.0	6.2630773915648e+17
19463.0	6.288691722278227e+17
19464.0	6.312196290816681e+17
19465.0	6.333451686903807e+17
19466.0	6.353176581461331e+17
19467.0	6.371459143652691e+17
19468.0	6.38800008192546e+17
19469.0	6.403366888407037e+17
19470.0	6.417732738220031e+17
19471.0	6.431255381934079e+17
19472.0	6.443785521900201e+17
19473.0	6.45543869231923e+17
19474.0	6.466349955372372e+17
19475.0	6.476334308698793e+17
19476.0	6.486201073314473e+17
19477.0	6.495062045928106e+17
19478.0	6.50324562027042e+17
19479.0	6.510970750195028e+17
19480.0	6.51840906732066e+17
19481.0	6.525388300397225e+17
19482.0	6.532047642995369e+17
19483.0	6.538390529551017e+17
19484.0	6.544454441762816e+17
19485.0	6.549911187925674e+17
19486.0	6.555060512576852e+17
19487.0	6.559998964400125e+17
19488.0	6.564846003464874e+17
19489.0	6.569062605083988e+17
19490.0	6.572945765127507e+17
19491.0	6.577218614460415e+17
19492.0	6.580932474219177e+17
19493.0	6.584199209986729e+17
19494.0	6.587339093224105e+17
19495.0	6.590340216302249e+17
19496.0	6.593067335286783e+17
19497.0	6.595867917505876e+17
19498.0	6.597802061376169e+17
19499.0	6.598627411623935e+17
19500.0	6.603264595678548e+17
19501.0	6.605585884293801e+17
19502.0	6.607825361611434e+17
19503.0	6.610071609933823e+17
19504.0	6.611877846406484e+17
19505.0	6.613563528096426e+17
19506.0	6.6151350023837e+17
19507.0	6.616594138529791e+17
19508.0	6.617972093222911e+17
19509.0	6.619505544047273e+17
19510.0	6.620561672590675e+17
19511.0	6.618335976357885e+17
19512.0	6.622106327100074e+17
19513.0	6.622893682546003e+17
19514.0	6.623964485561001e+17
19515.0	6.625452126896127e+17
19516.0	6.626467160347988e+17
19517.0	6.627179506958335e+17
19518.0	6.627809231372287e+17
19519.0	6.628312390565887e+17
19520.0	6.628753814497962e+17
19521.0	6.629275225904468e+17
19522.0	6.629844404142079e+17
19523.0	6.630202156602708e+17
19524.0	6.630498240211626e+17
19525.0	6.630762656825343e+17
19526.0	6.631017159502505e+17
19527.0	6.631214226079743e+17
19528.0	6.631354122196308e+17
19529.0	6.6314619598493e+17
19530.0	6.631641256558591e+17
19531.0	6.631682405477034e+17
19532.0	6.631760696355498e+17
19533.0	6.631919268309674e+17
19534.0	6.63185906536721e+17
19535.0	6.631749480786601e+17
19536.0	6.631588032238932e+17
19537.0	6.631419155578879e+17
19538.0	6.631106692513791e+17
19539.0	6.630794889352531e+17
19540.0	6.630674612791978e+17
19541.0	6.630408074559487e+17
19542.0	6.63008555704866e+17
19543.0	6.629772107623081e+17
19544.0	6.629557561283924e+17
19545.0	6.628931534148948e+17
19546.0	6.628454327211348e+17
19547.0	6.628320705074516e+17
19548.0	6.627893319477929e+17
19549.0	6.627347602079743e+17
19550.0	6.626891405109929e+17
19551.0	6.626388019423914e+17
19552.0	6.625856615787178e+17
19553.0	6.625281153084073e+17
19554.0	6.624699884066131e+17
19555.0	6.624111614754815e+17
19556.0	6.623570403437225e+17
19557.0	6.623053806392659e+17
19558.0	6.622427381497855e+17
19559.0	6.621788698749609e+17
19560.0	6.621116923641855e+17
19561.0	6.620448866784596e+17
19562.0	6.619787013302953e+17
19563.0	6.619095050310996e+17
19564.0	6.618391318102013e+17
19565.0	6.617675657991508e+17
19566.0	6.616936841128617e+17
19567.0	6.616210485542911e+17
19568.0	6.615446871954772e+17
19569.0	6.614702965303977e+17
19570.0	6.613937388781567e+17
19571.0	6.6131577550493e+17
19572.0	6.612402153979901e+17
19573.0	6.611668497509034e+17
19574.0	6.610800531734527e+17
19575.0	6.610039188662953e+17
19576.0	6.609206265599316e+17
19577.0	6.608360490489171e+17
19578.0	6.607501427124905e+17
19579.0	6.606636315574272e+17
19580.0	6.605772545501865e+17
19581.0	6.604912233633108e+17
19582.0	6.60403611972403e+17
19583.0	6.603147725591892e+17
19584.0	6.602251467838804e+17
19585.0	6.601278802449748e+17
19586.0	6.60035335234082e+17
19587.0	6.599497824774826e+17
19588.0	6.598440553283583e+17
19589.0	6.597629000198826e+17
19590.0	6.596683418129748e+17
19591.0	6.595786458529791e+17
19592.0	6.594838768123903e+17
19593.0	6.593871289690793e+17
19594.0	6.592801050809684e+17
19595.0	6.592003776533844e+17
19596.0	6.591002551429801e+17
19597.0	6.590061388759039e+17
19598.0	6.588988334101844e+17
19599.0	6.588183480718676e+17
19600.0	6.587210056160595e+17
19601.0	6.58619576230434e+17
19602.0	6.585173978120191e+17
19603.0	6.584094947977897e+17
19604.0	6.58318010945809e+17
19605.0	6.582081482129408e+17
19606.0	6.581224654329172e+17
19607.0	6.580221624276308e+17
19608.0	6.579199354251946e+17
19609.0	6.578167865147391e+17
19610.0	6.577166677792084e+17
19611.0	6.576141234077695e+17
19612.0	6.575404580776617e+17
19613.0	6.574427052092072e+17
19614.0	6.573372997631999e+17
19615.0	6.572357031646548e+17
19616.0	6.571296756334591e+17
19617.0	6.570238537629695e+17
19618.0	6.56893914854195e+17
19619.0	6.567812671034708e+17
19620.0	6.566870964502527e+17
19621.0	6.566040176339625e+17
19622.0	6.565020643098623e+17
19623.0	6.563969224758612e+17
19624.0	6.562901821926058e+17
19625.0	6.561840872729257e+17
19626.0	6.560766502458707e+17
19627.0	6.559677764599805e+17
19628.0	6.558589765637459e+17
19629.0	6.557441467263657e+17
19630.0	6.556021155692541e+17
19631.0	6.554476575981567e+17
19632.0	6.554214835333802e+17
19633.0	6.553274017994068e+17
19634.0	6.5522592396957e+17
19635.0	6.5511669905053e+17
19636.0	6.550109132510547e+17
19637.0	6.548782156786346e+17
19638.0	6.5479394735773e+17
19639.0	6.546840686166016e+17
19640.0	6.545649564647423e+17
19641.0	6.544328825154217e+17
19642.0	6.543549545141588e+17
19643.0	6.542453488921257e+17
19644.0	6.541308757803007e+17
19645.0	6.540169437336916e+17
19646.0	6.539145407802026e+17
19647.0	6.538058802047657e+17
19648.0	6.536955798661801e+17
19649.0	6.535849499252052e+17
19650.0	6.534742572793855e+17
19651.0	6.533680410045097e+17
19652.0	6.532586406237526e+17
19653.0	6.531475859395926e+17
19654.0	6.530357613909331e+17
19655.0	6.529248018475689e+17
19656.0	6.528132843219625e+17
19657.0	6.527019194690217e+17
19658.0	6.525902436084394e+17
19659.0	6.524784114401279e+17
19660.0	6.52366554735138e+17
19661.0	6.522545197722282e+17
19662.0	6.52142173102626e+17
19663.0	6.520287847776255e+17
19664.0	6.519174753594025e+17
19665.0	6.518055667848531e+17
