# Flux units: erg / (cm m2 s)
# Wavelength units: Angstrom
wave	flux
19000.0	6.458484319059967e+17
19001.0	6.457203395395583e+17
19002.0	6.456054059630591e+17
19003.0	6.454834127437824e+17
19004.0	6.453616158179327e+17
19005.0	6.452400812457983e+17
19006.0	6.451184510435327e+17
19007.0	6.449846944792576e+17
19008.0	6.448703245473108e+17
19009.0	6.447521245866666e+17
19010.0	6.44599221793587e+17
19011.0	6.445089724650836e+17
19012.0	6.443726258481833e+17
19013.0	6.442673421068969e+17
19014.0	6.441417464698195e+17
19015.0	6.440220926935039e+17
19016.0	6.439000830465364e+17
19017.0	6.437611328154282e+17
19018.0	6.436586180837373e+17
19019.0	6.435381761277951e+17
19020.0	6.434121439335763e+17
19021.0	6.432930388421289e+17
19022.0	6.431747950510079e+17
19023.0	6.430507253017257e+17
19024.0	6.4293079889565e+17
19025.0	6.428094680268799e+17
19026.0	6.426869979152383e+17
19027.0	6.425606610747391e+17
19028.0	6.424472548540415e+17
19029.0	6.423248348643327e+17
19030.0	6.422056524578815e+17
19031.0	6.420849171802793e+17
19032.0	6.419636649547092e+17
19033.0	6.418363731410943e+17
19034.0	6.417200534170282e+17
19035.0	6.415979802962601e+17
19036.0	6.406909119343268e+17
19037.0	6.413574497544874e+17
19038.0	6.41235739021585e+17
19039.0	6.41116029391121e+17
19040.0	6.409954959993514e+17
19041.0	6.408740351071572e+17
19042.0	6.407474047352831e+17
19043.0	6.406325770649599e+17
19044.0	6.405110358518441e+17
19045.0	6.403906325534036e+17
19046.0	6.402656444612607e+17
19047.0	6.401492702112425e+17
19048.0	6.400139408528723e+17
19049.0	6.399028914115923e+17
19050.0	6.397836093205161e+17
19051.0	6.395633894162428e+17
19052.0	6.395391258569385e+17
19053.0	6.394216817797801e+17
19054.0	6.393040034507433e+17
19055.0	6.391663195499178e+17
19056.0	6.390611143120211e+17
19057.0	6.389417623158783e+17
19058.0	6.388174022508544e+17
19059.0	6.387009479595348e+17
19060.0	6.385790769343146e+17
19061.0	6.384603960967168e+17
19062.0	6.383394559273641e+17
19063.0	6.382192113833299e+17
19064.0	6.380898931616426e+17
19065.0	6.379658552191657e+17
19066.0	6.378537507007145e+17
19067.0	6.377367371688617e+17
19068.0	6.376171950309376e+17
19069.0	6.374970451383635e+17
19070.0	6.373746695383721e+17
19071.0	6.372557852071252e+17
19072.0	6.371362090254335e+17
19073.0	6.370155305806505e+17
19074.0	6.368959899107328e+17
19075.0	6.367757968168276e+17
19076.0	6.366540523896832e+17
19077.0	6.365349238800383e+17
19078.0	6.364093466279936e+17
19079.0	6.362950184293715e+17
19080.0	6.361742255499946e+17
19081.0	6.360517400592383e+17
19082.0	6.359297779477161e+17
19083.0	6.358071744572073e+17
19084.0	6.356781157231273e+17
19085.0	6.355741454980436e+17
19086.0	6.354275621928959e+17
19087.0	6.35315083612433e+17
19088.0	6.352102922824361e+17
19089.0	6.350721319785812e+17
19090.0	6.349732790140927e+17
19091.0	6.348539027608916e+17
19092.0	6.347270319155882e+17
19093.0	6.346159379447807e+17
19094.0	6.344953353469952e+17
19095.0	6.343754229918378e+17
19096.0	6.342535091148116e+17
19097.0	6.341371368920404e+17
19098.0	6.3401745200797e+17
19099.0	6.33897277858338e+17
19100.0	6.337770077989546e+17
19101.0	6.336585303851007e+17
19102.0	6.335332821062996e+17
19103.0	6.334193695632041e+17
19104.0	6.33300387434769e+17
19105.0	6.331806494927529e+17
19106.0	6.330575953242793e+17
19107.0	6.329406263918591e+17
19108.0	6.328225143018838e+17
19109.0	6.326206007170387e+17
19110.0	6.325834660970496e+17
19111.0	6.324641235380906e+17
19112.0	6.323450909381972e+17
19113.0	6.322256730914815e+17
19114.0	6.321061803764393e+17
19115.0	6.31982797234722e+17
19116.0	6.31866406347298e+17
19117.0	6.317474707756371e+17
19118.0	6.316201569419263e+17
19119.0	6.313390482565798e+17
19120.0	6.31384791196194e+17
19121.0	6.312687952024916e+17
19122.0	6.311530828136447e+17
19123.0	6.310321982188201e+17
19124.0	6.309111396302847e+17
19125.0	6.307946309528233e+17
19126.0	6.306722622035284e+17
19127.0	6.304458749247485e+17
19128.0	6.303627299083603e+17
19129.0	6.303135526726314e+17
19130.0	6.302001396012372e+17
19131.0	6.30079420891136e+17
19132.0	6.299629363309225e+17
19133.0	6.297896641101824e+17
19134.0	6.296879164467882e+17
19135.0	6.29606343385634e+17
19136.0	6.294881669829974e+17
19137.0	6.293585598436692e+17
19138.0	6.292361333527891e+17
19139.0	6.291318071711059e+17
19140.0	6.290133041020927e+17
19141.0	6.288946707999402e+17
19142.0	6.287740442946218e+17
19143.0	6.286530544227668e+17
19144.0	6.285354766172159e+17
19145.0	6.284196177772543e+17
19146.0	6.282597544667818e+17
19147.0	6.281771481388372e+17
19148.0	6.280639395397631e+17
19149.0	6.279453925004627e+17
19150.0	6.278263146719914e+17
19151.0	6.277088977879037e+17
19152.0	6.275876396204031e+17
19153.0	6.274710012690431e+17
19154.0	6.273455922085885e+17
19155.0	6.272355721893204e+17
19156.0	6.271173042809513e+17
19157.0	6.269981932475731e+17
19158.0	6.268231675980457e+17
19159.0	6.267611834744831e+17
19160.0	6.266398235252052e+17
19161.0	6.265181722815146e+17
19162.0	6.262804648558592e+17
19163.0	6.262891445485567e+17
19164.0	6.261717143825066e+17
19165.0	6.260512603329876e+17
19166.0	6.259266433668435e+17
19167.0	6.258052951616169e+17
19168.0	6.256862670356477e+17
19169.0	6.255732557086719e+17
19170.0	6.25463185707281e+17
19171.0	6.253390383633747e+17
19172.0	6.25226456113698e+17
19173.0	6.251091159853737e+17
19174.0	6.249874861326335e+17
19175.0	6.248734679629823e+17
19176.0	6.247552052974934e+17
19177.0	6.246276239370921e+17
19178.0	6.245187602175316e+17
19179.0	6.243932242094762e+17
19180.0	6.242591353864191e+17
19181.0	6.241593616323924e+17
19182.0	6.240369491225258e+17
19183.0	6.239280995237887e+17
19184.0	6.238005545839273e+17
19185.0	6.236940297480874e+17
19186.0	6.235776541698729e+17
19187.0	6.234540827738111e+17
19188.0	6.233413293965311e+17
19189.0	6.232215107141631e+17
19190.0	6.2310326482589e+17
19191.0	6.229859025376595e+17
19192.0	6.228701894497619e+17
19193.0	6.227325905534975e+17
19194.0	6.226262322315263e+17
19195.0	6.225166747041791e+17
19196.0	6.224005541396479e+17
19197.0	6.222835735330815e+17
19198.0	6.221662538170367e+17
19199.0	6.212852101327526e+17
19200.0	6.214517711874733e+17
19201.0	6.218141246597801e+17
19202.0	6.216972603752447e+17
19203.0	6.215784223910569e+17
19204.0	6.21460638016034e+17
19205.0	6.213443667361791e+17
19206.0	6.212267095883776e+17
19207.0	6.211038959632381e+17
19208.0	6.209760254754815e+17
19209.0	6.208721302585344e+17
19210.0	6.207555187507199e+17
19211.0	6.206385970741247e+17
19212.0	6.205221057331199e+17
19213.0	6.203927112450047e+17
19214.0	6.202715526922239e+17
19215.0	6.201680931935571e+17
19216.0	6.200488001972905e+17
19217.0	6.199357108562601e+17
19218.0	6.197648458863954e+17
19219.0	6.196910507425791e+17
19220.0	6.195828177065299e+17
19221.0	6.194449105289215e+17
19222.0	6.193510196357801e+17
19223.0	6.19232047993105e+17
19224.0	6.191062584393727e+17
19225.0	6.189877097223507e+17
19226.0	6.188807295948116e+17
19227.0	6.187636809706153e+17
19228.0	6.186487114629119e+17
19229.0	6.185317426003967e+17
19230.0	6.184106493389481e+17
19231.0	6.182937849845076e+17
19232.0	6.181740070567936e+17
19233.0	6.180588623669929e+17
19234.0	6.179450606933331e+17
19235.0	6.178273991415124e+17
19236.0	6.177131575552681e+17
19237.0	6.175949905199104e+17
19238.0	6.174723480922794e+17
19239.0	6.173624775300438e+17
19240.0	6.172204496584701e+17
19241.0	6.171207014197929e+17
19242.0	6.170091402734249e+17
19243.0	6.168822353144489e+17
19244.0	6.167778659314346e+17
19245.0	6.166609835414867e+17
19246.0	6.165434986397695e+17
19247.0	6.164263127220223e+17
19248.0	6.163109691523072e+17
19249.0	6.161939306643455e+17
19250.0	6.16076022976785e+17
19251.0	6.159545517386409e+17
19252.0	6.158191000464042e+17
19253.0	6.157254257191593e+17
19254.0	6.156064615563263e+17
19255.0	6.154789271721299e+17
19256.0	6.153734645437782e+17
19257.0	6.152594923017556e+17
19258.0	6.151426117293396e+17
19259.0	6.150207040738644e+17
19260.0	6.148993990699689e+17
19261.0	6.147916777390079e+17
19262.0	6.14671627461154e+17
19263.0	6.145555891049812e+17
19264.0	6.144071065490771e+17
19265.0	6.143126236299263e+17
19266.0	6.141990873858047e+17
19267.0	6.140917085896701e+17
19268.0	6.13974143017506e+17
19269.0	6.138574791507967e+17
19270.0	6.137406233946794e+17
19271.0	6.136019996901376e+17
19272.0	6.135047344095232e+17
19273.0	6.12738940272639e+17
19274.0	6.129651987862863e+17
19275.0	6.131565575449257e+17
19276.0	6.130382776827903e+17
19277.0	6.129212620537855e+17
19278.0	6.128046974522708e+17
19279.0	6.126816906095273e+17
19280.0	6.125649453733204e+17
19281.0	6.124533770267305e+17
19282.0	6.123373503447039e+17
19283.0	6.12207880708642e+17
19284.0	6.120749063820628e+17
19285.0	6.119703545468244e+17
19286.0	6.118665190288042e+17
19287.0	6.117517881070931e+17
19288.0	6.11460892852224e+17
19289.0	6.109640258136733e+17
19290.0	6.114000470627667e+17
19291.0	6.112645186846719e+17
19292.0	6.111651856121855e+17
19293.0	6.110473393012733e+17
19294.0	6.109296326606845e+17
19295.0	6.108129729882793e+17
19296.0	6.106949605829289e+17
19297.0	6.105755562977962e+17
19298.0	6.104579655598079e+17
19299.0	6.103423599859028e+17
19300.0	6.102246362884778e+17
19301.0	6.101060434613588e+17
19302.0	6.099879546497706e+17
19303.0	6.098634791714815e+17
19304.0	6.0974794539008e+17
19305.0	6.096335124736682e+17
19306.0	6.095153491432788e+17
19307.0	6.093935743074303e+17
19308.0	6.092774448649556e+17
19309.0	6.091380372449961e+17
19310.0	6.090057329584809e+17
19311.0	6.089207603440297e+17
19312.0	6.088021565418153e+17
19313.0	6.08668030738978e+17
19314.0	6.0827367983022e+17
19315.0	6.081784417266353e+17
19316.0	6.083256896891561e+17
19317.0	6.082069984357033e+17
19318.0	6.080874330892969e+17
19319.0	6.079692299130196e+17
19320.0	6.078461949684393e+17
19321.0	6.077301924036608e+17
19322.0	6.075993601081344e+17
19323.0	6.074772625904982e+17
19324.0	6.073698923227818e+17
19325.0	6.072303992089257e+17
19326.0	6.071274486890495e+17
19327.0	6.07006198211106e+17
19328.0	6.068867521227434e+17
19329.0	6.067659245704531e+17
19330.0	6.066419452084221e+17
19331.0	6.065206857127251e+17
19332.0	6.06401877578001e+17
19333.0	6.062790779338751e+17
19334.0	6.061538746040319e+17
19335.0	6.060364046619988e+17
19336.0	6.059137501407913e+17
19337.0	6.057908812207446e+17
19338.0	6.056546544910335e+17
19339.0	6.055453942000297e+17
19340.0	6.054182294039209e+17
19341.0	6.052982088357203e+17
19342.0	6.051451017101311e+17
19343.0	6.050502289304234e+17
19344.0	6.04924791628322e+17
19345.0	6.046586090029052e+17
19346.0	6.046405217659562e+17
19347.0	6.045447551101609e+17
19348.0	6.044235065895593e+17
19349.0	6.042944349929471e+17
19350.0	6.041680071360512e+17
19351.0	6.040397786644479e+17
19352.0	6.039099889330858e+17
19353.0	6.037868108229289e+17
19354.0	6.036575373404841e+17
19355.0	6.035217242390527e+17
19356.0	6.033982897171114e+17
19357.0	6.032646810719571e+17
19358.0	6.031280417625428e+17
19359.0	6.029668491373226e+17
19360.0	6.028618509582335e+17
19361.0	6.027252255599274e+17
19362.0	6.025961473223338e+17
19363.0	6.024613033847466e+17
19364.0	6.023220280950783e+17
19365.0	6.021836173912746e+17
19366.0	6.020466824533331e+17
19367.0	6.019084007243773e+17
19368.0	6.017690727262889e+17
19369.0	6.016159416931668e+17
19370.0	6.014070076822867e+17
19371.0	6.013402377879551e+17
19372.0	6.011988405299882e+17
19373.0	6.010511860695037e+17
19374.0	6.009058904855892e+17
19375.0	6.007577129953962e+17
19376.0	6.006078270253738e+17
19377.0	6.004560615877289e+17
19378.0	6.003031949355689e+17
19379.0	6.001478021939199e+17
19380.0	5.999913120825343e+17
19381.0	5.998271350702079e+17
19382.0	5.996586400918186e+17
19383.0	5.994938660902228e+17
19384.0	5.993353541844991e+17
19385.0	5.991665010125482e+17
19386.0	5.989952767306409e+17
19387.0	5.988205976005289e+17
19388.0	5.986429917549908e+17
19389.0	5.984623003697151e+17
19390.0	5.982715439131306e+17
19391.0	5.973755181749577e+17
19392.0	5.978853056970751e+17
19393.0	5.976825587739305e+17
19394.0	5.974808538557097e+17
19395.0	5.972684677229226e+17
19396.0	5.970472173480618e+17
19397.0	5.968309889531903e+17
19398.0	5.966059127439359e+17
19399.0	5.963308729368573e+17
19400.0	5.961309921913514e+17
19401.0	5.958847823522473e+17
19402.0	5.956329791990441e+17
19403.0	5.953621027979263e+17
19404.0	5.950739357979988e+17
19405.0	5.947920478808745e+17
19406.0	5.944888681387348e+17
19407.0	5.941837533544447e+17
19408.0	5.938083460197036e+17
19409.0	5.935032316548438e+17
19410.0	5.931395668333908e+17
19411.0	5.927689916863827e+17
19412.0	5.923761840018774e+17
19413.0	5.919494246847827e+17
19414.0	5.915235608515924e+17
19415.0	5.910815544705023e+17
19416.0	5.905753767761236e+17
19417.0	5.900691137276585e+17
19418.0	5.895246009335808e+17
19419.0	5.889481526389418e+17
19420.0	5.883311034815827e+17
19421.0	5.876536402684586e+17
19422.0	5.869283863866025e+17
19423.0	5.861252591692457e+17
19424.0	5.852502970859521e+17
19425.0	5.843205114647892e+17
19426.0	5.832476520524457e+17
19427.0	5.821307875404457e+17
19428.0	5.810944371676499e+17
19429.0	5.799559924023295e+17
19430.0	5.786847096253097e+17
19431.0	5.771853373112323e+17
19432.0	5.758302935143764e+17
19433.0	5.741266221050537e+17
19434.0	5.722319810286933e+17
19435.0	5.700035268313085e+17
19436.0	5.673510819769004e+17
19437.0	5.644905214203222e+17
19438.0	5.609852346826749e+17
19439.0	5.5905600073454944e+17
19440.0	5.55834476138769e+17
19441.0	5.5210898620415974e+17
19442.0	5.476040774254596e+17
19443.0	5.419826348556285e+17
19444.0	5.364727655956476e+17
19445.0	5.304159849589423e+17
19446.0	5.2286321177832115e+17
19447.0	5.137571773065893e+17
19448.0	5.0335715034835654e+17
19449.0	4.886692400638634e+17
19450.0	4.5631177728109075e+17
19451.0	4.4443474385524e+17
19452.0	4.747025999112879e+17
19453.0	4.968907439865862e+17
19454.0	5.085625054483792e+17
19455.0	5.177603728080893e+17
19456.0	5.2607265733782214e+17
19457.0	5.3254750333829094e+17
19458.0	5.374910147504819e+17
19459.0	5.434779846923606e+17
19460.0	5.482827093114878e+17
19461.0	5.5213684414218234e+17
19462.0	5.55362117746688e+17
19463.0	5.5815922204890426e+17
19464.0	5.606292699742206e+17
19465.0	5.631229265881771e+17
19466.0	5.6571701630074835e+17
19467.0	5.6791068280094694e+17
19468.0	5.697363708477439e+17
19469.0	5.7119993254379514e+17
19470.0	5.726642574633642e+17
19471.0	5.738800325416277e+17
19472.0	5.749643146515796e+17
19473.0	5.759154030029481e+17
19474.0	5.767971221798912e+17
19475.0	5.775733911715837e+17
19476.0	5.78506465616418e+17
19477.0	5.792816989645482e+17
19478.0	5.799491765884243e+17
19479.0	5.805607492430506e+17
19480.0	5.810939936899072e+17
19481.0	5.81565736358161e+17
19482.0	5.819788377631402e+17
19483.0	5.823695935941289e+17
19484.0	5.826963688827562e+17
19485.0	5.829992476835839e+17
19486.0	5.832729278371156e+17
19487.0	5.835221131154772e+17
19488.0	5.837268648460287e+17
19489.0	5.839261675465386e+17
19490.0	5.840164909744124e+17
19491.0	5.84269033443601e+17
19492.0	5.844078714770774e+17
19493.0	5.845437683247786e+17
19494.0	5.846568139052371e+17
19495.0	5.847423559663615e+17
19496.0	5.848006464460116e+17
19497.0	5.848967305407145e+17
19498.0	5.849217159397376e+17
19499.0	5.838352964124658e+17
19500.0	5.850506963801428e+17
19501.0	5.850743073057449e+17
19502.0	5.850946303164415e+17
19503.0	5.851121502737748e+17
19504.0	5.851128571538089e+17
19505.0	5.851126491862356e+17
19506.0	5.851043148944724e+17
19507.0	5.850956328949076e+17
19508.0	5.850796419011924e+17
19509.0	5.850560743866368e+17
19510.0	5.850210148985513e+17
19511.0	5.841580441905828e+17
19512.0	5.84839267527338e+17
19513.0	5.846023023536804e+17
19514.0	5.846852246525267e+17
19515.0	5.848087546647894e+17
19516.0	5.848012621698388e+17
19517.0	5.8474479236765e+17
19518.0	5.846943436985684e+17
19519.0	5.84636300193519e+17
19520.0	5.845746691604479e+17
19521.0	5.845147372399274e+17
19522.0	5.844472736077139e+17
19523.0	5.843846625755135e+17
19524.0	5.843208981097129e+17
19525.0	5.842478780732756e+17
19526.0	5.841804845558442e+17
19527.0	5.841072006277802e+17
19528.0	5.840332634368681e+17
19529.0	5.839572851578195e+17
19530.0	5.838807886026067e+17
19531.0	5.838029741970771e+17
19532.0	5.837230511052116e+17
19533.0	5.836427872960511e+17
19534.0	5.835609009203881e+17
19535.0	5.83476500758528e+17
19536.0	5.833923720380415e+17
19537.0	5.833110109290495e+17
19538.0	5.832235939441322e+17
19539.0	5.831011008337239e+17
19540.0	5.830502908952576e+17
19541.0	5.829643277260116e+17
19542.0	5.828752959340543e+17
19543.0	5.827859086748329e+17
19544.0	5.826964175366825e+17
19545.0	5.825839871907154e+17
19546.0	5.824515615490047e+17
19547.0	5.82423963308305e+17
19548.0	5.823357497551529e+17
19549.0	5.822356369615529e+17
19550.0	5.821498450597203e+17
19551.0	5.820563683540991e+17
19552.0	5.819621832305322e+17
19553.0	5.818664615236947e+17
19554.0	5.817698411173204e+17
19555.0	5.816764465501523e+17
19556.0	5.81581565661457e+17
19557.0	5.814852670281044e+17
19558.0	5.813889333723135e+17
19559.0	5.812898374178131e+17
19560.0	5.81198542798848e+17
19561.0	5.811020778613418e+17
19562.0	5.810073348953428e+17
19563.0	5.809102080966655e+17
19564.0	5.80812693115153e+17
19565.0	5.807138177810431e+17
19566.0	5.806136381581993e+17
19567.0	5.805162643150164e+17
19568.0	5.804155971043327e+17
19569.0	5.803167401552554e+17
19570.0	5.802188726424916e+17
19571.0	5.801191901844819e+17
19572.0	5.80016606806016e+17
19573.0	5.799182984719017e+17
19574.0	5.798118257153363e+17
19575.0	5.797180394001748e+17
19576.0	5.796175698810195e+17
19577.0	5.795075293096618e+17
19578.0	5.794133359372969e+17
19579.0	5.793132302740137e+17
19580.0	5.792124282863615e+17
19581.0	5.791118417461248e+17
19582.0	5.790116081565695e+17
19583.0	5.789100627285334e+17
19584.0	5.788080712362666e+17
19585.0	5.786986606493695e+17
19586.0	5.785915775516671e+17
19587.0	5.784929324848468e+17
19588.0	5.783669518805674e+17
19589.0	5.782891989215914e+17
19590.0	5.781901519705428e+17
19591.0	5.780933154177023e+17
19592.0	5.779912238213801e+17
19593.0	5.778871404898985e+17
19594.0	5.777677485779625e+17
19595.0	5.776819538799273e+17
19596.0	5.774026502832128e+17
19597.0	5.774765030987094e+17
19598.0	5.773571533395284e+17
19599.0	5.772718817411072e+17
19600.0	5.771693300296361e+17
19601.0	5.770619348058112e+17
19602.0	5.769606350241791e+17
19603.0	5.768225264500735e+17
19604.0	5.767534049492991e+17
19605.0	5.766328812743338e+17
19606.0	5.765486477661524e+17
19607.0	5.764466944420522e+17
19608.0	5.763426208972799e+17
19609.0	5.7623596785554765e+17
19610.0	5.7613681024477856e+17
19611.0	5.760325936742399e+17
19612.0	5.759299342390611e+17
19613.0	5.758251756945407e+17
19614.0	5.757198702127786e+17
19615.0	5.756190006269267e+17
19616.0	5.7550951831743136e+17
19617.0	5.754114524839934e+17
19618.0	5.752755668211027e+17
19619.0	5.7515905674554003e+17
19620.0	5.750584554553343e+17
19621.0	5.7499625092109645e+17
19622.0	5.74892911169809e+17
19623.0	5.747892869748053e+17
19624.0	5.7468476331130874e+17
19625.0	5.745813715506516e+17
19626.0	5.7447695204570445e+17
19627.0	5.7437384703563085e+17
19628.0	5.7425196195949216e+17
19629.0	5.741600159651156e+17
19630.0	5.7405308015738874e+17
19631.0	5.731556128369317e+17
19632.0	5.738536313552896e+17
19633.0	5.7374675874174285e+17
19634.0	5.7364617905220256e+17
19635.0	5.735394719738537e+17
19636.0	5.7343748013206176e+17
19637.0	5.7330675052707834e+17
19638.0	5.732295036807849e+17
19639.0	5.731249661760852e+17
19640.0	5.7301801547857914e+17
19641.0	5.7287902043832326e+17
19642.0	5.728135272202238e+17
19643.0	5.727077472228692e+17
19644.0	5.726022353114453e+17
19645.0	5.72485081899554e+17
19646.0	5.723983996168874e+17
19647.0	5.722943894061055e+17
19648.0	5.721900570727764e+17
19649.0	5.7208584078185805e+17
19650.0	5.7198229781654176e+17
19651.0	5.7187784552611834e+17
19652.0	5.717737468854271e+17
19653.0	5.7166990920034976e+17
19654.0	5.7156551639913805e+17
19655.0	5.714612640372053e+17
19656.0	5.7135757196438176e+17
19657.0	5.712536821301247e+17
19658.0	5.711499582504958e+17
19659.0	5.710461293035519e+17
19660.0	5.709424532389888e+17
19661.0	5.70838165435187e+17
19662.0	5.707345330612906e+17
19663.0	5.7062744458089805e+17
19664.0	5.7052259571903136e+17
