# Flux units: erg / (cm m2 s)
# Wavelength units: Angstrom
wave	flux
19000.0	5.072368095461375e+17
19001.0	5.071371788877823e+17
19002.0	5.070602050207743e+17
19003.0	5.0697047585587194e+17
19004.0	5.068772510881109e+17
19005.0	5.067867226985813e+17
19006.0	5.0669902944884045e+17
19007.0	5.0661188907827194e+17
19008.0	5.065201598595071e+17
19009.0	5.064200573419519e+17
19010.0	5.063323736692054e+17
19011.0	5.062466243395583e+17
19012.0	5.0614446940924576e+17
19013.0	5.0607922281622176e+17
19014.0	5.059832199512062e+17
19015.0	5.058943044113747e+17
19016.0	5.0581166271146656e+17
19017.0	5.0572544585673376e+17
19018.0	5.056341962566314e+17
19019.0	5.055473571769002e+17
19020.0	5.0545706157124256e+17
19021.0	5.053693836307115e+17
19022.0	5.052814364158634e+17
19023.0	5.051826769843541e+17
19024.0	5.0509123158015994e+17
19025.0	5.050100287362388e+17
19026.0	5.049190039508308e+17
19027.0	5.0483067903890765e+17
19028.0	5.047404639638869e+17
19029.0	5.0464970866251085e+17
19030.0	5.0456083849106765e+17
19031.0	5.0447406309485216e+17
19032.0	5.0438182475748685e+17
19033.0	5.042705958699006e+17
19034.0	5.04165329674786e+17
19035.0	5.039793429108053e+17
19036.0	5.036629067912532e+17
19037.0	5.038178741605715e+17
19038.0	5.038131085923668e+17
19039.0	5.0375006421865805e+17
19040.0	5.036698124331689e+17
19041.0	5.0358533691364685e+17
19042.0	5.031777443774458e+17
19043.0	5.034145293358421e+17
19044.0	5.0332763356310176e+17
19045.0	5.0323449834373114e+17
19046.0	5.0314409249778336e+17
19047.0	5.030538828054527e+17
19048.0	5.029188364227924e+17
19049.0	5.0220613623261786e+17
19050.0	5.027656481374207e+17
19051.0	5.026496904516949e+17
19052.0	5.0257414921912314e+17
19053.0	5.0251274908248736e+17
19054.0	5.024333790795093e+17
19055.0	5.022365272506368e+17
19056.0	5.0223748089555616e+17
19057.0	5.021810172450132e+17
19058.0	5.017562777649146e+17
19059.0	5.0187320202799763e+17
19060.0	5.0191831791916365e+17
19061.0	5.0182767257845754e+17
19062.0	5.0173851041355085e+17
19063.0	5.016538179087017e+17
19064.0	5.015632854646783e+17
19065.0	5.014671237753514e+17
19066.0	5.012646186538326e+17
19067.0	5.012946791606953e+17
19068.0	5.0121562932292256e+17
19069.0	5.0112743212755616e+17
19070.0	5.010334806966272e+17
19071.0	5.0094795688072525e+17
19072.0	5.0073785237940883e+17
19073.0	5.0077705017753594e+17
19074.0	5.006830983271764e+17
19075.0	5.0059966285523616e+17
19076.0	5.0051007657629e+17
19077.0	5.00421616677683e+17
19078.0	5.003324030626474e+17
19079.0	5.0024495252329805e+17
19080.0	5.0015842892513274e+17
19081.0	5.000667356375721e+17
19082.0	4.999848340925098e+17
19083.0	4.998881469267966e+17
19084.0	4.9978878526313805e+17
19085.0	4.997169889847978e+17
19086.0	4.99424436630323e+17
19087.0	4.9926189281006886e+17
19088.0	4.992779241390076e+17
19089.0	4.993521705899349e+17
19090.0	4.992784120064681e+17
19091.0	4.991717884646743e+17
19092.0	4.988387118634332e+17
19093.0	4.9901788644857165e+17
19094.0	4.9893103821127674e+17
19095.0	4.988416351535103e+17
19096.0	4.9875663926067194e+17
19097.0	4.98668768661777e+17
19098.0	4.984459375935486e+17
19099.0	4.9832810589279584e+17
19100.0	4.984036256645119e+17
19101.0	4.983154941100032e+17
19102.0	4.98226914603827e+17
19103.0	4.9814018031179085e+17
19104.0	4.980574407447892e+17
19105.0	4.976681879426398e+17
19106.0	4.978786753839103e+17
19107.0	4.97718086738466e+17
19108.0	4.975861577722538e+17
19109.0	4.9761232239984634e+17
19110.0	4.9752606674780154e+17
19111.0	4.973517980303359e+17
19112.0	4.97249509651251e+17
19113.0	4.9726741828075514e+17
19114.0	4.971178760339454e+17
19115.0	4.970780396530345e+17
19116.0	4.969946043908096e+17
19117.0	4.9689600357389645e+17
19118.0	4.9671409660941645e+17
19119.0	4.9614054266415744e+17
19120.0	4.9658434211020794e+17
19121.0	4.9654866969449805e+17
19122.0	4.964771517781332e+17
19123.0	4.9639475299833165e+17
19124.0	4.962989974574422e+17
19125.0	4.962144830707028e+17
19126.0	4.961147316163926e+17
19127.0	4.9600517912221005e+17
19128.0	4.9593756561353376e+17
19129.0	4.958616666767359e+17
19130.0	4.957865606731092e+17
19131.0	4.9570303166818976e+17
19132.0	4.956153117147135e+17
19133.0	4.955278844537514e+17
19134.0	4.9544342445315405e+17
19135.0	4.953581618724864e+17
19136.0	4.95269121691921e+17
19137.0	4.9517881294411085e+17
19138.0	4.9509639829585914e+17
19139.0	4.95011900756241e+17
19140.0	4.949259608653823e+17
19141.0	4.948386280461653e+17
19142.0	4.9474925246109e+17
19143.0	4.9466306461695994e+17
19144.0	4.9457327239768736e+17
19145.0	4.944895866656085e+17
19146.0	4.943481807394132e+17
19147.0	4.943154297263445e+17
19148.0	4.941240616004267e+17
19149.0	4.940148146612906e+17
19150.0	4.940593552337577e+17
19151.0	4.939703402889215e+17
19152.0	4.9388395363478176e+17
19153.0	4.935656970474833e+17
19154.0	4.936909630821717e+17
19155.0	4.936235983656275e+17
19156.0	4.9353590553531725e+17
19157.0	4.933769502217558e+17
19158.0	4.931984874100055e+17
19159.0	4.932705902220628e+17
19160.0	4.9318498650466976e+17
19161.0	4.9309720258805754e+17
19162.0	4.9300767279240525e+17
19163.0	4.9292445465531725e+17
19164.0	4.9283982149986976e+17
19165.0	4.9250508388433875e+17
19166.0	4.926649218891775e+17
19167.0	4.925850273884842e+17
19168.0	4.9249898718385485e+17
19169.0	4.9241369104875514e+17
19170.0	4.9232907907454285e+17
19171.0	4.922401482255019e+17
19172.0	4.9215501566825805e+17
19173.0	4.9207140228792314e+17
19174.0	4.919832357808809e+17
19175.0	4.9189650421514234e+17
19176.0	4.918122647650303e+17
19177.0	4.9171180719964154e+17
19178.0	4.916372102447102e+17
19179.0	4.915532403485353e+17
19180.0	4.914645214516564e+17
19181.0	4.9137537312795296e+17
19182.0	4.9128635098289485e+17
19183.0	4.912063346376704e+17
19184.0	4.9112177544178336e+17
19185.0	4.9103273169605965e+17
19186.0	4.909477895602175e+17
19187.0	4.908559073192617e+17
19188.0	4.90774613598754e+17
19189.0	4.906863736913919e+17
19190.0	4.9059859970129914e+17
19191.0	4.9050671892834976e+17
19192.0	4.9041815983445325e+17
19193.0	4.902957541053782e+17
19194.0	4.901845984783019e+17
19195.0	4.901387775246334e+17
19196.0	4.900372761367892e+17
19197.0	4.8993136877240314e+17
19198.0	4.8981689433238176e+17
19199.0	4.896936619059881e+17
19200.0	4.8961264459011405e+17
19201.0	4.8956287462932486e+17
19202.0	4.895063957394772e+17
19203.0	4.8943651241328634e+17
19204.0	4.8936859265051296e+17
19205.0	4.892909079887871e+17
19206.0	4.89212478558481e+17
19207.0	4.8911690344256845e+17
19208.0	4.8904460217002656e+17
19209.0	4.8896730673971194e+17
19210.0	4.88882840936994e+17
19211.0	4.888030152927914e+17
19212.0	4.8871803442954234e+17
19213.0	4.886254786532692e+17
19214.0	4.885452659447123e+17
19215.0	4.884631374878036e+17
19216.0	4.8837691979421005e+17
19217.0	4.8828869987969696e+17
19218.0	4.8819387309752314e+17
19219.0	4.881022920774996e+17
19220.0	4.8803327452555936e+17
19221.0	4.879488592642047e+17
19222.0	4.8786354432464205e+17
19223.0	4.877819710537727e+17
19224.0	4.87694479130624e+17
19225.0	4.8761563984691194e+17
19226.0	4.8753176096713376e+17
19227.0	4.874467867448661e+17
19228.0	4.873647980281855e+17
19229.0	4.872741957490004e+17
19230.0	4.8719350579855354e+17
19231.0	4.8711024453003936e+17
19232.0	4.8702584982077434e+17
19233.0	4.869356183180629e+17
19234.0	4.868531167079082e+17
19235.0	4.867668744776361e+17
19236.0	4.8668486884392954e+17
19237.0	4.865967347029331e+17
19238.0	4.865089381335039e+17
19239.0	4.8643048151012685e+17
19240.0	4.8634350143187616e+17
19241.0	4.8625992999458125e+17
19242.0	4.861713769824255e+17
19243.0	4.8607862001937056e+17
19244.0	4.8600547960640845e+17
19245.0	4.8592179862787405e+17
19246.0	4.858377189807445e+17
19247.0	4.8575260676587514e+17
19248.0	4.8566702450933754e+17
19249.0	4.8557295382036474e+17
19250.0	4.854471337880234e+17
19251.0	4.853586255151102e+17
19252.0	4.853026088375636e+17
19253.0	4.852414703555924e+17
19254.0	4.851597042865492e+17
19255.0	4.850564266808659e+17
19256.0	4.8498652273268045e+17
19257.0	4.849032832745472e+17
19258.0	4.8481708305722016e+17
19259.0	4.8472459774525434e+17
19260.0	4.846278998840661e+17
19261.0	4.845588248701609e+17
19262.0	4.844668214138196e+17
19263.0	4.8437812726333434e+17
19264.0	4.8429029630061216e+17
19265.0	4.8420650445264205e+17
19266.0	4.841217631540564e+17
19267.0	4.8405387247179085e+17
19268.0	4.8396922743248205e+17
19269.0	4.838853184935253e+17
19270.0	4.837986434110804e+17
19271.0	4.837092636317013e+17
19272.0	4.836318981565098e+17
19273.0	4.8353716994047994e+17
19274.0	4.834317289826985e+17
19275.0	4.8338337061492045e+17
19276.0	4.832971485872127e+17
19277.0	4.832143985344511e+17
19278.0	4.8312301073203194e+17
19279.0	4.8304163892756474e+17
19280.0	4.8295863071539194e+17
19281.0	4.828734955017557e+17
19282.0	4.8278963137194656e+17
19283.0	4.827025954395477e+17
19284.0	4.8261348171885216e+17
19285.0	4.8252346307706874e+17
19286.0	4.82423504773666e+17
19287.0	4.823027254558719e+17
19288.0	4.820504213629609e+17
19289.0	4.819242073456638e+17
19290.0	4.820432788826794e+17
19291.0	4.8198301351499085e+17
19292.0	4.819359569892693e+17
19293.0	4.8185859256265376e+17
19294.0	4.817764218830847e+17
19295.0	4.816948473539242e+17
19296.0	4.8146264669989574e+17
19297.0	4.815040675490475e+17
19298.0	4.814414395998207e+17
19299.0	4.8119555775528966e+17
19300.0	4.812770077835264e+17
19301.0	4.8119374406833485e+17
19302.0	4.811089837555711e+17
19303.0	4.810182025194155e+17
19304.0	4.8093873157352096e+17
19305.0	4.808524878053375e+17
19306.0	4.807684108146005e+17
19307.0	4.8067734667263994e+17
19308.0	4.8059139063371085e+17
19309.0	4.8050016633924256e+17
19310.0	4.8040774205439994e+17
19311.0	4.8030793215945363e+17
19312.0	4.80187146969634e+17
19313.0	4.7994899928186874e+17
19314.0	4.772753977988442e+17
19315.0	4.773068376025778e+17
19316.0	4.7951402681849197e+17
19317.0	4.797710548161877e+17
19318.0	4.7972916525356365e+17
19319.0	4.796598459913557e+17
19320.0	4.795310008172542e+17
19321.0	4.7937492999645875e+17
19322.0	4.7942730601813325e+17
19323.0	4.7934618838848845e+17
19324.0	4.792626632283476e+17
19325.0	4.79181668352e+17
19326.0	4.790983340326911e+17
19327.0	4.790163806879743e+17
19328.0	4.7866212124371654e+17
19329.0	4.788507063091198e+17
19330.0	4.7876856184395085e+17
19331.0	4.786819123467604e+17
19332.0	4.7860112159320736e+17
19333.0	4.7851816385249274e+17
19334.0	4.784260783975083e+17
19335.0	4.778013700216156e+17
19336.0	4.7826282699816954e+17
19337.0	4.781835783503871e+17
19338.0	4.780816038450516e+17
19339.0	4.780111812012715e+17
19340.0	4.779131817077417e+17
19341.0	4.776326677747033e+17
19342.0	4.776948534345729e+17
19343.0	4.7766727441776634e+17
19344.0	4.7736924870628717e+17
19345.0	4.773627994745517e+17
19346.0	4.7736680063085216e+17
19347.0	4.7706986543841274e+17
19348.0	4.772557246256468e+17
19349.0	4.7717426348250445e+17
19350.0	4.769947838316543e+17
19351.0	4.770092206959274e+17
19352.0	4.7665515404984275e+17
19353.0	4.768496604938239e+17
19354.0	4.767688565981184e+17
19355.0	4.766764393736875e+17
19356.0	4.7660089038165325e+17
19357.0	4.765184883163136e+17
19358.0	4.764345459627349e+17
19359.0	4.762922063145639e+17
19360.0	4.760509628809214e+17
19361.0	4.761838371733504e+17
19362.0	4.76100822110481e+17
19363.0	4.760181849544021e+17
19364.0	4.759357478666239e+17
19365.0	4.758506341837482e+17
19366.0	4.7576487290033485e+17
19367.0	4.756831719129087e+17
19368.0	4.756007369222826e+17
19369.0	4.7551625070728525e+17
19370.0	4.7543342375895034e+17
19371.0	4.753439040995327e+17
19372.0	4.752650157424639e+17
19373.0	4.7517868801829536e+17
19374.0	4.750955948015615e+17
19375.0	4.7501571022738765e+17
19376.0	4.7493211614085126e+17
19377.0	4.7484770640199674e+17
19378.0	4.7476374776053766e+17
19379.0	4.746799645108906e+17
19380.0	4.7459024611136845e+17
19381.0	4.7450663377960954e+17
19382.0	4.744177069850623e+17
19383.0	4.7433585709984416e+17
19384.0	4.7424930351240525e+17
19385.0	4.7416923040426656e+17
19386.0	4.7408288310667936e+17
19387.0	4.7399412723002016e+17
19388.0	4.739012770835113e+17
19389.0	4.737989187294548e+17
19390.0	4.7365210578616314e+17
19391.0	4.733307876365651e+17
19392.0	4.734008438379861e+17
19393.0	4.734372491384149e+17
19394.0	4.733834470533802e+17
19395.0	4.7323108120111795e+17
19396.0	4.7320950758877856e+17
19397.0	4.7314073058017274e+17
19398.0	4.72980459024111e+17
19399.0	4.7286123062012576e+17
19400.0	4.728110053676373e+17
19401.0	4.727945073524734e+17
19402.0	4.727119905729193e+17
19403.0	4.7262458777873056e+17
19404.0	4.7253540142667085e+17
19405.0	4.7244366535720954e+17
19406.0	4.7235557784289274e+17
19407.0	4.7216670476861414e+17
19408.0	4.7215921625825274e+17
19409.0	4.720739948516693e+17
19410.0	4.7199085032461645e+17
19411.0	4.718993025094996e+17
19412.0	4.7180576694381216e+17
19413.0	4.716149054898176e+17
19414.0	4.71616387686946e+17
19415.0	4.715175773645482e+17
19416.0	4.7140650415554554e+17
19417.0	4.7132020921685325e+17
19418.0	4.7121778738899616e+17
19419.0	4.711120799531007e+17
19420.0	4.7100420385232205e+17
19421.0	4.7089466582848845e+17
19422.0	4.7077656114845e+17
19423.0	4.706646285964628e+17
19424.0	4.7054522165493766e+17
19425.0	4.704173996113919e+17
19426.0	4.7028660988805114e+17
19427.0	4.701482672018773e+17
19428.0	4.699961172164606e+17
19429.0	4.698361651964585e+17
19430.0	4.696522676153002e+17
19431.0	4.6946525625275725e+17
19432.0	4.6930176822476806e+17
19433.0	4.691068637413376e+17
19434.0	4.6888124898344954e+17
19435.0	4.686156539101182e+17
19436.0	4.683077761280683e+17
19437.0	4.6789725540843514e+17
19438.0	4.670717005485397e+17
19439.0	4.6699041682445645e+17
19440.0	4.668417545426261e+17
19441.0	4.6639083142075725e+17
19442.0	4.6579902610145286e+17
19443.0	4.6510156388761594e+17
19444.0	4.642030726676478e+17
19445.0	4.6311022522968755e+17
19446.0	4.6170370425050445e+17
19447.0	4.5989222447841274e+17
19448.0	4.5737952628353715e+17
19449.0	4.536452224385023e+17
19450.0	4.4671012147909914e+17
19451.0	4.407133064571565e+17
19452.0	4.5077384777782586e+17
19453.0	4.5543206955253766e+17
19454.0	4.58239534904115e+17
19455.0	4.6015305195629216e+17
19456.0	4.614838044415318e+17
19457.0	4.620817907668309e+17
19458.0	4.55368548286468e+17
19459.0	4.6160467687287584e+17
19460.0	4.6432784279579296e+17
19461.0	4.6495447600769696e+17
19462.0	4.653331161721514e+17
19463.0	4.656034769534974e+17
19464.0	4.658120913584128e+17
19465.0	4.659746781003776e+17
19466.0	4.660977087807487e+17
19467.0	4.661869725177172e+17
19468.0	4.6625451269597856e+17
19469.0	4.661075605716988e+17
19470.0	4.6632569688555514e+17
19471.0	4.6634455636377594e+17
19472.0	4.6634446297060685e+17
19473.0	4.6633650050389325e+17
19474.0	4.661170723444049e+17
19475.0	4.662636202076842e+17
19476.0	4.662568454280532e+17
19477.0	4.6622862076805114e+17
19478.0	4.661940775987881e+17
19479.0	4.659598442452306e+17
19480.0	4.660993663696895e+17
19481.0	4.660432779695445e+17
19482.0	4.659928690065407e+17
19483.0	4.6593834417302176e+17
19484.0	4.6587737318359034e+17
19485.0	4.6581552810120525e+17
19486.0	4.6554961985317594e+17
19487.0	4.6568164654667085e+17
19488.0	4.656125590896639e+17
19489.0	4.655262500301483e+17
19490.0	4.654444188794879e+17
19491.0	4.6539525807144954e+17
19492.0	4.6533764406312954e+17
19493.0	4.652660636516351e+17
19494.0	4.651891831777961e+17
19495.0	4.6510505222034765e+17
19496.0	4.6499607735173114e+17
19497.0	4.648774757864787e+17
19498.0	4.6457849775827616e+17
19499.0	4.6430827350152525e+17
19500.0	4.646091095364949e+17
19501.0	4.6462964317115725e+17
19502.0	4.64581826847266e+17
19503.0	4.6451842078474234e+17
19504.0	4.6444488610720416e+17
19505.0	4.643626726457343e+17
19506.0	4.6428966533201914e+17
19507.0	4.642011992817664e+17
19508.0	4.641008608346111e+17
19509.0	4.639593826964821e+17
19510.0	4.635330786011817e+17
19511.0	4.603383051365028e+17
19512.0	4.631058913951743e+17
19513.0	4.6339187826578765e+17
19514.0	4.634088719777791e+17
19515.0	4.635171009593343e+17
19516.0	4.63460620251955e+17
19517.0	4.634294639132671e+17
19518.0	4.633077966613161e+17
19519.0	4.6323354475779405e+17
19520.0	4.630215897994578e+17
19521.0	4.6314733615185914e+17
19522.0	4.630365709445801e+17
19523.0	4.629445700747265e+17
19524.0	4.627635977409881e+17
19525.0	4.6283321116371616e+17
19526.0	4.6275848320669005e+17
19527.0	4.626806448237226e+17
19528.0	4.625864553660415e+17
19529.0	4.625004974396758e+17
19530.0	4.6244669968875514e+17
19531.0	4.623675958143658e+17
19532.0	4.6228843839269536e+17
19533.0	4.6220772027050656e+17
19534.0	4.621310712523434e+17
19535.0	4.6205060492820474e+17
19536.0	4.619676078309375e+17
19537.0	4.618872279793663e+17
19538.0	4.616189196806829e+17
19539.0	4.617222962020352e+17
19540.0	4.6164951510111565e+17
19541.0	4.6153005531135994e+17
19542.0	4.614764616133291e+17
19543.0	4.6121725034059104e+17
19544.0	4.6131651658383354e+17
19545.0	4.6123136130744314e+17
19546.0	4.611542861479934e+17
19547.0	4.610947559019861e+17
19548.0	4.6102217549851296e+17
19549.0	4.6093511447019514e+17
19550.0	4.608643736884564e+17
19551.0	4.607910301313706e+17
19552.0	4.6070943449087994e+17
19553.0	4.606322655188308e+17
19554.0	4.6055034251291296e+17
19555.0	4.604480997818368e+17
19556.0	4.6037799758288205e+17
19557.0	4.603142331170815e+17
19558.0	4.6023810279451296e+17
19559.0	4.601592306554195e+17
19560.0	4.600080908681214e+17
19561.0	4.599987649030826e+17
19562.0	4.598542365272745e+17
19563.0	4.5984482059441485e+17
19564.0	4.597606315458559e+17
19565.0	4.59684401189137e+17
19566.0	4.596026437883219e+17
19567.0	4.5952807018168314e+17
19568.0	4.5944728299328845e+17
19569.0	4.593694423034538e+17
19570.0	4.5928993731379194e+17
19571.0	4.5921108181210445e+17
19572.0	4.5913078864281594e+17
19573.0	4.5903077175896723e+17
19574.0	4.5895924091016525e+17
19575.0	4.588975486402559e+17
19576.0	4.588062726859434e+17
19577.0	4.587030057757355e+17
19578.0	4.586597302053546e+17
19579.0	4.5858029616933536e+17
19580.0	4.584995398090751e+17
19581.0	4.5842035225832096e+17
19582.0	4.5834538669397325e+17
19583.0	4.582679374725119e+17
19584.0	4.5818551534441805e+17
19585.0	4.58098564206865e+17
19586.0	4.580164520378368e+17
19587.0	4.579463510272682e+17
19588.0	4.5786053752477e+17
19589.0	4.5778624745308154e+17
19590.0	4.577046763492693e+17
19591.0	4.5763358765001376e+17
19592.0	4.5755700322413216e+17
19593.0	4.57458823934771e+17
19594.0	4.57361056735778e+17
19595.0	4.5732007579921056e+17
19596.0	4.572380372402175e+17
19597.0	4.571583950968149e+17
19598.0	4.5705103524495354e+17
19599.0	4.569982279789226e+17
19600.0	4.5692283920930125e+17
19601.0	4.56842494869504e+17
19602.0	4.5676162896800416e+17
19603.0	4.566798424167764e+17
19604.0	4.5660456982937594e+17
19605.0	4.565147426575702e+17
19606.0	4.564525024717482e+17
19607.0	4.5637805483403936e+17
19608.0	4.562945566572543e+17
19609.0	4.562186818377044e+17
19610.0	4.560514706658647e+17
19611.0	4.5592545986259635e+17
19612.0	4.5598614214410234e+17
19613.0	4.5590334071111674e+17
19614.0	4.5582375665882445e+17
19615.0	4.557473053321897e+17
19616.0	4.5557368372592646e+17
19617.0	4.554406059398486e+17
19618.0	4.554713415199402e+17
19619.0	4.553735907486379e+17
19620.0	4.5527953662716563e+17
19621.0	4.5506245916535443e+17
19622.0	4.5519382225005216e+17
19623.0	4.551079295451134e+17
19624.0	4.55009532571375e+17
19625.0	4.549589201147221e+17
19626.0	4.548734253094229e+17
19627.0	4.547917024417109e+17
19628.0	4.547000661267797e+17
19629.0	4.541288577062226e+17
19630.0	4.5449820643874125e+17
19631.0	4.543934588693161e+17
19632.0	4.5436248798877005e+17
19633.0	4.5430237026058234e+17
19634.0	4.5424289118508365e+17
19635.0	4.541500112590163e+17
19636.0	4.538733304304978e+17
19637.0	4.537782748490408e+17
19638.0	4.539313122792787e+17
19639.0	4.538639954477056e+17
19640.0	4.537565364704596e+17
19641.0	4.536506019829077e+17
19642.0	4.5361558185137485e+17
19643.0	4.5354327652433914e+17
19644.0	4.5347739330587296e+17
19645.0	4.534022884906323e+17
19646.0	4.530899297239036e+17
19647.0	4.532454564036606e+17
19648.0	4.5317629002383354e+17
19649.0	4.530972847155883e+17
19650.0	4.53020848558353e+17
19651.0	4.529432684047018e+17
19652.0	4.528663340340566e+17
19653.0	4.527870927263061e+17
19654.0	4.527110810326358e+17
19655.0	4.5263144196505594e+17
