# Flux units: erg / (cm m2 s)
# Wavelength units: Angstrom
wave	flux
19000.0	5.359634606981119e+17
19001.0	5.358505366825642e+17
19002.0	5.3576475072266234e+17
19003.0	5.3566473789330765e+17
19004.0	5.3556543515962016e+17
19005.0	5.3546512865908045e+17
19006.0	5.353671319617536e+17
19007.0	5.352663617809066e+17
19008.0	5.3515911007218336e+17
19009.0	5.3505668495878816e+17
19010.0	5.348977527838036e+17
19011.0	5.3486497241060685e+17
19012.0	5.347423653549396e+17
19013.0	5.3467038061253965e+17
19014.0	5.345600523818324e+17
19015.0	5.3443175030019405e+17
19016.0	5.343300891792725e+17
19017.0	5.34239560929553e+17
19018.0	5.341382306693119e+17
19019.0	5.3403982265057274e+17
19020.0	5.3393940611945805e+17
19021.0	5.338426734455465e+17
19022.0	5.337429826688341e+17
19023.0	5.3363972519581e+17
19024.0	5.3354219378660685e+17
19025.0	5.3344481169462605e+17
19026.0	5.333421698755242e+17
19027.0	5.33232236049203e+17
19028.0	5.331492733452288e+17
19029.0	5.33047820821026e+17
19030.0	5.329522138983081e+17
19031.0	5.3285398413748896e+17
19032.0	5.3275401409003514e+17
19033.0	5.326432850236755e+17
19034.0	5.3255471935870285e+17
19035.0	5.3245178100230816e+17
19036.0	5.310730660216828e+17
19037.0	5.3225781142923936e+17
19038.0	5.3215849191833594e+17
19039.0	5.320624716469588e+17
19040.0	5.3196435869750605e+17
19041.0	5.3186449245907616e+17
19042.0	5.317406845042687e+17
19043.0	5.3166824146425165e+17
19044.0	5.315679039258624e+17
19045.0	5.3147014965930656e+17
19046.0	5.313632225198079e+17
19047.0	5.312712055018836e+17
19048.0	5.3114068749953696e+17
19049.0	5.310395984816809e+17
19050.0	5.309703425534634e+17
19051.0	5.306933167434408e+17
19052.0	5.307520372790613e+17
19053.0	5.306819693335892e+17
19054.0	5.30583505740322e+17
19055.0	5.3044663448589645e+17
19056.0	5.3038107401912314e+17
19057.0	5.3028714600639123e+17
19058.0	5.301739079772841e+17
19059.0	5.300851282629972e+17
19060.0	5.2998949736284154e+17
19061.0	5.2989461018269005e+17
19062.0	5.2979551122227194e+17
19063.0	5.2969747929279123e+17
19064.0	5.29581742297361e+17
19065.0	5.2947835899521696e+17
19066.0	5.293902599465642e+17
19067.0	5.2930285379693216e+17
19068.0	5.2920626925185696e+17
19069.0	5.291082670320298e+17
19070.0	5.290059137111381e+17
19071.0	5.2891060891811834e+17
19072.0	5.288081576602281e+17
19073.0	5.28714903462434e+17
19074.0	5.2861751955292154e+17
19075.0	5.2851941212596896e+17
19076.0	5.2841840762333856e+17
19077.0	5.2832096702081696e+17
19078.0	5.282190341089961e+17
19079.0	5.281267104874494e+17
19080.0	5.28027141345553e+17
19081.0	5.279252259099989e+17
19082.0	5.278270694096896e+17
19083.0	5.2772288849073485e+17
19084.0	5.276089862236841e+17
19085.0	5.2753738141532154e+17
19086.0	5.273864832199338e+17
19087.0	5.273004182689109e+17
19088.0	5.272279252467711e+17
19089.0	5.271090042153642e+17
19090.0	5.2704629272958285e+17
19091.0	5.269474406039551e+17
19092.0	5.2683121392353274e+17
19093.0	5.267568084385791e+17
19094.0	5.2662948775417165e+17
19095.0	5.265027309240319e+17
19096.0	5.2640266937084576e+17
19097.0	5.263071001269589e+17
19098.0	5.2620365880360954e+17
19099.0	5.2610435788745376e+17
19100.0	5.260107075376468e+17
19101.0	5.259159931628202e+17
19102.0	5.258019537420287e+17
19103.0	5.2572154578862074e+17
19104.0	5.256245096568149e+17
19105.0	5.255135035566762e+17
19106.0	5.2542387211905683e+17
19107.0	5.253259686051838e+17
19108.0	5.252295297422676e+17
19109.0	5.2505528388375866e+17
19110.0	5.2503751233809056e+17
19111.0	5.249381385109504e+17
19112.0	5.248405309052244e+17
19113.0	5.24747122357043e+17
19114.0	5.24647634374929e+17
19115.0	5.2454395390634656e+17
19116.0	5.2445297344075085e+17
19117.0	5.2435536010280954e+17
19118.0	5.2424573812299085e+17
19119.0	5.230056958503576e+17
19120.0	5.240551274184702e+17
19121.0	5.2396237499924474e+17
19122.0	5.2387263653696845e+17
19123.0	5.237755077110441e+17
19124.0	5.2367310489736525e+17
19125.0	5.23580695781922e+17
19126.0	5.23483241128482e+17
19127.0	5.231318135384745e+17
19128.0	5.2327945401794554e+17
19129.0	5.231826582197588e+17
19130.0	5.230937217783125e+17
19131.0	5.229986050998271e+17
19132.0	5.2290158211017376e+17
19133.0	5.2279404826460154e+17
19134.0	5.2270295832767136e+17
19135.0	5.22610490352162e+17
19136.0	5.22514624221457e+17
19137.0	5.223946718806015e+17
19138.0	5.223187024794964e+17
19139.0	5.2222401424916474e+17
19140.0	5.2212739314373965e+17
19141.0	5.220306017495721e+17
19142.0	5.219303864751445e+17
19143.0	5.218287064798549e+17
19144.0	5.2173529744233805e+17
19145.0	5.216436547660457e+17
19146.0	5.21464167076113e+17
19147.0	5.2143592766614176e+17
19148.0	5.213484228804607e+17
19149.0	5.212503585849343e+17
19150.0	5.2115926396436474e+17
19151.0	5.210630813734228e+17
19152.0	5.2096556611229005e+17
19153.0	5.2085848049800525e+17
19154.0	5.2075516891845965e+17
19155.0	5.206776105052841e+17
19156.0	5.2058070817177594e+17
19157.0	5.204796439003134e+17
19158.0	5.2032712376756883e+17
19159.0	5.2028854609728845e+17
19160.0	5.201929007267839e+17
19161.0	5.200974654909098e+17
19162.0	5.1987473816180045e+17
19163.0	5.199029493301247e+17
19164.0	5.1980955147741856e+17
19165.0	5.19698932441634e+17
19166.0	5.1959563155756365e+17
19167.0	5.1950889076435616e+17
19168.0	5.1942343258931194e+17
19169.0	5.19324879028224e+17
19170.0	5.1923198910573216e+17
19171.0	5.191276862723413e+17
19172.0	5.190390142817619e+17
19173.0	5.189431674448554e+17
19174.0	5.1883868600401914e+17
19175.0	5.187509057224704e+17
19176.0	5.1865467699418445e+17
19177.0	5.185383812475561e+17
19178.0	5.184599650992127e+17
19179.0	5.183552417169407e+17
19180.0	5.1826911902433274e+17
19181.0	5.1815451679784954e+17
19182.0	5.1807633378290336e+17
19183.0	5.1798291391010125e+17
19184.0	5.178858016516778e+17
19185.0	5.177894368182271e+17
19186.0	5.176947197171028e+17
19187.0	5.1759072397666976e+17
19188.0	5.1750265037346125e+17
19189.0	5.174071115382784e+17
19190.0	5.173106588341587e+17
19191.0	5.1721044139267405e+17
19192.0	5.17119731180066e+17
19193.0	5.17021622145297e+17
19194.0	5.169242260723028e+17
19195.0	5.1683196844113914e+17
19196.0	5.1673362837012474e+17
19197.0	5.166384786964479e+17
19198.0	5.1654083320217594e+17
19199.0	5.1569394785976294e+17
19200.0	5.158434075486893e+17
19201.0	5.162543619593556e+17
19202.0	5.1616139241499296e+17
19203.0	5.160641017588393e+17
19204.0	5.1596674483268256e+17
19205.0	5.1587394599649274e+17
19206.0	5.157774820376575e+17
19207.0	5.156690158682111e+17
19208.0	5.155543721181182e+17
19209.0	5.1549177199110816e+17
19210.0	5.153960848872788e+17
19211.0	5.1530235722246816e+17
19212.0	5.1520639203628365e+17
19213.0	5.150948714348542e+17
19214.0	5.149940148513451e+17
19215.0	5.149175196942335e+17
19216.0	5.148249020519766e+17
19217.0	5.147285913250474e+17
19218.0	5.145192712983891e+17
19219.0	5.145196167692287e+17
19220.0	5.1443977672458214e+17
19221.0	5.143020549352106e+17
19222.0	5.142517791413587e+17
19223.0	5.1415436657076896e+17
19224.0	5.1405596211718816e+17
19225.0	5.139457867688617e+17
19226.0	5.1386844988484256e+17
19227.0	5.1377311817837216e+17
19228.0	5.1368101818313376e+17
19229.0	5.13585650265839e+17
19230.0	5.134892511789056e+17
19231.0	5.1339351458228896e+17
19232.0	5.1329894078655136e+17
19233.0	5.131956065577642e+17
19234.0	5.1310620895259296e+17
19235.0	5.1300993366753274e+17
19236.0	5.1291913852026874e+17
19237.0	5.1282180717936634e+17
19238.0	5.1271477252587514e+17
19239.0	5.126339775081129e+17
19240.0	5.1253694969501005e+17
19241.0	5.124401551551146e+17
19242.0	5.1234563078225914e+17
19243.0	5.1223106560546125e+17
19244.0	5.12157252915473e+17
19245.0	5.120614861897728e+17
19246.0	5.119646650160468e+17
19247.0	5.118709155408554e+17
19248.0	5.11777122025472e+17
19249.0	5.1168117179897165e+17
19250.0	5.115822475313151e+17
19251.0	5.114740295248553e+17
19252.0	5.1136132864628045e+17
19253.0	5.1129839870716576e+17
19254.0	5.112068457889791e+17
19255.0	5.110883415315796e+17
19256.0	5.11012509913361e+17
19257.0	5.109222859603967e+17
19258.0	5.1082724967273805e+17
19259.0	5.1072318193008634e+17
19260.0	5.106085714548051e+17
19261.0	5.1054056766614176e+17
19262.0	5.104396755009536e+17
19263.0	5.103436257296383e+17
19264.0	5.1017769864396774e+17
19265.0	5.101331206023849e+17
19266.0	5.1002535334379514e+17
19267.0	5.0997307295225165e+17
19268.0	5.098772406555988e+17
19269.0	5.09782750606131e+17
19270.0	5.096880617466539e+17
19271.0	5.095435787392342e+17
19272.0	5.0949363422549325e+17
19273.0	5.09319250584098e+17
19274.0	5.0923490970173414e+17
19275.0	5.092139012019541e+17
19276.0	5.0911629003106976e+17
19277.0	5.0902221137291936e+17
19278.0	5.089274012980564e+17
19279.0	5.088308927397887e+17
19280.0	5.0872607030203725e+17
19281.0	5.0864211354801485e+17
19282.0	5.085495641331027e+17
19283.0	5.08443459846144e+17
19284.0	5.0835453458950816e+17
19285.0	5.0824087992620365e+17
19286.0	5.0816485103588685e+17
19287.0	5.0807447510930765e+17
19288.0	5.076281030169937e+17
19289.0	5.0703081427435366e+17
19290.0	5.0778965607273805e+17
19291.0	5.076617859345066e+17
19292.0	5.075512406485675e+17
19293.0	5.0743573832444576e+17
19294.0	5.0734038795332256e+17
19295.0	5.0724679101098656e+17
19296.0	5.071449345753087e+17
19297.0	5.070523284673876e+17
19298.0	5.06957495603473e+17
19299.0	5.0685959055168845e+17
19300.0	5.0677007473704954e+17
19301.0	5.0667540503156045e+17
19302.0	5.065790441127935e+17
19303.0	5.064754939472554e+17
19304.0	5.063859015166634e+17
19305.0	5.062927334419113e+17
19306.0	5.0619852958378656e+17
19307.0	5.060972251185151e+17
19308.0	5.0600492065095674e+17
19309.0	5.058842889027583e+17
19310.0	5.057787664356692e+17
19311.0	5.0571557106701645e+17
19312.0	5.056258637124949e+17
19313.0	5.0553169298937165e+17
19314.0	5.0320724186890285e+17
19315.0	5.032879571249863e+17
19316.0	5.0523424525298336e+17
19317.0	5.051481316480341e+17
19318.0	5.0505220043571194e+17
19319.0	5.049588998908587e+17
19320.0	5.048601294842538e+17
19321.0	5.047618112236201e+17
19322.0	5.046601101170004e+17
19323.0	5.045628061788841e+17
19324.0	5.0447752248688634e+17
19325.0	5.0435610899032736e+17
19326.0	5.042864308355071e+17
19327.0	5.041881057940821e+17
19328.0	5.040826799357951e+17
19329.0	5.039978851598335e+17
19330.0	5.0389580020449274e+17
19331.0	5.037984608245076e+17
19332.0	5.0363346249755296e+17
19333.0	5.035242911956991e+17
19334.0	5.034289290106198e+17
19335.0	5.033096230819157e+17
19336.0	5.032341216253268e+17
19337.0	5.031373066731519e+17
19338.0	5.030119387168766e+17
19339.0	5.0294259365969914e+17
19340.0	5.028192844076372e+17
19341.0	5.027320212138666e+17
19342.0	5.025923059417086e+17
19343.0	5.025509173187925e+17
19344.0	5.024436509999104e+17
19345.0	5.0205573729921645e+17
19346.0	5.021325628975785e+17
19347.0	5.0213724339131725e+17
19348.0	5.020586025680896e+17
19349.0	5.019551678857216e+17
19350.0	5.017962269026985e+17
19351.0	5.01652181361186e+17
19352.0	5.0153597516294816e+17
19353.0	5.014577443329364e+17
19354.0	5.013578484547583e+17
19355.0	5.01244128919552e+17
19356.0	5.011561779298303e+17
19357.0	5.010554445889535e+17
19358.0	5.0095316026436256e+17
19359.0	5.008425980613972e+17
19360.0	5.007358342201343e+17
19361.0	5.0061306449537683e+17
19362.0	5.004665424969728e+17
19363.0	5.0033021580301645e+17
19364.0	5.0022643348275194e+17
19365.0	5.0012261026802336e+17
19366.0	5.0001814700250445e+17
19367.0	4.9991337566535674e+17
19368.0	4.998082235553108e+17
19369.0	4.996955753851561e+17
19370.0	4.995865775876778e+17
19371.0	4.9948197010800634e+17
19372.0	4.99381610619426e+17
19373.0	4.992709049013589e+17
19374.0	4.991640829689855e+17
19375.0	4.990550489606825e+17
19376.0	4.989454923421013e+17
19377.0	4.988331828619946e+17
19378.0	4.987221188804608e+17
19379.0	4.9861013438900896e+17
19380.0	4.984969719971839e+17
19381.0	4.983821920720212e+17
19382.0	4.9825807317947725e+17
19383.0	4.981362022940671e+17
19384.0	4.980331409746602e+17
19385.0	4.9789780847056205e+17
19386.0	4.9772054117526176e+17
19387.0	4.97599326139187e+17
19388.0	4.974767730502314e+17
19389.0	4.9735263339588256e+17
19390.0	4.9722658722065056e+17
19391.0	4.9591752865436826e+17
19392.0	4.969555188602195e+17
19393.0	4.968411265586517e+17
19394.0	4.9670758397378554e+17
19395.0	4.96519553814801e+17
19396.0	4.9632658528228685e+17
19397.0	4.9619010857205754e+17
19398.0	4.960411236783445e+17
19399.0	4.957892309068457e+17
19400.0	4.957366100776276e+17
19401.0	4.955019586917715e+17
19402.0	4.952955297289556e+17
19403.0	4.9513445475396256e+17
19404.0	4.9497496005290656e+17
19405.0	4.9467340721138336e+17
19406.0	4.944460574097408e+17
19407.0	4.9426613798611616e+17
19408.0	4.9378997130581357e+17
19409.0	4.9365599859507194e+17
19410.0	4.93319700488738e+17
19411.0	4.9296127176649363e+17
19412.0	4.9252479487617696e+17
19413.0	4.921193106767867e+17
19414.0	4.914986869937493e+17
19415.0	4.908650731317932e+17
19416.0	4.902706019827711e+17
19417.0	4.898681221633366e+17
19418.0	4.895538060547413e+17
19419.0	4.8921064781469e+17
19420.0	4.8885275834013e+17
19421.0	4.884761626891605e+17
19422.0	4.880755234002261e+17
19423.0	4.8766540309681485e+17
19424.0	4.872296535687168e+17
19425.0	4.8674331227586554e+17
19426.0	4.86269186473984e+17
19427.0	4.857713247562409e+17
19428.0	4.852540264939519e+17
19429.0	4.846680551019861e+17
19430.0	4.840460070333098e+17
19431.0	4.8323203201761306e+17
19432.0	4.827333294118228e+17
19433.0	4.819552669357396e+17
19434.0	4.8107577780032826e+17
19435.0	4.798847082911054e+17
19436.0	4.781969126020437e+17
19437.0	4.756500815107421e+17
19438.0	4.6988002007012614e+17
19439.0	4.6982413719087795e+17
19440.0	4.6784337223352314e+17
19441.0	4.6562079705224525e+17
19442.0	4.6330368260833286e+17
19443.0	4.608808359122259e+17
19444.0	4.5825327928879776e+17
19445.0	4.545566007274148e+17
19446.0	4.4541351936655046e+17
19447.0	4.373316021605713e+17
19448.0	4.29327417501287e+17
19449.0	4.125646255729317e+17
19450.0	3.691366900389246e+17
19451.0	3.476490602326704e+17
19452.0	3.956281861734413e+17
19453.0	4.2318030148294086e+17
19454.0	4.3318476971267366e+17
19455.0	4.4035559041706656e+17
19456.0	4.501450042376182e+17
19457.0	4.557659864126805e+17
19458.0	4.5211778666551635e+17
19459.0	4.606665088652647e+17
19460.0	4.630229614766761e+17
19461.0	4.6512706756280314e+17
19462.0	4.670981879977302e+17
19463.0	4.6883380273698125e+17
19464.0	4.715751999711906e+17
19465.0	4.7481872879452275e+17
19466.0	4.766386904978772e+17
19467.0	4.7779291143864294e+17
19468.0	4.7860795558242963e+17
19469.0	4.7921092285344416e+17
19470.0	4.7978318991633043e+17
19471.0	4.8030410087246496e+17
19472.0	4.807030298640383e+17
19473.0	4.8114597381188256e+17
19474.0	4.8150088812680525e+17
19475.0	4.817094795329533e+17
19476.0	4.821297448790697e+17
19477.0	4.8243109772219725e+17
19478.0	4.827221703262207e+17
19479.0	4.8295529736219296e+17
19480.0	4.8318268449314125e+17
19481.0	4.833847376784042e+17
19482.0	4.8357431588509005e+17
19483.0	4.8374667332812794e+17
19484.0	4.838986474323966e+17
19485.0	4.840312334363306e+17
19486.0	4.8437369905698125e+17
19487.0	4.8485566673933645e+17
19488.0	4.8521211197521914e+17
19489.0	4.85510324752657e+17
19490.0	4.8563467600964205e+17
19491.0	4.8593355903685965e+17
19492.0	4.8621843434700826e+17
19493.0	4.8625608290904736e+17
19494.0	4.864007671032489e+17
19495.0	4.864896188197547e+17
19496.0	4.864190308504916e+17
19497.0	4.8657789004458656e+17
19498.0	4.8651740244869126e+17
19499.0	4.847052530559647e+17
19500.0	4.865898765265577e+17
19501.0	4.8664022704892595e+17
19502.0	4.866692993777664e+17
19503.0	4.866358558851071e+17
19504.0	4.866048276824062e+17
19505.0	4.865669527677609e+17
19506.0	4.865254140586666e+17
19507.0	4.865246714571434e+17
19508.0	4.8653568024685216e+17
19509.0	4.864855797050026e+17
19510.0	4.864027375872682e+17
19511.0	4.826289373096596e+17
19512.0	4.860411224522747e+17
19513.0	4.8570684558103795e+17
19514.0	4.858267930285392e+17
19515.0	4.860761411857068e+17
19516.0	4.860898703310846e+17
19517.0	4.860216004837375e+17
19518.0	4.860297511348906e+17
19519.0	4.8597312914937165e+17
19520.0	4.858992902449834e+17
19521.0	4.858458009152169e+17
19522.0	4.857728638560938e+17
19523.0	4.857084043242155e+17
19524.0	4.8563598008866125e+17
19525.0	4.855710787567615e+17
19526.0	4.8550240457850874e+17
19527.0	4.854303482533204e+17
19528.0	4.8535760448170656e+17
19529.0	4.8528457689552205e+17
19530.0	4.8521471614866765e+17
19531.0	4.851412474615125e+17
19532.0	4.8506724036553376e+17
19533.0	4.8499270415810554e+17
19534.0	4.849171801920853e+17
19535.0	4.848396150680234e+17
19536.0	4.847605848036693e+17
19537.0	4.84689749999616e+17
19538.0	4.845906493614762e+17
19539.0	4.844532082409473e+17
19540.0	4.844542603122004e+17
19541.0	4.8437785281604256e+17
19542.0	4.8430005344010234e+17
19543.0	4.8422709974357325e+17
19544.0	4.842003311362047e+17
19545.0	4.840530617827325e+17
19546.0	4.8393838531706874e+17
19547.0	4.840084329201664e+17
19548.0	4.8392818644746234e+17
19549.0	4.838349053362175e+17
19550.0	4.8376713223427405e+17
19551.0	4.836866413035518e+17
19552.0	4.8360541741820576e+17
19553.0	4.835208564047871e+17
19554.0	4.8343683449924256e+17
19555.0	4.8335811796882765e+17
19556.0	4.832787501329065e+17
19557.0	4.8327047204481696e+17
19558.0	4.832083495791274e+17
19559.0	4.831261547823104e+17
19560.0	4.830374744730281e+17
19561.0	4.829574830839125e+17
19562.0	4.8287451094275405e+17
19563.0	4.827956079056213e+17
19564.0	4.827125357303124e+17
19565.0	4.826314456432639e+17
19566.0	4.8254385683169274e+17
19567.0	4.824646243319807e+17
19568.0	4.8237806564147194e+17
19569.0	4.8229446938787834e+17
19570.0	4.822138200522752e+17
19571.0	4.8212918319185914e+17
19572.0	4.8204156837560314e+17
19573.0	4.8195816631828474e+17
19574.0	4.81865758880563e+17
19575.0	4.817938032885759e+17
19576.0	4.8170851798876154e+17
19577.0	4.816201923078826e+17
19578.0	4.8153483906034336e+17
19579.0	4.814527414315689e+17
19580.0	4.8136836405876045e+17
19581.0	4.812849313131177e+17
19582.0	4.812287705612288e+17
19583.0	4.811932556416341e+17
19584.0	4.8110742864745805e+17
19585.0	4.810086150395221e+17
19586.0	4.8091983805153274e+17
19587.0	4.8084890468133536e+17
19588.0	4.8070134682965344e+17
19589.0	4.806808598216703e+17
19590.0	4.805813475125929e+17
19591.0	4.805125341533524e+17
19592.0	4.8042807890629965e+17
19593.0	4.803399557403989e+17
19594.0	4.802243686913364e+17
19595.0	4.801679896958293e+17
19596.0	4.8006365806155085e+17
19597.0	4.800002141803861e+17
19598.0	4.7984500116466336e+17
19599.0	4.798309601028777e+17
19600.0	4.7974680558742176e+17
19601.0	4.7965211449098234e+17
19602.0	4.79569238958626e+17
19603.0	4.794198793038504e+17
19604.0	4.793981859441321e+17
19605.0	4.79278399488e+17
19606.0	4.792332013884755e+17
19607.0	4.791489307607039e+17
19608.0	4.7906095684212045e+17
19609.0	4.789705414191787e+17
19610.0	4.7888813592849056e+17
19611.0	4.7879936642034336e+17
19612.0	4.7872137207917216e+17
19613.0	4.786344169570303e+17
19614.0	4.7854505115866445e+17
19615.0	4.784644741049001e+17
19616.0	4.7836466616729594e+17
19617.0	4.7828566987680416e+17
19618.0	4.78122520748578e+17
19619.0	4.780158635824467e+17
19620.0	4.779356057152168e+17
19621.0	4.7794234652098554e+17
19622.0	4.778655820895573e+17
19623.0	4.777795433529342e+17
19624.0	4.7769187135433376e+17
19625.0	4.776087134754134e+17
19626.0	4.7752248746311674e+17
19627.0	4.7743725487172256e+17
19628.0	4.7733200964812794e+17
19629.0	4.772333142496596e+17
19630.0	4.771375854824106e+17
19631.0	4.762403441650345e+17
19632.0	4.7700716583649274e+17
19633.0	4.7691694712640845e+17
19634.0	4.7683797837851296e+17
19635.0	4.7674655191859194e+17
19636.0	4.7665696759698765e+17
19637.0	4.765288203550719e+17
19638.0	4.764932725101908e+17
19639.0	4.764085061855913e+17
19640.0	4.763092284080128e+17
19641.0	4.7605992289293696e+17
19642.0	4.7615159311182496e+17
19643.0	4.7606557122232314e+17
19644.0	4.7597354099234125e+17
19645.0	4.7585623756417696e+17
19646.0	4.758013594304511e+17
19647.0	4.757254286169428e+17
19648.0	4.756397273819819e+17
19649.0	4.7555371660738554e+17
19650.0	4.75469016343074e+17
19651.0	4.753829372013225e+17
19652.0	4.752971328563881e+17
19653.0	4.752120067304106e+17
19654.0	4.7512620154661536e+17
19655.0	4.750401673538217e+17
