# Flux units: erg / (cm m2 s)
# Wavelength units: Angstrom
wave	flux
19000.0	7.539881766376787e+17
19001.0	7.538350944681983e+17
19002.0	7.537018467429034e+17
19003.0	7.535581040301396e+17
19004.0	7.534146872147968e+17
19005.0	7.532711078002688e+17
19006.0	7.531276189827071e+17
19007.0	7.529714045069994e+17
19008.0	7.528314854615721e+17
19009.0	7.526908521261736e+17
19010.0	7.525101905903615e+17
19011.0	7.524081714156884e+17
19012.0	7.522497149446824e+17
19013.0	7.521239248317097e+17
19014.0	7.519740362052948e+17
19015.0	7.518338838167551e+17
19016.0	7.516900416989864e+17
19017.0	7.51475012595439e+17
19018.0	7.514063198224383e+17
19019.0	7.512637819934036e+17
19020.0	7.511114802440874e+17
19021.0	7.50972859056128e+17
19022.0	7.508354640030377e+17
19023.0	7.506879469759144e+17
19024.0	7.505476252773032e+17
19025.0	7.504038807470079e+17
19026.0	7.502602237378557e+17
19027.0	7.501157500977151e+17
19028.0	7.499773678452736e+17
19029.0	7.498328139541161e+17
19030.0	7.496926619850068e+17
19031.0	7.49550412304657e+17
19032.0	7.49407380526421e+17
19033.0	7.49255169094451e+17
19034.0	7.491189017498963e+17
19035.0	7.489749231774378e+17
19036.0	7.481238835167228e+17
19037.0	7.486917398495232e+17
19038.0	7.485479350610604e+17
19039.0	7.484072739034454e+17
19040.0	7.482651740995583e+17
19041.0	7.481216513081344e+17
19042.0	7.479703900258301e+17
19043.0	7.4783735676928e+17
19044.0	7.476931037495296e+17
19045.0	7.475516730769407e+17
19046.0	7.47402205418837e+17
19047.0	7.472658295816192e+17
19048.0	7.471035191044777e+17
19049.0	7.469742302429181e+17
19050.0	7.468341723660288e+17
19051.0	7.466243585998845e+17
19052.0	7.46544591745843e+17
19053.0	7.464079424400041e+17
19054.0	7.462693545268564e+17
19055.0	7.461011253275305e+17
19056.0	7.459821080368467e+17
19057.0	7.458414804336637e+17
19058.0	7.456943649412436e+17
19059.0	7.455574035791872e+17
19060.0	7.454134159190698e+17
19061.0	7.452736811433981e+17
19062.0	7.451308713836544e+17
19063.0	7.449890078588927e+17
19064.0	7.448335694692352e+17
19065.0	7.446854230168914e+17
19066.0	7.445560838236841e+17
19067.0	7.444194198377812e+17
19068.0	7.442788636775763e+17
19069.0	7.441368550298964e+17
19070.0	7.439913830055935e+17
19071.0	7.438519917434199e+17
19072.0	7.437110234229417e+17
19073.0	7.435681875187028e+17
19074.0	7.434273378970281e+17
19075.0	7.432854732537855e+17
19076.0	7.431413744446122e+17
19077.0	7.430008301682688e+17
19078.0	7.428440451274068e+17
19079.0	7.427174929093972e+17
19080.0	7.425746431639551e+17
19081.0	7.424292164381353e+17
19082.0	7.422831562326015e+17
19083.0	7.421378119947603e+17
19084.0	7.419827696872105e+17
19085.0	7.418666199023616e+17
19086.0	7.416839888612009e+17
19087.0	7.415694972245332e+17
19088.0	7.414350892149417e+17
19089.0	7.412741899812863e+17
19090.0	7.41157111996962e+17
19091.0	7.410142468724054e+17
19092.0	7.408678528002729e+17
19093.0	7.407358439325693e+17
19094.0	7.405907586230952e+17
19095.0	7.40448543895279e+17
19096.0	7.4030710259712e+17
19097.0	7.401700186215764e+17
19098.0	7.400289810950825e+17
19099.0	7.398858111844351e+17
19100.0	7.397452824270164e+17
19101.0	7.39605209031202e+17
19102.0	7.394558767093076e+17
19103.0	7.393224013731156e+17
19104.0	7.391821049801385e+17
19105.0	7.39040638795776e+17
19106.0	7.388966802161661e+17
19107.0	7.387568623932756e+17
19108.0	7.386178167417514e+17
19109.0	7.383947410057896e+17
19110.0	7.383347645557417e+17
19111.0	7.381947297475242e+17
19112.0	7.380540597818708e+17
19113.0	7.379130450444288e+17
19114.0	7.377717358668458e+17
19115.0	7.37625628685107e+17
19116.0	7.374881588335956e+17
19117.0	7.373470231603881e+17
19118.0	7.37195959989043e+17
19119.0	7.368710529832273e+17
19120.0	7.369221921745578e+17
19121.0	7.367843261011283e+17
19122.0	7.366463765610493e+17
19123.0	7.364998190508714e+17
19124.0	7.363613870260224e+17
19125.0	7.362220398040403e+17
19126.0	7.360776527063722e+17
19127.0	7.35778845176627e+17
19128.0	7.35721559512405e+17
19129.0	7.356528871516841e+17
19130.0	7.355199363831123e+17
19131.0	7.353787144470527e+17
19132.0	7.352399184964264e+17
19133.0	7.350035154993152e+17
19134.0	7.349228714764969e+17
19135.0	7.348194238616916e+17
19136.0	7.346799225689427e+17
19137.0	7.34523547311582e+17
19138.0	7.343780038443008e+17
19139.0	7.342588287079766e+17
19140.0	7.341189808259071e+17
19141.0	7.339788712192681e+17
19142.0	7.338361919023785e+17
19143.0	7.336924374455638e+17
19144.0	7.335524649926653e+17
19145.0	7.334173102571519e+17
19146.0	7.332169670896297e+17
19147.0	7.331292879607123e+17
19148.0	7.329975346659327e+17
19149.0	7.328572877657427e+17
19150.0	7.327155380464298e+17
19151.0	7.32577826742818e+17
19152.0	7.324301230691667e+17
19153.0	7.322966678656339e+17
19154.0	7.321460365677908e+17
19155.0	7.320188593984854e+17
19156.0	7.318789730686292e+17
19157.0	7.317381016365738e+17
19158.0	7.315408965074943e+17
19159.0	7.314580197168467e+17
19160.0	7.313097577813331e+17
19161.0	7.311715388271274e+17
19162.0	7.309127709622272e+17
19163.0	7.308992750900564e+17
19164.0	7.30761690873856e+17
19165.0	7.306199542966953e+17
19166.0	7.304716473423187e+17
19167.0	7.303310541324287e+17
19168.0	7.30179686174993e+17
19169.0	7.300503886452051e+17
19170.0	7.299243380659539e+17
19171.0	7.297799374067027e+17
19172.0	7.296449058439165e+17
19173.0	7.295060229313875e+17
19174.0	7.293610205293226e+17
19175.0	7.292274141910355e+17
19176.0	7.290874470509225e+17
19177.0	7.289335850205183e+17
19178.0	7.288079130471084e+17
19179.0	7.286635432858963e+17
19180.0	7.284938197958655e+17
19181.0	7.283822548047187e+17
19182.0	7.282176223608832e+17
19183.0	7.28108176052497e+17
19184.0	7.279513283766953e+17
19185.0	7.278320355202387e+17
19186.0	7.276955250458623e+17
19187.0	7.275472698212351e+17
19188.0	7.274162705225042e+17
19189.0	7.272747514899113e+17
19190.0	7.271351445007017e+17
19191.0	7.269955643550377e+17
19192.0	7.268547716360874e+17
19193.0	7.266694657474557e+17
19194.0	7.265581374548649e+17
19195.0	7.264397027530067e+17
19196.0	7.263032163259732e+17
19197.0	7.261650079973375e+17
19198.0	7.260261944306345e+17
19199.0	7.251285001284264e+17
19200.0	7.252396519806295e+17
19201.0	7.256097811333119e+17
19202.0	7.254718685031081e+17
19203.0	7.25331789095458e+17
19204.0	7.251917696663552e+17
19205.0	7.250542524192084e+17
19206.0	7.249147423184211e+17
19207.0	7.247682281493844e+17
19208.0	7.246179318366207e+17
19209.0	7.244983678883155e+17
19210.0	7.243595164330666e+17
19211.0	7.242197861313193e+17
19212.0	7.240842794937002e+17
19213.0	7.239315070036649e+17
19214.0	7.237866992173053e+17
19215.0	7.236648467169279e+17
19216.0	7.235142070304768e+17
19217.0	7.233890920606378e+17
19218.0	7.23170452779827e+17
19219.0	7.230955833349458e+17
19220.0	7.229714941520553e+17
19221.0	7.22802400366865e+17
19222.0	7.226973024332457e+17
19223.0	7.225561597695316e+17
19224.0	7.22391732007731e+17
19225.0	7.222601380965033e+17
19226.0	7.221400902653267e+17
19227.0	7.220012492958378e+17
19228.0	7.218659848093693e+17
19229.0	7.217276822487039e+17
19230.0	7.21583140521028e+17
19231.0	7.214436663514451e+17
19232.0	7.212907958545066e+17
19233.0	7.21165808251699e+17
19234.0	7.210321648637267e+17
19235.0	7.208922953110867e+17
19236.0	7.207578675882664e+17
19237.0	7.206175753895935e+17
19238.0	7.204709948107433e+17
19239.0	7.203428094705663e+17
19240.0	7.201586553378131e+17
19241.0	7.200489559730858e+17
19242.0	7.199201472195241e+17
19243.0	7.197678843374249e+17
19244.0	7.196491477854889e+17
19245.0	7.19510714921779e+17
19246.0	7.193712552924499e+17
19247.0	7.192306420897108e+17
19248.0	7.19096443236079e+17
19249.0	7.189574486152532e+17
19250.0	7.188171991984808e+17
19251.0	7.186676338130943e+17
19252.0	7.185025423725908e+17
19253.0	7.184014616035327e+17
19254.0	7.182579807551487e+17
19255.0	7.181060995547135e+17
19256.0	7.179821958998697e+17
19257.0	7.178487299309565e+17
19258.0	7.177093260858708e+17
19259.0	7.175640732838569e+17
19260.0	7.174256018325501e+17
19261.0	7.172932809086292e+17
19262.0	7.171494375325693e+17
19263.0	7.170118770840916e+17
19264.0	7.168250868312744e+17
19265.0	7.167224937360041e+17
19266.0	7.165896613866153e+17
19267.0	7.164625672645289e+17
19268.0	7.163225764965033e+17
19269.0	7.1618448616762e+17
19270.0	7.160451908151978e+17
19271.0	7.158745593981612e+17
19272.0	7.157641393121961e+17
19273.0	7.144883054357148e+17
19274.0	7.149061056495608e+17
19275.0	7.153509680720553e+17
19276.0	7.152099768227156e+17
19277.0	7.1507123386013e+17
19278.0	7.149323956868436e+17
19279.0	7.147800027813203e+17
19280.0	7.146451127063891e+17
19281.0	7.145132868501504e+17
19282.0	7.143756413971113e+17
19283.0	7.142231966220287e+17
19284.0	7.14064760283682e+17
19285.0	7.139321776351913e+17
19286.0	7.138140403094867e+17
19287.0	7.136781456987476e+17
19288.0	7.133482183906642e+17
19289.0	7.129333080522744e+17
19290.0	7.132588711870463e+17
19291.0	7.130907563524096e+17
19292.0	7.129787736085844e+17
19293.0	7.128379193731753e+17
19294.0	7.126972782084096e+17
19295.0	7.125582975685974e+17
19296.0	7.124170499074729e+17
19297.0	7.122746752368637e+17
19298.0	7.12133657703219e+17
19299.0	7.119961371006292e+17
19300.0	7.118553873033898e+17
19301.0	7.117133427245053e+17
19302.0	7.1157144382778e+17
19303.0	7.114212834104659e+17
19304.0	7.112825939951616e+17
19305.0	7.111476095483901e+17
19306.0	7.110067274907647e+17
19307.0	7.108595128729599e+17
19308.0	7.107206492542291e+17
19309.0	7.105598355843752e+17
19310.0	7.104033033202345e+17
19311.0	7.102926617750185e+17
19312.0	7.101499845552808e+17
19313.0	7.099650862131884e+17
19314.0	7.097186036045139e+17
19315.0	7.095813440274433e+17
19316.0	7.095841922394793e+17
19317.0	7.094407972345172e+17
19318.0	7.092966594183168e+17
19319.0	7.091546251853823e+17
19320.0	7.089992715206653e+17
19321.0	7.088665998131199e+17
19322.0	7.087029899405993e+17
19323.0	7.08564853334562e+17
19324.0	7.084321068285951e+17
19325.0	7.082747260567552e+17
19326.0	7.081417955606527e+17
19327.0	7.079949760462847e+17
19328.0	7.078506486475433e+17
19329.0	7.077043665633279e+17
19330.0	7.0755273422493e+17
19331.0	7.074048139853823e+17
19332.0	7.072613156607316e+17
19333.0	7.071116210907817e+17
19334.0	7.069512335622143e+17
19335.0	7.068175745155071e+17
19336.0	7.066681339805696e+17
19337.0	7.065172774486015e+17
19338.0	7.063478453228883e+17
19339.0	7.062187737262761e+17
19340.0	7.060638236934143e+17
19341.0	7.059160217332394e+17
19342.0	7.057178847696211e+17
19343.0	7.056124416447828e+17
19344.0	7.054584700032339e+17
19345.0	7.051222420116818e+17
19346.0	7.050799270767272e+17
19347.0	7.049900266444116e+17
19348.0	7.048417750548479e+17
19349.0	7.046823136286038e+17
19350.0	7.045261197049855e+17
19351.0	7.043675400612521e+17
19352.0	7.042052952948735e+17
19353.0	7.040543659218262e+17
19354.0	7.038930552269481e+17
19355.0	7.037223232165203e+17
19356.0	7.035701038852778e+17
19357.0	7.034058424975359e+17
19358.0	7.032300693531305e+17
19359.0	7.03014189015586e+17
19360.0	7.029053076799487e+17
19361.0	7.027347741300052e+17
19362.0	7.025744678311252e+17
19363.0	7.024029012940116e+17
19364.0	7.022302673065299e+17
19365.0	7.020571422359552e+17
19366.0	7.018839158729385e+17
19367.0	7.017078050171562e+17
19368.0	7.015299626827775e+17
19369.0	7.013232073332052e+17
19370.0	7.010249984005459e+17
19371.0	7.009793075402068e+17
19372.0	7.007992200648019e+17
19373.0	7.006082493491882e+17
19374.0	7.004200273007955e+17
19375.0	7.002277248237567e+17
19376.0	7.000319472260436e+17
19377.0	6.998334225689257e+17
19378.0	6.996329806954493e+17
19379.0	6.994282486082218e+17
19380.0	6.992220379589289e+17
19381.0	6.990107662527146e+17
19382.0	6.987885790800553e+17
19383.0	6.985670802625875e+17
19384.0	6.983567345188863e+17
19385.0	6.981299532551508e+17
19386.0	6.978987012128768e+17
19387.0	6.976607110212266e+17
19388.0	6.974194726906537e+17
19389.0	6.97172731433233e+17
19390.0	6.969184163113642e+17
19391.0	6.960417961497932e+17
19392.0	6.963879461169833e+17
19393.0	6.961206159998975e+17
19394.0	6.958385487762772e+17
19395.0	6.955496121215658e+17
19396.0	6.952513978761215e+17
19397.0	6.949480640632148e+17
19398.0	6.94629553021474e+17
19399.0	6.942393101538644e+17
19400.0	6.93956135564083e+17
19401.0	6.936108125039273e+17
19402.0	6.932483198506323e+17
19403.0	6.928686891313833e+17
19404.0	6.924752142030164e+17
19405.0	6.920637861855231e+17
19406.0	6.916360673514835e+17
19407.0	6.911888225643178e+17
19408.0	6.906542955692032e+17
19409.0	6.902173084418047e+17
19410.0	6.897159483949055e+17
19411.0	6.891733075886079e+17
19412.0	6.886052180525056e+17
19413.0	6.880095602649769e+17
19414.0	6.873680859977044e+17
19415.0	6.867046777574739e+17
19416.0	6.859740975289684e+17
19417.0	6.852315291407699e+17
19418.0	6.84447332704802e+17
19419.0	6.836012869222399e+17
19420.0	6.826957396945578e+17
19421.0	6.817278807681706e+17
19422.0	6.806927349295785e+17
19423.0	6.795815251782313e+17
19424.0	6.783942833209344e+17
19425.0	6.771196729928362e+17
19426.0	6.757534752134484e+17
19427.0	6.742811477715626e+17
19428.0	6.727347854114815e+17
19429.0	6.710131072259411e+17
19430.0	6.69130766155776e+17
19431.0	6.669821925479767e+17
19432.0	6.64850989859908e+17
19433.0	6.625275989895849e+17
19434.0	6.600589390992723e+17
19435.0	6.57332590818099e+17
19436.0	6.543014565161641e+17
19437.0	6.510207943311359e+17
19438.0	6.46621276597999e+17
19439.0	6.431219944958636e+17
19440.0	6.389777275639123e+17
19441.0	6.343846730399741e+17
19442.0	6.291480770161324e+17
19443.0	6.230923216071337e+17
19444.0	6.166680068336294e+17
19445.0	6.096473729706669e+17
19446.0	6.014182031884287e+17
19447.0	5.922787666777426e+17
19448.0	5.814339443359749e+17
19449.0	5.662675215668565e+17
19450.0	5.296900430015115e+17
19451.0	5.15310197075695e+17
19452.0	5.509285938550107e+17
19453.0	5.748581274572122e+17
19454.0	5.866335089197051e+17
19455.0	5.962451424815786e+17
19456.0	6.047434511045976e+17
19457.0	6.120780131030354e+17
19458.0	6.182821274058755e+17
19459.0	6.245358146071209e+17
19460.0	6.299048726233084e+17
19461.0	6.345431413249363e+17
19462.0	6.386463678311084e+17
19463.0	6.424796271913638e+17
19464.0	6.462295754407936e+17
19465.0	6.494964852020566e+17
19466.0	6.523611616990546e+17
19467.0	6.549736400792233e+17
19468.0	6.572950647996416e+17
19469.0	6.592539833051817e+17
19470.0	6.614452851965951e+17
19471.0	6.633352898893139e+17
19472.0	6.650151675712851e+17
19473.0	6.665343454587562e+17
19474.0	6.679148430884864e+17
19475.0	6.690924230169939e+17
19476.0	6.702881819678036e+17
19477.0	6.713323856155988e+17
19478.0	6.723092010587476e+17
19479.0	6.731800655167487e+17
19480.0	6.739859367176874e+17
19481.0	6.747144272740351e+17
19482.0	6.753849448595455e+17
19483.0	6.759969556791295e+17
19484.0	6.765463635755007e+17
19485.0	6.770427126175059e+17
19486.0	6.77510062661086e+17
19487.0	6.779335074993492e+17
19488.0	6.783166392740522e+17
19489.0	6.786630935379967e+17
19490.0	6.788622268585299e+17
19491.0	6.792650660599123e+17
19492.0	6.795322440635732e+17
19493.0	6.797680589493588e+17
19494.0	6.799799268059817e+17
19495.0	6.801528440487935e+17
19496.0	6.803004258779133e+17
19497.0	6.804941647642623e+17
19498.0	6.805713286332416e+17
19499.0	6.797495259977037e+17
19500.0	6.808591573625514e+17
19501.0	6.80948842836787e+17
19502.0	6.810291451636393e+17
19503.0	6.811004970554707e+17
19504.0	6.811515170586624e+17
19505.0	6.812050344902655e+17
19506.0	6.812427958790825e+17
19507.0	6.812694828373331e+17
19508.0	6.812915486512468e+17
19509.0	6.813036103510698e+17
19510.0	6.812927319343101e+17
19511.0	6.807258797178876e+17
19512.0	6.811537473798139e+17
19513.0	6.809889976352762e+17
19514.0	6.810686142633298e+17
19515.0	6.811916595538604e+17
19516.0	6.812135499759615e+17
19517.0	6.811747452540244e+17
19518.0	6.811437185892351e+17
19519.0	6.811002574908074e+17
19520.0	6.810507723931647e+17
19521.0	6.810033547378687e+17
19522.0	6.809449823993856e+17
19523.0	6.80893866975778e+17
19524.0	6.808336452288511e+17
19525.0	6.807619497536169e+17
19526.0	6.807025893070164e+17
19527.0	6.806341316946601e+17
19528.0	6.805640443854847e+17
19529.0	6.804900846152361e+17
19530.0	6.80415982588177e+17
19531.0	6.803392379398825e+17
19532.0	6.80259529876002e+17
19533.0	6.801787091331754e+17
19534.0	6.800950268264447e+17
19535.0	6.800080540183209e+17
19536.0	6.799198642328915e+17
19537.0	6.798354507890687e+17
19538.0	6.797385206333439e+17
19539.0	6.796046466285568e+17
19540.0	6.795599980527615e+17
19541.0	6.794692547051519e+17
19542.0	6.79373975986722e+17
19543.0	6.792778349193897e+17
19544.0	6.791814489746089e+17
19545.0	6.790427504017405e+17
19546.0	6.789015220344148e+17
19547.0	6.788788265156607e+17
19548.0	6.787836607638185e+17
19549.0	6.786709177324884e+17
19550.0	6.785794578579456e+17
19551.0	6.784766775569065e+17
19552.0	6.783724770645331e+17
19553.0	6.782655279049385e+17
19554.0	6.78159064375842e+17
19555.0	6.780553057533951e+17
19556.0	6.779496378138623e+17
19557.0	6.778418527993855e+17
19558.0	6.777346705063936e+17
19559.0	6.776212467395241e+17
19560.0	6.775143163144873e+17
19561.0	6.774045054511785e+17
19562.0	6.772964285830484e+17
19563.0	6.771841053316436e+17
19564.0	6.770752652399958e+17
19565.0	6.769633382804138e+17
19566.0	6.768495638697299e+17
19567.0	6.767380684341247e+17
19568.0	6.766237773550931e+17
19569.0	6.765120252979881e+17
19570.0	6.764009267134463e+17
19571.0	6.762869915910143e+17
19572.0	6.761693529680553e+17
19573.0	6.760566743192915e+17
19574.0	6.759330996376916e+17
19575.0	6.758273556414463e+17
19576.0	6.757130546358954e+17
19577.0	6.755814196903935e+17
19578.0	6.754765252504234e+17
19579.0	6.753631226647891e+17
19580.0	6.752475786073427e+17
19581.0	6.751326109870761e+17
19582.0	6.750174128898047e+17
19583.0	6.749004071174143e+17
19584.0	6.747824939772585e+17
19585.0	6.746537731642707e+17
19586.0	6.745251379849897e+17
19587.0	6.744132874316457e+17
19588.0	6.742606397221546e+17
19589.0	6.741739707913555e+17
19590.0	6.740674244247551e+17
19591.0	6.73956652716305e+17
19592.0	6.738386466024106e+17
19593.0	6.737171558607529e+17
19594.0	6.735752610884265e+17
19595.0	6.734783152739668e+17
19596.0	6.731668595408896e+17
19597.0	6.73238857355537e+17
19598.0	6.731006098800639e+17
19599.0	6.730043689882964e+17
19600.0	6.728852651551402e+17
19601.0	6.727590117812906e+17
19602.0	6.726415565193215e+17
19603.0	6.724778961753426e+17
19604.0	6.723990926830249e+17
19605.0	6.722547745117524e+17
19606.0	6.721613129056255e+17
19607.0	6.720451829039103e+17
19608.0	6.719230179977897e+17
19609.0	6.717983878894931e+17
19610.0	6.71683671368226e+17
19611.0	6.715624478037332e+17
19612.0	6.714427576767827e+17
19613.0	6.713200498180095e+17
19614.0	6.711966863196159e+17
19615.0	6.710802119655423e+17
19616.0	6.709541712429055e+17
19617.0	6.708377291849727e+17
19618.0	6.706671969632255e+17
19619.0	6.70533680383044e+17
19620.0	6.704139025951402e+17
19621.0	6.703530799442601e+17
19622.0	6.702322958729215e+17
19623.0	6.701112577665706e+17
19624.0	6.699888252638548e+17
19625.0	6.698682175629994e+17
19626.0	6.697458611869011e+17
19627.0	6.696255780552701e+17
19628.0	6.694862218854399e+17
19629.0	6.693736531274409e+17
19630.0	6.692323259143508e+17
19631.0	6.68361328636723e+17
19632.0	6.690168391423316e+17
19633.0	6.688910378445482e+17
19634.0	6.687740028518397e+17
19635.0	6.686480165153449e+17
19636.0	6.685296199816532e+17
19637.0	6.683648066235049e+17
19638.0	6.682861005089449e+17
19639.0	6.681624908049066e+17
19640.0	6.680356065378303e+17
19641.0	6.678745787487574e+17
19642.0	6.677984795339433e+17
19643.0	6.676738958426111e+17
19644.0	6.675498391655764e+17
19645.0	6.674091556383401e+17
19646.0	6.673124475011071e+17
19647.0	6.671905186643968e+17
19648.0	6.670680607162367e+17
19649.0	6.669457859892564e+17
19650.0	6.668246482681855e+17
19651.0	6.667019609615017e+17
19652.0	6.665796461789183e+17
19653.0	6.664582183518207e+17
19654.0	6.663355353792511e+17
19655.0	6.662130266800127e+17
19656.0	6.660916726726655e+17
19657.0	6.659696404463615e+17
19658.0	6.658480422606164e+17
19659.0	6.657261886417577e+17
19660.0	6.656046128955392e+17
19661.0	6.654822910525439e+17
19662.0	6.653605692047359e+17
19663.0	6.652336839589887e+17
19664.0	6.651124983529472e+17
19665.0	6.649945069191168e+17
