# Flux units: erg / (cm m2 s)
# Wavelength units: Angstrom
wave	flux
19000.0	6.703090767320404e+17
19001.0	6.701765934885546e+17
19002.0	6.700603059208191e+17
19003.0	6.699351989900627e+17
19004.0	6.69810222502161e+17
19005.0	6.696868121673727e+17
19006.0	6.695622674830676e+17
19007.0	6.694289030163114e+17
19008.0	6.693081615870633e+17
19009.0	6.691819929381546e+17
19010.0	6.690254173328723e+17
19011.0	6.689351040412329e+17
19012.0	6.687697322115071e+17
19013.0	6.686889659247274e+17
19014.0	6.685597798236159e+17
19015.0	6.684367499122003e+17
19016.0	6.683109772055892e+17
19017.0	6.681903746078035e+17
19018.0	6.6806294787741e+17
19019.0	6.679404466580138e+17
19020.0	6.678142576667306e+17
19021.0	6.676912198560425e+17
19022.0	6.675668710457343e+17
19023.0	6.674386270552063e+17
19024.0	6.673155527540733e+17
19025.0	6.67199368995362e+17
19026.0	6.670714902588073e+17
19027.0	6.669141528281085e+17
19028.0	6.66827780993843e+17
19029.0	6.667026793059668e+17
19030.0	6.665791506918058e+17
19031.0	6.664542679465983e+17
19032.0	6.663290418277034e+17
19033.0	6.661969238381908e+17
19034.0	6.660777767337983e+17
19035.0	6.659464429393235e+17
19036.0	6.632310649301668e+17
19037.0	6.657001498432852e+17
19038.0	6.655774719038803e+17
19039.0	6.654550558987603e+17
19040.0	6.653303270845098e+17
19041.0	6.652054732100948e+17
19042.0	6.65070394671104e+17
19043.0	6.649559055510185e+17
19044.0	6.648298478414505e+17
19045.0	6.647046600305321e+17
19046.0	6.645770780409856e+17
19047.0	6.644551765371561e+17
19048.0	6.643140481340756e+17
19049.0	6.641954486659753e+17
19050.0	6.640774303885993e+17
19051.0	6.635549065128612e+17
19052.0	6.637661334099284e+17
19053.0	6.637044183509673e+17
19054.0	6.635820465258495e+17
19055.0	6.634357594084694e+17
19056.0	6.633297634044585e+17
19057.0	6.632067236364287e+17
19058.0	6.630768375059798e+17
19059.0	6.629567975740756e+17
19060.0	6.628311641183571e+17
19061.0	6.62708265488657e+17
19062.0	6.625830226624511e+17
19063.0	6.624583435507027e+17
19064.0	6.623235131746986e+17
19065.0	6.621945268622676e+17
19066.0	6.620781777780735e+17
19067.0	6.619591231580842e+17
19068.0	6.618343825298772e+17
19069.0	6.617096502902783e+17
19070.0	6.615828504685226e+17
19071.0	6.614588151824383e+17
19072.0	6.613338405819732e+17
19073.0	6.612100845666301e+17
19074.0	6.610857473605631e+17
19075.0	6.609609735274495e+17
19076.0	6.608344983448234e+17
19077.0	6.607103451987967e+17
19078.0	6.605845103465812e+17
19079.0	6.604618084996436e+17
19080.0	6.603358643159039e+17
19081.0	6.602089808177833e+17
19082.0	6.600840477409279e+17
19083.0	6.599541632182953e+17
19084.0	6.598193365472596e+17
19085.0	6.597132016418815e+17
19086.0	6.59553637245474e+17
19087.0	6.593886768769706e+17
19088.0	6.5932610254493e+17
19089.0	6.591610121530025e+17
19090.0	6.590856150646783e+17
19091.0	6.58962112455202e+17
19092.0	6.588171479416831e+17
19093.0	6.587158014634665e+17
19094.0	6.585913520597674e+17
19095.0	6.584667455094783e+17
19096.0	6.583409888810323e+17
19097.0	6.582176777415338e+17
19098.0	6.580920991612927e+17
19099.0	6.579673126753619e+17
19100.0	6.578396776278697e+17
19101.0	6.577180191140522e+17
19102.0	6.575867722115753e+17
19103.0	6.574705369328297e+17
19104.0	6.573459444334591e+17
19105.0	6.572183930623316e+17
19106.0	6.57083349475874e+17
19107.0	6.569697806559914e+17
19108.0	6.568455136346111e+17
19109.0	6.565111957990056e+17
19110.0	6.565903142136489e+17
19111.0	6.564722971945641e+17
19112.0	6.563488231762602e+17
19113.0	6.562255365734399e+17
19114.0	6.561009463809363e+17
19115.0	6.559673875780948e+17
19116.0	6.55850354123298e+17
19117.0	6.557256918586708e+17
19118.0	6.555844451063123e+17
19119.0	6.551219747160058e+17
19120.0	6.553312103672489e+17
19121.0	6.552140316497236e+17
19122.0	6.551058540483924e+17
19123.0	6.549814660912467e+17
19124.0	6.548436664975359e+17
19125.0	6.547312011990356e+17
19126.0	6.546075247356585e+17
19127.0	6.543423032350035e+17
19128.0	6.543055936378195e+17
19129.0	6.542286661178707e+17
19130.0	6.541095545951572e+17
19131.0	6.539848539526484e+17
19132.0	6.538621617526099e+17
19133.0	6.537218248845994e+17
19134.0	6.535891405941418e+17
19135.0	6.534883814582953e+17
19136.0	6.533653687435263e+17
19137.0	6.532279169974271e+17
19138.0	6.531141941067776e+17
19139.0	6.529924522661204e+17
19140.0	6.528684269065556e+17
19141.0	6.527442010592595e+17
19142.0	6.526171562901504e+17
19143.0	6.524912635565395e+17
19144.0	6.523684903365289e+17
19145.0	6.522469045938857e+17
19146.0	6.52073864597777e+17
19147.0	6.519909255916201e+17
19148.0	6.518723626838697e+17
19149.0	6.517483882151936e+17
19150.0	6.516254990226772e+17
19151.0	6.515019763504468e+17
19152.0	6.513748341336746e+17
19153.0	6.512500893810687e+17
19154.0	6.511187512524797e+17
19155.0	6.510041648245417e+17
19156.0	6.508800403395923e+17
19157.0	6.507493723209727e+17
19158.0	6.504912693930664e+17
19159.0	6.505038618121556e+17
19160.0	6.503795555041279e+17
19161.0	6.502531076543828e+17
19162.0	6.498076781619885e+17
19163.0	6.499991925293055e+17
19164.0	6.49886635794978e+17
19165.0	6.497546575456937e+17
19166.0	6.49621651202594e+17
19167.0	6.494836312681129e+17
19168.0	6.493882218971136e+17
19169.0	6.492598236960084e+17
19170.0	6.491420200271871e+17
19171.0	6.489989391755946e+17
19172.0	6.488917708636159e+17
19173.0	6.487690853045588e+17
19174.0	6.486417499400873e+17
19175.0	6.485223001467561e+17
19176.0	6.483981021216767e+17
19177.0	6.482613677413716e+17
19178.0	6.481405257886378e+17
19179.0	6.479979987249834e+17
19180.0	6.478971926129322e+17
19181.0	6.477674924299604e+17
19182.0	6.476507556522665e+17
19183.0	6.475284721172479e+17
19184.0	6.474025986774356e+17
19185.0	6.472800658609491e+17
19186.0	6.471561598293331e+17
19187.0	6.470256502854996e+17
19188.0	6.469068009766911e+17
19189.0	6.467811417959082e+17
19190.0	6.466554100536662e+17
19191.0	6.465286002354858e+17
19192.0	6.464103025475583e+17
19193.0	6.462844071575551e+17
19194.0	6.461596928835583e+17
19195.0	6.460363350474751e+17
19196.0	6.459097621375658e+17
19197.0	6.457819874896553e+17
19198.0	6.456425243650729e+17
19199.0	6.436010011394042e+17
19200.0	6.440596251432283e+17
19201.0	6.452721545292457e+17
19202.0	6.451615561154559e+17
19203.0	6.450353525839188e+17
19204.0	6.449144668007081e+17
19205.0	6.447927408285012e+17
19206.0	6.4466854098589e+17
19207.0	6.44537338962466e+17
19208.0	6.444037712816809e+17
19209.0	6.442957227950079e+17
19210.0	6.44171607188002e+17
19211.0	6.440478088800937e+17
19212.0	6.439230694402729e+17
19213.0	6.437754691562154e+17
19214.0	6.436422406548138e+17
19215.0	6.435412841070591e+17
19216.0	6.434245724951892e+17
19217.0	6.433000592681642e+17
19218.0	6.4310855888186e+17
19219.0	6.430379674872489e+17
19220.0	6.429231228998995e+17
19221.0	6.427748321634985e+17
19222.0	6.426758567952383e+17
19223.0	6.425497626651306e+17
19224.0	6.424227834669738e+17
19225.0	6.422901285366442e+17
19226.0	6.421748914323455e+17
19227.0	6.420496857956351e+17
19228.0	6.419268954488831e+17
19229.0	6.41801747833378e+17
19230.0	6.416743651431764e+17
19231.0	6.415489374180691e+17
19232.0	6.414251603613012e+17
19233.0	6.412947947519997e+17
19234.0	6.411737298021034e+17
19235.0	6.410484982306132e+17
19236.0	6.409248695823017e+17
19237.0	6.407981189038079e+17
19238.0	6.4066360981149e+17
19239.0	6.405484605778601e+17
19240.0	6.404200953020416e+17
19241.0	6.402945451032575e+17
19242.0	6.401700864720895e+17
19243.0	6.400322207481855e+17
19244.0	6.399199614599165e+17
19245.0	6.397935680662185e+17
19246.0	6.396665679664467e+17
19247.0	6.395419770748928e+17
19248.0	6.394159518012756e+17
19249.0	6.392885463919273e+17
19250.0	6.391613697119571e+17
19251.0	6.389395477932712e+17
19252.0	6.38707486949376e+17
19253.0	6.386016297768275e+17
19254.0	6.384764830001834e+17
19255.0	6.383351537598463e+17
19256.0	6.382189069467647e+17
19257.0	6.3809610856093e+17
19258.0	6.379691158710953e+17
19259.0	6.378361042152106e+17
19260.0	6.376662403558056e+17
19261.0	6.375857181076138e+17
19262.0	6.374491704437417e+17
19263.0	6.37321429909504e+17
19264.0	6.371553228182867e+17
19265.0	6.370550374989823e+17
19266.0	6.369268491528874e+17
19267.0	6.368149397394772e+17
19268.0	6.366867754407252e+17
19269.0	6.3655847147165e+17
19270.0	6.364298128741716e+17
19271.0	6.362745134557865e+17
19272.0	6.361697591754751e+17
19273.0	6.359503569507667e+17
19274.0	6.358482343165951e+17
19275.0	6.357857036053161e+17
19276.0	6.356549072409939e+17
19277.0	6.355258517225471e+17
19278.0	6.353964833090218e+17
19279.0	6.352637103789396e+17
19280.0	6.351306667065344e+17
19281.0	6.350059880841215e+17
19282.0	6.348764681863167e+17
19283.0	6.347183168509267e+17
19284.0	6.345950863818751e+17
19285.0	6.344696721484457e+17
19286.0	6.343508691866964e+17
19287.0	6.342217829799252e+17
19288.0	6.333802229355852e+17
19289.0	6.32271296912859e+17
19290.0	6.338266527694847e+17
19291.0	6.336748679681364e+17
19292.0	6.335636813032106e+17
19293.0	6.334306017695059e+17
19294.0	6.332975583068159e+17
19295.0	6.331654686288553e+17
19296.0	6.330308421659306e+17
19297.0	6.32896016683281e+17
19298.0	6.326095296419159e+17
19299.0	6.323950960596308e+17
19300.0	6.322611348133204e+17
19301.0	6.321256248901631e+17
19302.0	6.319892078089558e+17
19303.0	6.318482875132585e+17
19304.0	6.317150264360959e+17
19305.0	6.315796078089556e+17
19306.0	6.314424598702761e+17
19307.0	6.313002326294527e+17
19308.0	6.311639264875859e+17
19309.0	6.309602497571497e+17
19310.0	6.307987145971027e+17
19311.0	6.307415069469353e+17
19312.0	6.306121216163839e+17
19313.0	6.304725835535699e+17
19314.0	6.280514882590044e+17
19315.0	6.280664348710258e+17
19316.0	6.300417466040319e+17
19317.0	6.299087185903615e+17
19318.0	6.29766693794611e+17
19319.0	6.296256743735295e+17
19320.0	6.292853432341842e+17
19321.0	6.290410318768809e+17
19322.0	6.288858178824874e+17
19323.0	6.287205592290644e+17
19324.0	6.286000273752063e+17
19325.0	6.283926118421844e+17
19326.0	6.283056518965929e+17
19327.0	6.281577489235967e+17
19328.0	6.280074909887146e+17
19329.0	6.278597540402516e+17
19330.0	6.277056767721471e+17
19331.0	6.275534482134356e+17
19332.0	6.274042379457876e+17
19333.0	6.271891204822351e+17
19334.0	6.2673056694272e+17
19335.0	6.265688862403242e+17
19336.0	6.264137257932116e+17
19337.0	6.262552126291968e+17
19338.0	6.260785762970281e+17
19339.0	6.259329767658836e+17
19340.0	6.257641770014035e+17
19341.0	6.256036098168148e+17
19342.0	6.254091797091667e+17
19343.0	6.248930620735488e+17
19344.0	6.246610133232297e+17
19345.0	6.243363151238482e+17
19346.0	6.242515243324756e+17
19347.0	6.241353604967082e+17
19348.0	6.239669477965823e+17
19349.0	6.237857437974527e+17
19350.0	6.231605970468856e+17
19351.0	6.228945842208765e+17
19352.0	6.227005079726761e+17
19353.0	6.225186066006015e+17
19354.0	6.223266936345939e+17
19355.0	6.220155429672279e+17
19356.0	6.216253317666131e+17
19357.0	6.214232963372371e+17
19358.0	6.212171138596864e+17
19359.0	6.210053734399999e+17
19360.0	6.207965893754879e+17
19361.0	6.205861793191252e+17
19362.0	6.203739311090346e+17
19363.0	6.201556447789055e+17
19364.0	6.199342866104319e+17
19365.0	6.197099303534592e+17
19366.0	6.194822949896191e+17
19367.0	6.192519963126441e+17
19368.0	6.190189095419903e+17
19369.0	6.187770273158484e+17
19370.0	6.185314389327872e+17
19371.0	6.182935654126934e+17
19372.0	6.180495277337257e+17
19373.0	6.177960245592064e+17
19374.0	6.175412533067775e+17
19375.0	6.172805253038079e+17
19376.0	6.170158367593812e+17
19377.0	6.167460787694249e+17
19378.0	6.164721266851839e+17
19379.0	6.161930932715517e+17
19380.0	6.159090034147327e+17
19381.0	6.156197224775679e+17
19382.0	6.153191684396372e+17
19383.0	6.150162665701375e+17
19384.0	6.147194837707434e+17
19385.0	6.144112107454463e+17
19386.0	6.140974024971604e+17
19387.0	6.137770060458665e+17
19388.0	6.134502081079978e+17
19389.0	6.131167680703146e+17
19390.0	6.127753842305705e+17
19391.0	6.102872003444704e+17
19392.0	6.120430705661266e+17
19393.0	6.11716293529873e+17
19394.0	6.113475943552339e+17
19395.0	6.109685031632895e+17
19396.0	6.105859567037097e+17
19397.0	6.102006415840595e+17
19398.0	6.097838410825728e+17
19399.0	6.093053062982314e+17
19400.0	6.089341863810388e+17
19401.0	6.085144372139348e+17
19402.0	6.080854580614484e+17
19403.0	6.076492126268074e+17
19404.0	6.072109102355795e+17
19405.0	6.067658906664959e+17
19406.0	6.063186245582848e+17
19407.0	6.058658605563903e+17
19408.0	6.053537064681472e+17
19409.0	6.048913412849663e+17
19410.0	6.043834796474367e+17
19411.0	6.038841932644351e+17
19412.0	6.033756306188969e+17
19413.0	6.028566294691839e+17
19414.0	6.022579319297363e+17
19415.0	6.016803876634623e+17
19416.0	6.011057311754921e+17
19417.0	6.004534857258322e+17
19418.0	5.998109539347114e+17
19419.0	5.991538611978241e+17
19420.0	5.983577839064404e+17
19421.0	5.975333722740052e+17
19422.0	5.966290123838803e+17
19423.0	5.955657085048145e+17
19424.0	5.942821947179008e+17
19425.0	5.927234757984253e+17
19426.0	5.908588014862342e+17
19427.0	5.882309452496895e+17
19428.0	5.858092074576554e+17
19429.0	5.843158637565267e+17
19430.0	5.82796554727151e+17
19431.0	5.809202488410117e+17
19432.0	5.797149808437929e+17
19433.0	5.780350398977366e+17
19434.0	5.7624126658969594e+17
19435.0	5.7429156457786003e+17
19436.0	5.72184988186487e+17
19437.0	5.701916071821311e+17
19438.0	5.646834306733407e+17
19439.0	5.6463876811653165e+17
19440.0	5.607851390489944e+17
19441.0	5.549685199252132e+17
19442.0	5.488558729068545e+17
19443.0	5.4418844386590714e+17
19444.0	5.389540596383739e+17
19445.0	5.328170525917188e+17
19446.0	5.244430719472977e+17
19447.0	5.1227799728073376e+17
19448.0	4.981811111264264e+17
19449.0	4.7743550815382195e+17
19450.0	4.380082669180252e+17
19451.0	4.234532386854191e+17
19452.0	4.599310581410485e+17
19453.0	4.8927148102123603e+17
19454.0	5.0511999017506035e+17
19455.0	5.1830505840749114e+17
19456.0	5.2823646409850944e+17
19457.0	5.350134924356265e+17
19458.0	5.361823105329899e+17
19459.0	5.4498976194013997e+17
19460.0	5.4991717799034944e+17
19461.0	5.5637318401611104e+17
19462.0	5.607737470397101e+17
19463.0	5.6398016088637466e+17
19464.0	5.6643832397168614e+17
19465.0	5.684876260933631e+17
19466.0	5.703441214428499e+17
19467.0	5.7204992320907936e+17
19468.0	5.7369619060490246e+17
19469.0	5.751923342835711e+17
19470.0	5.7660170319517e+17
19471.0	5.779432592288426e+17
19472.0	5.792376200451411e+17
19473.0	5.804644559923881e+17
19474.0	5.821287391821834e+17
19475.0	5.845531966308361e+17
19476.0	5.86633947364283e+17
19477.0	5.880591952816804e+17
19478.0	5.891898652753916e+17
19479.0	5.900896122699776e+17
19480.0	5.908326919438336e+17
19481.0	5.91563096990242e+17
19482.0	5.920484153622524e+17
19483.0	5.926036091611817e+17
19484.0	5.929777166112084e+17
19485.0	5.934802219827199e+17
19486.0	5.938141402409642e+17
19487.0	5.941396155050665e+17
19488.0	5.9453636331875e+17
19489.0	5.948422591523497e+17
19490.0	5.950337154285564e+17
19491.0	5.954092494312788e+17
19492.0	5.956800975907497e+17
19493.0	5.959803202087593e+17
19494.0	5.962310629021012e+17
19495.0	5.964572584312831e+17
19496.0	5.966497490228563e+17
19497.0	5.968924067059027e+17
19498.0	5.968739515585879e+17
19499.0	5.939306812145646e+17
19500.0	5.975154476362409e+17
19501.0	5.977142384219476e+17
19502.0	5.979036013909331e+17
19503.0	5.980917046706175e+17
19504.0	5.982853494647466e+17
19505.0	5.984580642624851e+17
19506.0	5.986133714403327e+17
19507.0	5.987591200090794e+17
19508.0	5.989004509271379e+17
19509.0	5.990322638509395e+17
19510.0	5.991401468024148e+17
19511.0	5.950248849506281e+17
19512.0	5.988549769123148e+17
19513.0	5.985337411807899e+17
19514.0	5.98886229160754e+17
19515.0	5.996157687125332e+17
19516.0	5.997621672585898e+17
19517.0	5.998376083172009e+17
19518.0	5.999159029006335e+17
19519.0	5.999844545353043e+17
19520.0	6.00047482970658e+17
19521.0	6.001104091348991e+17
19522.0	6.001619251145386e+17
19523.0	6.002127653918035e+17
19524.0	6.002555916823209e+17
19525.0	6.002947385196543e+17
19526.0	6.003300799348735e+17
19527.0	6.003597253454505e+17
19528.0	6.003847872206163e+17
19529.0	6.004065840398336e+17
19530.0	6.004243232893609e+17
19531.0	6.00437719966242e+17
19532.0	6.004472749402793e+17
19533.0	6.00453077270528e+17
19534.0	6.00455083336226e+17
19535.0	6.004533495507625e+17
19536.0	6.004475699396605e+17
19537.0	6.004440112125268e+17
19538.0	6.004248876329642e+17
19539.0	6.003792766042112e+17
19540.0	6.004033239471444e+17
19541.0	6.003866736088403e+17
19542.0	6.003650449812137e+17
19543.0	6.003395827597312e+17
19544.0	6.003146396532735e+17
19545.0	6.002501972481363e+17
19546.0	6.001860035652266e+17
19547.0	6.003055146653012e+17
19548.0	6.004691918564009e+17
19549.0	6.004206838218751e+17
19550.0	6.003851495385769e+17
19551.0	6.003403982722388e+17
19552.0	6.002935282532351e+17
19553.0	6.004590063386621e+17
19554.0	6.006734971032916e+17
19555.0	6.006190604200618e+17
19556.0	6.005624860398931e+17
19557.0	6.005030498162006e+17
19558.0	6.004429336958292e+17
19559.0	6.003813381745322e+17
19560.0	6.003157646355113e+17
19561.0	6.006097255770796e+17
19562.0	6.005895468504404e+17
19563.0	6.005206484866388e+17
19564.0	6.004500503811411e+17
19565.0	6.003784219448659e+17
19566.0	6.003033383807657e+17
19567.0	6.002321408393215e+17
19568.0	6.00155663298287e+17
19569.0	6.000815974820521e+17
19570.0	6.000060221358077e+17
19571.0	6.000956767120045e+17
19572.0	6.001779567930025e+17
19573.0	6.000979592522409e+17
19574.0	6.000108947286697e+17
19575.0	5.999361125253119e+17
19576.0	5.99853368484386e+17
19577.0	5.997684341080063e+17
19578.0	5.996825444089856e+17
19579.0	5.995987843678207e+17
19580.0	5.995136129433599e+17
19581.0	5.994286659840681e+17
19582.0	5.993435961316692e+17
19583.0	5.992566159835135e+17
19584.0	5.991677650359635e+17
19585.0	5.990721723738793e+17
19586.0	5.989804548292607e+17
19587.0	5.990831844491264e+17
19588.0	5.990399101370368e+17
19589.0	5.989837244290387e+17
19590.0	5.988861739357524e+17
19591.0	5.98802517074466e+17
19592.0	5.987103464052051e+17
19593.0	5.986162116831914e+17
19594.0	5.985049614745599e+17
19595.0	5.984284772226388e+17
19596.0	5.98219860930287e+17
19597.0	5.982400663606611e+17
19598.0	5.981204861244756e+17
19599.0	5.980541108442452e+17
19600.0	5.979597840930131e+17
19601.0	5.978589358282068e+17
19602.0	5.977646423517865e+17
19603.0	5.976099752247295e+17
19604.0	5.975689941483519e+17
19605.0	5.974561710757204e+17
19606.0	5.973830579956393e+17
19607.0	5.972863335705258e+17
19608.0	5.971875384874324e+17
19609.0	5.970871669751807e+17
19610.0	5.969928192524287e+17
19611.0	5.968939772630356e+17
19612.0	5.967974821964457e+17
19613.0	5.966981813501952e+17
19614.0	5.965970653489833e+17
19615.0	5.965009143551316e+17
19616.0	5.965390855973546e+17
19617.0	5.965043966760276e+17
19618.0	5.963607588208637e+17
19619.0	5.962495459415379e+17
19620.0	5.961517149192191e+17
19621.0	5.961034668616361e+17
19622.0	5.960045732823039e+17
19623.0	5.959037667508223e+17
19624.0	5.958019617652736e+17
19625.0	5.957014668705792e+17
19626.0	5.956000630003027e+17
19627.0	5.954978257218218e+17
19628.0	5.953498176116054e+17
19629.0	5.952917156659199e+17
19630.0	5.950747336944298e+17
19631.0	5.930006070252884e+17
19632.0	5.949932650714452e+17
19633.0	5.948918115685716e+17
19634.0	5.947957503328255e+17
19635.0	5.946903450266282e+17
19636.0	5.945895939298644e+17
19637.0	5.944574311312042e+17
19638.0	5.943852229722111e+17
19639.0	5.942821030024531e+17
19640.0	5.941726574630228e+17
19641.0	5.940105731986774e+17
19642.0	5.939733336511827e+17
19643.0	5.938692970861908e+17
19644.0	5.937624062274218e+17
19645.0	5.936419834953727e+17
19646.0	5.935585400542548e+17
19647.0	5.934569338787156e+17
19648.0	5.933533398127956e+17
19649.0	5.932493537192617e+17
19650.0	5.931457260290047e+17
19651.0	5.930412974363988e+17
19652.0	5.929375942486698e+17
19653.0	5.928326296939178e+17
19654.0	5.927296071019177e+17
19655.0	5.926250366719316e+17
19656.0	5.925205804668244e+17
19657.0	5.924168196773206e+17
19658.0	5.923124307907924e+17
19659.0	5.92207851622673e+17
19660.0	5.921034792337407e+17
19661.0	5.919989156544512e+17
19662.0	5.918942688182271e+17
19663.0	5.917852192210944e+17
19664.0	5.916770911125503e+17
