# Flux units: erg / (cm m2 s)
# Wavelength units: Angstrom
wave	flux
19000.0	5.992039390904319e+17
19001.0	5.990809328069289e+17
19002.0	5.989802138664959e+17
19003.0	5.988672234411348e+17
19004.0	5.987547807918761e+17
19005.0	5.986434304092841e+17
19006.0	5.985325372058282e+17
19007.0	5.98412585144593e+17
19008.0	5.983011350074708e+17
19009.0	5.981870464434176e+17
19010.0	5.980290535129085e+17
19011.0	5.97966994870545e+17
19012.0	5.977933369136467e+17
19013.0	5.977480990381395e+17
19014.0	5.976304242742612e+17
19015.0	5.975202403276115e+17
19016.0	5.974066131369983e+17
19017.0	5.973009482033834e+17
19018.0	5.971855470318931e+17
19019.0	5.97076876599842e+17
19020.0	5.969634205368319e+17
19021.0	5.968537991162537e+17
19022.0	5.967416502080852e+17
19023.0	5.966262218435241e+17
19024.0	5.965160548139008e+17
19025.0	5.964015461203967e+17
19026.0	5.96286266024482e+17
19027.0	5.961286188444329e+17
19028.0	5.960716843133609e+17
19029.0	5.959576406283604e+17
19030.0	5.958495331418112e+17
19031.0	5.957381232700073e+17
19032.0	5.956258198017363e+17
19033.0	5.955044033691645e+17
19034.0	5.954007740011859e+17
19035.0	5.95280383844898e+17
19036.0	5.9135588138571e+17
19037.0	5.950619164606463e+17
19038.0	5.949534936323411e+17
19039.0	5.948452912147113e+17
19040.0	5.947340073118378e+17
19041.0	5.946216523934377e+17
19042.0	5.944868826950313e+17
19043.0	5.94399908139281e+17
19044.0	5.942869077874006e+17
19045.0	5.941749608349696e+17
19046.0	5.940596951394986e+17
19047.0	5.939525073240063e+17
19048.0	5.938149267428692e+17
19049.0	5.936954111688701e+17
19050.0	5.93613252862498e+17
19051.0	5.929371825777313e+17
19052.0	5.933069536067583e+17
19053.0	5.932836393582591e+17
19054.0	5.931747430629375e+17
19055.0	5.930313023400618e+17
19056.0	5.929476005298176e+17
19057.0	5.928401377776979e+17
19058.0	5.927120883329706e+17
19059.0	5.92612731003426e+17
19060.0	5.925043393527807e+17
19061.0	5.923965238596947e+17
19062.0	5.92284796199458e+17
19063.0	5.921739036251475e+17
19064.0	5.9204844926621e+17
19065.0	5.919327444271101e+17
19066.0	5.918292720659114e+17
19067.0	5.917282846201172e+17
19068.0	5.916186617315327e+17
19069.0	5.915078132673193e+17
19070.0	5.913933853840724e+17
19071.0	5.912833874548052e+17
19072.0	5.911688699532628e+17
19073.0	5.910633276331348e+17
19074.0	5.909529933206868e+17
19075.0	5.90842064675362e+17
19076.0	5.907287814875818e+17
19077.0	5.906185844686848e+17
19078.0	5.905053776172372e+17
19079.0	5.903983512125437e+17
19080.0	5.902859601532244e+17
19081.0	5.901720681622186e+17
19082.0	5.900610040408746e+17
19083.0	5.899442064457727e+17
19084.0	5.898199056602452e+17
19085.0	5.897326272970751e+17
19086.0	5.895712615170048e+17
19087.0	5.8939929526272e+17
19088.0	5.893796778038612e+17
19089.0	5.892179454416211e+17
19090.0	5.89175160185378e+17
19091.0	5.890644248974676e+17
19092.0	5.889187664363519e+17
19093.0	5.888480442493609e+17
19094.0	5.88737813815842e+17
19095.0	5.886273076068351e+17
19096.0	5.885147975690921e+17
19097.0	5.88406045418018e+17
19098.0	5.882895659608746e+17
19099.0	5.881780502527999e+17
19100.0	5.880681172653395e+17
19101.0	5.879620410802175e+17
19102.0	5.878408805001898e+17
19103.0	5.877432333981012e+17
19104.0	5.876331891916799e+17
19105.0	5.875090351368874e+17
19106.0	5.873930765423955e+17
19107.0	5.872962708176895e+17
19108.0	5.871853778938537e+17
19109.0	5.868020631076859e+17
19110.0	5.869620598669311e+17
19111.0	5.86855305183232e+17
19112.0	5.867458098713942e+17
19113.0	5.866401126416383e+17
19114.0	5.865274086173354e+17
19115.0	5.864062193063252e+17
19116.0	5.86307518804787e+17
19117.0	5.861972042754729e+17
19118.0	5.860636515543722e+17
19119.0	5.852867263638176e+17
19120.0	5.858363141958312e+17
19121.0	5.857365477119316e+17
19122.0	5.856493952477866e+17
19123.0	5.855393693564927e+17
19124.0	5.854113867410089e+17
19125.0	5.853174037828948e+17
19126.0	5.852082894536703e+17
19127.0	5.84896911385122e+17
19128.0	5.849391162195967e+17
19129.0	5.848705945741994e+17
19130.0	5.84767596728593e+17
19131.0	5.84657842348578e+17
19132.0	5.845494049800191e+17
19133.0	5.844237082602154e+17
19134.0	5.843070038485674e+17
19135.0	5.842186554485417e+17
19136.0	5.841105898351273e+17
19137.0	5.839822370024106e+17
19138.0	5.838881138846378e+17
19139.0	5.837811699679231e+17
19140.0	5.836716550127615e+17
19141.0	5.835619456516095e+17
19142.0	5.834484163280895e+17
19143.0	5.833358395310079e+17
19144.0	5.832286419288063e+17
19145.0	5.831229192536063e+17
19146.0	5.829448846103894e+17
19147.0	5.828926824426153e+17
19148.0	5.827878264504319e+17
19149.0	5.826773104547156e+17
19150.0	5.825742783556266e+17
19151.0	5.824650062506665e+17
19152.0	5.823519972305578e+17
19153.0	5.822348419312297e+17
19154.0	5.821213206467924e+17
19155.0	5.820262853378047e+17
19156.0	5.819172188236457e+17
19157.0	5.817984818522794e+17
19158.0	5.815086848060073e+17
19159.0	5.815849162812073e+17
19160.0	5.814746243312297e+17
19161.0	5.813645632077823e+17
19162.0	5.80830330862524e+17
19163.0	5.81138753065233e+17
19164.0	5.81041858281472e+17
19165.0	5.809129368409428e+17
19166.0	5.807989292968616e+17
19167.0	5.806737170890751e+17
19168.0	5.806032116077907e+17
19169.0	5.804871939435178e+17
19170.0	5.803866355051177e+17
19171.0	5.80250859802897e+17
19172.0	5.801657080217599e+17
19173.0	5.800580173791231e+17
19174.0	5.799442064080895e+17
19175.0	5.798413989838847e+17
19176.0	5.797319801481898e+17
19177.0	5.796061655684435e+17
19178.0	5.795029478714025e+17
19179.0	5.793668530525526e+17
19180.0	5.792920491786239e+17
19181.0	5.791719821934591e+17
19182.0	5.790749485083306e+17
19183.0	5.789687573992788e+17
19184.0	5.788586263707648e+17
19185.0	5.787496344453119e+17
19186.0	5.786416850141183e+17
19187.0	5.785244065420628e+17
19188.0	5.784224429419177e+17
19189.0	5.783127595155455e+17
19190.0	5.78201968583202e+17
19191.0	5.78088489521425e+17
19192.0	5.779876453810173e+17
19193.0	5.778755097548116e+17
19194.0	5.777653923577855e+17
19195.0	5.776598041799338e+17
19196.0	5.77547693929267e+17
19197.0	5.774365294941524e+17
19198.0	5.773139406138025e+17
19199.0	5.747010971194702e+17
19200.0	5.7537735642753786e+17
19201.0	5.769899678892031e+17
19202.0	5.768939310503252e+17
19203.0	5.767808959556265e+17
19204.0	5.766763717328895e+17
19205.0	5.765711979522729e+17
19206.0	5.764625114420563e+17
19207.0	5.763432561246207e+17
19208.0	5.762207999240873e+17
19209.0	5.7613698207143245e+17
19210.0	5.7602816784465914e+17
19211.0	5.75920976114483e+17
19212.0	5.758121382597973e+17
19213.0	5.7567255993166496e+17
19214.0	5.75552015634705e+17
19215.0	5.754757947850751e+17
19216.0	5.753773550294356e+17
19217.0	5.752680760737792e+17
19218.0	5.7506632040447974e+17
19219.0	5.750347920310271e+17
19220.0	5.7493886885778765e+17
19221.0	5.747969147360597e+17
19222.0	5.7472468399773005e+17
19223.0	5.746145916267179e+17
19224.0	5.7450329625941325e+17
19225.0	5.7438279607255034e+17
19226.0	5.7428862765629434e+17
19227.0	5.7417985110835194e+17
19228.0	5.740740541939711e+17
19229.0	5.739653360167594e+17
19230.0	5.738545531234986e+17
19231.0	5.737453378513577e+17
19232.0	5.73638111797794e+17
19233.0	5.734024030278996e+17
19234.0	5.732822269908309e+17
19235.0	5.731730710680918e+17
19236.0	5.7306767960309754e+17
19237.0	5.7295728705972896e+17
19238.0	5.7283633416765434e+17
19239.0	5.7274202880737274e+17
19240.0	5.7263108757913594e+17
19241.0	5.725217608084137e+17
19242.0	5.724143479685119e+17
19243.0	5.7228990226978125e+17
19244.0	5.7219904092241914e+17
19245.0	5.720897550461609e+17
19246.0	5.7197967497844045e+17
19247.0	5.7187248842123936e+17
19248.0	5.717636536423764e+17
19249.0	5.716538589970431e+17
19250.0	5.715424995966975e+17
19251.0	5.714226524629673e+17
19252.0	5.7129926995039565e+17
19253.0	5.7121801146204154e+17
19254.0	5.7111181552954016e+17
19255.0	5.7098331177178445e+17
19256.0	5.70889527553775e+17
19257.0	5.707857593543338e+17
19258.0	5.706770049662975e+17
19259.0	5.7056037731041274e+17
19260.0	5.7038221278358163e+17
19261.0	5.703488295490899e+17
19262.0	5.702349270723242e+17
19263.0	5.701255113124522e+17
19264.0	5.699610016918185e+17
19265.0	5.698917229046441e+17
19266.0	5.697777993864533e+17
19267.0	5.696969068511232e+17
19268.0	5.6958708655063034e+17
19269.0	5.694783653675007e+17
19270.0	5.6936941706280954e+17
19271.0	5.69221728698368e+17
19272.0	5.691473206968319e+17
19273.0	5.689518367703038e+17
19274.0	5.6886083722062483e+17
19275.0	5.688236371694932e+17
19276.0	5.687121478156287e+17
19277.0	5.6860340055790925e+17
19278.0	5.6849392041547085e+17
19279.0	5.683808203789653e+17
19280.0	5.682658296201215e+17
19281.0	5.681649974334805e+17
19282.0	5.680567969032874e+17
19283.0	5.679100022751231e+17
19284.0	5.678186916478974e+17
19285.0	5.6770767869706234e+17
19286.0	5.67614030094882e+17
19287.0	5.6750703626594976e+17
19288.0	5.6635504208117645e+17
19289.0	5.6477653618305274e+17
19290.0	5.671768616337407e+17
19291.0	5.6704034305037645e+17
19292.0	5.66958625844975e+17
19293.0	5.6684767664756045e+17
19294.0	5.667370793522517e+17
19295.0	5.6662791413213856e+17
19296.0	5.665103989615274e+17
19297.0	5.664014991010473e+17
19298.0	5.6629322069661e+17
19299.0	5.6617808740133536e+17
19300.0	5.660737380810751e+17
19301.0	5.659629644152831e+17
19302.0	5.6585092560759456e+17
19303.0	5.6573183072228685e+17
19304.0	5.656261018954411e+17
19305.0	5.655163474455211e+17
19306.0	5.653541572749993e+17
19307.0	5.6511145939653965e+17
19308.0	5.6500230193588896e+17
19309.0	5.648015985475582e+17
19310.0	5.646597591400446e+17
19311.0	5.6465738075996154e+17
19312.0	5.645579271012351e+17
19313.0	5.6444565529995936e+17
19314.0	5.59666714465623e+17
19315.0	5.598982296305721e+17
19316.0	5.6408974050372256e+17
19317.0	5.639942056531284e+17
19318.0	5.6388106500177914e+17
19319.0	5.63769786901026e+17
19320.0	5.6365314176887456e+17
19321.0	5.635365272551424e+17
19322.0	5.634144417611775e+17
19323.0	5.632733828437333e+17
19324.0	5.6319527581559456e+17
19325.0	5.629956059736747e+17
19326.0	5.629673571265193e+17
19327.0	5.628522878642857e+17
19328.0	5.6272725866796365e+17
19329.0	5.626235530335573e+17
19330.0	5.625031286936917e+17
19331.0	5.6238545344047776e+17
19332.0	5.622278808491347e+17
19333.0	5.619031149117439e+17
19334.0	5.6178742111764474e+17
19335.0	5.6164679463294285e+17
19336.0	5.6154984867867296e+17
19337.0	5.6143288701637965e+17
19338.0	5.6129115819868154e+17
19339.0	5.6119403580402336e+17
19340.0	5.610602063287636e+17
19341.0	5.6094252170827085e+17
19342.0	5.607847336695123e+17
19343.0	5.607130443459241e+17
19344.0	5.6058310620610554e+17
19345.0	5.602359794554192e+17
19346.0	5.6025059296979616e+17
19347.0	5.600486591823869e+17
19348.0	5.5982788248425805e+17
19349.0	5.5969797293561165e+17
19350.0	5.5956937026218643e+17
19351.0	5.594474010902526e+17
19352.0	5.593047928668158e+17
19353.0	5.5919792570586445e+17
19354.0	5.5907024473074336e+17
19355.0	5.5893075790834336e+17
19356.0	5.588000977889962e+17
19357.0	5.583500774910634e+17
19358.0	5.58216089890543e+17
19359.0	5.580754394284031e+17
19360.0	5.579371891567273e+17
19361.0	5.5781106881221965e+17
19362.0	5.5768015577634125e+17
19363.0	5.574779261506897e+17
19364.0	5.57009103556881e+17
19365.0	5.568683451613183e+17
19366.0	5.567262202615124e+17
19367.0	5.5658291256797856e+17
19368.0	5.564383329517567e+17
19369.0	5.560793990255956e+17
19370.0	5.559005631305044e+17
19371.0	5.557554801278975e+17
19372.0	5.55609474797841e+17
19373.0	5.554531631540906e+17
19374.0	5.553001473944234e+17
19375.0	5.551434320489129e+17
19376.0	5.549848148661589e+17
19377.0	5.5482262567430816e+17
19378.0	5.5465999398338554e+17
19379.0	5.544950804512767e+17
19380.0	5.542895307543892e+17
19381.0	5.5409681709574816e+17
19382.0	5.5391651710894074e+17
19383.0	5.537367840522239e+17
19384.0	5.5357033666314234e+17
19385.0	5.533897574754986e+17
19386.0	5.5320666806681594e+17
19387.0	5.53019591762466e+17
19388.0	5.5283018733977594e+17
19389.0	5.5263673471467514e+17
19390.0	5.5243795511377914e+17
19391.0	5.488627287763576e+17
19392.0	5.519875067871227e+17
19393.0	5.5176834636404045e+17
19394.0	5.515162006061055e+17
19395.0	5.512906003185664e+17
19396.0	5.510717627170815e+17
19397.0	5.508538223471274e+17
19398.0	5.5061547277352954e+17
19399.0	5.503008210507091e+17
19400.0	5.500150096418133e+17
19401.0	5.4975186767708154e+17
19402.0	5.494987115113129e+17
19403.0	5.4923765020098554e+17
19404.0	5.488765602627581e+17
19405.0	5.484953282281471e+17
19406.0	5.482132900850345e+17
19407.0	5.478231427077462e+17
19408.0	5.472686696300544e+17
19409.0	5.4703939708955315e+17
19410.0	5.4638150191240544e+17
19411.0	5.459922678448128e+17
19412.0	5.452610972680191e+17
19413.0	5.446214409519106e+17
19414.0	5.4385804239175686e+17
19415.0	5.4290870033885843e+17
19416.0	5.4172150105374714e+17
19417.0	5.403350104626512e+17
19418.0	5.3939556941387085e+17
19419.0	5.387374756364287e+17
19420.0	5.380502499011242e+17
19421.0	5.373334221662889e+17
19422.0	5.3658003471073274e+17
19423.0	5.357955731248469e+17
19424.0	5.3497436838734496e+17
19425.0	5.341070570640725e+17
19426.0	5.33196891697971e+17
19427.0	5.322302461138262e+17
19428.0	5.3121857167032314e+17
19429.0	5.3017866935118496e+17
19430.0	5.290913915295063e+17
19431.0	5.275478695520947e+17
19432.0	5.270451234275326e+17
19433.0	5.2591398297272314e+17
19434.0	5.2472816920603296e+17
19435.0	5.2347576771761485e+17
19436.0	5.220041869317458e+17
19437.0	5.2084959150953805e+17
19438.0	5.1377229071209946e+17
19439.0	5.166925573259262e+17
19440.0	5.1294344374299117e+17
19441.0	5.070052436301137e+17
19442.0	5.0348119311428275e+17
19443.0	4.998668535638699e+17
19444.0	4.959081748671144e+17
19445.0	4.91495378386944e+17
19446.0	4.85319804854818e+17
19447.0	4.735392966945431e+17
19448.0	4.622110133583875e+17
19449.0	4.444896355505486e+17
19450.0	3.9935626525191245e+17
19451.0	3.797358738057904e+17
19452.0	4.261932026560511e+17
19453.0	4.550936277374298e+17
19454.0	4.674207371056465e+17
19455.0	4.795846382059513e+17
19456.0	4.880211422915244e+17
19457.0	4.928202518560764e+17
19458.0	4.86086530476731e+17
19459.0	5.0004647973574285e+17
19460.0	5.035694570689876e+17
19461.0	5.0814826521995936e+17
19462.0	5.132774660898814e+17
19463.0	5.159677358069079e+17
19464.0	5.177061358436352e+17
19465.0	5.1900876132625056e+17
19466.0	5.2010618572854605e+17
19467.0	5.211803240540843e+17
19468.0	5.2215047950172154e+17
19469.0	5.230887146181971e+17
19470.0	5.2402667857291936e+17
19471.0	5.248721579147264e+17
19472.0	5.257046500835326e+17
19473.0	5.265338323173374e+17
19474.0	5.2736366949171194e+17
19475.0	5.280721658707966e+17
19476.0	5.2888283822161914e+17
19477.0	5.2957347462512634e+17
19478.0	5.302149658793299e+17
19479.0	5.308068069900287e+17
19480.0	5.313746587789994e+17
19481.0	5.319012023358805e+17
19482.0	5.3240231953257805e+17
19483.0	5.3287207025595725e+17
19484.0	5.334573711884285e+17
19485.0	5.3445458003667616e+17
19486.0	5.354831515833686e+17
19487.0	5.362949738026329e+17
19488.0	5.3690133433548794e+17
19489.0	5.37552137084382e+17
19490.0	5.377377281856852e+17
19491.0	5.38285894148642e+17
19492.0	5.3857500018333005e+17
19493.0	5.3886389887959014e+17
19494.0	5.3898510832325984e+17
19495.0	5.393162116442794e+17
19496.0	5.393513578845524e+17
19497.0	5.394689422611795e+17
19498.0	5.393570717848921e+17
19499.0	5.34449173299197e+17
19500.0	5.3984024735689376e+17
19501.0	5.398891779675476e+17
19502.0	5.399900792902996e+17
19503.0	5.401046421602303e+17
19504.0	5.4013242194438816e+17
19505.0	5.401563812069375e+17
19506.0	5.401763058286592e+17
19507.0	5.401880716902399e+17
19508.0	5.4020078476547405e+17
19509.0	5.402427023600298e+17
19510.0	5.402730944266239e+17
19511.0	5.3193210275211475e+17
19512.0	5.3946391357030246e+17
19513.0	5.387768166700348e+17
19514.0	5.391683469792581e+17
19515.0	5.401579388316331e+17
19516.0	5.402272515227647e+17
19517.0	5.4020047361802234e+17
19518.0	5.4018063721649485e+17
19519.0	5.401498073344681e+17
19520.0	5.401124724364628e+17
19521.0	5.4009155264621216e+17
19522.0	5.400513342341119e+17
19523.0	5.400385964823894e+17
19524.0	5.4002693072486394e+17
19525.0	5.3998963735046816e+17
19526.0	5.3994624105403725e+17
19527.0	5.398990017265662e+17
19528.0	5.39849180385553e+17
19529.0	5.397981034796372e+17
19530.0	5.3974894015501645e+17
19531.0	5.396953113646421e+17
19532.0	5.3964011264628045e+17
19533.0	5.3958341278651725e+17
19534.0	5.396910157682004e+17
19535.0	5.396807121808042e+17
19536.0	5.396156362260479e+17
19537.0	5.395570436166998e+17
19538.0	5.394733019605674e+17
19539.0	5.3940995126285664e+17
19540.0	5.397246216503296e+17
19541.0	5.3965613188164256e+17
19542.0	5.395867456503807e+17
19543.0	5.3950800528233805e+17
19544.0	5.394443118400853e+17
19545.0	5.393189154324479e+17
19546.0	5.391963501800105e+17
19547.0	5.3941609256277325e+17
19548.0	5.3945479753018016e+17
19549.0	5.393676146573311e+17
19550.0	5.3930041715370656e+17
19551.0	5.392224823017471e+17
19552.0	5.39143537041954e+17
19553.0	5.390615101571071e+17
19554.0	5.3897962748641274e+17
19555.0	5.389008207085567e+17
19556.0	5.388218286822741e+17
19557.0	5.3874043220131834e+17
19558.0	5.3886444295072435e+17
19559.0	5.3882507451432954e+17
19560.0	5.38735318086451e+17
19561.0	5.3865432817336314e+17
19562.0	5.3856979512197114e+17
19563.0	5.384881879471445e+17
19564.0	5.384029382290089e+17
19565.0	5.3831730256500045e+17
19566.0	5.3822784085688314e+17
19567.0	5.381448845142698e+17
19568.0	5.3805550082020685e+17
19569.0	5.3796885153273165e+17
19570.0	5.3788404962645325e+17
19571.0	5.377960357221717e+17
19572.0	5.3770477717422074e+17
19573.0	5.376168832969386e+17
19574.0	5.375216477798399e+17
19575.0	5.374920346654034e+17
19576.0	5.375519095433898e+17
19577.0	5.37458819342882e+17
19578.0	5.373690671792126e+17
19579.0	5.372807614212778e+17
19580.0	5.3719077395715405e+17
19581.0	5.371015403492692e+17
19582.0	5.370130191439189e+17
19583.0	5.369223218637481e+17
19584.0	5.3682959537930234e+17
19585.0	5.367280306574677e+17
19586.0	5.366327330646698e+17
19587.0	5.365418232730964e+17
19588.0	5.3641291455528954e+17
19589.0	5.3637168804222285e+17
19590.0	5.362691765261652e+17
19591.0	5.3618947300611405e+17
19592.0	5.3610192578805754e+17
19593.0	5.360080762088106e+17
19594.0	5.358901364348244e+17
19595.0	5.3582617336872954e+17
19596.0	5.356416685921621e+17
19597.0	5.3566447253367456e+17
19598.0	5.355265211061589e+17
19599.0	5.3548160940769274e+17
19600.0	5.353895224847017e+17
19601.0	5.3528870358002336e+17
19602.0	5.351973844243796e+17
19603.0	5.350218430152702e+17
19604.0	5.3500657742643194e+17
19605.0	5.348891490080085e+17
19606.0	5.3482815515962016e+17
19607.0	5.3473538023096314e+17
19608.0	5.346395377980756e+17
19609.0	5.345416930044585e+17
19610.0	5.344492912290474e+17
19611.0	5.343524178362367e+17
19612.0	5.342657240192341e+17
19613.0	5.341834091954174e+17
19614.0	5.342253869782357e+17
19615.0	5.341346127325865e+17
19616.0	5.340058378829824e+17
19617.0	5.3393923345394336e+17
19618.0	5.3378536191645e+17
19619.0	5.3367371716362214e+17
19620.0	5.335825685064361e+17
19621.0	5.3355940196734285e+17
19622.0	5.334731115724799e+17
19623.0	5.333777728055977e+17
19624.0	5.332808609650004e+17
19625.0	5.331883467822421e+17
19626.0	5.330933076284756e+17
19627.0	5.329974463911252e+17
19628.0	5.3283936076649824e+17
19629.0	5.32773509075217e+17
19630.0	5.3255743167528966e+17
19631.0	5.2982413881507834e+17
19632.0	5.325146204143615e+17
19633.0	5.3241766614138874e+17
19634.0	5.323322699721385e+17
19635.0	5.3223204896549536e+17
19636.0	5.3213203410889376e+17
19637.0	5.32000275361519e+17
19638.0	5.319500582180179e+17
19639.0	5.318555255264596e+17
19640.0	5.3175037970786976e+17
19641.0	5.315488991150082e+17
19642.0	5.3156928734713165e+17
19643.0	5.314728736500394e+17
19644.0	5.313732497724757e+17
19645.0	5.31253090792243e+17
19646.0	5.3117930760219296e+17
19647.0	5.3109385026600954e+17
19648.0	5.3099883935389005e+17
19649.0	5.3090256176196256e+17
19650.0	5.308079259604309e+17
19651.0	5.3071177979002874e+17
19652.0	5.306160257171456e+17
19653.0	5.3051986228019194e+17
19654.0	5.3042504710225914e+17
19655.0	5.3032912302025376e+17
19656.0	5.302341183995904e+17
19657.0	5.3013937109947725e+17
19658.0	5.300434668705109e+17
19659.0	5.299480894461269e+17
