# Flux units: erg / (cm m2 s)
# Wavelength units: Angstrom
wave	flux
19000.0	7.590988941186387e+17
19001.0	7.589358899036157e+17
19002.0	7.588148154466301e+17
19003.0	7.586712301600765e+17
19004.0	7.585281947467775e+17
19005.0	7.583872239097172e+17
19006.0	7.582454058232489e+17
19007.0	7.580262535790591e+17
19008.0	7.5794704512669e+17
19009.0	7.578055017671338e+17
19010.0	7.575818003808252e+17
19011.0	7.57525288985122e+17
19012.0	7.572865564715688e+17
19013.0	7.572480203248982e+17
19014.0	7.570926223403689e+17
19015.0	7.569561255673855e+17
19016.0	7.568120076042239e+17
19017.0	7.566597761794045e+17
19018.0	7.565272458199036e+17
19019.0	7.56392235508258e+17
19020.0	7.562408560863913e+17
19021.0	7.561046118105087e+17
19022.0	7.55966571254033e+17
19023.0	7.558155912697172e+17
19024.0	7.556776064974845e+17
19025.0	7.55528668020736e+17
19026.0	7.553828162721108e+17
19027.0	7.551692630043304e+17
19028.0	7.55111927148271e+17
19029.0	7.549654175929683e+17
19030.0	7.548293199779155e+17
19031.0	7.546882272264191e+17
19032.0	7.545453616824319e+17
19033.0	7.543836129624063e+17
19034.0	7.542562498456233e+17
19035.0	7.541081879784105e+17
19036.0	7.48173271725942e+17
19037.0	7.538294078308351e+17
19038.0	7.536851359367168e+17
19039.0	7.535470032453632e+17
19040.0	7.534058007429119e+17
19041.0	7.532616483864575e+17
19042.0	7.531014037438461e+17
19043.0	7.529790198251519e+17
19044.0	7.528333380856489e+17
19045.0	7.526902966605139e+17
19046.0	7.525375217937064e+17
19047.0	7.52406523893077e+17
19048.0	7.522222948220927e+17
19049.0	7.521088619675647e+17
19050.0	7.519703439594836e+17
19051.0	7.50922593118889e+17
19052.0	7.515685585769812e+17
19053.0	7.515347095650301e+17
19054.0	7.514109153815208e+17
19055.0	7.51215119958016e+17
19056.0	7.511207950942207e+17
19057.0	7.509810094276607e+17
19058.0	7.508203466129408e+17
19059.0	7.506986999130794e+17
19060.0	7.50551174357538e+17
19061.0	7.504150774415357e+17
19062.0	7.502717459103743e+17
19063.0	7.501297909497855e+17
19064.0	7.49959090466543e+17
19065.0	7.49805644091665e+17
19066.0	7.496892409708543e+17
19067.0	7.495574616713898e+17
19068.0	7.494181036840276e+17
19069.0	7.492760789581821e+17
19070.0	7.491270536593407e+17
19071.0	7.489861162369021e+17
19072.0	7.48848155931443e+17
19073.0	7.487047725307222e+17
19074.0	7.485645466020521e+17
19075.0	7.484222512037887e+17
19076.0	7.482753546540372e+17
19077.0	7.481354727981055e+17
19078.0	7.479841128098474e+17
19079.0	7.478522792640511e+17
19080.0	7.477071775967914e+17
19081.0	7.475588475737427e+17
19082.0	7.474148136364713e+17
19083.0	7.472576785110355e+17
19084.0	7.470879600541693e+17
19085.0	7.469962464242348e+17
19086.0	7.467656921044308e+17
19087.0	7.465250496446465e+17
19088.0	7.465458584256511e+17
19089.0	7.462890543338838e+17
19090.0	7.462784231713449e+17
19091.0	7.461388679118845e+17
19092.0	7.45946051982131e+17
19093.0	7.458607947841535e+17
19094.0	7.457187530014719e+17
19095.0	7.4557608193338e+17
19096.0	7.454280257983827e+17
19097.0	7.452921299293522e+17
19098.0	7.451506357829628e+17
19099.0	7.450081614277288e+17
19100.0	7.448572517679101e+17
19101.0	7.447220750822058e+17
19102.0	7.44564882494805e+17
19103.0	7.444402389647357e+17
19104.0	7.442998069559296e+17
19105.0	7.441565702160383e+17
19106.0	7.439795605209087e+17
19107.0	7.43868736942899e+17
19108.0	7.437302611574781e+17
19109.0	7.429567235664544e+17
19110.0	7.434340391365289e+17
19111.0	7.433034079578794e+17
19112.0	7.431638972978515e+17
19113.0	7.430220042731519e+17
19114.0	7.428792933591722e+17
19115.0	7.427164989991596e+17
19116.0	7.425915966805331e+17
19117.0	7.424488287240191e+17
19118.0	7.422634253877247e+17
19119.0	7.416537607918924e+17
19120.0	7.419753331862185e+17
19121.0	7.418519202649428e+17
19122.0	7.417456486252543e+17
19123.0	7.416021781228202e+17
19124.0	7.414275740008447e+17
19125.0	7.413127578648572e+17
19126.0	7.411696037527551e+17
19127.0	7.406874457189032e+17
19128.0	7.404299203466574e+17
19129.0	7.407339359436797e+17
19130.0	7.406074093109247e+17
19131.0	7.404529779736575e+17
19132.0	7.403270406406141e+17
19133.0	7.400372688999767e+17
19134.0	7.398291211113818e+17
19135.0	7.398997032785236e+17
19136.0	7.397613401800703e+17
19137.0	7.395850516256083e+17
19138.0	7.394393731017386e+17
19139.0	7.393346864895316e+17
19140.0	7.391948558041087e+17
19141.0	7.390534749039272e+17
19142.0	7.389044150719828e+17
19143.0	7.387576398774272e+17
19144.0	7.386192902007464e+17
19145.0	7.384828985649834e+17
19146.0	7.382076533768192e+17
19147.0	7.381847509390675e+17
19148.0	7.380576625491965e+17
19149.0	7.3791646480029e+17
19150.0	7.377759108770474e+17
19151.0	7.376361653359956e+17
19152.0	7.374868738386602e+17
19153.0	7.373501367320575e+17
19154.0	7.371861302181888e+17
19155.0	7.370690596438015e+17
19156.0	7.369279154421757e+17
19157.0	7.367733394014205e+17
19158.0	7.362111072108538e+17
19159.0	7.364958132109313e+17
19160.0	7.363490364784637e+17
19161.0	7.36174166437615e+17
19162.0	7.351058161117876e+17
19163.0	7.359180804106922e+17
19164.0	7.357963474479785e+17
19165.0	7.356377293564585e+17
19166.0	7.354722970588499e+17
19167.0	7.352797031475881e+17
19168.0	7.352070789136383e+17
19169.0	7.350625525650772e+17
19170.0	7.349471434943145e+17
19171.0	7.347534653554687e+17
19172.0	7.346592348635135e+17
19173.0	7.3452140639901e+17
19174.0	7.343707655940778e+17
19175.0	7.34240784392738e+17
19176.0	7.340987858113876e+17
19177.0	7.339264368268627e+17
19178.0	7.337956210988372e+17
19179.0	7.3360001204224e+17
19180.0	7.334662668724905e+17
19181.0	7.333688115199999e+17
19182.0	7.332369094672383e+17
19183.0	7.331011318775808e+17
19184.0	7.32940485001216e+17
19185.0	7.328228289019903e+17
19186.0	7.326846538481661e+17
19187.0	7.325238907895808e+17
19188.0	7.323955524971177e+17
19189.0	7.322387835344211e+17
19190.0	7.320928870465535e+17
19191.0	7.319583494329684e+17
19192.0	7.318286281386666e+17
19193.0	7.316446872163667e+17
19194.0	7.315249623465983e+17
19195.0	7.314031059315369e+17
19196.0	7.31260662194722e+17
19197.0	7.311156888731645e+17
19198.0	7.30952581058833e+17
19199.0	7.253871906783218e+17
19200.0	7.269487380267028e+17
19201.0	7.305316408492032e+17
19202.0	7.304104318948692e+17
19203.0	7.302608905568255e+17
19204.0	7.301263669242536e+17
19205.0	7.299904288325632e+17
19206.0	7.298474072604671e+17
19207.0	7.29689487520563e+17
19208.0	7.295275759217321e+17
19209.0	7.294195221222739e+17
19210.0	7.292820779958271e+17
19211.0	7.291427839016957e+17
19212.0	7.290007403014825e+17
19213.0	7.287921825895763e+17
19214.0	7.286183829351081e+17
19215.0	7.285524128246441e+17
19216.0	7.284296363190953e+17
19217.0	7.282900533772287e+17
19218.0	7.279793060620968e+17
19219.0	7.279724213917011e+17
19220.0	7.278563350806525e+17
19221.0	7.276498083905536e+17
19222.0	7.275810079637504e+17
19223.0	7.274337497251839e+17
19224.0	7.272806941196287e+17
19225.0	7.271214099726333e+17
19226.0	7.270061221172564e+17
19227.0	7.268634050516308e+17
19228.0	7.2672785479325e+17
19229.0	7.265851939312982e+17
19230.0	7.264216204094122e+17
19231.0	7.262836447248381e+17
19232.0	7.261495683448832e+17
19233.0	7.259980270228819e+17
19234.0	7.258659397216936e+17
19235.0	7.257210869164713e+17
19236.0	7.255861481876136e+17
19237.0	7.25439190680644e+17
19238.0	7.252725630063955e+17
19239.0	7.251562483853994e+17
19240.0	7.249723714961407e+17
19241.0	7.248532499070973e+17
19242.0	7.24722854727953e+17
19243.0	7.245452375577939e+17
19244.0	7.244413306667007e+17
19245.0	7.242968898819412e+17
19246.0	7.241508066077353e+17
19247.0	7.240087992183466e+17
19248.0	7.238663613535572e+17
19249.0	7.237212705914879e+17
19250.0	7.2357559430458e+17
19251.0	7.234095016837117e+17
19252.0	7.232265706100051e+17
19253.0	7.231432848747177e+17
19254.0	7.229969505015123e+17
19255.0	7.228180108673023e+17
19256.0	7.226952310063104e+17
19257.0	7.225689188422995e+17
19258.0	7.224256457517738e+17
19259.0	7.222652538890921e+17
19260.0	7.2204497743162e+17
19261.0	7.219884944173736e+17
19262.0	7.218337835996499e+17
19263.0	7.216903581160787e+17
19264.0	7.214501192881491e+17
19265.0	7.213731627575977e+17
19266.0	7.212369168039936e+17
19267.0	7.211198220424532e+17
19268.0	7.209395754631165e+17
19269.0	7.20784896102673e+17
19270.0	7.206385030092116e+17
19271.0	7.20425422020062e+17
19272.0	7.203384871004841e+17
19273.0	7.190853834156701e+17
19274.0	7.194533111179937e+17
19275.0	7.199064385563305e+17
19276.0	7.197554683587241e+17
19277.0	7.196081122530644e+17
19278.0	7.19461292179456e+17
19279.0	7.192950088575657e+17
19280.0	7.191492422533117e+17
19281.0	7.190172223406079e+17
19282.0	7.188709900287999e+17
19283.0	7.186327482488148e+17
19284.0	7.184037238713e+17
19285.0	7.183797158150143e+17
19286.0	7.182701685637117e+17
19287.0	7.181283321621161e+17
19288.0	7.164286435939652e+17
19289.0	7.140465034570345e+17
19290.0	7.176790791421951e+17
19291.0	7.174723076445527e+17
19292.0	7.173786273054719e+17
19293.0	7.172259905710761e+17
19294.0	7.170739645273427e+17
19295.0	7.169250298254676e+17
19296.0	7.167718054690815e+17
19297.0	7.166132975479465e+17
19298.0	7.164618575882922e+17
19299.0	7.163159798349824e+17
19300.0	7.161622050461012e+17
19301.0	7.160070591392426e+17
19302.0	7.158514514395135e+17
19303.0	7.156802459620692e+17
19304.0	7.155340262331731e+17
19305.0	7.153859835199487e+17
19306.0	7.152280632208041e+17
19307.0	7.150598847725565e+17
19308.0	7.149122630276436e+17
19309.0	7.145744287574696e+17
19310.0	7.143383768236027e+17
19311.0	7.14425980035618e+17
19312.0	7.142640963988138e+17
19313.0	7.140672161884841e+17
19314.0	7.11374486931593e+17
19315.0	7.113335336075297e+17
19316.0	7.135612444344319e+17
19317.0	7.134145868201983e+17
19318.0	7.132523477860352e+17
19319.0	7.130936246971049e+17
19320.0	7.129284408421033e+17
19321.0	7.127679218920106e+17
19322.0	7.125672854028288e+17
19323.0	7.123450615300096e+17
19324.0	7.122655920521215e+17
19325.0	7.119412266707625e+17
19326.0	7.119353536664916e+17
19327.0	7.117682163843071e+17
19328.0	7.116034595094527e+17
19329.0	7.114341751630506e+17
19330.0	7.1125548676765e+17
19331.0	7.110831457523028e+17
19332.0	7.109172910882815e+17
19333.0	7.106697720670889e+17
19334.0	7.10495655882479e+17
19335.0	7.103243567322451e+17
19336.0	7.101447134336339e+17
19337.0	7.099686776558932e+17
19338.0	7.09747496067618e+17
19339.0	7.096094556509523e+17
19340.0	7.094185212859731e+17
19341.0	7.092445352645972e+17
19342.0	7.089751388935506e+17
19343.0	7.088773305204735e+17
19344.0	7.086885724400297e+17
19345.0	7.080811913631053e+17
19346.0	7.080703156726441e+17
19347.0	7.080153944773972e+17
19348.0	7.078377680797693e+17
19349.0	7.076337525194751e+17
19350.0	7.074389512858281e+17
19351.0	7.072405995738451e+17
19352.0	7.070329922912255e+17
19353.0	7.068474038463145e+17
19354.0	7.065632815535444e+17
19355.0	7.063030068150271e+17
19356.0	7.06113854050577e+17
19357.0	7.059026715432275e+17
19358.0	7.056769429099859e+17
19359.0	7.054160612556799e+17
19360.0	7.052065707305642e+17
19361.0	7.048465889973587e+17
19362.0	7.046329342274217e+17
19363.0	7.044057834455039e+17
19364.0	7.041753068601343e+17
19365.0	7.039262296550054e+17
19366.0	7.035428850193748e+17
19367.0	7.033021177091412e+17
19368.0	7.030602732317354e+17
19369.0	7.027821721419775e+17
19370.0	7.023487446504787e+17
19371.0	7.022006532833279e+17
19372.0	7.019525346863785e+17
19373.0	7.016828417780394e+17
19374.0	7.014195737744723e+17
19375.0	7.011468776046591e+17
19376.0	7.008278306007721e+17
19377.0	7.005208186628778e+17
19378.0	7.002329539324585e+17
19379.0	6.999381407083178e+17
19380.0	6.996385614965418e+17
19381.0	6.993306924526249e+17
19382.0	6.990021648536916e+17
19383.0	6.986757453818538e+17
19384.0	6.983704014487552e+17
19385.0	6.979461239013375e+17
19386.0	6.97603885961489e+17
19387.0	6.972511140271443e+17
19388.0	6.968922964230143e+17
19389.0	6.965229496478378e+17
19390.0	6.960992262378834e+17
19391.0	6.908737221208676e+17
19392.0	6.951809831316133e+17
19393.0	6.948206655744681e+17
19394.0	6.943609204331862e+17
19395.0	6.937913830932479e+17
19396.0	6.933388416690857e+17
19397.0	6.928898339460435e+17
19398.0	6.922138759987199e+17
19399.0	6.91592798422084e+17
19400.0	6.911008469680124e+17
19401.0	6.904416547023529e+17
19402.0	6.898124649223508e+17
19403.0	6.890206011588608e+17
19404.0	6.882701721556306e+17
19405.0	6.874794572819112e+17
19406.0	6.864884021067779e+17
19407.0	6.855561335275519e+17
19408.0	6.844636498755587e+17
19409.0	6.836706516926463e+17
19410.0	6.829212922369366e+17
19411.0	6.821309334596265e+17
19412.0	6.81305266332194e+17
19413.0	6.804356937198249e+17
19414.0	6.795074146926591e+17
19415.0	6.785793128049321e+17
19416.0	6.775575259643903e+17
19417.0	6.765167986955603e+17
19418.0	6.75505054416896e+17
19419.0	6.743666119584426e+17
19420.0	6.732323159889235e+17
19421.0	6.719483466306902e+17
19422.0	6.706514193197738e+17
19423.0	6.69216728416256e+17
19424.0	6.67731609605461e+17
19425.0	6.661282919525033e+17
19426.0	6.643525863079933e+17
19427.0	6.624062268768259e+17
19428.0	6.602608738653526e+17
19429.0	6.578334335675048e+17
19430.0	6.548541581994665e+17
19431.0	6.511092491965795e+17
19432.0	6.49378423583539e+17
19433.0	6.46853829992994e+17
19434.0	6.441356154459476e+17
19435.0	6.41119530866005e+17
19436.0	6.376914351904081e+17
19437.0	6.345168638705663e+17
19438.0	6.26449627287826e+17
19439.0	6.26139562665575e+17
19440.0	6.209466985523882e+17
19441.0	6.149272627402062e+17
19442.0	6.094022068841133e+17
19443.0	6.032987344164179e+17
19444.0	5.96263944218214e+17
19445.0	5.87973165073477e+17
19446.0	5.786238360136364e+17
19447.0	5.683570004372133e+17
19448.0	5.56274629895783e+17
19449.0	5.418375317203625e+17
19450.0	5.185372559856935e+17
19451.0	5.096595361453402e+17
19452.0	5.3130347507875866e+17
19453.0	5.493922550426288e+17
19454.0	5.621167757634213e+17
19455.0	5.730581896407722e+17
19456.0	5.824711966239407e+17
19457.0	5.91172567651669e+17
19458.0	5.96395060328315e+17
19459.0	6.047892531838982e+17
19460.0	6.10333000815957e+17
19461.0	6.158401761443836e+17
19462.0	6.213958290287277e+17
19463.0	6.2594173384349e+17
19464.0	6.297980362904914e+17
19465.0	6.332104370902356e+17
19466.0	6.361538690547707e+17
19467.0	6.390759878732457e+17
19468.0	6.416797179139412e+17
19469.0	6.439097455345661e+17
19470.0	6.462308829451604e+17
19471.0	6.487826515012269e+17
19472.0	6.515917322190844e+17
19473.0	6.539427299284311e+17
19474.0	6.559830456838825e+17
19475.0	6.576300421196457e+17
19476.0	6.593050623082492e+17
19477.0	6.60709435384354e+17
19478.0	6.620159491964927e+17
19479.0	6.632266107191296e+17
19480.0	6.642963442565119e+17
19481.0	6.653462229374291e+17
19482.0	6.662914121400319e+17
19483.0	6.671582519536297e+17
19484.0	6.680256349995005e+17
19485.0	6.687966157428052e+17
19486.0	6.69524023959006e+17
19487.0	6.702149051001514e+17
19488.0	6.708700700650153e+17
19489.0	6.715062755175082e+17
19490.0	6.718668626285905e+17
19491.0	6.726299368292351e+17
19492.0	6.731465589697193e+17
19493.0	6.736783118521683e+17
19494.0	6.743173606233428e+17
19495.0	6.751257988781394e+17
19496.0	6.756872491805354e+17
19497.0	6.76275082354142e+17
19498.0	6.764830705494706e+17
19499.0	6.701713026536746e+17
19500.0	6.778313045442559e+17
19501.0	6.781091397151401e+17
19502.0	6.785841597426346e+17
19503.0	6.788262110691327e+17
19504.0	6.791183436436818e+17
19505.0	6.794409866341033e+17
19506.0	6.796330398296746e+17
19507.0	6.798285348711081e+17
19508.0	6.801253041089194e+17
19509.0	6.8027656713885e+17
19510.0	6.803810823438333e+17
19511.0	6.743735078835511e+17
19512.0	6.796215642139284e+17
19513.0	6.787292454715356e+17
19514.0	6.79423545529683e+17
19515.0	6.809059523734189e+17
19516.0	6.811564950683647e+17
19517.0	6.81223283417634e+17
19518.0	6.813836703170559e+17
19519.0	6.814382355557033e+17
19520.0	6.814865131132246e+17
19521.0	6.815366760103935e+17
19522.0	6.815664596232873e+17
19523.0	6.816071389194921e+17
19524.0	6.816331143839743e+17
19525.0	6.81645353083426e+17
19526.0	6.816674946744319e+17
19527.0	6.817343406254761e+17
19528.0	6.817419151889747e+17
19529.0	6.81741714072098e+17
19530.0	6.817401289048061e+17
19531.0	6.817331274230441e+17
19532.0	6.817252102548137e+17
19533.0	6.817941270036479e+17
19534.0	6.8177334646429e+17
19535.0	6.817459121509715e+17
19536.0	6.817154050206377e+17
19537.0	6.817907382157311e+17
19538.0	6.81795136852241e+17
19539.0	6.816694058789548e+17
19540.0	6.817295167564457e+17
19541.0	6.816927342482772e+17
19542.0	6.816778001492649e+17
19543.0	6.817254375161855e+17
19544.0	6.817032847403689e+17
19545.0	6.815763393063592e+17
19546.0	6.814337845602986e+17
19547.0	6.815490334785536e+17
19548.0	6.814909863384403e+17
19549.0	6.814308355451561e+17
19550.0	6.814697385536169e+17
19551.0	6.814049357878612e+17
19552.0	6.813375096946687e+17
19553.0	6.812641978744831e+17
19554.0	6.811897909914282e+17
19555.0	6.811226738087252e+17
19556.0	6.810518689939455e+17
19557.0	6.809755067962707e+17
19558.0	6.808983715883689e+17
19559.0	6.808636241565012e+17
19560.0	6.808179979583487e+17
19561.0	6.807371050035881e+17
19562.0	6.8065933407901e+17
19563.0	6.805768879035732e+17
19564.0	6.804927344366932e+17
19565.0	6.80405539819793e+17
19566.0	6.803135046265513e+17
19567.0	6.80231276974353e+17
19568.0	6.801358816542719e+17
19569.0	6.800481438050985e+17
19570.0	6.799612337018195e+17
19571.0	6.798690107435689e+17
19572.0	6.79769023848994e+17
19573.0	6.796797106192383e+17
19574.0	6.796326123601917e+17
19575.0	6.795568115002025e+17
19576.0	6.794608519763286e+17
19577.0	6.793543156760575e+17
19578.0	6.792575878255955e+17
19579.0	6.791620926810794e+17
19580.0	6.790634936117929e+17
19581.0	6.789664257430867e+17
19582.0	6.788693687795711e+17
19583.0	6.787682745188351e+17
19584.0	6.786633770729472e+17
19585.0	6.785401362579455e+17
19586.0	6.784237252378623e+17
19587.0	6.783163395910314e+17
19588.0	6.78154750324463e+17
19589.0	6.781302675428692e+17
19590.0	6.780255470966099e+17
19591.0	6.779374054757716e+17
19592.0	6.778333194179924e+17
19593.0	6.777223119896575e+17
19594.0	6.775615120911017e+17
19595.0	6.775054580143444e+17
19596.0	6.763433159906653e+17
19597.0	6.772767895934294e+17
19598.0	6.771344460305748e+17
19599.0	6.770800069705727e+17
19600.0	6.769862179990185e+17
19601.0	6.768976686219263e+17
19602.0	6.76792591589922e+17
19603.0	6.765227755088552e+17
19604.0	6.765623486272852e+17
19605.0	6.764065554694143e+17
19606.0	6.763567639079593e+17
19607.0	6.76247770304785e+17
19608.0	6.761319309683369e+17
19609.0	6.760108688845481e+17
19610.0	6.759124501004287e+17
19611.0	6.757979321794559e+17
19612.0	6.756873590013952e+17
19613.0	6.755821336308394e+17
19614.0	6.754728056018259e+17
19615.0	6.753674728570879e+17
19616.0	6.752090701430783e+17
19617.0	6.751398750322687e+17
19618.0	6.749189771886591e+17
19619.0	6.747778859750738e+17
19620.0	6.746671769015635e+17
19621.0	6.746810212504916e+17
19622.0	6.745675461733033e+17
19623.0	6.744529850509993e+17
19624.0	6.743354730261162e+17
19625.0	6.742213152560467e+17
19626.0	6.741036713203028e+17
19627.0	6.739896634266963e+17
19628.0	6.737380755810989e+17
19629.0	6.737366093922303e+17
19630.0	6.733929125336408e+17
19631.0	6.677884138334888e+17
19632.0	6.734004862582783e+17
19633.0	6.732785036645715e+17
19634.0	6.731751295199913e+17
19635.0	6.730495041732608e+17
19636.0	6.729384976536916e+17
19637.0	6.72737319330338e+17
19638.0	6.727051296549546e+17
19639.0	6.72583006552064e+17
19640.0	6.724557050216447e+17
19641.0	6.722384121823235e+17
19642.0	6.722344670199807e+17
19643.0	6.721124479358291e+17
19644.0	6.719882077579946e+17
19645.0	6.71829297673011e+17
19646.0	6.717650446406995e+17
19647.0	6.716468014088191e+17
19648.0	6.715274307480233e+17
19649.0	6.714083880818004e+17
19650.0	6.712914790580223e+17
19651.0	6.711714387765929e+17
19652.0	6.710521117365588e+17
19653.0	6.709326357987327e+17
19654.0	6.708142879189673e+17
19655.0	6.706942751102291e+17
19656.0	6.705771945394175e+17
19657.0	6.704578943429289e+17
19658.0	6.703392693594793e+17
19659.0	6.702203629382314e+17
19660.0	6.701020206508714e+17
19661.0	6.699827024188756e+17
19662.0	6.698633029571924e+17
19663.0	6.697318385800532e+17
19664.0	6.695976414041427e+17
19665.0	6.695048273985535e+17
19666.0	6.69381124231441e+17
