# Flux units: erg / (cm m2 s)
# Wavelength units: Angstrom
wave	flux
19000.0	6.084697749367465e+17
19001.0	6.08350874247714e+17
19002.0	6.082490322124799e+17
19003.0	6.081385375378089e+17
19004.0	6.080280749495635e+17
19005.0	6.079168435453951e+17
19006.0	6.078069415258793e+17
19007.0	6.076956678291456e+17
19008.0	6.075815350151849e+17
19009.0	6.074606254642516e+17
19010.0	6.073435360154963e+17
19011.0	6.07250114814498e+17
19012.0	6.071360584766804e+17
19013.0	6.070333682832724e+17
19014.0	6.069189812944896e+17
19015.0	6.068097161800361e+17
19016.0	6.067018032392873e+17
19017.0	6.065928805897556e+17
19018.0	6.064821512437759e+17
19019.0	6.063722021082452e+17
19020.0	6.062613983832746e+17
19021.0	6.061527209607167e+17
19022.0	6.060420785067348e+17
19023.0	6.059289644193107e+17
19024.0	6.058206219818324e+17
19025.0	6.057115232414378e+17
19026.0	6.056007052558333e+17
19027.0	6.054903591294292e+17
19028.0	6.053810079618388e+17
19029.0	6.05269955514641e+17
19030.0	6.051623530921983e+17
19031.0	6.05052121260578e+17
19032.0	6.04941195551266e+17
19033.0	6.048227335165267e+17
19034.0	6.047159041043114e+17
19035.0	6.045818603001172e+17
19036.0	6.043446330523647e+17
19037.0	6.043691811951956e+17
19038.0	6.042759565672447e+17
19039.0	6.041708631075498e+17
19040.0	6.040625199011156e+17
19041.0	6.039524812870995e+17
19042.0	6.038261788398931e+17
19043.0	6.037338585038847e+17
19044.0	6.036231118214484e+17
19045.0	6.035136305605289e+17
19046.0	6.034008016158719e+17
19047.0	6.03289164063266e+17
19048.0	6.031739122789034e+17
19049.0	6.03047378236211e+17
19050.0	6.029567721821524e+17
19051.0	6.028301244738218e+17
19052.0	6.027317951681876e+17
19053.0	6.026341347841363e+17
19054.0	6.025267694097748e+17
19055.0	6.023934456976724e+17
19056.0	6.023052257831593e+17
19057.0	6.021986755018751e+17
19058.0	6.020788761133055e+17
19059.0	6.019759695637161e+17
19060.0	6.018702832391507e+17
19061.0	6.017613512922452e+17
19062.0	6.016516724796073e+17
19063.0	6.015415914332159e+17
19064.0	6.014269462850217e+17
19065.0	6.013107007302314e+17
19066.0	6.012053624629929e+17
19067.0	6.011041612475049e+17
19068.0	6.00996176863778e+17
19069.0	6.008869589352447e+17
19070.0	6.007757675167743e+17
19071.0	6.006680296882175e+17
19072.0	6.0055571922944e+17
19073.0	6.004501288845312e+17
19074.0	6.003410329403391e+17
19075.0	6.002317690142719e+17
19076.0	6.001220167314089e+17
19077.0	6.000120139087871e+17
19078.0	5.999021180409171e+17
19079.0	5.997950450095444e+17
19080.0	5.996851445279402e+17
19081.0	5.995729449385983e+17
19082.0	5.99466862252305e+17
19083.0	5.99350775521826e+17
19084.0	5.992309921415167e+17
19085.0	5.99139791544866e+17
19086.0	5.989956716942676e+17
19087.0	5.989133077271892e+17
19088.0	5.98802192994577e+17
19089.0	5.986892968012458e+17
19090.0	5.985935943183018e+17
19091.0	5.98485525209634e+17
19092.0	5.983669337806163e+17
19093.0	5.98270293451298e+17
19094.0	5.981617038295039e+17
19095.0	5.980529750966271e+17
19096.0	5.979438292402175e+17
19097.0	5.978353406312445e+17
19098.0	5.977227799822335e+17
19099.0	5.976128529367039e+17
19100.0	5.975081391314262e+17
19101.0	5.973990469621075e+17
19102.0	5.97286460727842e+17
19103.0	5.971830024874665e+17
19104.0	5.970750652896595e+17
19105.0	5.969572255498239e+17
19106.0	5.968574308941823e+17
19107.0	5.967455783135914e+17
19108.0	5.966354330244436e+17
19109.0	5.965279486017535e+17
19110.0	5.964211774903635e+17
19111.0	5.963119013309097e+17
19112.0	5.962035087015933e+17
19113.0	5.960981474355881e+17
19114.0	5.959877169337684e+17
19115.0	5.958777494132052e+17
19116.0	5.957695003688959e+17
19117.0	5.956585592105642e+17
19118.0	5.95517611512081e+17
19119.0	5.95004310840934e+17
19120.0	5.95318792135202e+17
19121.0	5.952265637942612e+17
19122.0	5.95121834959394e+17
19123.0	5.950142462383443e+17
19124.0	5.949037775683583e+17
19125.0	5.947941417473363e+17
19126.0	5.946714155035305e+17
19127.0	5.945054050910208e+17
19128.0	5.944524813631487e+17
19129.0	5.943548316745727e+17
19130.0	5.94256232255761e+17
19131.0	5.941505699086336e+17
19132.0	5.940429484021076e+17
19133.0	5.939321153170089e+17
19134.0	5.938270329722195e+17
19135.0	5.937193166045183e+17
19136.0	5.936106757423101e+17
19137.0	5.934984082052436e+17
19138.0	5.933938869185193e+17
19139.0	5.932882791672489e+17
19140.0	5.931810481504255e+17
19141.0	5.93073367294498e+17
19142.0	5.929633008582655e+17
19143.0	5.92855431258658e+17
19144.0	5.927461903313578e+17
19145.0	5.926419841067689e+17
19146.0	5.924812339107158e+17
19147.0	5.924233945284607e+17
19148.0	5.923157758880426e+17
19149.0	5.922073958416383e+17
19150.0	5.921041395570004e+17
19151.0	5.919960163418111e+17
19152.0	5.918885923170985e+17
19153.0	5.917714163258708e+17
19154.0	5.916687669570218e+17
19155.0	5.915643336108714e+17
19156.0	5.914576351308457e+17
19157.0	5.913475057101481e+17
19158.0	5.912362004862292e+17
19159.0	5.911339469897727e+17
19160.0	5.910263494606845e+17
19161.0	5.909181028630527e+17
19162.0	5.908063670239231e+17
19163.0	5.907021117259775e+17
19164.0	5.905975181574143e+17
19165.0	5.904824933548031e+17
19166.0	5.90378018275328e+17
19167.0	5.902755066893652e+17
19168.0	5.901698420353705e+17
19169.0	5.900629829834067e+17
19170.0	5.899560525583702e+17
19171.0	5.898488820094292e+17
19172.0	5.897418340739754e+17
19173.0	5.896344098395476e+17
19174.0	5.895254488121344e+17
19175.0	5.894196553930068e+17
19176.0	5.893129767660201e+17
19177.0	5.891936426655743e+17
19178.0	5.890990846683818e+17
19179.0	5.889918200272212e+17
19180.0	5.88883992510464e+17
19181.0	5.887714069053439e+17
19182.0	5.886681769050111e+17
19183.0	5.885641403400191e+17
19184.0	5.884572928922964e+17
19185.0	5.883497809270099e+17
19186.0	5.882434538526035e+17
19187.0	5.881311389898067e+17
19188.0	5.880293544165376e+17
19189.0	5.879225310161577e+17
19190.0	5.878154166708906e+17
19191.0	5.877056766214144e+17
19192.0	5.876008017548627e+17
19193.0	5.874916582053204e+17
19194.0	5.873821165464233e+17
19195.0	5.872757021605887e+17
19196.0	5.871640762122239e+17
19197.0	5.870503522030931e+17
19198.0	5.869271075433129e+17
19199.0	5.867823186313215e+17
19200.0	5.866816885402282e+17
19201.0	5.866090810135892e+17
19202.0	5.865181832456873e+17
19203.0	5.864183216209919e+17
19204.0	5.863152909899092e+17
19205.0	5.862102683440468e+17
19206.0	5.861055518823763e+17
19207.0	5.8598776387229e+17
19208.0	5.858842688618495e+17
19209.0	5.857869867341139e+17
19210.0	5.856815598971561e+17
19211.0	5.855766291764563e+17
19212.0	5.854700613490004e+17
19213.0	5.853554664625491e+17
19214.0	5.852525769697962e+17
19215.0	5.851494360984233e+17
19216.0	5.850421546101418e+17
19217.0	5.849289295134719e+17
19218.0	5.848025749869907e+17
19219.0	5.847019760036521e+17
19220.0	5.846122771775487e+17
19221.0	5.845013021152595e+17
19222.0	5.844010950896297e+17
19223.0	5.842976391561216e+17
19224.0	5.841891411099647e+17
19225.0	5.840838171033599e+17
19226.0	5.839800523991722e+17
19227.0	5.8387484128925e+17
19228.0	5.837712806379519e+17
19229.0	5.836652108141908e+17
19230.0	5.83558693528098e+17
19231.0	5.834518134347094e+17
19232.0	5.833464549649065e+17
19233.0	5.832358027242154e+17
19234.0	5.831340948368042e+17
19235.0	5.8302568871581e+17
19236.0	5.829225694451028e+17
19237.0	5.828159082943827e+17
19238.0	5.827042380262057e+17
19239.0	5.826047613687124e+17
19240.0	5.824990060478463e+17
19241.0	5.823913161741652e+17
19242.0	5.82285720166946e+17
19243.0	5.821676194714963e+17
19244.0	5.820753360453631e+17
19245.0	5.819687690567679e+17
19246.0	5.818628853202943e+17
19247.0	5.817569377604948e+17
19248.0	5.816516171792383e+17
19249.0	5.81545656127761e+17
19250.0	5.814367250197162e+17
19251.0	5.813252667736063e+17
19252.0	5.812018182706516e+17
19253.0	5.811204549246976e+17
19254.0	5.810163765564756e+17
19255.0	5.808934189968041e+17
19256.0	5.808035196130644e+17
19257.0	5.806988581666816e+17
19258.0	5.805928874683049e+17
19259.0	5.804799408734207e+17
19260.0	5.803754492963497e+17
19261.0	5.802730456438099e+17
19262.0	5.80162256249378e+17
19263.0	5.800509812244479e+17
19264.0	5.799287546620585e+17
19265.0	5.798342012086954e+17
19266.0	5.797281936004436e+17
19267.0	5.796388573020159e+17
19268.0	5.795333351145472e+17
19269.0	5.794273769291775e+17
19270.0	5.793177149636608e+17
19271.0	5.792019008629418e+17
19272.0	5.791069370668372e+17
19273.0	5.78987817435136e+17
19274.0	5.788654470081193e+17
19275.0	5.787939817302697e+17
19276.0	5.786870028610218e+17
19277.0	5.785817968541696e+17
19278.0	5.784762164357802e+17
19279.0	5.783680701519188e+17
19280.0	5.78261367267874e+17
19281.0	5.78157362090257e+17
19282.0	5.780532252114941e+17
19283.0	5.779466427039744e+17
19284.0	5.778383996715008e+17
19285.0	5.777300930953215e+17
19286.0	5.776233618997248e+17
19287.0	5.775156258886996e+17
19288.0	5.773423060626089e+17
19289.0	5.77208264565282e+17
19290.0	5.771971451857578e+17
19291.0	5.770773608267776e+17
19292.0	5.769948957769727e+17
19293.0	5.768897603043327e+17
19294.0	5.767829500461055e+17
19295.0	5.766778566563156e+17
19296.0	5.765669095560531e+17
19297.0	5.76464000000546e+17
19298.0	5.7635750095967565e+17
19299.0	5.762490370271915e+17
19300.0	5.7614762938204154e+17
19301.0	5.76041850573073e+17
19302.0	5.7593442501044896e+17
19303.0	5.758243354356393e+17
19304.0	5.757224860603733e+17
19305.0	5.7561545434289485e+17
19306.0	5.755096849012051e+17
19307.0	5.754006487258452e+17
19308.0	5.752948121053866e+17
19309.0	5.751882511286271e+17
19310.0	5.750796417936042e+17
19311.0	5.749731724623871e+17
19312.0	5.7486754681541965e+17
19313.0	5.7475430431238816e+17
19314.0	5.742735364805972e+17
19315.0	5.741908865318914e+17
19316.0	5.7442885183733754e+17
19317.0	5.7433542119915514e+17
19318.0	5.7423073892106234e+17
19319.0	5.7412642210665805e+17
19320.0	5.7401799669186554e+17
19321.0	5.739084224572074e+17
19322.0	5.7380406342014285e+17
19323.0	5.7369762792297805e+17
19324.0	5.735912253510996e+17
19325.0	5.734844385809747e+17
19326.0	5.7337766040917325e+17
19327.0	5.732702457517396e+17
19328.0	5.731551269967189e+17
19329.0	5.7305596456250016e+17
19330.0	5.7294737857576954e+17
19331.0	5.7283673262653434e+17
19332.0	5.727331086412457e+17
19333.0	5.72624287703586e+17
19334.0	5.7251718775876256e+17
19335.0	5.7239259945369594e+17
19336.0	5.72299350778402e+17
19337.0	5.7219017744930125e+17
19338.0	5.7206443193576096e+17
19339.0	5.719715987062783e+17
19340.0	5.71852322836753e+17
19341.0	5.717379269001215e+17
19342.0	5.7162661943924045e+17
19343.0	5.7152670916061856e+17
19344.0	5.7140168122258765e+17
19345.0	5.712143473180671e+17
19346.0	5.711242655520084e+17
19347.0	5.71072138322466e+17
19348.0	5.7098114520405325e+17
19349.0	5.708707126050815e+17
19350.0	5.7075904310586016e+17
19351.0	5.7065021587674445e+17
19352.0	5.705295559568041e+17
19353.0	5.7043176589885434e+17
19354.0	5.7032053854917965e+17
19355.0	5.701993641978538e+17
19356.0	5.7009380964433914e+17
19357.0	5.699811967063381e+17
19358.0	5.698678950636203e+17
19359.0	5.697508286136319e+17
19360.0	5.696320408212821e+17
19361.0	5.695257942775124e+17
19362.0	5.694126982955007e+17
19363.0	5.69298221338897e+17
19364.0	5.6918306126998176e+17
19365.0	5.690672900210687e+17
19366.0	5.689509563159891e+17
19367.0	5.6883383275356154e+17
19368.0	5.687126913275221e+17
19369.0	5.6859250641250976e+17
19370.0	5.684744163426302e+17
19371.0	5.683521021891924e+17
19372.0	5.682370045455018e+17
19373.0	5.681146683719679e+17
19374.0	5.679940745123156e+17
19375.0	5.678721068083881e+17
19376.0	5.6774908395738445e+17
19377.0	5.676201269351765e+17
19378.0	5.674929738831188e+17
19379.0	5.6736730156018336e+17
19380.0	5.6724086153980576e+17
19381.0	5.6711267857640096e+17
19382.0	5.6697711930026656e+17
19383.0	5.6684952395885216e+17
19384.0	5.6671870089079456e+17
19385.0	5.665842084358826e+17
19386.0	5.664510103431849e+17
19387.0	5.6631603910847136e+17
19388.0	5.6617865824610976e+17
19389.0	5.6603766315199136e+17
19390.0	5.6588441901247136e+17
19391.0	5.656172441545385e+17
19392.0	5.6556703749679776e+17
19393.0	5.6545239039126176e+17
19394.0	5.6530691382312954e+17
19395.0	5.651530306813951e+17
19396.0	5.6500064931020794e+17
19397.0	5.648431384450388e+17
19398.0	5.6467466352940365e+17
19399.0	5.644862008677718e+17
19400.0	5.643339971952638e+17
19401.0	5.6418094228875936e+17
19402.0	5.6400789355451725e+17
19403.0	5.6382883689922554e+17
19404.0	5.6365030641937043e+17
19405.0	5.634642404529492e+17
19406.0	5.632726134685694e+17
19407.0	5.6306834233535136e+17
19408.0	5.628391838799188e+17
19409.0	5.626464516964351e+17
19410.0	5.6243692377210874e+17
19411.0	5.622119956217855e+17
19412.0	5.6197796128795296e+17
19413.0	5.61732107055923e+17
19414.0	5.614812901234004e+17
19415.0	5.61215175725329e+17
19416.0	5.6092692938315085e+17
19417.0	5.6065685863792634e+17
19418.0	5.6036588222327456e+17
19419.0	5.6006131109068794e+17
19420.0	5.597341133657428e+17
19421.0	5.5938128040427514e+17
19422.0	5.59011815629346e+17
19423.0	5.5863595202423456e+17
19424.0	5.58229598904866e+17
19425.0	5.577962910908415e+17
19426.0	5.5733625465514656e+17
19427.0	5.5684631765538125e+17
19428.0	5.56321974849809e+17
19429.0	5.5576823878123514e+17
19430.0	5.5515627857291936e+17
19431.0	5.54512952730146e+17
19432.0	5.53832696250368e+17
19433.0	5.530773899706367e+17
19434.0	5.522478579318783e+17
19435.0	5.513409749581823e+17
19436.0	5.503547818202451e+17
19437.0	5.4928303431789216e+17
19438.0	5.478838370828287e+17
19439.0	5.4672228226170874e+17
19440.0	5.453105540541097e+17
19441.0	5.436373785204052e+17
19442.0	5.417892062079659e+17
19443.0	5.396330362961919e+17
19444.0	5.3710967121728826e+17
19445.0	5.341467578990592e+17
19446.0	5.305790477544106e+17
19447.0	5.260862398223697e+17
19448.0	5.2018570281178464e+17
19449.0	5.116706236836522e+17
19450.0	4.9605007145697197e+17
19451.0	4.829276856298163e+17
19452.0	5.053975700526419e+17
19453.0	5.161400070569986e+17
19454.0	5.2288592903755066e+17
19455.0	5.277640413238613e+17
19456.0	5.315513216750935e+17
19457.0	5.345510641980755e+17
19458.0	5.3601027793879136e+17
19459.0	5.3908385286499014e+17
19460.0	5.410103094149119e+17
19461.0	5.425878825697279e+17
19462.0	5.4396996445798394e+17
19463.0	5.451694060776106e+17
19464.0	5.462218114072575e+17
19465.0	5.4712857456366925e+17
19466.0	5.479424901600596e+17
19467.0	5.4868115952325965e+17
19468.0	5.4933929468450125e+17
19469.0	5.499150384059732e+17
19470.0	5.5045087605118285e+17
19471.0	5.509125584016726e+17
19472.0	5.51324024447522e+17
19473.0	5.516977795760128e+17
19474.0	5.520198057241257e+17
19475.0	5.522900842971136e+17
19476.0	5.525934478895785e+17
19477.0	5.528468495619411e+17
19478.0	5.5306676237325645e+17
19479.0	5.5325112377453216e+17
19480.0	5.534182136610815e+17
19481.0	5.535787759523157e+17
19482.0	5.53717998952994e+17
19483.0	5.538303708583252e+17
19484.0	5.539237641672019e+17
19485.0	5.540043847019177e+17
19486.0	5.540719924084736e+17
19487.0	5.5415124755742714e+17
19488.0	5.542018040900266e+17
19489.0	5.542186551956821e+17
19490.0	5.542251033089364e+17
19491.0	5.543014541120852e+17
19492.0	5.5433151762486605e+17
19493.0	5.543494327555411e+17
19494.0	5.5435370032005114e+17
19495.0	5.543483948051113e+17
19496.0	5.54318172398114e+17
19497.0	5.543103470152362e+17
19498.0	5.5421894383370234e+17
19499.0	5.5406940291508896e+17
19500.0	5.54237262106897e+17
19501.0	5.54224035369233e+17
19502.0	5.541929915077972e+17
19503.0	5.541574416356692e+17
19504.0	5.5411677135721805e+17
19505.0	5.540732773335039e+17
19506.0	5.5402719850004474e+17
19507.0	5.539761833902079e+17
19508.0	5.539241959707988e+17
19509.0	5.538633396256767e+17
19510.0	5.5377841657391763e+17
19511.0	5.531768852927825e+17
19512.0	5.535984124253524e+17
19513.0	5.535401514456404e+17
19514.0	5.5349392972622496e+17
19515.0	5.534818107741524e+17
19516.0	5.534325510504447e+17
19517.0	5.533672742584319e+17
19518.0	5.5330306170115405e+17
19519.0	5.532355513723561e+17
19520.0	5.531575574506154e+17
19521.0	5.530916634667689e+17
19522.0	5.53012991955217e+17
19523.0	5.529396559478783e+17
19524.0	5.528599705332394e+17
19525.0	5.5278743389033805e+17
19526.0	5.5271478546923514e+17
19527.0	5.52635481526545e+17
19528.0	5.5255459444381005e+17
19529.0	5.524734217988777e+17
19530.0	5.5239404061108896e+17
19531.0	5.5231175822322336e+17
19532.0	5.5222878559272954e+17
19533.0	5.5214515578470394e+17
19534.0	5.52060700537651e+17
19535.0	5.5197485858379085e+17
19536.0	5.518902273856852e+17
19537.0	5.51805430932002e+17
19538.0	5.517000889597951e+17
19539.0	5.516108645094741e+17
19540.0	5.515416439532202e+17
19541.0	5.5145715571097594e+17
19542.0	5.5136984176612685e+17
19543.0	5.5127509467572896e+17
19544.0	5.5118763330109434e+17
19545.0	5.510676374792873e+17
19546.0	5.509724769703251e+17
19547.0	5.509202297836885e+17
19548.0	5.508361447538687e+17
19549.0	5.5074100186098323e+17
19550.0	5.506601818172073e+17
19551.0	5.505714600542206e+17
19552.0	5.5048401482765645e+17
19553.0	5.5039179585399456e+17
19554.0	5.503004120361642e+17
19555.0	5.502087253895849e+17
19556.0	5.501189238030335e+17
19557.0	5.5002760464738976e+17
19558.0	5.499354806048085e+17
19559.0	5.498434898711892e+17
19560.0	5.497467450337962e+17
19561.0	5.4965638581452794e+17
19562.0	5.4956355894640634e+17
19563.0	5.4947337924334925e+17
19564.0	5.4938038495259296e+17
19565.0	5.492871745852757e+17
19566.0	5.491924028183892e+17
19567.0	5.491003139380563e+17
19568.0	5.4900494972573005e+17
19569.0	5.489124851056639e+17
19570.0	5.4882037091969696e+17
19571.0	5.487276101118634e+17
19572.0	5.486306987606015e+17
19573.0	5.485384437159252e+17
19574.0	5.4843719160954874e+17
19575.0	5.4835167841921696e+17
19576.0	5.4825647995180365e+17
19577.0	5.4815974706817696e+17
19578.0	5.480669215282517e+17
19579.0	5.4797123924787194e+17
19580.0	5.4787708649035085e+17
19581.0	5.477842843686228e+17
19582.0	5.476902090659156e+17
19583.0	5.475954806401705e+17
19584.0	5.475004818915328e+17
19585.0	5.473954187007315e+17
19586.0	5.472980353504598e+17
19587.0	5.472105492993364e+17
19588.0	5.4710022484350285e+17
19589.0	5.470180605951999e+17
19590.0	5.4692175832678394e+17
19591.0	5.46834028167168e+17
19592.0	5.46740154470673e+17
19593.0	5.4664278286445216e+17
19594.0	5.4652769242098336e+17
19595.0	5.464526239563775e+17
19596.0	5.4635730427357856e+17
19597.0	5.462610016556373e+17
19598.0	5.46138497150703e+17
19599.0	5.46069463310882e+17
19600.0	5.459764516836691e+17
19601.0	5.4587624479784954e+17
19602.0	5.4577670935019514e+17
19603.0	5.456731964440574e+17
19604.0	5.4558675666206714e+17
19605.0	5.454794862187862e+17
19606.0	5.4540274212973216e+17
19607.0	5.4530886941190816e+17
19608.0	5.452123571486719e+17
19609.0	5.451149615650132e+17
19610.0	5.450193274492244e+17
19611.0	5.449218608420181e+17
19612.0	5.44831258423023e+17
19613.0	5.4473458062458874e+17
19614.0	5.446360570527743e+17
19615.0	5.445428277411839e+17
19616.0	5.444419185890646e+17
19617.0	5.4433994226619725e+17
19618.0	5.442145153799508e+17
19619.0	5.4410719782065485e+17
19620.0	5.440277290418175e+17
19621.0	5.4395506510178976e+17
19622.0	5.438713639905962e+17
19623.0	5.4377670183485434e+17
19624.0	5.436798798222676e+17
19625.0	5.4358591364136954e+17
19626.0	5.4348915587153914e+17
19627.0	5.4339217412587514e+17
19628.0	5.43292466012706e+17
19629.0	5.431687025874259e+17
19630.0	5.4306941187741005e+17
19631.0	5.429490552056489e+17
19632.0	5.428968621255338e+17
19633.0	5.428111221631657e+17
19634.0	5.4272273916013216e+17
19635.0	5.426250513033898e+17
19636.0	5.425266642561705e+17
19637.0	5.424025654962858e+17
19638.0	5.423419907986773e+17
19639.0	5.422453933211647e+17
19640.0	5.421289983792469e+17
19641.0	5.419922570783402e+17
19642.0	5.419564110184447e+17
19643.0	5.418620331666089e+17
19644.0	5.417610776674303e+17
19645.0	5.4166222414370125e+17
19646.0	5.415692694891178e+17
19647.0	5.414826209705984e+17
19648.0	5.413872273282388e+17
19649.0	5.4129173826546336e+17
19650.0	5.4119670617210874e+17
19651.0	5.411006032729428e+17
19652.0	5.410049623763626e+17
19653.0	5.409100241655124e+17
19654.0	5.408137693626368e+17
19655.0	5.407181078440617e+17
19656.0	5.4062313866526714e+17
19657.0	5.40527629050402e+17
19658.0	5.4043216871860896e+17
19659.0	5.403367873795411e+17
19660.0	5.402412961497087e+17
