# Flux units: erg / (cm m2 s)
# Wavelength units: Angstrom
wave	flux
19000.0	7.413743870104915e+17
19001.0	7.411720100249597e+17
19002.0	7.411060021657597e+17
19003.0	7.40967580906291e+17
19004.0	7.408322760146943e+17
19005.0	7.406935965259092e+17
19006.0	7.405590186470057e+17
19007.0	7.404223872368637e+17
19008.0	7.402474960846847e+17
19009.0	7.400877799243775e+17
19010.0	7.397132779301541e+17
19011.0	7.398594099980969e+17
19012.0	7.396686236920488e+17
19013.0	7.396034830751059e+17
19014.0	7.394266446473897e+17
19015.0	7.393068059721727e+17
19016.0	7.39167151587328e+17
19017.0	7.390508193502548e+17
19018.0	7.389152662956713e+17
19019.0	7.387796097815891e+17
19020.0	7.386359864666794e+17
19021.0	7.385130486202365e+17
19022.0	7.383752762195968e+17
19023.0	7.382119623251284e+17
19024.0	7.380895198259881e+17
19025.0	7.379641515201876e+17
19026.0	7.378123740588714e+17
19027.0	7.376712673263612e+17
19028.0	7.375546975518717e+17
19029.0	7.374172605557417e+17
19030.0	7.373101789959508e+17
19031.0	7.371769881733802e+17
19032.0	7.370372110352383e+17
19033.0	7.36834436289877e+17
19034.0	7.367490139761322e+17
19035.0	7.365785747980287e+17
19036.0	7.344886753088846e+17
19037.0	7.363267455702356e+17
19038.0	7.361957183094783e+17
19039.0	7.360737708780202e+17
19040.0	7.359404591196841e+17
19041.0	7.357990642384896e+17
19042.0	7.35600646116693e+17
19043.0	7.355270387378857e+17
19044.0	7.353842818263722e+17
19045.0	7.352534652594857e+17
19046.0	7.350735644306088e+17
19047.0	7.349630861836287e+17
19048.0	7.347042314966355e+17
19049.0	7.346481616213331e+17
19050.0	7.345272336853676e+17
19051.0	7.340701712908282e+17
19052.0	7.342167507511978e+17
19053.0	7.341495234680148e+17
19054.0	7.340091424899071e+17
19055.0	7.336973242291546e+17
19056.0	7.337206649716735e+17
19057.0	7.335966208076458e+17
19058.0	7.334516005098836e+17
19059.0	7.333325658827432e+17
19060.0	7.332101544214527e+17
19061.0	7.330871758902612e+17
19062.0	7.329448434423123e+17
19063.0	7.328090285233491e+17
19064.0	7.325869866833238e+17
19065.0	7.324056867744425e+17
19066.0	7.323517175463935e+17
19067.0	7.322494830641151e+17
19068.0	7.321197184286717e+17
19069.0	7.319833288900607e+17
19070.0	7.318253837047123e+17
19071.0	7.317033765743274e+17
19072.0	7.315685390680063e+17
19073.0	7.314263092406953e+17
19074.0	7.312949851630249e+17
19075.0	7.311568616991402e+17
19076.0	7.310056831844351e+17
19077.0	7.308710063199572e+17
19078.0	7.307134155532968e+17
19079.0	7.306018161688575e+17
19080.0	7.304543721226239e+17
19081.0	7.302944659603453e+17
19082.0	7.301614478032896e+17
19083.0	7.299676850793129e+17
19084.0	7.2974266807965e+17
19085.0	7.297629177599318e+17
19086.0	7.293578988486655e+17
19087.0	7.294458884958889e+17
19088.0	7.292925067132927e+17
19089.0	7.290635899895809e+17
19090.0	7.290545118380033e+17
19091.0	7.289165638358356e+17
19092.0	7.287167604752383e+17
19093.0	7.286282882034348e+17
19094.0	7.284918444184916e+17
19095.0	7.283565248468308e+17
19096.0	7.282079349167444e+17
19097.0	7.280779695139497e+17
19098.0	7.279370446744233e+17
19099.0	7.277977736489641e+17
19100.0	7.276581800815274e+17
19101.0	7.275228147919529e+17
19102.0	7.27322737263684e+17
19103.0	7.272441414593193e+17
19104.0	7.271109509163689e+17
19105.0	7.269658548415145e+17
19106.0	7.268242088613204e+17
19107.0	7.266798304318803e+17
19108.0	7.265499710051667e+17
19109.0	7.2626168950074e+17
19110.0	7.262578044567551e+17
19111.0	7.261378131088723e+17
19112.0	7.26001507176721e+17
19113.0	7.258618019009875e+17
19114.0	7.257215073255423e+17
19115.0	7.2555179292317e+17
19116.0	7.254308982620157e+17
19117.0	7.252906196249258e+17
19118.0	7.251024189674835e+17
19119.0	7.227662387554952e+17
19120.0	7.248575339692032e+17
19121.0	7.247392481651369e+17
19122.0	7.246158531395583e+17
19123.0	7.244753516451155e+17
19124.0	7.243238507282432e+17
19125.0	7.241931927060479e+17
19126.0	7.240408090279935e+17
19127.0	7.22798929999735e+17
19128.0	7.237207653176659e+17
19129.0	7.235789641482237e+17
19130.0	7.234931496670548e+17
19131.0	7.233645785907199e+17
19132.0	7.232244085861033e+17
19133.0	7.230243669890387e+17
19134.0	7.229289665658879e+17
19135.0	7.228081323027113e+17
19136.0	7.226718045601791e+17
19137.0	7.224317441299798e+17
19138.0	7.223836418943657e+17
19139.0	7.222556961887572e+17
19140.0	7.221179418236244e+17
19141.0	7.219799831958868e+17
19142.0	7.218222189248511e+17
19143.0	7.216635647623168e+17
19144.0	7.215322318766079e+17
19145.0	7.214205504236202e+17
19146.0	7.208682218236591e+17
19147.0	7.210882176821929e+17
19148.0	7.210024732459007e+17
19149.0	7.208609928009044e+17
19150.0	7.207221002414761e+17
19151.0	7.205840482205693e+17
19152.0	7.204450425547433e+17
19153.0	7.202914499384659e+17
19154.0	7.200883483170131e+17
19155.0	7.200276036102825e+17
19156.0	7.198868169031679e+17
19157.0	7.197333006232233e+17
19158.0	7.195141307629568e+17
19159.0	7.194523957810516e+17
19160.0	7.193204138967039e+17
19161.0	7.191800751412564e+17
19162.0	7.188068111657642e+17
19163.0	7.188818942405289e+17
19164.0	7.187734239466836e+17
19165.0	7.186243330768896e+17
19166.0	7.184210857732777e+17
19167.0	7.183327148638207e+17
19168.0	7.182056087180627e+17
19169.0	7.180668973525676e+17
19170.0	7.179380894378666e+17
19171.0	7.177826074274474e+17
19172.0	7.175838511049386e+17
19173.0	7.174501910795603e+17
19174.0	7.172724665352191e+17
19175.0	7.171694282844841e+17
19176.0	7.170281618888019e+17
19177.0	7.167865903906815e+17
19178.0	7.167433939528362e+17
19179.0	7.165946751178067e+17
19180.0	7.164624419946493e+17
19181.0	7.162589398171645e+17
19182.0	7.161797642201769e+17
19183.0	7.160519359550804e+17
19184.0	7.159040948480681e+17
19185.0	7.157617874261332e+17
19186.0	7.156305261232127e+17
19187.0	7.154358379959635e+17
19188.0	7.153482786843305e+17
19189.0	7.152089889243135e+17
19190.0	7.150679919427583e+17
19191.0	7.149049063582377e+17
19192.0	7.147880860439892e+17
19193.0	7.146415029485565e+17
19194.0	7.144903853910697e+17
19195.0	7.143574253950292e+17
19196.0	7.141997589910867e+17
19197.0	7.14051610022161e+17
19198.0	7.138475203624957e+17
19199.0	7.122525987973797e+17
19200.0	7.124647268406616e+17
19201.0	7.134365389684736e+17
19202.0	7.133540122623999e+17
19203.0	7.132238045686441e+17
19204.0	7.130742913324372e+17
19205.0	7.129439155869012e+17
19206.0	7.128012755566591e+17
19207.0	7.125973026384552e+17
19208.0	7.123978946609148e+17
19209.0	7.123806334222335e+17
19210.0	7.122417948295165e+17
19211.0	7.121107387678719e+17
19212.0	7.119660329030995e+17
19213.0	7.117595508124326e+17
19214.0	7.116065360314369e+17
19215.0	7.115353777067347e+17
19216.0	7.113985009298089e+17
19217.0	7.11183316217583e+17
19218.0	7.10503328243165e+17
19219.0	7.107566265958397e+17
19220.0	7.107195179106304e+17
19221.0	7.103937015797078e+17
19222.0	7.104387057625769e+17
19223.0	7.102953150917289e+17
19224.0	7.101352886927359e+17
19225.0	7.09933135962658e+17
19226.0	7.098652652732415e+17
19227.0	7.097235075847508e+17
19228.0	7.095989226351276e+17
19229.0	7.094554236114259e+17
19230.0	7.093075091040938e+17
19231.0	7.091603311165437e+17
19232.0	7.090211937495721e+17
19233.0	7.088325623371092e+17
19234.0	7.087226504609791e+17
19235.0	7.085681302044671e+17
19236.0	7.084508654338047e+17
19237.0	7.082944854228991e+17
19238.0	7.081002325245951e+17
19239.0	7.080193958434131e+17
19240.0	7.078591328856744e+17
19241.0	7.077086854381565e+17
19242.0	7.075517299687424e+17
19243.0	7.072009385148412e+17
19244.0	7.071795327445674e+17
19245.0	7.070306058720598e+17
19246.0	7.068780962250751e+17
19247.0	7.067349053429075e+17
19248.0	7.065975171405139e+17
19249.0	7.064502295418195e+17
19250.0	7.062915040761172e+17
19251.0	7.060819190393509e+17
19252.0	7.058027660181504e+17
19253.0	7.058493355152723e+17
19254.0	7.057167117626026e+17
19255.0	7.054345958850556e+17
19256.0	7.054053316668074e+17
19257.0	7.052754741974356e+17
19258.0	7.051293264707583e+17
19259.0	7.049003861191338e+17
19260.0	7.046866916431186e+17
19261.0	7.045436900638719e+17
19262.0	7.043625856095572e+17
19263.0	7.042081464429225e+17
19264.0	7.037626706034683e+17
19265.0	7.038288083462824e+17
19266.0	7.036946252212908e+17
19267.0	7.036588213840553e+17
19268.0	7.03503771317043e+17
19269.0	7.033530656402089e+17
19270.0	7.031986823976276e+17
19271.0	7.028384111875419e+17
19272.0	7.028735516256938e+17
19273.0	7.022063992700924e+17
19274.0	7.021395029873997e+17
19275.0	7.024464989869396e+17
19276.0	7.022838682047827e+17
19277.0	7.021333648332116e+17
19278.0	7.019836358000639e+17
19279.0	7.018125479029418e+17
19280.0	7.016198984171519e+17
19281.0	7.015161433598633e+17
19282.0	7.013718987986259e+17
19283.0	7.012010164223999e+17
19284.0	7.010233206789459e+17
19285.0	7.007974929902248e+17
19286.0	7.007199411481257e+17
19287.0	7.005913460244479e+17
19288.0	6.998785747408209e+17
19289.0	6.989851066892265e+17
19290.0	7.001208777954644e+17
19291.0	6.997863276653231e+17
19292.0	6.998091827773437e+17
19293.0	6.996479354863615e+17
19294.0	6.994845673455613e+17
19295.0	6.993278459183103e+17
19296.0	6.990713176020308e+17
19297.0	6.988949099293353e+17
19298.0	6.987318330829481e+17
19299.0	6.98588482118178e+17
19300.0	6.984263771619327e+17
19301.0	6.982607480116564e+17
19302.0	6.980826625474559e+17
19303.0	6.978771796798121e+17
19304.0	6.977398358671359e+17
19305.0	6.975830648072873e+17
19306.0	6.974220222682452e+17
19307.0	6.972255735818921e+17
19308.0	6.970700614423891e+17
19309.0	6.968652679086079e+17
19310.0	6.966629711041875e+17
19311.0	6.965530404235946e+17
19312.0	6.964050959269887e+17
19313.0	6.962428041145002e+17
19314.0	6.946328242989733e+17
19315.0	6.944632473299647e+17
19316.0	6.955752346353663e+17
19317.0	6.954020248398506e+17
19318.0	6.952247996274003e+17
19319.0	6.9505930770077e+17
19320.0	6.948816480283305e+17
19321.0	6.9470072602624e+17
19322.0	6.944730462726825e+17
19323.0	6.943150803255295e+17
19324.0	6.941514193524052e+17
19325.0	6.939409400201215e+17
19326.0	6.937865983011498e+17
19327.0	6.935356504364371e+17
19328.0	6.932221043321514e+17
19329.0	6.930363649622015e+17
19330.0	6.928229412984148e+17
19331.0	6.926243848344915e+17
19332.0	6.924632405835775e+17
19333.0	6.922585852521129e+17
19334.0	6.920721901027327e+17
19335.0	6.918720656681642e+17
19336.0	6.915052199564627e+17
19337.0	6.912101699638612e+17
19338.0	6.9087084454871e+17
19339.0	6.908035176508072e+17
19340.0	6.905499023485608e+17
19341.0	6.90368659342404e+17
19342.0	6.89944897484663e+17
19343.0	6.896397650842963e+17
19344.0	6.893953988515156e+17
19345.0	6.880022972683584e+17
19346.0	6.884358525463206e+17
19347.0	6.887141718097919e+17
19348.0	6.884174425576788e+17
19349.0	6.878668938805247e+17
19350.0	6.876437994799103e+17
19351.0	6.874044108374013e+17
19352.0	6.871477081778857e+17
19353.0	6.86821844521233e+17
19354.0	6.862086077065897e+17
19355.0	6.859006203833004e+17
19356.0	6.857191796157097e+17
19357.0	6.854604839627433e+17
19358.0	6.846139389181955e+17
19359.0	6.842800570105856e+17
19360.0	6.840180814118911e+17
19361.0	6.836001908806998e+17
19362.0	6.831534618531156e+17
19363.0	6.828786665739604e+17
19364.0	6.825998850981887e+17
19365.0	6.823142432789844e+17
19366.0	6.820313252407977e+17
19367.0	6.817424548560896e+17
19368.0	6.814502105033385e+17
19369.0	6.811179403269459e+17
19370.0	6.808011455944022e+17
19371.0	6.805144224836266e+17
19372.0	6.802413088407551e+17
19373.0	6.799135386632192e+17
19374.0	6.79552372248849e+17
19375.0	6.79233357750818e+17
19376.0	6.789077931480404e+17
19377.0	6.785697825073833e+17
19378.0	6.782354691457023e+17
19379.0	6.778937079584084e+17
19380.0	6.775436861592916e+17
19381.0	6.771847873254739e+17
19382.0	6.767224644348585e+17
19383.0	6.762998030925823e+17
19384.0	6.759908138898772e+17
19385.0	6.756178573568681e+17
19386.0	6.752392297054207e+17
19387.0	6.748519305401684e+17
19388.0	6.743258252181504e+17
19389.0	6.739019547279359e+17
19390.0	6.734914529525759e+17
19391.0	6.715251001830035e+17
19392.0	6.725578310112595e+17
19393.0	6.720137457565695e+17
19394.0	6.715675907194879e+17
19395.0	6.711123232773459e+17
19396.0	6.70396064429943e+17
19397.0	6.698650152818004e+17
19398.0	6.693304551516841e+17
19399.0	6.680741163302908e+17
19400.0	6.678872475041792e+17
19401.0	6.670283057747282e+17
19402.0	6.663345382533801e+17
19403.0	6.653133054803965e+17
19404.0	6.645437249355775e+17
19405.0	6.632458728505335e+17
19406.0	6.62247402215833e+17
19407.0	6.609834712148649e+17
19408.0	6.589944924820819e+17
19409.0	6.581720018408782e+17
19410.0	6.571586564565674e+17
19411.0	6.563210771562495e+17
19412.0	6.554573309214719e+17
19413.0	6.545681468620799e+17
19414.0	6.536356706648064e+17
19415.0	6.527081526241962e+17
19416.0	6.516726211193512e+17
19417.0	6.507433665669801e+17
19418.0	6.49739492200721e+17
19419.0	6.487180968984575e+17
19420.0	6.476713375913299e+17
19421.0	6.465698998692522e+17
19422.0	6.453824086605823e+17
19423.0	6.441741952832852e+17
19424.0	6.429465866054314e+17
19425.0	6.416133607391231e+17
19426.0	6.402010399462739e+17
19427.0	6.387206269348521e+17
19428.0	6.370760738908841e+17
19429.0	6.353103654398634e+17
19430.0	6.33415812373982e+17
19431.0	6.310723540658861e+17
19432.0	6.291365447772838e+17
19433.0	6.266371664336214e+17
19434.0	6.23852904321297e+17
19435.0	6.207715191816191e+17
19436.0	6.173258671980539e+17
19437.0	6.137477241416365e+17
19438.0	6.08130645815023e+17
19439.0	6.059055194483377e+17
19440.0	6.019485095952383e+17
19441.0	5.974719500473682e+17
19442.0	5.92441112456943e+17
19443.0	5.86703781687023e+17
19444.0	5.79951775798613e+17
19445.0	5.7210359652898157e+17
19446.0	5.628023010579796e+17
19447.0	5.5157634811385114e+17
19448.0	5.376012265193477e+17
19449.0	5.193242083590143e+17
19450.0	4.9333659500543795e+17
19451.0	4.790695178360157e+17
19452.0	5.0768365300831584e+17
19453.0	5.290763935372637e+17
19454.0	5.446539008103758e+17
19455.0	5.56860741657122e+17
19456.0	5.6680726201193856e+17
19457.0	5.7510351737978835e+17
19458.0	5.801096240256374e+17
19459.0	5.880657077775023e+17
19460.0	5.932448793056594e+17
19461.0	5.977550906632873e+17
19462.0	6.016761484804096e+17
19463.0	6.054130288164861e+17
19464.0	6.090818490903203e+17
19465.0	6.126455949186395e+17
19466.0	6.159068704014332e+17
19467.0	6.188945294142118e+17
19468.0	6.215716199290199e+17
19469.0	6.238616891512148e+17
19470.0	6.260682419514025e+17
19471.0	6.27940599948902e+17
19472.0	6.296306978914301e+17
19473.0	6.312815925133311e+17
19474.0	6.326881049640963e+17
19475.0	6.336641688578725e+17
19476.0	6.351536791748608e+17
19477.0	6.363614694167894e+17
19478.0	6.373754238839465e+17
19479.0	6.383413119767892e+17
19480.0	6.393010195529727e+17
19481.0	6.401858026689876e+17
19482.0	6.410139110910633e+17
19483.0	6.418111288836096e+17
19484.0	6.425706091948714e+17
19485.0	6.43316915966225e+17
19486.0	6.440448609135274e+17
19487.0	6.447590896478889e+17
19488.0	6.454367553759914e+17
19489.0	6.460288149400233e+17
19490.0	6.460384423357089e+17
19491.0	6.472879680694953e+17
19492.0	6.478891986889386e+17
19493.0	6.489502317019137e+17
19494.0	6.500821467747676e+17
19495.0	6.510401039280813e+17
19496.0	6.51901560911735e+17
19497.0	6.529187719763286e+17
19498.0	6.533648574578689e+17
19499.0	6.520441479539356e+17
19500.0	6.547901783561556e+17
19501.0	6.554949901090819e+17
19502.0	6.558581226034515e+17
19503.0	6.563108896811692e+17
19504.0	6.567529126297599e+17
19505.0	6.569851414555305e+17
19506.0	6.574263214189228e+17
19507.0	6.57698101203217e+17
19508.0	6.579068693293738e+17
19509.0	6.581350068912124e+17
19510.0	6.583518544352595e+17
19511.0	6.558897324862104e+17
19512.0	6.583707823505399e+17
19513.0	6.580283469288778e+17
19514.0	6.586111637848055e+17
19515.0	6.590860284133381e+17
19516.0	6.594720803323903e+17
19517.0	6.595716746401107e+17
19518.0	6.597261732959571e+17
19519.0	6.598355265606995e+17
19520.0	6.600065558773759e+17
19521.0	6.601409938762409e+17
19522.0	6.602136892036436e+17
19523.0	6.60328579928337e+17
19524.0	6.604097385223508e+17
19525.0	6.604802767192061e+17
19526.0	6.605618980148564e+17
19527.0	6.606221780626089e+17
19528.0	6.606973309026303e+17
19529.0	6.607927451669843e+17
19530.0	6.608523987954346e+17
19531.0	6.609056412205055e+17
19532.0	6.609497141280768e+17
19533.0	6.609932654739455e+17
19534.0	6.610296489639933e+17
19535.0	6.610501813403647e+17
19536.0	6.610689493827583e+17
19537.0	6.611170255437823e+17
19538.0	6.61072163757534e+17
19539.0	6.608428598296584e+17
19540.0	6.611726140527956e+17
19541.0	6.615265065653588e+17
19542.0	6.615311152665939e+17
19543.0	6.615332189197652e+17
19544.0	6.618420784485716e+17
19545.0	6.618209664892922e+17
19546.0	6.615885629008556e+17
19547.0	6.62108983472947e+17
19548.0	6.621572128658772e+17
19549.0	6.624888832567976e+17
19550.0	6.625360697360383e+17
19551.0	6.625125349370538e+17
19552.0	6.624838692459859e+17
19553.0	6.624500581225812e+17
19554.0	6.62789263650543e+17
19555.0	6.627688466175316e+17
19556.0	6.62739650416913e+17
19557.0	6.626983582629887e+17
19558.0	6.626551774139731e+17
19559.0	6.626845744518486e+17
19560.0	6.628600402236756e+17
19561.0	6.628101739337044e+17
19562.0	6.627730607046655e+17
19563.0	6.627262569556649e+17
19564.0	6.626696540542292e+17
19565.0	6.626136411515561e+17
19566.0	6.626324049996458e+17
19567.0	6.627390810401449e+17
19568.0	6.626569401401343e+17
19569.0	6.625995934487892e+17
19570.0	6.625500049615529e+17
19571.0	6.624835627821738e+17
19572.0	6.623917146548906e+17
19573.0	6.623391438777002e+17
19574.0	6.622138711321256e+17
19575.0	6.622729124620969e+17
19576.0	6.623141141588649e+17
19577.0	6.622271563104255e+17
19578.0	6.621406925509971e+17
19579.0	6.620714506037929e+17
19580.0	6.619961878031017e+17
19581.0	6.619275273961471e+17
19582.0	6.618591721248084e+17
19583.0	6.617793954141524e+17
19584.0	6.616962508171945e+17
19585.0	6.61538398745395e+17
19586.0	6.614378726031361e+17
19587.0	6.614377766933844e+17
19588.0	6.610986470124206e+17
19589.0	6.61385312870946e+17
19590.0	6.612611456740009e+17
19591.0	6.612272247996415e+17
19592.0	6.611440467181567e+17
19593.0	6.610420663407955e+17
19594.0	6.607990487165606e+17
19595.0	6.608560862177962e+17
19596.0	6.607017105948672e+17
19597.0	6.606848573920598e+17
19598.0	6.60393706284646e+17
19599.0	6.6050611754653e+17
19600.0	6.604192289041065e+17
19601.0	6.602816682459136e+17
19602.0	6.601920793105747e+17
19603.0	6.598708272212646e+17
19604.0	6.600033895972864e+17
19605.0	6.597434064328023e+17
19606.0	6.598465549937322e+17
19607.0	6.597520745212588e+17
19608.0	6.59649187754803e+17
19609.0	6.595362264798548e+17
19610.0	6.59546042339601e+17
19611.0	6.594412877796692e+17
19612.0	6.593530774421501e+17
19613.0	6.592508790308863e+17
19614.0	6.591298135916543e+17
19615.0	6.590566808682495e+17
19616.0	6.58941577142818e+17
19617.0	6.588492504454484e+17
19618.0	6.58386768660616e+17
19619.0	6.581941320373582e+17
19620.0	6.581280686036307e+17
19621.0	6.584360286639444e+17
19622.0	6.583449071998291e+17
19623.0	6.582444459294719e+17
19624.0	6.581342593264297e+17
19625.0	6.580373579016874e+17
19626.0	6.579240701700777e+17
19627.0	6.578249902238378e+17
19628.0	6.57674735784209e+17
19629.0	6.575368516752723e+17
19630.0	6.572834774056959e+17
19631.0	6.557732301002067e+17
19632.0	6.572640369464659e+17
19633.0	6.571654127113556e+17
19634.0	6.571103528943615e+17
19635.0	6.569783310942205e+17
19636.0	6.568915977109504e+17
19637.0	6.565207044259841e+17
19638.0	6.566780756907348e+17
19639.0	6.565706662062761e+17
19640.0	6.564113927547562e+17
19641.0	6.558953771805366e+17
19642.0	6.562473331829417e+17
19643.0	6.561543588151295e+17
19644.0	6.560525446720169e+17
19645.0	6.558191715702098e+17
19646.0	6.558798668540585e+17
19647.0	6.557748864308566e+17
19648.0	6.556627566067711e+17
19649.0	6.555516339049812e+17
19650.0	6.554465730210474e+17
19651.0	6.553394929991679e+17
19652.0	6.552696237938003e+17
19653.0	6.551645719276201e+17
19654.0	6.550478844329984e+17
19655.0	6.54933482344721e+17
19656.0	6.548294130641578e+17
19657.0	6.547177246206634e+17
19658.0	6.546108662677503e+17
19659.0	6.544984582214995e+17
19660.0	6.543913358371498e+17
19661.0	6.542766876830378e+17
19662.0	6.541968427450365e+17
19663.0	6.541203763189076e+17
19664.0	6.540286049473875e+17
19665.0	6.539279340317354e+17
