# Flux units: erg / (cm m2 s)
# Wavelength units: Angstrom
wave	flux
19000.0	5.461894101991423e+17
19001.0	5.4607169649814176e+17
19002.0	5.459897187565568e+17
19003.0	5.4588837150938445e+17
19004.0	5.45788884226321e+17
19005.0	5.4568533895413754e+17
19006.0	5.4558731632203085e+17
19007.0	5.454885382957739e+17
19008.0	5.453837492726441e+17
19009.0	5.452711642966698e+17
19010.0	5.4512651204908365e+17
19011.0	5.450834221465598e+17
19012.0	5.4486100435708563e+17
19013.0	5.448945090166783e+17
19014.0	5.4478973495323296e+17
19015.0	5.446908960396628e+17
19016.0	5.4459056325481805e+17
19017.0	5.4449815917253965e+17
19018.0	5.443939915355476e+17
19019.0	5.4429928303274656e+17
19020.0	5.4419926754699936e+17
19021.0	5.4410231390317216e+17
19022.0	5.440024503910399e+17
19023.0	5.438937810075647e+17
19024.0	5.4378822715310074e+17
19025.0	5.4369341134602234e+17
19026.0	5.435849448270505e+17
19027.0	5.434008969499988e+17
19028.0	5.43405036867857e+17
19029.0	5.433038928347135e+17
19030.0	5.432088471098708e+17
19031.0	5.431103290605567e+17
19032.0	5.430078707422549e+17
19033.0	5.4289335191251616e+17
19034.0	5.4279154063551136e+17
19035.0	5.425821594419199e+17
19036.0	5.3564900044526675e+17
19037.0	5.424168675835903e+17
19038.0	5.423961533841406e+17
19039.0	5.423115538530303e+17
19040.0	5.4221598146341536e+17
19041.0	5.42118130098722e+17
19042.0	5.416223084904441e+17
19043.0	5.4192623188268365e+17
19044.0	5.4182496188061e+17
19045.0	5.4172189021525325e+17
19046.0	5.4162161908667725e+17
19047.0	5.4152709974698656e+17
19048.0	5.413431886741502e+17
19049.0	5.4051768239827526e+17
19050.0	5.412068543605418e+17
19051.0	5.4008688962873894e+17
19052.0	5.4077977543748256e+17
19053.0	5.4092899332478285e+17
19054.0	5.4083923172392954e+17
19055.0	5.405955404944726e+17
19056.0	5.406034069815294e+17
19057.0	5.405462701451945e+17
19058.0	5.400348015460344e+17
19059.0	5.401930285886121e+17
19060.0	5.402486656816468e+17
19061.0	5.4015291433506125e+17
19062.0	5.400555492999167e+17
19063.0	5.3995736071318176e+17
19064.0	5.3984289668901536e+17
19065.0	5.397380423046485e+17
19066.0	5.395062768795649e+17
19067.0	5.395625478717439e+17
19068.0	5.394667788391764e+17
19069.0	5.393687557876393e+17
19070.0	5.3926656667374925e+17
19071.0	5.391668203924138e+17
19072.0	5.3891876918394854e+17
19073.0	5.3897568351245645e+17
19074.0	5.388782242452819e+17
19075.0	5.3878011779700045e+17
19076.0	5.38679555723537e+17
19077.0	5.3858126088110074e+17
19078.0	5.3847885268473165e+17
19079.0	5.383875612114943e+17
19080.0	5.38287891685922e+17
19081.0	5.381844223306409e+17
19082.0	5.380884902794579e+17
19083.0	5.3798241409433594e+17
19084.0	5.378685773982378e+17
19085.0	5.377940602748926e+17
19086.0	5.374265181689172e+17
19087.0	5.371183965579943e+17
19088.0	5.372472313861458e+17
19089.0	5.3730386917021005e+17
19090.0	5.37290282561263e+17
19091.0	5.3717159899736755e+17
19092.0	5.367573280107186e+17
19093.0	5.370135662209706e+17
19094.0	5.369194142324052e+17
19095.0	5.368224610779134e+17
19096.0	5.36722995745041e+17
19097.0	5.366271515645268e+17
19098.0	5.363596968766121e+17
19099.0	5.362290012454913e+17
19100.0	5.36320427565602e+17
19101.0	5.3623107414043296e+17
19102.0	5.361217665236991e+17
19103.0	5.3604075347203405e+17
19104.0	5.359440063976788e+17
19105.0	5.35474960736803e+17
19106.0	5.357169484496896e+17
19107.0	5.355504473735166e+17
19108.0	5.353988174118912e+17
19109.0	5.3507722138965286e+17
19110.0	5.353000756663636e+17
19111.0	5.351489817367891e+17
19112.0	5.350365031563261e+17
19113.0	5.350658865627135e+17
19114.0	5.348967254589438e+17
19115.0	5.3483619689867936e+17
19116.0	5.3477230331822074e+17
19117.0	5.346712813393236e+17
19118.0	5.345376645152768e+17
19119.0	5.3320010194834566e+17
19120.0	5.3431922544257683e+17
19121.0	5.342428533882878e+17
19122.0	5.341925768953855e+17
19123.0	5.340964992319488e+17
19124.0	5.339632834532691e+17
19125.0	5.339002297821866e+17
19126.0	5.33799892103987e+17
19127.0	5.334650152375636e+17
19128.0	5.335843280868692e+17
19129.0	5.335032689677653e+17
19130.0	5.334160874231125e+17
19131.0	5.333208122698409e+17
19132.0	5.332234846339072e+17
19133.0	5.3311805423179085e+17
19134.0	5.3302001146702496e+17
19135.0	5.329312628604928e+17
19136.0	5.328365859547817e+17
19137.0	5.3271870028731725e+17
19138.0	5.326406869319679e+17
19139.0	5.325467108245503e+17
19140.0	5.3245025930881696e+17
19141.0	5.323531897623891e+17
19142.0	5.3225161979767456e+17
19143.0	5.321523536942421e+17
19144.0	5.3205801778544634e+17
19145.0	5.319660659190441e+17
19146.0	5.317831034579627e+17
19147.0	5.317612045773481e+17
19148.0	5.3154079089623046e+17
19149.0	5.314217303343104e+17
19150.0	5.314827406802943e+17
19151.0	5.31386085740817e+17
19152.0	5.3128205008459085e+17
19153.0	5.309132550701051e+17
19154.0	5.310523690188799e+17
19155.0	5.3099535360764576e+17
19156.0	5.3089730699810125e+17
19157.0	5.30677150567629e+17
19158.0	5.3028585625791155e+17
19159.0	5.3058761720681805e+17
19160.0	5.305015089845588e+17
19161.0	5.303941273223167e+17
19162.0	5.2973404880022214e+17
19163.0	5.3013923443507194e+17
19164.0	5.3011876273629856e+17
19165.0	5.297158489462096e+17
19166.0	5.2990159299979936e+17
19167.0	5.29783650918946e+17
19168.0	5.297364810072064e+17
19169.0	5.2963860237953696e+17
19170.0	5.295500597832361e+17
19171.0	5.2942314349963936e+17
19172.0	5.2935050871002445e+17
19173.0	5.2926334876603725e+17
19174.0	5.2916326638114125e+17
19175.0	5.2907439502131194e+17
19176.0	5.2897859159545165e+17
19177.0	5.2885958486043296e+17
19178.0	5.2875671815673165e+17
19179.0	5.2864039899190605e+17
19180.0	5.285897294927189e+17
19181.0	5.284779178065918e+17
19182.0	5.283967289436841e+17
19183.0	5.283074660455764e+17
19184.0	5.2821181759924896e+17
19185.0	5.281134572557653e+17
19186.0	5.2801984213811194e+17
19187.0	5.279134778043049e+17
19188.0	5.278261333808468e+17
19189.0	5.2772921420021754e+17
19190.0	5.2762923681273165e+17
19191.0	5.275264175745706e+17
19192.0	5.2743868377989114e+17
19193.0	5.2730268717765965e+17
19194.0	5.271810477479253e+17
19195.0	5.2713692681557325e+17
19196.0	5.270238721474559e+17
19197.0	5.268919449288703e+17
19198.0	5.2663309513523194e+17
19199.0	5.228255339959629e+17
19200.0	5.2355806953909e+17
19201.0	5.2636936170373114e+17
19202.0	5.264202603517268e+17
19203.0	5.263455323947007e+17
19204.0	5.2627349277682336e+17
19205.0	5.2618977446898336e+17
19206.0	5.260980680392703e+17
19207.0	5.259904983323988e+17
19208.0	5.258798168014847e+17
19209.0	5.258170410729471e+17
19210.0	5.2572184358420474e+17
19211.0	5.256297150676991e+17
19212.0	5.255323759673343e+17
19213.0	5.253947816148991e+17
19214.0	5.252811722500778e+17
19215.0	5.252294471144788e+17
19216.0	5.251531295162367e+17
19217.0	5.250556571069098e+17
19218.0	5.248554396286974e+17
19219.0	5.248460684350804e+17
19220.0	5.247673939875157e+17
19221.0	5.246395755790335e+17
19222.0	5.245801333435049e+17
19223.0	5.244868794952362e+17
19224.0	5.243885947890346e+17
19225.0	5.2428130491214496e+17
19226.0	5.2420188380856314e+17
19227.0	5.2410770945037645e+17
19228.0	5.240159820491433e+17
19229.0	5.2392084495837856e+17
19230.0	5.2382424783039136e+17
19231.0	5.237287835839146e+17
19232.0	5.236342566245717e+17
19233.0	5.2353068171263994e+17
19234.0	5.2344315253009056e+17
19235.0	5.2334686214553594e+17
19236.0	5.232562688841045e+17
19237.0	5.231588540066474e+17
19238.0	5.230484918719828e+17
19239.0	5.2297163537558176e+17
19240.0	5.228768410992639e+17
19241.0	5.2277929696733856e+17
19242.0	5.2268579062196896e+17
19243.0	5.2257208157252256e+17
19244.0	5.2249855416511136e+17
19245.0	5.2240300596264954e+17
19246.0	5.2230697772209485e+17
19247.0	5.2221302713002656e+17
19248.0	5.221180881502207e+17
19249.0	5.2201293624989005e+17
19250.0	5.218689183907839e+17
19251.0	5.21763533566771e+17
19252.0	5.217025192361983e+17
19253.0	5.216425989199189e+17
19254.0	5.2155125382949536e+17
19255.0	5.21431637242675e+17
19256.0	5.213597272287913e+17
19257.0	5.21267830657297e+17
19258.0	5.2117327384849043e+17
19259.0	5.210666124181503e+17
19260.0	5.208017460352338e+17
19261.0	5.208863243152041e+17
19262.0	5.207824136492373e+17
19263.0	5.206850314873513e+17
19264.0	5.205293285769215e+17
19265.0	5.2048177446693536e+17
19266.0	5.2037158520750074e+17
19267.0	5.2032293519578445e+17
19268.0	5.2022785759423136e+17
19269.0	5.2013409239039994e+17
19270.0	5.2003822646941005e+17
19271.0	5.1989852063443616e+17
19272.0	5.198458114452138e+17
19273.0	5.1971654760966816e+17
19274.0	5.196027679561042e+17
19275.0	5.1956716963976525e+17
19276.0	5.194701612602709e+17
19277.0	5.193766359706283e+17
19278.0	5.192746151881385e+17
19279.0	5.191824673778346e+17
19280.0	5.1908247321313274e+17
19281.0	5.18995897885218e+17
19282.0	5.1890031025629856e+17
19283.0	5.1876624988460365e+17
19284.0	5.186955321016319e+17
19285.0	5.185964385938089e+17
19286.0	5.185125351074473e+17
19287.0	5.184007351653715e+17
19288.0	5.163357837459441e+17
19289.0	5.135763647758262e+17
19290.0	5.1811121634126496e+17
19291.0	5.1801259909666144e+17
19292.0	5.179596798427136e+17
19293.0	5.1786732210749434e+17
19294.0	5.177709208535039e+17
19295.0	5.176821512754515e+17
19296.0	5.174093765323438e+17
19297.0	5.1745532799877126e+17
19298.0	5.173963226699092e+17
19299.0	5.171026379232599e+17
19300.0	5.1720718619333965e+17
19301.0	5.171175140709717e+17
19302.0	5.1702203325699405e+17
19303.0	5.169164781442388e+17
19304.0	5.1683102849761274e+17
19305.0	5.167376151958868e+17
19306.0	5.166409563417258e+17
19307.0	5.165353950074196e+17
19308.0	5.1644072334458874e+17
19309.0	5.1621257718442656e+17
19310.0	5.160716454942035e+17
19311.0	5.161314879362389e+17
19312.0	5.1605853871363405e+17
19313.0	5.1592834556013216e+17
19314.0	5.031144984674294e+17
19315.0	5.0411615271869574e+17
19316.0	5.1539032100481734e+17
19317.0	5.155883400385876e+17
19318.0	5.1550591385599994e+17
19319.0	5.1541819858616314e+17
19320.0	5.15251931132723e+17
19321.0	5.150710058450943e+17
19322.0	5.151134157810346e+17
19323.0	5.1499205778909856e+17
19324.0	5.149275869325994e+17
19325.0	5.1473242345089696e+17
19326.0	5.1474574365163514e+17
19327.0	5.1466222764905805e+17
19328.0	5.142453756974423e+17
19329.0	5.1448204936697165e+17
19330.0	5.143829067158869e+17
19331.0	5.142871446039209e+17
19332.0	5.141981395856041e+17
19333.0	5.141003445643945e+17
19334.0	5.1400162022522886e+17
19335.0	5.1324872245466534e+17
19336.0	5.138126467672747e+17
19337.0	5.1372688282746874e+17
19338.0	5.1360405948552525e+17
19339.0	5.13535761256721e+17
19340.0	5.1341214253492896e+17
19341.0	5.130972709606744e+17
19342.0	5.1312139142430726e+17
19343.0	5.1315664566790816e+17
19344.0	5.128181662438745e+17
19345.0	5.125734844596221e+17
19346.0	5.12737060917521e+17
19347.0	5.12457492730129e+17
19348.0	5.126825399986857e+17
19349.0	5.1258126580230816e+17
19350.0	5.1236929469590176e+17
19351.0	5.123880946150058e+17
19352.0	5.1195857250986605e+17
19353.0	5.1220629635290445e+17
19354.0	5.121111587028991e+17
19355.0	5.1200043264245754e+17
19356.0	5.119170312841898e+17
19357.0	5.118219754231124e+17
19358.0	5.117229518203561e+17
19359.0	5.115473990167207e+17
19360.0	5.1126930911177376e+17
19361.0	5.114292707786751e+17
19362.0	5.113385322545151e+17
19363.0	5.112420269817855e+17
19364.0	5.111445368864767e+17
19365.0	5.110467800334335e+17
19366.0	5.1095026448465914e+17
19367.0	5.1085120774690125e+17
19368.0	5.107550227092822e+17
19369.0	5.106466003703124e+17
19370.0	5.105510992838656e+17
19371.0	5.104527373325653e+17
19372.0	5.103600662129322e+17
19373.0	5.1025794917116576e+17
19374.0	5.1016141964137805e+17
19375.0	5.1005835853168634e+17
19376.0	5.099598326530047e+17
19377.0	5.098580169719806e+17
19378.0	5.097577124986879e+17
19379.0	5.0965694588299936e+17
19380.0	5.0955409378945696e+17
19381.0	5.094527721974443e+17
19382.0	5.0934042140344314e+17
19383.0	5.092339455710547e+17
19384.0	5.091408952863402e+17
19385.0	5.0903351173666125e+17
19386.0	5.0892850467962874e+17
19387.0	5.0882065514277536e+17
19388.0	5.0871195199515296e+17
19389.0	5.0859660451075405e+17
19390.0	5.0844202308730874e+17
19391.0	5.019839906534654e+17
19392.0	5.079899563884539e+17
19393.0	5.0814143857076896e+17
19394.0	5.0804108607269536e+17
19395.0	5.0783304349122566e+17
19396.0	5.077829862905174e+17
19397.0	5.0769976612618234e+17
19398.0	5.074885804731051e+17
19399.0	5.07245466100258e+17
19400.0	5.072432782114816e+17
19401.0	5.0720904660910074e+17
19402.0	5.0708155738357754e+17
19403.0	5.06950536274466e+17
19404.0	5.0682576565698554e+17
19405.0	5.066932049586858e+17
19406.0	5.065610233555626e+17
19407.0	5.063067333995176e+17
19408.0	5.0616920259078835e+17
19409.0	5.061317938031274e+17
19410.0	5.059932191020372e+17
19411.0	5.058455534567423e+17
19412.0	5.0568827502591994e+17
19413.0	5.054034791978325e+17
19414.0	5.0535234448042656e+17
19415.0	5.0518303615658656e+17
19416.0	5.04939280544563e+17
19417.0	5.04731288085026e+17
19418.0	5.046070688787115e+17
19419.0	5.043892866340181e+17
19420.0	5.04170291606323e+17
19421.0	5.03925488816401e+17
19422.0	5.036517250564094e+17
19423.0	5.033806332777812e+17
19424.0	5.0306597791989754e+17
19425.0	5.027101596625577e+17
19426.0	5.023137707414868e+17
19427.0	5.01925071168034e+17
19428.0	5.015795094519807e+17
19429.0	5.01190178705681e+17
19430.0	5.0055267406752454e+17
19431.0	4.991380363411469e+17
19432.0	4.9981494534690125e+17
19433.0	4.99243044306944e+17
19434.0	4.985720745055571e+17
19435.0	4.975334510996136e+17
19436.0	4.9617022701185645e+17
19437.0	4.954542644920316e+17
19438.0	4.820958463743327e+17
19439.0	4.92106789071531e+17
19440.0	4.915590547723602e+17
19441.0	4.900862879072254e+17
19442.0	4.8812535173174624e+17
19443.0	4.854757150337711e+17
19444.0	4.817852014002182e+17
19445.0	4.771050622899544e+17
19446.0	4.728110589848237e+17
19447.0	4.6686115683368877e+17
19448.0	4.574255442296824e+17
19449.0	4.426942059817645e+17
19450.0	4.1175940379006054e+17
19451.0	3.893765148246056e+17
19452.0	4.309574577640782e+17
19453.0	4.508380052499123e+17
19454.0	4.62302935934566e+17
19455.0	4.695826607636481e+17
19456.0	4.741348047454207e+17
19457.0	4.783830816784379e+17
19458.0	4.4942903444772416e+17
19459.0	4.8422471157678874e+17
19460.0	4.875696643331409e+17
19461.0	4.891876531721555e+17
19462.0	4.9038348615243085e+17
19463.0	4.913749841062568e+17
19464.0	4.926175304482815e+17
19465.0	4.9376667257623885e+17
19466.0	4.946662016068266e+17
19467.0	4.953682500823722e+17
19468.0	4.959203320572585e+17
19469.0	4.960924360944294e+17
19470.0	4.9670177122768205e+17
19471.0	4.9700789425274874e+17
19472.0	4.972388303241214e+17
19473.0	4.974567179856553e+17
19474.0	4.974023785403729e+17
19475.0	4.976879060647935e+17
19476.0	4.9801751146004474e+17
19477.0	4.982169271271423e+17
19478.0	4.983682311913472e+17
19479.0	4.9824929205452755e+17
19480.0	4.985736621195262e+17
19481.0	4.986301179407017e+17
19482.0	4.986980882448383e+17
19483.0	4.9873001102267725e+17
19484.0	4.987610697039872e+17
19485.0	4.9876088613328205e+17
19486.0	4.98532201494392e+17
19487.0	4.9877332105625594e+17
19488.0	4.987596107153407e+17
19489.0	4.987163965915135e+17
19490.0	4.985133329285117e+17
19491.0	4.9868624311091194e+17
19492.0	4.98658598662963e+17
19493.0	4.986197134103892e+17
19494.0	4.9857529978552314e+17
19495.0	4.985268508207785e+17
19496.0	4.984066801663998e+17
19497.0	4.9838573136554656e+17
19498.0	4.9738787526628736e+17
19499.0	4.883517699085593e+17
19500.0	4.981902519828479e+17
19501.0	4.9820131998214816e+17
19502.0	4.9815153883654816e+17
19503.0	4.981126012949845e+17
19504.0	4.9805091028336634e+17
19505.0	4.9797960886299296e+17
19506.0	4.9792334052720634e+17
19507.0	4.978579615339861e+17
19508.0	4.977859591056043e+17
19509.0	4.976965580051798e+17
19510.0	4.974651715354623e+17
19511.0	4.7529648903070586e+17
19512.0	4.957060203195019e+17
19513.0	4.944637993855615e+17
19514.0	4.951526052549948e+17
19515.0	4.9714125186880864e+17
19516.0	4.9716914692642125e+17
19517.0	4.9712228229010765e+17
19518.0	4.9699514370839866e+17
19519.0	4.96913252229666e+17
19520.0	4.966727906142888e+17
19521.0	4.96838364958993e+17
19522.0	4.9671980058323616e+17
19523.0	4.9661612284095155e+17
19524.0	4.964201321725955e+17
19525.0	4.965140656379221e+17
19526.0	4.964413851303936e+17
19527.0	4.9635913734553594e+17
19528.0	4.962598950797311e+17
19529.0	4.961680195496619e+17
19530.0	4.9611917995540474e+17
19531.0	4.9603702206846285e+17
19532.0	4.9595460644154016e+17
19533.0	4.9587192950947834e+17
19534.0	4.9578963698537805e+17
19535.0	4.9570466094557856e+17
19536.0	4.956183242735615e+17
19537.0	4.955364784428372e+17
19538.0	4.952135646401879e+17
19539.0	4.952944661932716e+17
19540.0	4.9528329522380794e+17
19541.0	4.9515083141393056e+17
19542.0	4.950959151819433e+17
19543.0	4.947944869112492e+17
19544.0	4.949336756584447e+17
19545.0	4.947886050989395e+17
19546.0	4.9465311349090976e+17
19547.0	4.94695138389743e+17
19548.0	4.946112174271146e+17
19549.0	4.945132864405502e+17
19550.0	4.9444149100107085e+17
19551.0	4.943565427834878e+17
19552.0	4.9427098114894496e+17
19553.0	4.94182257009186e+17
19554.0	4.9409494152642554e+17
19555.0	4.939870297041579e+17
19556.0	4.939109030865577e+17
19557.0	4.9384215935276365e+17
19558.0	4.937586548146175e+17
19559.0	4.9367425702952954e+17
19560.0	4.9349970428777786e+17
19561.0	4.9349860342278816e+17
19562.0	4.93330338292258e+17
19563.0	4.9333071263389e+17
19564.0	4.932446193014102e+17
19565.0	4.931580592128e+17
19566.0	4.9306819827684685e+17
19567.0	4.929858231249579e+17
19568.0	4.928967848318293e+17
19569.0	4.928104536823125e+17
19570.0	4.9272448575952205e+17
19571.0	4.926387103552851e+17
19572.0	4.925496222198443e+17
19573.0	4.924362960404479e+17
19574.0	4.9235858817023974e+17
19575.0	4.9229490884881056e+17
19576.0	4.921928558400853e+17
19577.0	4.92076270616576e+17
19578.0	4.9202969867277645e+17
19579.0	4.919453668780715e+17
19580.0	4.9185908382324045e+17
19581.0	4.9177386164770125e+17
19582.0	4.9168965826860365e+17
19583.0	4.916030332381867e+17
19584.0	4.915133585293311e+17
19585.0	4.914133765281108e+17
19586.0	4.913183184300715e+17
19587.0	4.9123265697109325e+17
19588.0	4.9110345695887354e+17
19589.0	4.9107846331105274e+17
19590.0	4.909743345412778e+17
19591.0	4.909082393007444e+17
19592.0	4.90822888919313e+17
19593.0	4.9071138880006816e+17
19594.0	4.905939826813609e+17
19595.0	4.905599171734187e+17
19596.0	4.9043351455225165e+17
19597.0	4.903876484399103e+17
19598.0	4.9022671537220256e+17
19599.0	4.9021513357066234e+17
19600.0	4.9013018018010445e+17
19601.0	4.9003401974906874e+17
19602.0	4.899457208418303e+17
19603.0	4.89755897967411e+17
19604.0	4.8976274579783674e+17
19605.0	4.896551858077696e+17
19606.0	4.896090140704766e+17
19607.0	4.8952398644073805e+17
19608.0	4.894351784148992e+17
19609.0	4.893437883755178e+17
19610.0	4.891488603340801e+17
19611.0	4.89010363297519e+17
19612.0	4.8909107086404256e+17
19613.0	4.8900297915542176e+17
19614.0	4.8891228502097914e+17
19615.0	4.8882792952845645e+17
19616.0	4.8857171291886944e+17
19617.0	4.8848674121318406e+17
19618.0	4.88474178503748e+17
19619.0	4.883483018483028e+17
19620.0	4.8823816508757306e+17
19621.0	4.880715350365524e+17
19622.0	4.8822342937914016e+17
19623.0	4.881239980900351e+17
19624.0	4.880122047190358e+17
19625.0	4.879610098832724e+17
19626.0	4.878708054338217e+17
19627.0	4.8777363927859194e+17
19628.0	4.8758538507386886e+17
19629.0	4.86968413021798e+17
19630.0	4.868421644713982e+17
19631.0	4.8341617007220077e+17
19632.0	4.8724147598349645e+17
19633.0	4.872215322776917e+17
19634.0	4.871733305671678e+17
19635.0	4.8705951295515283e+17
19636.0	4.867414870545746e+17
19637.0	4.866238918426621e+17
19638.0	4.86817411716437e+17
19639.0	4.86752419647761e+17
19640.0	4.866522795911851e+17
19641.0	4.8638914566553645e+17
19642.0	4.8647610987533645e+17
19643.0	4.8638915489300486e+17
19644.0	4.8631453158386336e+17
19645.0	4.862004895765844e+17
19646.0	4.858648571762e+17
19647.0	4.8606132886132045e+17
19648.0	4.859802173134164e+17
19649.0	4.8589371958012576e+17
19650.0	4.858083652141056e+17
19651.0	4.857216795759955e+17
19652.0	4.856354280483498e+17
19653.0	4.855471224302249e+17
19654.0	4.8546320678038176e+17
19655.0	4.8537626018665805e+17
19656.0	4.8529124548935674e+17
