# Flux units: erg / (cm m2 s)
# Wavelength units: Angstrom
wave	flux
19000.0	6.773584847088298e+17
19001.0	6.771781470431914e+17
19002.0	6.77109349552401e+17
19003.0	6.769812246801066e+17
19004.0	6.768549978701823e+17
19005.0	6.76728656625664e+17
19006.0	6.766030602895359e+17
19007.0	6.76455837143313e+17
19008.0	6.763172657277609e+17
19009.0	6.761527223429801e+17
19010.0	6.758589642659154e+17
19011.0	6.759490253400746e+17
19012.0	6.757513489809407e+17
19013.0	6.75719566991906e+17
19014.0	6.755607703628457e+17
19015.0	6.754481320493056e+17
19016.0	6.753148602067625e+17
19017.0	6.752029886119935e+17
19018.0	6.750814766191955e+17
19019.0	6.749570046361599e+17
19020.0	6.748229152538623e+17
19021.0	6.747086842232831e+17
19022.0	6.745841394690729e+17
19023.0	6.744381348380671e+17
19024.0	6.743233452660052e+17
19025.0	6.741994605554344e+17
19026.0	6.74062893388049e+17
19027.0	6.738957445016233e+17
19028.0	6.738291640500223e+17
19029.0	6.736936820888916e+17
19030.0	6.735826885716649e+17
19031.0	6.734603536564223e+17
19032.0	6.733323688738813e+17
19033.0	6.731538177720319e+17
19034.0	6.730715467786922e+17
19035.0	6.729217519648765e+17
19036.0	6.683178460075355e+17
19037.0	6.72691875025169e+17
19038.0	6.725629224768852e+17
19039.0	6.72448562541363e+17
19040.0	6.723252893603156e+17
19041.0	6.721929071995561e+17
19042.0	6.720208590864383e+17
19043.0	6.719458019464532e+17
19044.0	6.718142155849727e+17
19045.0	6.716931133057705e+17
19046.0	6.715327375212543e+17
19047.0	6.714239225255252e+17
19048.0	6.712033752558249e+17
19049.0	6.711465355859284e+17
19050.0	6.710357083728553e+17
19051.0	6.702768578363387e+17
19052.0	6.706333340401661e+17
19053.0	6.706797275163305e+17
19054.0	6.70553967043106e+17
19055.0	6.702865698870615e+17
19056.0	6.702930007337641e+17
19057.0	6.701760779386877e+17
19058.0	6.700415303286783e+17
19059.0	6.699262040255146e+17
19060.0	6.697911632352595e+17
19061.0	6.696782033584127e+17
19062.0	6.695488552173565e+17
19063.0	6.694242715959295e+17
19064.0	6.692225131304276e+17
19065.0	6.690716993104553e+17
19066.0	6.690154420895743e+17
19067.0	6.689113489014784e+17
19068.0	6.687935178997759e+17
19069.0	6.686688487145471e+17
19070.0	6.685271361148244e+17
19071.0	6.684135549217449e+17
19072.0	6.682901078867967e+17
19073.0	6.681618702576297e+17
19074.0	6.680410584339796e+17
19075.0	6.679152086220799e+17
19076.0	6.6777813366429e+17
19077.0	6.676536709087231e+17
19078.0	6.675130013625001e+17
19079.0	6.674079226527743e+17
19080.0	6.672738712289279e+17
19081.0	6.671370144448511e+17
19082.0	6.670078911184895e+17
19083.0	6.668418277179391e+17
19084.0	6.666458283114496e+17
19085.0	6.666468607393792e+17
19086.0	6.663148612354048e+17
19087.0	6.662561814544384e+17
19088.0	6.662182931879252e+17
19089.0	6.659833094034772e+17
19090.0	6.660066171508052e+17
19091.0	6.658805879625046e+17
19092.0	6.657118437725524e+17
19093.0	6.656457084065108e+17
19094.0	6.655210172011862e+17
19095.0	6.653963894696617e+17
19096.0	6.652619072208895e+17
19097.0	6.651429801077417e+17
19098.0	6.650163626683049e+17
19099.0	6.648895487257258e+17
19100.0	6.647580577147561e+17
19101.0	6.646355275546623e+17
19102.0	6.644613269247315e+17
19103.0	6.643869267525631e+17
19104.0	6.642652139225087e+17
19105.0	6.641355763744765e+17
19106.0	6.639874523616596e+17
19107.0	6.638774084348585e+17
19108.0	6.637686490136575e+17
19109.0	6.632603695535441e+17
19110.0	6.634941028062547e+17
19111.0	6.633910999274835e+17
19112.0	6.632666573045759e+17
19113.0	6.631406299338068e+17
19114.0	6.630123045038761e+17
19115.0	6.628555434404522e+17
19116.0	6.627512127149395e+17
19117.0	6.62621516935987e+17
19118.0	6.624386150825984e+17
19119.0	6.602111931733311e+17
19120.0	6.622157828958889e+17
19121.0	6.621058044002304e+17
19122.0	6.620109458112511e+17
19123.0	6.618832433053695e+17
19124.0	6.617376353157119e+17
19125.0	6.616269275004927e+17
19126.0	6.615039249219583e+17
19127.0	6.603910166173014e+17
19128.0	6.610885268559186e+17
19129.0	6.61086904918562e+17
19130.0	6.609903553959251e+17
19131.0	6.608727615821139e+17
19132.0	6.607512288974164e+17
19133.0	6.605030080992598e+17
19134.0	6.604312094441472e+17
19135.0	6.603732727540394e+17
19136.0	6.602525411115007e+17
19137.0	6.600369803100159e+17
19138.0	6.59984689083187e+17
19139.0	6.598744095064063e+17
19140.0	6.597508209836031e+17
19141.0	6.596247743889407e+17
19142.0	6.594847346873683e+17
19143.0	6.593422794861226e+17
19144.0	6.592230892503039e+17
19145.0	6.591187019016873e+17
19146.0	6.58670594416094e+17
19147.0	6.588004714588842e+17
19148.0	6.587421761557844e+17
19149.0	6.586149824888831e+17
19150.0	6.584893119834794e+17
19151.0	6.583663469439657e+17
19152.0	6.582356995473407e+17
19153.0	6.58107750556194e+17
19154.0	6.579202983723007e+17
19155.0	6.578665517918889e+17
19156.0	6.577406621341012e+17
19157.0	6.576045312442367e+17
19158.0	6.572193734808914e+17
19159.0	6.573532862130857e+17
19160.0	6.572271171447465e+17
19161.0	6.570975333537108e+17
19162.0	6.563912371666948e+17
19163.0	6.568258613630292e+17
19164.0	6.567379281291946e+17
19165.0	6.565957308776447e+17
19166.0	6.564106415549098e+17
19167.0	6.563044407989588e+17
19168.0	6.562127244427263e+17
19169.0	6.560862385646249e+17
19170.0	6.559848698565972e+17
19171.0	6.558221571457023e+17
19172.0	6.557283959963645e+17
19173.0	6.556077899732308e+17
19174.0	6.554502394718889e+17
19175.0	6.55358262649378e+17
19176.0	6.552311503519743e+17
19177.0	6.550208222243498e+17
19178.0	6.549640169477459e+17
19179.0	6.548074324645206e+17
19180.0	6.547142289478996e+17
19181.0	6.545481924607999e+17
19182.0	6.544587043984723e+17
19183.0	6.543524026297001e+17
19184.0	6.542086465650687e+17
19185.0	6.540953442233002e+17
19186.0	6.539771299321172e+17
19187.0	6.53808597274897e+17
19188.0	6.537226043260927e+17
19189.0	6.535950305154388e+17
19190.0	6.534667900201642e+17
19191.0	6.533279308753578e+17
19192.0	6.532227282938538e+17
19193.0	6.530892465963007e+17
19194.0	6.529603588500138e+17
19195.0	6.528436152915284e+17
19196.0	6.527097990283264e+17
19197.0	6.525857313062911e+17
19198.0	6.524500986298368e+17
19199.0	6.488875575454367e+17
19200.0	6.496840926451043e+17
19201.0	6.520761726533631e+17
19202.0	6.519636248668841e+17
19203.0	6.51831838716723e+17
19204.0	6.51700609360418e+17
19205.0	6.515820860189354e+17
19206.0	6.51450598433314e+17
19207.0	6.51268931662643e+17
19208.0	6.511046235084115e+17
19209.0	6.510781519975764e+17
19210.0	6.509547029353812e+17
19211.0	6.508361261864276e+17
19212.0	6.507088846345556e+17
19213.0	6.505145719674195e+17
19214.0	6.503533684370092e+17
19215.0	6.503174059152726e+17
19216.0	6.502040027004927e+17
19217.0	6.50075804148258e+17
19218.0	6.494835320728228e+17
19219.0	6.497397777629183e+17
19220.0	6.496864475370836e+17
19221.0	6.493958448349184e+17
19222.0	6.494362394077866e+17
19223.0	6.493089411629056e+17
19224.0	6.491659175635625e+17
19225.0	6.489823075718483e+17
19226.0	6.489295182015146e+17
19227.0	6.488028460963156e+17
19228.0	6.486895750021119e+17
19229.0	6.485628988424191e+17
19230.0	6.48426958164241e+17
19231.0	6.483000354493779e+17
19232.0	6.481750862244522e+17
19233.0	6.480167256631978e+17
19234.0	6.479156567780009e+17
19235.0	6.477832716113236e+17
19236.0	6.476766686216192e+17
19237.0	6.475392909748905e+17
19238.0	6.473688008359935e+17
19239.0	6.472957179549012e+17
19240.0	6.471316180478633e+17
19241.0	6.470158859457876e+17
19242.0	6.469000178783572e+17
19243.0	6.466921915831635e+17
19244.0	6.466608821523796e+17
19245.0	6.465306597086548e+17
19246.0	6.46395374740002e+17
19247.0	6.462719937653417e+17
19248.0	6.461502308133546e+17
19249.0	6.460194639489706e+17
19250.0	6.458839824072704e+17
19251.0	6.456801806865748e+17
19252.0	6.454901373315753e+17
19253.0	6.45497458069777e+17
19254.0	6.453773100646397e+17
19255.0	6.451595123709267e+17
19256.0	6.450902818881533e+17
19257.0	6.449959818406569e+17
19258.0	6.448686199821652e+17
19259.0	6.447035616766634e+17
19260.0	6.445181565228371e+17
19261.0	6.444736235700221e+17
19262.0	6.443207402105514e+17
19263.0	6.44180699390498e+17
19264.0	6.437966295597051e+17
19265.0	6.438534492367529e+17
19266.0	6.437387529879552e+17
19267.0	6.437078652245332e+17
19268.0	6.43574082445858e+17
19269.0	6.434439024345087e+17
19270.0	6.43314028187921e+17
19271.0	6.429967390168407e+17
19272.0	6.430348795008339e+17
19273.0	6.418031256622413e+17
19274.0	6.420602641798477e+17
19275.0	6.426651680309247e+17
19276.0	6.42523455361297e+17
19277.0	6.423938656982356e+17
19278.0	6.422641779583657e+17
19279.0	6.421161982296063e+17
19280.0	6.419545423435094e+17
19281.0	6.418657974419455e+17
19282.0	6.417440110717609e+17
19283.0	6.415553772825257e+17
19284.0	6.414127662628863e+17
19285.0	6.412348029228371e+17
19286.0	6.411933635488426e+17
19287.0	6.410810442121215e+17
19288.0	6.394910078227779e+17
19289.0	6.380922608462478e+17
19290.0	6.406822920803668e+17
19291.0	6.404014176468993e+17
19292.0	6.404121689063423e+17
19293.0	6.402760352901801e+17
19294.0	6.401397850723667e+17
19295.0	6.400108506294954e+17
19296.0	6.398712272125951e+17
19297.0	6.397223320769876e+17
19298.0	6.395873089028095e+17
19299.0	6.394657734918144e+17
19300.0	6.393283785785343e+17
19301.0	6.39190004994321e+17
19302.0	6.390422633622185e+17
19303.0	6.388767890516649e+17
19304.0	6.387570915147776e+17
19305.0	6.386300905062397e+17
19306.0	6.384959235293183e+17
19307.0	6.383326802389673e+17
19308.0	6.382016500421971e+17
19309.0	6.379483323957247e+17
19310.0	6.377625422746963e+17
19311.0	6.377670849855487e+17
19312.0	6.376552628136618e+17
19313.0	6.375149302098602e+17
19314.0	6.340380508640628e+17
19315.0	6.34018887997851e+17
19316.0	6.370802828749481e+17
19317.0	6.369472057879209e+17
19318.0	6.36801485181201e+17
19319.0	6.36664264401442e+17
19320.0	6.365198580099753e+17
19321.0	6.363749178933245e+17
19322.0	6.3617099118237e+17
19323.0	6.36025567252753e+17
19324.0	6.359295662751744e+17
19325.0	6.356710671952553e+17
19326.0	6.356358534965929e+17
19327.0	6.354828478032553e+17
19328.0	6.35340014765124e+17
19329.0	6.351922167196329e+17
19330.0	6.350194218805929e+17
19331.0	6.34863491429171e+17
19332.0	6.347306276225023e+17
19333.0	6.345708464504831e+17
19334.0	6.344242820197033e+17
19335.0	6.342676497214121e+17
19336.0	6.341117652675242e+17
19337.0	6.339552181835091e+17
19338.0	6.336805264337576e+17
19339.0	6.336381647323133e+17
19340.0	6.334372141596672e+17
19341.0	6.332949219071316e+17
19342.0	6.329366611667622e+17
19343.0	6.329894889149779e+17
19344.0	6.328203149486762e+17
19345.0	6.316619036884979e+17
19346.0	6.319379421593592e+17
19347.0	6.322886920896511e+17
19348.0	6.321597512155135e+17
19349.0	6.319691561697279e+17
19350.0	6.318007931721043e+17
19351.0	6.31623792215108e+17
19352.0	6.31427064537634e+17
19353.0	6.312922301770409e+17
19354.0	6.310742861021183e+17
19355.0	6.30840071622929e+17
19356.0	6.307136835420159e+17
19357.0	6.305300356617556e+17
19358.0	6.30330573857314e+17
19359.0	6.300986819739647e+17
19360.0	6.299442272185001e+17
19361.0	6.297620226681513e+17
19362.0	6.295921615350441e+17
19363.0	6.293974904646313e+17
19364.0	6.292003740450813e+17
19365.0	6.290000172460713e+17
19366.0	6.28801264558626e+17
19367.0	6.285997512501929e+17
19368.0	6.283958749407914e+17
19369.0	6.28138074981444e+17
19370.0	6.2785281603229e+17
19371.0	6.277376210807466e+17
19372.0	6.275502113292285e+17
19373.0	6.273193166416553e+17
19374.0	6.271082554195968e+17
19375.0	6.268870800528724e+17
19376.0	6.266617492493652e+17
19377.0	6.264254427911508e+17
19378.0	6.261942250722644e+17
19379.0	6.259590660358144e+17
19380.0	6.257179852013567e+17
19381.0	6.254657754103807e+17
19382.0	6.251097032578388e+17
19383.0	6.248339181229396e+17
19384.0	6.246392973841747e+17
19385.0	6.2438300450816e+17
19386.0	6.241216683311104e+17
19387.0	6.238526131666943e+17
19388.0	6.235786642281812e+17
19389.0	6.233048322408447e+17
19390.0	6.230210597530282e+17
19391.0	6.189860851285975e+17
19392.0	6.221922341049677e+17
19393.0	6.220228869139112e+17
19394.0	6.217118767557289e+17
19395.0	6.213963111639721e+17
19396.0	6.210809523514025e+17
19397.0	6.207649246871551e+17
19398.0	6.203840312027818e+17
19399.0	6.195550983902548e+17
19400.0	6.195115336925183e+17
19401.0	6.192069404699305e+17
19402.0	6.188327364810066e+17
19403.0	6.182408392365396e+17
19404.0	6.178642967833257e+17
19405.0	6.174573003276288e+17
19406.0	6.167701481324543e+17
19407.0	6.163538513668778e+17
19408.0	6.152923485918552e+17
19409.0	6.150799280657748e+17
19410.0	6.14326707683328e+17
19411.0	6.136385396976301e+17
19412.0	6.12654061330978e+17
19413.0	6.116691950611112e+17
19414.0	6.105170287001596e+17
19415.0	6.092200095339858e+17
19416.0	6.077856490717183e+17
19417.0	6.068749359295146e+17
19418.0	6.061499637650772e+17
19419.0	6.053309781639167e+17
19420.0	6.04484975792401e+17
19421.0	6.035940703207423e+17
19422.0	6.026487626989567e+17
19423.0	6.016963104997375e+17
19424.0	6.00666692264482e+17
19425.0	5.995696998055935e+17
19426.0	5.984596544629418e+17
19427.0	5.972840973773482e+17
19428.0	5.959825436792148e+17
19429.0	5.946986320625664e+17
19430.0	5.931118719139841e+17
19431.0	5.910638391984133e+17
19432.0	5.900173848870911e+17
19433.0	5.879721434808323e+17
19434.0	5.854701407611557e+17
19435.0	5.820855012906317e+17
19436.0	5.775118465411758e+17
19437.0	5.74153111511586e+17
19438.0	5.665904440377364e+17
19439.0	5.675659672158206e+17
19440.0	5.64600456225314e+17
19441.0	5.609042664401576e+17
19442.0	5.5666311702773786e+17
19443.0	5.513985838634326e+17
19444.0	5.436273353992859e+17
19445.0	5.348339587481599e+17
19446.0	5.266400908847785e+17
19447.0	5.160754807657806e+17
19448.0	5.006940530103651e+17
19449.0	4.7968381846596256e+17
19450.0	4.4237058348154323e+17
19451.0	4.315751980728319e+17
19452.0	4.6211956557742163e+17
19453.0	4.91446901879604e+17
19454.0	5.087228041975117e+17
19455.0	5.2120675732684826e+17
19456.0	5.3012434451606214e+17
19457.0	5.3796944474712685e+17
19458.0	5.4140731315104826e+17
19459.0	5.521658748775105e+17
19460.0	5.571629795682982e+17
19461.0	5.6089300766993043e+17
19462.0	5.641809368361644e+17
19463.0	5.6721857922990054e+17
19464.0	5.701139467075583e+17
19465.0	5.7286996095139834e+17
19466.0	5.770839816754511e+17
19467.0	5.806592260483749e+17
19468.0	5.832991911706633e+17
19469.0	5.850825862326948e+17
19470.0	5.869020862829911e+17
19471.0	5.883100397568e+17
19472.0	5.895320656063146e+17
19473.0	5.906682868312746e+17
19474.0	5.917553344555689e+17
19475.0	5.923818609224358e+17
19476.0	5.936276135302484e+17
19477.0	5.945280660766719e+17
19478.0	5.953872823233193e+17
19479.0	5.961419430297599e+17
19480.0	5.968459474490708e+17
19481.0	5.975280039843156e+17
19482.0	5.9817238462464e+17
19483.0	5.987876226116266e+17
19484.0	5.993422116618239e+17
19485.0	5.998547612729344e+17
19486.0	6.008067237871617e+17
19487.0	6.019922851965609e+17
19488.0	6.030192687797588e+17
19489.0	6.037245433741308e+17
19490.0	6.038040005487273e+17
19491.0	6.050324777271295e+17
19492.0	6.056322434159954e+17
19493.0	6.05966076879394e+17
19494.0	6.064707892936707e+17
19495.0	6.067167448181418e+17
19496.0	6.068228500138662e+17
19497.0	6.073327857347242e+17
19498.0	6.0664765288721e+17
19499.0	6.021182308483073e+17
19500.0	6.080047169404927e+17
19501.0	6.0813297057792e+17
19502.0	6.082497864182441e+17
19503.0	6.083803135781548e+17
19504.0	6.086304379611817e+17
19505.0	6.087259627454463e+17
19506.0	6.088195408833194e+17
19507.0	6.088891949208916e+17
19508.0	6.089752841988777e+17
19509.0	6.09041527218722e+17
19510.0	6.090839019225085e+17
19511.0	6.026624097757853e+17
19512.0	6.081633201422336e+17
19513.0	6.07544061914861e+17
19514.0	6.080414959534063e+17
19515.0	6.091776901251073e+17
19516.0	6.094687699992573e+17
19517.0	6.094775940459177e+17
19518.0	6.095312936501247e+17
19519.0	6.095456502633812e+17
19520.0	6.095474422098601e+17
19521.0	6.096082819874815e+17
19522.0	6.096368994440534e+17
19523.0	6.096618880587092e+17
19524.0	6.096612951239337e+17
19525.0	6.096477730373631e+17
19526.0	6.096514111766527e+17
19527.0	6.096376694483625e+17
19528.0	6.096254406055252e+17
19529.0	6.09607345119778e+17
19530.0	6.095955867380393e+17
19531.0	6.095774687428607e+17
19532.0	6.095519691920724e+17
19533.0	6.095283372250452e+17
19534.0	6.094962629629267e+17
19535.0	6.09457094664738e+17
19536.0	6.09411545711684e+17
19537.0	6.093969517707263e+17
19538.0	6.092740757203628e+17
19539.0	6.090490295003822e+17
19540.0	6.092637552159402e+17
19541.0	6.092343616733183e+17
19542.0	6.091867521286143e+17
19543.0	6.091370877943807e+17
19544.0	6.09091002110225e+17
19545.0	6.087458773707434e+17
19546.0	6.085296096193194e+17
19547.0	6.08935172252194e+17
19548.0	6.088753361715199e+17
19549.0	6.087682235738793e+17
19550.0	6.087623400139434e+17
19551.0	6.087035319571795e+17
19552.0	6.08640966852608e+17
19553.0	6.08562574262272e+17
19554.0	6.085172899698003e+17
19555.0	6.084789925489321e+17
19556.0	6.084190602089812e+17
19557.0	6.083495703784106e+17
19558.0	6.082793480126463e+17
19559.0	6.082065597814102e+17
19560.0	6.081243287737684e+17
19561.0	6.080508934313299e+17
19562.0	6.079894607888383e+17
19563.0	6.079190419898367e+17
19564.0	6.078423764041727e+17
19565.0	6.077658031631018e+17
19566.0	6.076715921047551e+17
19567.0	6.076099349271892e+17
19568.0	6.075144414603945e+17
19569.0	6.074388376627882e+17
19570.0	6.073702052178601e+17
19571.0	6.072850526677674e+17
19572.0	6.071879327197866e+17
19573.0	6.071085657926314e+17
19574.0	6.069923217058473e+17
19575.0	6.069532710578857e+17
19576.0	6.06869406159121e+17
19577.0	6.067670802410153e+17
19578.0	6.066725519534761e+17
19579.0	6.065957238385321e+17
19580.0	6.065071899803647e+17
19581.0	6.064282364018687e+17
19582.0	6.06348181189427e+17
19583.0	6.062589807864489e+17
19584.0	6.061595713077247e+17
19585.0	6.060188634535252e+17
19586.0	6.059070013658454e+17
19587.0	6.05873575559168e+17
19588.0	6.055417516567212e+17
19589.0	6.056967430733823e+17
19590.0	6.055688819529043e+17
19591.0	6.055225583119017e+17
19592.0	6.054331750372692e+17
19593.0	6.053285679770282e+17
19594.0	6.051197874077693e+17
19595.0	6.051157231970985e+17
19596.0	6.047150189663574e+17
19597.0	6.049265050714111e+17
19598.0	6.046749302980607e+17
19599.0	6.047662337250644e+17
19600.0	6.046740074113706e+17
19601.0	6.045397622106793e+17
19602.0	6.044418807169023e+17
19603.0	6.041193212630353e+17
19604.0	6.042404284355924e+17
19605.0	6.040240377910612e+17
19606.0	6.040857932551507e+17
19607.0	6.039888807155028e+17
19608.0	6.038832691893588e+17
19609.0	6.037643476686163e+17
19610.0	6.036946240055977e+17
19611.0	6.035906622390271e+17
19612.0	6.034984403293524e+17
19613.0	6.033929270897322e+17
19614.0	6.032759222960127e+17
19615.0	6.031956218565972e+17
19616.0	6.030652169606484e+17
19617.0	6.029950893861546e+17
19618.0	6.02567798790553e+17
19619.0	6.024094883512315e+17
19620.0	6.023255989157885e+17
19621.0	6.025889129168896e+17
19622.0	6.024921040464553e+17
19623.0	6.023917416917674e+17
19624.0	6.02284466704657e+17
19625.0	6.021879080244563e+17
19626.0	6.020796722621098e+17
19627.0	6.019818750738431e+17
19628.0	6.017882892096854e+17
19629.0	6.017229339142825e+17
19630.0	6.01249386227302e+17
19631.0	5.979206115306163e+17
19632.0	6.014617016860671e+17
19633.0	6.013379960722772e+17
19634.0	6.01262980735522e+17
19635.0	6.011380409477801e+17
19636.0	6.010497467940863e+17
19637.0	6.007371488122198e+17
19638.0	6.008414965945684e+17
19639.0	6.007345365996883e+17
19640.0	6.005555436978176e+17
19641.0	6.00145192987307e+17
19642.0	6.004286021784916e+17
19643.0	6.003203116804777e+17
19644.0	6.001871413400915e+17
19645.0	5.999706031259645e+17
19646.0	6.000172159642282e+17
19647.0	5.999138432177494e+17
19648.0	5.998067687882751e+17
19649.0	5.997002273150292e+17
19650.0	5.995994605595305e+17
19651.0	5.994918541524991e+17
19652.0	5.993846922018815e+17
19653.0	5.992824830951424e+17
19654.0	5.991734584541183e+17
19655.0	5.990658433788585e+17
19656.0	5.989651968600745e+17
19657.0	5.988599561104041e+17
19658.0	5.987571610593962e+17
19659.0	5.986516299939839e+17
19660.0	5.985485683250516e+17
19661.0	5.984405656961023e+17
19662.0	5.983374354502996e+17
19663.0	5.982019616680618e+17
19664.0	5.98108069167104e+17
19665.0	5.980205350912e+17
