# Flux units: erg / (cm m2 s)
# Wavelength units: Angstrom
wave	flux
19000.0	7.266594360481108e+17
19001.0	7.265064988617386e+17
19002.0	7.263863618316969e+17
19003.0	7.262490495462057e+17
19004.0	7.261122988780202e+17
19005.0	7.259749425523369e+17
19006.0	7.258381428107944e+17
19007.0	7.256857580142591e+17
19008.0	7.255534779148968e+17
19009.0	7.254128494728531e+17
19010.0	7.252199850289833e+17
19011.0	7.251483712028671e+17
19012.0	7.249886392440147e+17
19013.0	7.24879285769557e+17
19014.0	7.247321567155539e+17
19015.0	7.245999140853075e+17
19016.0	7.244616148800854e+17
19017.0	7.243114462139731e+17
19018.0	7.241929583842644e+17
19019.0	7.240567567504723e+17
19020.0	7.239119667199999e+17
19021.0	7.237804176878249e+17
19022.0	7.236477834493951e+17
19023.0	7.235043855084202e+17
19024.0	7.233716595545428e+17
19025.0	7.23236181578001e+17
19026.0	7.230959199977471e+17
19027.0	7.229499696829778e+17
19028.0	7.228275902382079e+17
19029.0	7.226880263105194e+17
19030.0	7.225556979766611e+17
19031.0	7.22419980505361e+17
19032.0	7.222830750673577e+17
19033.0	7.221314769824425e+17
19034.0	7.220064177968467e+17
19035.0	7.218667343314943e+17
19036.0	7.205079957023402e+17
19037.0	7.215974783298216e+17
19038.0	7.214588138007208e+17
19039.0	7.21325625774353e+17
19040.0	7.211899144546985e+17
19041.0	7.210517524032169e+17
19042.0	7.209011991194281e+17
19043.0	7.20780518367778e+17
19044.0	7.206412571290281e+17
19045.0	7.205062405259263e+17
19046.0	7.203599486550015e+17
19047.0	7.202307666083837e+17
19048.0	7.200631362158591e+17
19049.0	7.199488839341398e+17
19050.0	7.1981578860189e+17
19051.0	7.195110518642002e+17
19052.0	7.195178807503529e+17
19053.0	7.194102960138922e+17
19054.0	7.192781825682089e+17
19055.0	7.19099152896273e+17
19056.0	7.190005004894207e+17
19057.0	7.188670286484819e+17
19058.0	7.187262300575059e+17
19059.0	7.185954132109993e+17
19060.0	7.184556918571008e+17
19061.0	7.183236214729385e+17
19062.0	7.181861114959187e+17
19063.0	7.180504520458239e+17
19064.0	7.178917664260096e+17
19065.0	7.177474812499284e+17
19066.0	7.1763262205242e+17
19067.0	7.175042829210964e+17
19068.0	7.173703585147561e+17
19069.0	7.172341029142527e+17
19070.0	7.170928752459775e+17
19071.0	7.169603100737535e+17
19072.0	7.168257140195327e+17
19073.0	7.166880382276947e+17
19074.0	7.165534934837929e+17
19075.0	7.164173586792447e+17
19076.0	7.162777484744022e+17
19077.0	7.161431348041044e+17
19078.0	7.159995063162195e+17
19079.0	7.158721247444992e+17
19080.0	7.157337539564884e+17
19081.0	7.15593530544401e+17
19082.0	7.154557649944575e+17
19083.0	7.153078132976297e+17
19084.0	7.15150661394978e+17
19085.0	7.150543944286207e+17
19086.0	7.148534650372096e+17
19087.0	7.147467564908543e+17
19088.0	7.146342930797908e+17
19089.0	7.144624130184532e+17
19090.0	7.143720018597203e+17
19091.0	7.142357223516841e+17
19092.0	7.14087746048273e+17
19093.0	7.139690908658345e+17
19094.0	7.138327386565289e+17
19095.0	7.136967667307859e+17
19096.0	7.135581796564991e+17
19097.0	7.134256853680128e+17
19098.0	7.132900308112726e+17
19099.0	7.131537152322217e+17
19100.0	7.130167384910506e+17
19101.0	7.128826442153983e+17
19102.0	7.127331245479251e+17
19103.0	7.12611110007603e+17
19104.0	7.124767528889e+17
19105.0	7.123405515347283e+17
19106.0	7.121988246044671e+17
19107.0	7.120665793178281e+17
19108.0	7.119342010717523e+17
19109.0	7.116733180193449e+17
19110.0	7.116603029542228e+17
19111.0	7.115275195383808e+17
19112.0	7.113922746253311e+17
19113.0	7.112565641445375e+17
19114.0	7.111203729965055e+17
19115.0	7.109761728249855e+17
19116.0	7.108465038196735e+17
19117.0	7.107103256739837e+17
19118.0	7.105602460669267e+17
19119.0	7.100225225927332e+17
19120.0	7.102970554482688e+17
19121.0	7.101664095895552e+17
19122.0	7.100380974415871e+17
19123.0	7.099008904331263e+17
19124.0	7.09761130771251e+17
19125.0	7.096300526196051e+17
19126.0	7.094937257159336e+17
19127.0	7.090850549639849e+17
19128.0	7.091241542658729e+17
19129.0	7.090768609716905e+17
19130.0	7.089522108705449e+17
19131.0	7.088172678075732e+17
19132.0	7.086847264030719e+17
19133.0	7.08454929994001e+17
19134.0	7.083699127102124e+17
19135.0	7.082790951234217e+17
19136.0	7.081454960552617e+17
19137.0	7.079840029081599e+17
19138.0	7.078630481286483e+17
19139.0	7.077398285647871e+17
19140.0	7.076054068538025e+17
19141.0	7.074704369472851e+17
19142.0	7.073312059075242e+17
19143.0	7.071899943174143e+17
19144.0	7.070557737932116e+17
19145.0	7.069263224722772e+17
19146.0	7.066936008157868e+17
19147.0	7.066422043738111e+17
19148.0	7.06522169544977e+17
19149.0	7.063866761893203e+17
19150.0	7.062416898654207e+17
19151.0	7.061050183297705e+17
19152.0	7.059669867211434e+17
19153.0	7.058333230607017e+17
19154.0	7.0568087926429e+17
19155.0	7.055671525288617e+17
19156.0	7.05432249171968e+17
19157.0	7.052955229705556e+17
19158.0	7.050746833578665e+17
19159.0	7.050250107748351e+17
19160.0	7.048875273617407e+17
19161.0	7.047489193159338e+17
19162.0	7.044286219900246e+17
19163.0	7.044850478219263e+17
19164.0	7.043549777013417e+17
19165.0	7.042159338673492e+17
19166.0	7.040656238531926e+17
19167.0	7.039329833233065e+17
19168.0	7.037823590858752e+17
19169.0	7.036457495560191e+17
19170.0	7.035256157416104e+17
19171.0	7.033802429125972e+17
19172.0	7.032554694290089e+17
19173.0	7.031219292209151e+17
19174.0	7.029783723857236e+17
19175.0	7.028534325280767e+17
19176.0	7.027181597928105e+17
19177.0	7.025597883962708e+17
19178.0	7.024457913379498e+17
19179.0	7.023009425173162e+17
19180.0	7.021613053291177e+17
19181.0	7.020310293381119e+17
19182.0	7.018989660143615e+17
19183.0	7.017750218145791e+17
19184.0	7.016231012575913e+17
19185.0	7.015055950348287e+17
19186.0	7.013741702239572e+17
19187.0	7.012263079357097e+17
19188.0	7.011040808839849e+17
19189.0	7.009668579371689e+17
19190.0	7.0083161882624e+17
19191.0	7.006952278196223e+17
19192.0	7.005661437100031e+17
19193.0	7.004199571161087e+17
19194.0	7.002906102333439e+17
19195.0	7.001628878045183e+17
19196.0	7.000270461818196e+17
19197.0	6.998935760186025e+17
19198.0	6.997583132098559e+17
19199.0	6.984887814149458e+17
19200.0	6.987031578148868e+17
19201.0	6.99355790119185e+17
19202.0	6.992238104018943e+17
19203.0	6.990875163536041e+17
19204.0	6.989516832593236e+17
19205.0	6.988195526868991e+17
19206.0	6.986835564341929e+17
19207.0	6.985350934517074e+17
19208.0	6.983873169369769e+17
19209.0	6.982811760896681e+17
19210.0	6.981472953739945e+17
19211.0	6.980147295027199e+17
19212.0	6.978807946805247e+17
19213.0	6.977253588074495e+17
19214.0	6.975817569533951e+17
19215.0	6.974735387372202e+17
19216.0	6.973392000734547e+17
19217.0	6.972083185647615e+17
19218.0	6.969406877859837e+17
19219.0	6.969129495953407e+17
19220.0	6.968012001946281e+17
19221.0	6.96617173848337e+17
19222.0	6.965366505515689e+17
19223.0	6.963986281704106e+17
19224.0	6.962531395087017e+17
19225.0	6.961066710575785e+17
19226.0	6.95994475942161e+17
19227.0	6.958596356396372e+17
19228.0	6.957301527216128e+17
19229.0	6.955959630255444e+17
19230.0	6.954546741204308e+17
19231.0	6.953206136788308e+17
19232.0	6.951842473487017e+17
19233.0	6.950452131616084e+17
19234.0	6.949183965626367e+17
19235.0	6.947791735619583e+17
19236.0	6.946508668665855e+17
19237.0	6.945130380525565e+17
19238.0	6.943652422440276e+17
19239.0	6.9424700208797e+17
19240.0	6.940725045712212e+17
19241.0	6.939601671290879e+17
19242.0	6.938377363040937e+17
19243.0	6.936763995346259e+17
19244.0	6.935723180905812e+17
19245.0	6.934367634281812e+17
19246.0	6.932995977336148e+17
19247.0	6.931655399484074e+17
19248.0	6.93033158976034e+17
19249.0	6.928968190001151e+17
19250.0	6.927591180424532e+17
19251.0	6.926032775588521e+17
19252.0	6.924430605287423e+17
19253.0	6.923531557623124e+17
19254.0	6.922152210421076e+17
19255.0	6.920553777943891e+17
19256.0	6.919404142286164e+17
19257.0	6.918143837820244e+17
19258.0	6.916791088797012e+17
19259.0	6.915319943659519e+17
19260.0	6.913876840240467e+17
19261.0	6.912699471145641e+17
19262.0	6.911267544148649e+17
19263.0	6.909915777291603e+17
19264.0	6.907800330436607e+17
19265.0	6.906997854524755e+17
19266.0	6.9057038530205e+17
19267.0	6.904570159912276e+17
19268.0	6.903195276148735e+17
19269.0	6.901836521581226e+17
19270.0	6.900478513599827e+17
19271.0	6.898682581133994e+17
19272.0	6.897937656665428e+17
19273.0	6.88606318637874e+17
19274.0	6.889535044583416e+17
19275.0	6.893896395827881e+17
19276.0	6.892495394133331e+17
19277.0	6.891132887061844e+17
19278.0	6.889764023522644e+17
19279.0	6.888317745714516e+17
19280.0	6.886880138930858e+17
19281.0	6.885632372637696e+17
19282.0	6.884286868575571e+17
19283.0	6.882641261363197e+17
19284.0	6.881053829147305e+17
19285.0	6.879621007365459e+17
19286.0	6.878302230107476e+17
19287.0	6.876987380815187e+17
19288.0	6.872022079853905e+17
19289.0	6.866552887792968e+17
19290.0	6.872828398447274e+17
19291.0	6.870985349267456e+17
19292.0	6.870041135240531e+17
19293.0	6.868646602560852e+17
19294.0	6.867252216681812e+17
19295.0	6.865875330138111e+17
19296.0	6.864460091577684e+17
19297.0	6.863028207921833e+17
19298.0	6.86161460863522e+17
19299.0	6.860262187466752e+17
19300.0	6.858853206108841e+17
19301.0	6.857432806457343e+17
19302.0	6.855999809912832e+17
19303.0	6.854476549849087e+17
19304.0	6.853108671971327e+17
19305.0	6.851753610488489e+17
19306.0	6.850344276809044e+17
19307.0	6.848865565147135e+17
19308.0	6.847485556643155e+17
19309.0	6.845722343942825e+17
19310.0	6.844058575394131e+17
19311.0	6.843072381976575e+17
19312.0	6.841695709342378e+17
19313.0	6.840147357554004e+17
19314.0	6.8335828397807e+17
19315.0	6.832287374464344e+17
19316.0	6.835922837787987e+17
19317.0	6.834481128975017e+17
19318.0	6.833010703859711e+17
19319.0	6.831613457465343e+17
19320.0	6.830119809886889e+17
19321.0	6.828679291557204e+17
19322.0	6.826966094533972e+17
19323.0	6.82552929235763e+17
19324.0	6.824220401773225e+17
19325.0	6.822425002683052e+17
19326.0	6.821215692565161e+17
19327.0	6.819610465315497e+17
19328.0	6.818131987136511e+17
19329.0	6.816640161983146e+17
19330.0	6.814901835486547e+17
19331.0	6.81335853154304e+17
19332.0	6.811890869075967e+17
19333.0	6.810186094215167e+17
19334.0	6.808376629526527e+17
19335.0	6.806874770199891e+17
19336.0	6.805307381164714e+17
19337.0	6.80396816716049e+17
19338.0	6.802159330918397e+17
19339.0	6.800921878418771e+17
19340.0	6.799246802026495e+17
19341.0	6.797709119848447e+17
19342.0	6.795458603122687e+17
19343.0	6.794503207081299e+17
19344.0	6.792868825923583e+17
19345.0	6.788343225035428e+17
19346.0	6.788095271763965e+17
19347.0	6.787684462755839e+17
19348.0	6.786126954102783e+17
19349.0	6.784386163452586e+17
19350.0	6.782704457263785e+17
19351.0	6.780997476199081e+17
19352.0	6.779229886742527e+17
19353.0	6.777104028226899e+17
19354.0	6.775336445061801e+17
19355.0	6.773415435654484e+17
19356.0	6.771794049149609e+17
19357.0	6.769982023139327e+17
19358.0	6.768013117576532e+17
19359.0	6.765825256762026e+17
19360.0	6.764526873608191e+17
19361.0	6.762688426278911e+17
19362.0	6.760749956683092e+17
19363.0	6.758836579510953e+17
19364.0	6.756432433818282e+17
19365.0	6.754248872864425e+17
19366.0	6.751947483425449e+17
19367.0	6.749753343038803e+17
19368.0	6.747725958392489e+17
19369.0	6.745382809763837e+17
19370.0	6.742910171086847e+17
19371.0	6.74205691753267e+17
19372.0	6.738737488723967e+17
19373.0	6.736440206207657e+17
19374.0	6.734255726701226e+17
19375.0	6.732069722565289e+17
19376.0	6.729704920143188e+17
19377.0	6.726927459024895e+17
19378.0	6.724395974961833e+17
19379.0	6.721896429824681e+17
19380.0	6.719139687170047e+17
19381.0	6.716278959330644e+17
19382.0	6.712522291107158e+17
19383.0	6.710594192627027e+17
19384.0	6.708357405955412e+17
19385.0	6.70479834956868e+17
19386.0	6.700783152136192e+17
19387.0	6.698153729676627e+17
19388.0	6.694896717703849e+17
19389.0	6.691657177104383e+17
19390.0	6.68880924189218e+17
19391.0	6.675832056228507e+17
19392.0	6.68278306653252e+17
19393.0	6.679982708009642e+17
19394.0	6.67669683642914e+17
19395.0	6.673116630963539e+17
19396.0	6.669554653943123e+17
19397.0	6.665123564705108e+17
19398.0	6.660939746465108e+17
19399.0	6.655322843600211e+17
19400.0	6.651451615652521e+17
19401.0	6.646167847479978e+17
19402.0	6.641821032295081e+17
19403.0	6.636873767540052e+17
19404.0	6.632125237297152e+17
19405.0	6.625868796045993e+17
19406.0	6.620440378212351e+17
19407.0	6.613642529210367e+17
19408.0	6.605637500796928e+17
19409.0	6.5997866284701e+17
19410.0	6.591758532782762e+17
19411.0	6.583706030440449e+17
19412.0	6.576437570742954e+17
19413.0	6.567099998666751e+17
19414.0	6.558319113491794e+17
19415.0	6.548241269828265e+17
19416.0	6.537065701310464e+17
19417.0	6.526140117505364e+17
19418.0	6.516696978292736e+17
19419.0	6.508129875394559e+17
19420.0	6.498952702590973e+17
19421.0	6.490213340326566e+17
19422.0	6.480835419744937e+17
19423.0	6.472166839855788e+17
19424.0	6.459265797586943e+17
19425.0	6.444262442227028e+17
19426.0	6.427695328701097e+17
19427.0	6.408940697594537e+17
19428.0	6.38999060493107e+17
19429.0	6.369086222456148e+17
19430.0	6.350124580776618e+17
19431.0	6.328353987144364e+17
19432.0	6.30717994098142e+17
19433.0	6.281287768386218e+17
19434.0	6.252014928046761e+17
19435.0	6.217114195765923e+17
19436.0	6.182297697692332e+17
19437.0	6.153002856830292e+17
19438.0	6.108828913369096e+17
19439.0	6.08077680074206e+17
19440.0	6.035488971773268e+17
19441.0	5.985830149554171e+17
19442.0	5.931704343942487e+17
19443.0	5.86442651799825e+17
19444.0	5.791006958026746e+17
19445.0	5.719581296776533e+17
19446.0	5.630376921093463e+17
19447.0	5.5206653076002106e+17
19448.0	5.4018083525754925e+17
19449.0	5.244109823060651e+17
19450.0	4.9696406097974195e+17
19451.0	4.8688294575909594e+17
19452.0	5.1212129535699654e+17
19453.0	5.328731307158193e+17
19454.0	5.4602822323623206e+17
19455.0	5.5708020847411226e+17
19456.0	5.669678748445357e+17
19457.0	5.744308344149326e+17
19458.0	5.808971051608751e+17
19459.0	5.88438169033114e+17
19460.0	5.941871200523601e+17
19461.0	5.990397111173117e+17
19462.0	6.035998740490924e+17
19463.0	6.076316484894717e+17
19464.0	6.108954597785596e+17
19465.0	6.138039334076415e+17
19466.0	6.166269917134845e+17
19467.0	6.200551299612666e+17
19468.0	6.229441715896321e+17
19469.0	6.253354964833618e+17
19470.0	6.27620594127121e+17
19471.0	6.295533580713984e+17
19472.0	6.312227829186556e+17
19473.0	6.329294501096106e+17
19474.0	6.347099485853011e+17
19475.0	6.362458896378534e+17
19476.0	6.378230411952127e+17
19477.0	6.391518343812436e+17
19478.0	6.40329632064034e+17
19479.0	6.411338537151141e+17
19480.0	6.417724198617085e+17
19481.0	6.424193063190527e+17
19482.0	6.430578549893802e+17
19483.0	6.436922020156758e+17
19484.0	6.443157626901843e+17
19485.0	6.451344458820266e+17
19486.0	6.45945645806387e+17
19487.0	6.468172651692031e+17
19488.0	6.474844976360106e+17
19489.0	6.480828994770259e+17
19490.0	6.48427112514628e+17
19491.0	6.492034860143956e+17
19492.0	6.496590766276605e+17
19493.0	6.502896095636138e+17
19494.0	6.50617283551778e+17
19495.0	6.510538886479873e+17
19496.0	6.513895496395433e+17
19497.0	6.517024396148735e+17
19498.0	6.519424619468118e+17
19499.0	6.506247415136251e+17
19500.0	6.524917070342825e+17
19501.0	6.526640636384596e+17
19502.0	6.5298408945309e+17
19503.0	6.531504818967892e+17
19504.0	6.533628367820116e+17
19505.0	6.535041769275391e+17
19506.0	6.537016164483071e+17
19507.0	6.537609106948095e+17
19508.0	6.538751624172884e+17
19509.0	6.539176049988948e+17
19510.0	6.539614111487316e+17
19511.0	6.527271999373307e+17
19512.0	6.537453510153554e+17
19513.0	6.535902155942563e+17
19514.0	6.538145419318607e+17
19515.0	6.541217119251114e+17
19516.0	6.542005138096128e+17
19517.0	6.5436229566464e+17
19518.0	6.544568855385427e+17
19519.0	6.544542751435434e+17
19520.0	6.543734745333759e+17
19521.0	6.544739332871508e+17
19522.0	6.544865427630761e+17
19523.0	6.545253918747305e+17
19524.0	6.54512882782481e+17
19525.0	6.545054865468074e+17
19526.0	6.545275880123049e+17
19527.0	6.545195683632467e+17
19528.0	6.544839256571904e+17
19529.0	6.544451807040852e+17
19530.0	6.544105198845951e+17
19531.0	6.54407610785246e+17
19532.0	6.544612253149866e+17
19533.0	6.544079846375421e+17
19534.0	6.543093718668628e+17
19535.0	6.542544300496211e+17
19536.0	6.541834857043284e+17
19537.0	6.54133487084066e+17
19538.0	6.540777995894784e+17
19539.0	6.539791686434816e+17
19540.0	6.540559919349759e+17
19541.0	6.539990190260223e+17
19542.0	6.539289142405802e+17
19543.0	6.538632893912404e+17
19544.0	6.538037630599167e+17
19545.0	6.536541951579476e+17
19546.0	6.535187870165674e+17
19547.0	6.535684681280169e+17
19548.0	6.534961783199059e+17
19549.0	6.534010249412607e+17
19550.0	6.533386503279955e+17
19551.0	6.532582105677823e+17
19552.0	6.531758965828266e+17
19553.0	6.531374170592595e+17
19554.0	6.530511918858239e+17
19555.0	6.529669554416297e+17
19556.0	6.528823768820394e+17
19557.0	6.527940635044521e+17
19558.0	6.527050188499625e+17
19559.0	6.526118255394815e+17
19560.0	6.525239552901119e+17
19561.0	6.524423588806655e+17
19562.0	6.523534647317844e+17
19563.0	6.522608612103508e+17
19564.0	6.521671801722196e+17
19565.0	6.520713969489236e+17
19566.0	6.519720184381437e+17
19567.0	6.518799266917034e+17
19568.0	6.517782703942313e+17
19569.0	6.516826286587903e+17
19570.0	6.515875412006227e+17
19571.0	6.514878797840383e+17
19572.0	6.513835020124159e+17
19573.0	6.512851420184573e+17
19574.0	6.511605556008275e+17
19575.0	6.510564482220031e+17
19576.0	6.509551663360682e+17
19577.0	6.508431770910719e+17
19578.0	6.507743336726527e+17
19579.0	6.506783891783679e+17
19580.0	6.505748837520723e+17
19581.0	6.504734347930282e+17
19582.0	6.503715930374143e+17
19583.0	6.502668025462784e+17
19584.0	6.50160206057745e+17
19585.0	6.500378643617107e+17
19586.0	6.499250772202836e+17
19587.0	6.498431777024682e+17
19588.0	6.496832242843647e+17
19589.0	6.496468795916287e+17
19590.0	6.495349380218879e+17
19591.0	6.494390044327933e+17
19592.0	6.493323418839721e+17
19593.0	6.49220771090705e+17
19594.0	6.490759233186473e+17
19595.0	6.489996624833193e+17
19596.0	6.486654655834796e+17
19597.0	6.487801544223401e+17
19598.0	6.486352817640788e+17
19599.0	6.485690620226217e+17
19600.0	6.484603458027519e+17
19601.0	6.483391787215529e+17
19602.0	6.482320829011284e+17
19603.0	6.480508273819645e+17
19604.0	6.480077719426388e+17
19605.0	6.478580322140159e+17
19606.0	6.477942023170729e+17
19607.0	6.476854152833706e+17
19608.0	6.475709099453098e+17
19609.0	6.474532341328553e+17
19610.0	6.473505849038164e+17
19611.0	6.472374462098089e+17
19612.0	6.471268289216511e+17
19613.0	6.470123674839721e+17
19614.0	6.468950772678655e+17
19615.0	6.467892846875988e+17
19616.0	6.466681312378879e+17
19617.0	6.465614029783039e+17
19618.0	6.463598662516733e+17
19619.0	6.462304005302952e+17
19620.0	6.461179661298345e+17
19621.0	6.461074109541034e+17
19622.0	6.459947434202452e+17
19623.0	6.45881475961105e+17
19624.0	6.457661585358847e+17
19625.0	6.456539650981887e+17
19626.0	6.455387808421204e+17
19627.0	6.454263354665642e+17
19628.0	6.45284798328559e+17
19629.0	6.451834503124308e+17
19630.0	6.450168877897044e+17
19631.0	6.437694804590592e+17
19632.0	6.448544341469866e+17
19633.0	6.447338244887892e+17
19634.0	6.44626484699682e+17
19635.0	6.445050247162537e+17
19636.0	6.443960266391552e+17
19637.0	6.442146055148884e+17
19638.0	6.441666695834282e+17
19639.0	6.440492008996863e+17
19640.0	6.439227408165546e+17
19641.0	6.437324880259756e+17
19642.0	6.437065282202282e+17
19643.0	6.43589087498513e+17
19644.0	6.43467889938705e+17
19645.0	6.433204744137385e+17
19646.0	6.432480652776788e+17
19647.0	6.431349358810452e+17
19648.0	6.430238413509972e+17
19649.0	6.429080066981887e+17
19650.0	6.427939540653395e+17
19651.0	6.426773825432233e+17
19652.0	6.425612579941034e+17
19653.0	6.424468231203498e+17
19654.0	6.423302049016489e+17
19655.0	6.422136363854506e+17
19656.0	6.420986761052159e+17
19657.0	6.419820215358804e+17
19658.0	6.418673451401215e+17
19659.0	6.417515246081363e+17
19660.0	6.416363019741865e+17
19661.0	6.415200419490474e+17
19662.0	6.414047021542057e+17
19663.0	6.412806264629929e+17
19664.0	6.411674341517993e+17
19665.0	6.410571094163455e+17
