# Flux units: erg / (cm m2 s)
# Wavelength units: Angstrom
wave	flux
19000.0	5.855860262349481e+17
19001.0	5.854639220064255e+17
19002.0	5.853682459475967e+17
19003.0	5.852590394834943e+17
19004.0	5.851499286495231e+17
19005.0	5.850401193241257e+17
19006.0	5.849324501423444e+17
19007.0	5.848228429823999e+17
19008.0	5.847057501082963e+17
19009.0	5.845942058789546e+17
19010.0	5.844290154528767e+17
19011.0	5.843831498997759e+17
19012.0	5.842590123425791e+17
19013.0	5.8416878321664e+17
19014.0	5.840532381805225e+17
19015.0	5.839458630194516e+17
19016.0	5.838351607267327e+17
19017.0	5.837340691223892e+17
19018.0	5.836235600472745e+17
19019.0	5.835152685006847e+17
19020.0	5.83405310906641e+17
19021.0	5.832989555905875e+17
19022.0	5.831896562226516e+17
19023.0	5.830767220009642e+17
19024.0	5.829699620044799e+17
19025.0	5.828640893130068e+17
19026.0	5.827514191926612e+17
19027.0	5.82637828842018e+17
19028.0	5.825382594904063e+17
19029.0	5.824275502770857e+17
19030.0	5.823227277694292e+17
19031.0	5.822141654106111e+17
19032.0	5.821047488817833e+17
19033.0	5.819848895845716e+17
19034.0	5.818863549677567e+17
19035.0	5.817717319794687e+17
19036.0	5.809315977887739e+17
19037.0	5.815589183072937e+17
19038.0	5.814512142428841e+17
19039.0	5.813457000245929e+17
19040.0	5.812380411887615e+17
19041.0	5.811286520627199e+17
19042.0	5.810005527756799e+17
19043.0	5.809131125123754e+17
19044.0	5.808032608245076e+17
19045.0	5.806964506361855e+17
19046.0	5.805801063754409e+17
19047.0	5.804775264223231e+17
19048.0	5.803401981285716e+17
19049.0	5.802369784042836e+17
19050.0	5.801479966643542e+17
19051.0	5.799314206315858e+17
19052.0	5.799205768178346e+17
19053.0	5.798305323810815e+17
19054.0	5.797226126595412e+17
19055.0	5.795783511812778e+17
19056.0	5.795016163196927e+17
19057.0	5.793974211401043e+17
19058.0	5.792799493805398e+17
19059.0	5.791781909517652e+17
19060.0	5.79071138472482e+17
19061.0	5.789663911127722e+17
19062.0	5.788577220788223e+17
19063.0	5.787500124919124e+17
19064.0	5.78625587974417e+17
19065.0	5.785117970661375e+17
19066.0	5.784158430647635e+17
19067.0	5.783170114213203e+17
19068.0	5.782107789284692e+17
19069.0	5.781031316968788e+17
19070.0	5.779912846387882e+17
19071.0	5.778867700629503e+17
19072.0	5.777763918501203e+17
19073.0	5.776713282398889e+17
19074.0	5.775642807238655e+17
19075.0	5.774565512140116e+17
19076.0	5.773460930996905e+17
19077.0	5.772390334900905e+17
19078.0	5.771282032011946e+17
19079.0	5.770254460387327e+17
19080.0	5.769163391893501e+17
19081.0	5.768046660550655e+17
19082.0	5.766972311251626e+17
19083.0	5.765828131684351e+17
19084.0	5.764595343250773e+17
19085.0	5.763783673424553e+17
19086.0	5.762208105496575e+17
19087.0	5.761403486295381e+17
19088.0	5.760422757356885e+17
19089.0	5.7591821514397005e+17
19090.0	5.758387599267156e+17
19091.0	5.7573149899052365e+17
19092.0	5.7561156839014394e+17
19093.0	5.7552078044310176e+17
19094.0	5.754135745221972e+17
19095.0	5.7530626933609805e+17
19096.0	5.7519671705163085e+17
19097.0	5.7509137095502496e+17
19098.0	5.7498057212340896e+17
19099.0	5.748719637670569e+17
19100.0	5.7476715503069856e+17
19101.0	5.7466240578355194e+17
19102.0	5.745394169763156e+17
19103.0	5.744479437499049e+17
19104.0	5.743412758183935e+17
19105.0	5.742258118022484e+17
19106.0	5.7412370426757114e+17
19107.0	5.740150752193194e+17
19108.0	5.7390917204923725e+17
19109.0	5.73758343758916e+17
19110.0	5.7369595453549216e+17
19111.0	5.7358924368226976e+17
19112.0	5.734819614250323e+17
19113.0	5.733773730294442e+17
19114.0	5.732690636570622e+17
19115.0	5.731563520830122e+17
19116.0	5.730541487783935e+17
19117.0	5.729474175128916e+17
19118.0	5.728288111940949e+17
19119.0	5.717746461442033e+17
19120.0	5.7262088143940256e+17
19121.0	5.7251810680067405e+17
19122.0	5.724160252007764e+17
19123.0	5.723093032326484e+17
19124.0	5.7219908615099725e+17
19125.0	5.720953498981716e+17
19126.0	5.719870600992084e+17
19127.0	5.7164196129450643e+17
19128.0	5.71769798856977e+17
19129.0	5.716582588918441e+17
19130.0	5.715603915188905e+17
19131.0	5.7145556894132896e+17
19132.0	5.713487945444011e+17
19133.0	5.712339290554367e+17
19134.0	5.7113372391724365e+17
19135.0	5.7102900172335776e+17
19136.0	5.709232108907177e+17
19137.0	5.707950860883284e+17
19138.0	5.7070833788518394e+17
19139.0	5.706038532986196e+17
19140.0	5.7049762968371194e+17
19141.0	5.7039123242461856e+17
19142.0	5.7028145630412794e+17
19143.0	5.701705033318399e+17
19144.0	5.700671089147903e+17
19145.0	5.69965783757619e+17
19146.0	5.6977840119917216e+17
19147.0	5.6974035054318925e+17
19148.0	5.6964367155636896e+17
19149.0	5.6953616693111456e+17
19150.0	5.6943338886703776e+17
19151.0	5.69327445291827e+17
19152.0	5.692208922143402e+17
19153.0	5.6910688166434125e+17
19154.0	5.6899222239532365e+17
19155.0	5.689032927346687e+17
19156.0	5.687968419981994e+17
19157.0	5.6868708188596896e+17
19158.0	5.6854976184101536e+17
19159.0	5.6847556061866656e+17
19160.0	5.683709801922558e+17
19161.0	5.682660383566506e+17
19162.0	5.680862739125589e+17
19163.0	5.6805089880309754e+17
19164.0	5.6794870878044154e+17
19165.0	5.678335608750079e+17
19166.0	5.677184450559998e+17
19167.0	5.6762420400837965e+17
19168.0	5.6752438139071136e+17
19169.0	5.67417331917346e+17
19170.0	5.673134614467924e+17
19171.0	5.6720328400131405e+17
19172.0	5.671017911418879e+17
19173.0	5.669961393504255e+17
19174.0	5.6688275095552006e+17
19175.0	5.667843529332051e+17
19176.0	5.6667845025245856e+17
19177.0	5.66553112425267e+17
19178.0	5.6646523378728954e+17
19179.0	5.6635537175347194e+17
19180.0	5.6625461219819514e+17
19181.0	5.6613169434460154e+17
19182.0	5.660428573780649e+17
19183.0	5.6593934286411085e+17
19184.0	5.6583291883137683e+17
19185.0	5.6572659217640096e+17
19186.0	5.656222433454762e+17
19187.0	5.655084756456789e+17
19188.0	5.654108875434666e+17
19189.0	5.653060873355263e+17
19190.0	5.6520021988693325e+17
19191.0	5.6509033184843085e+17
19192.0	5.6498936782083405e+17
19193.0	5.6488214064878925e+17
19194.0	5.647751097002666e+17
19195.0	5.646723491823615e+17
19196.0	5.645640974117547e+17
19197.0	5.644586623259989e+17
19198.0	5.6434805713141754e+17
19199.0	5.6379108907199123e+17
19200.0	5.6382102521774086e+17
19201.0	5.640331638166868e+17
19202.0	5.639332830380032e+17
19203.0	5.638279053443071e+17
19204.0	5.6372089501777914e+17
19205.0	5.636179124813823e+17
19206.0	5.635125987508223e+17
19207.0	5.633945844580351e+17
19208.0	5.6327155084165114e+17
19209.0	5.631972474180949e+17
19210.0	5.630919260678826e+17
19211.0	5.6298856387706874e+17
19212.0	5.6288335304676685e+17
19213.0	5.627641181416105e+17
19214.0	5.6265547007918074e+17
19215.0	5.625659516780543e+17
19216.0	5.624625989943296e+17
19217.0	5.623560371088041e+17
19218.0	5.621444294388393e+17
19219.0	5.621273741404842e+17
19220.0	5.620387603808255e+17
19221.0	5.618943159610027e+17
19222.0	5.6183072346166605e+17
19223.0	5.617242481885183e+17
19224.0	5.616161497896277e+17
19225.0	5.6149752725285536e+17
19226.0	5.6140916508153165e+17
19227.0	5.6130416340718925e+17
19228.0	5.612024630695251e+17
19229.0	5.6109735038593696e+17
19230.0	5.609912703560362e+17
19231.0	5.608857355856553e+17
19232.0	5.607815211821739e+17
19233.0	5.606684774891519e+17
19234.0	5.6056942788171085e+17
19235.0	5.6046316602873165e+17
19236.0	5.603626046543189e+17
19237.0	5.602556356416853e+17
19238.0	5.601401393293994e+17
19239.0	5.6004817802581325e+17
19240.0	5.599420114534399e+17
19241.0	5.5983525760860154e+17
19242.0	5.5973139356931405e+17
19243.0	5.5960798784826016e+17
19244.0	5.595238445875199e+17
19245.0	5.5941820454010874e+17
19246.0	5.593117610737664e+17
19247.0	5.592080311123967e+17
19248.0	5.591044141875199e+17
19249.0	5.589992388689919e+17
19250.0	5.588906037389994e+17
19251.0	5.587741164524883e+17
19252.0	5.586480732831743e+17
19253.0	5.5857659038924794e+17
19254.0	5.584751027027968e+17
19255.0	5.583459256893439e+17
19256.0	5.582619165065215e+17
19257.0	5.581607796735999e+17
19258.0	5.58055825814323e+17
19259.0	5.5794157926481914e+17
19260.0	5.5782876597889696e+17
19261.0	5.577393673950547e+17
19262.0	5.576286471367337e+17
19263.0	5.575225120915455e+17
19264.0	5.57351262364194e+17
19265.0	5.572934692590931e+17
19266.0	5.571794282304853e+17
19267.0	5.571119297156436e+17
19268.0	5.570061194493952e+17
19269.0	5.569015976034303e+17
19270.0	5.567964585656319e+17
19271.0	5.5664519861152435e+17
19272.0	5.565823252256085e+17
19273.0	5.564180690108414e+17
19274.0	5.5631170467703443e+17
19275.0	5.562722558498132e+17
19276.0	5.5615819056414714e+17
19277.0	5.560464696147966e+17
19278.0	5.559418752073726e+17
19279.0	5.558345635201023e+17
19280.0	5.557201377340073e+17
19281.0	5.556252358038868e+17
19282.0	5.5552237476249594e+17
19283.0	5.554110671618047e+17
19284.0	5.5530757956130125e+17
19285.0	5.551842155735721e+17
19286.0	5.5509649638905165e+17
19287.0	5.549956024063315e+17
19288.0	5.54694067180885e+17
19289.0	5.542886381365922e+17
19290.0	5.5467967093145594e+17
19291.0	5.545422459589973e+17
19292.0	5.5447002570642765e+17
19293.0	5.543637370798079e+17
19294.0	5.54257827827985e+17
19295.0	5.5415376546802323e+17
19296.0	5.5404346505953274e+17
19297.0	5.5393909371917645e+17
19298.0	5.5383278978334714e+17
19299.0	5.5372675295477754e+17
19300.0	5.536244318601215e+17
19301.0	5.5351877566464e+17
19302.0	5.5341189207599776e+17
19303.0	5.532974950208852e+17
19304.0	5.531972897428821e+17
19305.0	5.5309304045677216e+17
19306.0	5.529880032706558e+17
19307.0	5.5287607903737165e+17
19308.0	5.5277272446621005e+17
19309.0	5.526524794328404e+17
19310.0	5.5253879345206605e+17
19311.0	5.52451012960802e+17
19312.0	5.5234915491730765e+17
19313.0	5.522436607617706e+17
19314.0	5.509696360284154e+17
19315.0	5.509652050957671e+17
19316.0	5.519160501775017e+17
19317.0	5.518153329147903e+17
19318.0	5.517081455187284e+17
19319.0	5.516035160888662e+17
19320.0	5.5149449955682976e+17
19321.0	5.5138522738196474e+17
19322.0	5.5127100236322125e+17
19323.0	5.5116598964387834e+17
19324.0	5.510445813901994e+17
19325.0	5.5092294776258554e+17
19326.0	5.5082928482986656e+17
19327.0	5.5071959860729165e+17
19328.0	5.5060618246007456e+17
19329.0	5.5050514489234765e+17
19330.0	5.5039126981836794e+17
19331.0	5.502813901684734e+17
19332.0	5.5017836729685325e+17
19333.0	5.500677854505642e+17
19334.0	5.4995975087499936e+17
19335.0	5.4982416853019296e+17
19336.0	5.4971738008234643e+17
19337.0	5.496070765281279e+17
19338.0	5.494695693473108e+17
19339.0	5.493864482384554e+17
19340.0	5.4925389376170656e+17
19341.0	5.491537768437077e+17
19342.0	5.490011994587134e+17
19343.0	5.48941417484561e+17
19344.0	5.488021277245439e+17
19345.0	5.484066140149071e+17
19346.0	5.484637474258942e+17
19347.0	5.484496856722089e+17
19348.0	5.4835334278894925e+17
19349.0	5.4823524768590496e+17
19350.0	5.481199715745791e+17
19351.0	5.480068119090515e+17
19352.0	5.478804199833598e+17
19353.0	5.4778271360177485e+17
19354.0	5.4766760085858976e+17
19355.0	5.475388252400298e+17
19356.0	5.474053933148841e+17
19357.0	5.4728218731260576e+17
19358.0	5.4716445473723725e+17
19359.0	5.4703947936781645e+17
19360.0	5.469172063884628e+17
19361.0	5.468043633928873e+17
19362.0	5.4669001590046714e+17
19363.0	5.4656971543237965e+17
19364.0	5.46414937645602e+17
19365.0	5.4627986840398496e+17
19366.0	5.4615741709680634e+17
19367.0	5.460343186085204e+17
19368.0	5.459104747924138e+17
19369.0	5.457792961871871e+17
19370.0	5.4561056101498874e+17
19371.0	5.4546671302519443e+17
19372.0	5.4534621241890125e+17
19373.0	5.452050211012607e+17
19374.0	5.450445533216767e+17
19375.0	5.448782483292158e+17
19376.0	5.447457332789247e+17
19377.0	5.4461095798811296e+17
19378.0	5.4447681540805965e+17
19379.0	5.4434115490938874e+17
19380.0	5.4420380012161696e+17
19381.0	5.440640732452181e+17
19382.0	5.439141734339924e+17
19383.0	5.437672542349994e+17
19384.0	5.436363755225087e+17
19385.0	5.4349101597545805e+17
19386.0	5.4334304757131936e+17
19387.0	5.4312337145856e+17
19388.0	5.4297057778728954e+17
19389.0	5.428153359706794e+17
19390.0	5.426564184757589e+17
19391.0	5.418240628315466e+17
19392.0	5.4232322184751776e+17
19393.0	5.4216861847388154e+17
19394.0	5.419222669372075e+17
19395.0	5.417037715210239e+17
19396.0	5.415289205642579e+17
19397.0	5.4134978701339296e+17
19398.0	5.4115904663497376e+17
19399.0	5.4074779365976723e+17
19400.0	5.4062023341069645e+17
19401.0	5.4043005450977274e+17
19402.0	5.4016952454785696e+17
19403.0	5.398133315993599e+17
19404.0	5.3959730893509965e+17
19405.0	5.3922823674702483e+17
19406.0	5.388822751739903e+17
19407.0	5.385411022378323e+17
19408.0	5.379632185125548e+17
19409.0	5.376203192008701e+17
19410.0	5.371243744897707e+17
19411.0	5.364063606756692e+17
19412.0	5.35739410835046e+17
19413.0	5.3505388379286163e+17
19414.0	5.3452145220212045e+17
19415.0	5.341705192603648e+17
19416.0	5.3374065517963936e+17
19417.0	5.333462979794259e+17
19418.0	5.3296458849320954e+17
19419.0	5.3253346570185395e+17
19420.0	5.320258115425619e+17
19421.0	5.3159815450460154e+17
19422.0	5.309695080267774e+17
19423.0	5.304266675716096e+17
19424.0	5.2975835087721805e+17
19425.0	5.289196525365929e+17
19426.0	5.2797654475735014e+17
19427.0	5.266355550945279e+17
19428.0	5.2493275707910746e+17
19429.0	5.2243214309348614e+17
19430.0	5.2041886556924595e+17
19431.0	5.191641128239105e+17
19432.0	5.180498224960851e+17
19433.0	5.1670237101861536e+17
19434.0	5.15285008322833e+17
19435.0	5.1379014977890976e+17
19436.0	5.1220695192261965e+17
19437.0	5.106429633495039e+17
19438.0	5.078910484785834e+17
19439.0	5.072716433806678e+17
19440.0	5.055021711709523e+17
19441.0	5.035405329388883e+17
19442.0	5.012597302624258e+17
19443.0	4.9790012058064205e+17
19444.0	4.916091254647466e+17
19445.0	4.844151894616748e+17
19446.0	4.7907811958456314e+17
19447.0	4.726424369190226e+17
19448.0	4.624418530306733e+17
19449.0	4.441046589112315e+17
19450.0	4.0541491417143277e+17
19451.0	3.8405708269486336e+17
19452.0	4.2898474279458157e+17
19453.0	4.544237354527402e+17
19454.0	4.6793873392926656e+17
19455.0	4.7552012463636454e+17
19456.0	4.810471385333762e+17
19457.0	4.8665104968144326e+17
19458.0	4.90994695160906e+17
19459.0	4.9837442156462163e+17
19460.0	5.008976759838033e+17
19461.0	5.0279039816608403e+17
19462.0	5.0445664470958086e+17
19463.0	5.060305716860245e+17
19464.0	5.074988189788841e+17
19465.0	5.0893785546096646e+17
19466.0	5.1032153775581843e+17
19467.0	5.116448686298453e+17
19468.0	5.128982884253696e+17
19469.0	5.14048417542963e+17
19470.0	5.151799109484543e+17
19471.0	5.1616057110036474e+17
19472.0	5.1734567575005824e+17
19473.0	5.197136376714575e+17
19474.0	5.215544066179079e+17
19475.0	5.227205452540584e+17
19476.0	5.237134723470677e+17
19477.0	5.243938640232448e+17
19478.0	5.2490530333218144e+17
19479.0	5.2536834086229325e+17
19480.0	5.257264056587603e+17
19481.0	5.2604797994052256e+17
19482.0	5.2630443296904506e+17
19483.0	5.2660767765299194e+17
19484.0	5.2680386797021856e+17
19485.0	5.26982805856802e+17
19486.0	5.2721454940159994e+17
19487.0	5.2739488413122554e+17
19488.0	5.2758314763332256e+17
19489.0	5.279705531241812e+17
19490.0	5.2840521248276435e+17
19491.0	5.289933640040444e+17
19492.0	5.292972455231484e+17
19493.0	5.2974248822920525e+17
19494.0	5.2984799168211584e+17
19495.0	5.301552015212543e+17
19496.0	5.3013516833696403e+17
19497.0	5.3043432902710605e+17
19498.0	5.304267657183232e+17
19499.0	5.294331065095501e+17
19500.0	5.3070601332107936e+17
19501.0	5.307111084916736e+17
19502.0	5.307093022845611e+17
19503.0	5.3077688188927974e+17
19504.0	5.3083331240482125e+17
19505.0	5.3081659551689376e+17
19506.0	5.3079724914988365e+17
19507.0	5.3076961211187194e+17
19508.0	5.3079905465794566e+17
19509.0	5.3082578656515405e+17
19510.0	5.3076088740031136e+17
19511.0	5.287701396499098e+17
19512.0	5.3055249878876115e+17
19513.0	5.303255392671055e+17
19514.0	5.3040313200366906e+17
19515.0	5.305088121066837e+17
19516.0	5.3058314272331085e+17
19517.0	5.3053218311809696e+17
19518.0	5.304870263324672e+17
19519.0	5.30430386381346e+17
19520.0	5.303660327556436e+17
19521.0	5.303164987244543e+17
19522.0	5.302503917398697e+17
19523.0	5.30192181301521e+17
19524.0	5.3012620105482234e+17
19525.0	5.3006386607773005e+17
19526.0	5.2999910749197645e+17
19527.0	5.299308042300074e+17
19528.0	5.298936189288446e+17
19529.0	5.298252809939626e+17
19530.0	5.2978339289934496e+17
19531.0	5.297248555149994e+17
19532.0	5.2965228336032403e+17
19533.0	5.296333384581119e+17
19534.0	5.295589721199956e+17
19535.0	5.294818879427924e+17
19536.0	5.294025349966506e+17
19537.0	5.293310618894336e+17
19538.0	5.292353791197185e+17
19539.0	5.2912336806434144e+17
19540.0	5.2913611112884896e+17
19541.0	5.290587929793877e+17
19542.0	5.289788775770794e+17
19543.0	5.288936582676479e+17
19544.0	5.288173296943103e+17
19545.0	5.2867215812198374e+17
19546.0	5.2852831153029114e+17
19547.0	5.2857198101572256e+17
19548.0	5.2851324503108256e+17
19549.0	5.2842581413505696e+17
19550.0	5.283548726558719e+17
19551.0	5.282708990547285e+17
19552.0	5.281860448594602e+17
19553.0	5.280979552479913e+17
19554.0	5.280100466207402e+17
19555.0	5.2792733452642976e+17
19556.0	5.2784355400308045e+17
19557.0	5.277570305447253e+17
19558.0	5.276702770287957e+17
19559.0	5.275836078882815e+17
19560.0	5.27491270775057e+17
19561.0	5.2740805669246285e+17
19562.0	5.2734350691314336e+17
19563.0	5.2725806250939725e+17
19564.0	5.2716987838627834e+17
19565.0	5.270814540693504e+17
19566.0	5.269887024190804e+17
19567.0	5.269038694050474e+17
19568.0	5.2681176570484045e+17
19569.0	5.267261407363072e+17
19570.0	5.266399709276843e+17
19571.0	5.265497524273151e+17
19572.0	5.2645597813582496e+17
19573.0	5.263675872335188e+17
19574.0	5.262683119026174e+17
19575.0	5.2619043884673696e+17
19576.0	5.2609917044217165e+17
19577.0	5.2600552554496e+17
19578.0	5.2591333292550816e+17
19579.0	5.2582443178612045e+17
19580.0	5.2574565709469005e+17
19581.0	5.256638713124181e+17
19582.0	5.255751783503187e+17
19583.0	5.2548396034730656e+17
19584.0	5.25392272372531e+17
19585.0	5.2528623673234765e+17
19586.0	5.251910876878164e+17
19587.0	5.251304197368489e+17
19588.0	5.249800932950016e+17
19589.0	5.2494845153553056e+17
19590.0	5.248441525469183e+17
19591.0	5.2476673317492045e+17
19592.0	5.2467536746250234e+17
19593.0	5.2458053040428365e+17
19594.0	5.244579406850729e+17
19595.0	5.2439522248840525e+17
19596.0	5.24294765552162e+17
19597.0	5.242125307696468e+17
19598.0	5.240583912161278e+17
19599.0	5.2402855880949754e+17
19600.0	5.2393729096417274e+17
19601.0	5.238356478787584e+17
19602.0	5.237449515073535e+17
19603.0	5.235974414008318e+17
19604.0	5.235600006665557e+17
19605.0	5.234338761277439e+17
19606.0	5.23380007702801e+17
19607.0	5.232882607281492e+17
19608.0	5.2319301773120845e+17
19609.0	5.2309527534851405e+17
19610.0	5.2300670311246496e+17
19611.0	5.2291105585452365e+17
19612.0	5.2282343230013434e+17
19613.0	5.2272897713329485e+17
19614.0	5.226320334159871e+17
19615.0	5.225439310817962e+17
19616.0	5.224423714630313e+17
19617.0	5.2235200259686394e+17
19618.0	5.221845438911828e+17
19619.0	5.2206943834821946e+17
19620.0	5.2198364966202016e+17
19621.0	5.219789186269183e+17
19622.0	5.2189135805699405e+17
19623.0	5.217978167590911e+17
19624.0	5.2170326379506336e+17
19625.0	5.216114125919573e+17
19626.0	5.215173606375423e+17
19627.0	5.2142417879149216e+17
19628.0	5.213189154624853e+17
19629.0	5.212114192957439e+17
19630.0	5.211064963345066e+17
19631.0	5.2054716450515616e+17
19632.0	5.209533088879957e+17
19633.0	5.2085780360724474e+17
19634.0	5.207702672244735e+17
19635.0	5.206716696231935e+17
19636.0	5.2057688841912314e+17
19637.0	5.204403498429098e+17
19638.0	5.203948726823594e+17
19639.0	5.20301719916817e+17
19640.0	5.20197191499776e+17
19641.0	5.199583070126083e+17
19642.0	5.200210191974398e+17
19643.0	5.199271745814526e+17
19644.0	5.1982691743389e+17
19645.0	5.197042182433449e+17
19646.0	5.1964234673684474e+17
19647.0	5.195551709943123e+17
19648.0	5.1946130009402016e+17
19649.0	5.1936738026018125e+17
19650.0	5.1927484077178874e+17
19651.0	5.191805138807466e+17
19652.0	5.19086752801314e+17
19653.0	5.1899404344360954e+17
19654.0	5.1889973920180896e+17
19655.0	5.1880573331483296e+17
19656.0	5.1871282298006176e+17
