# Flux units: erg / (cm m2 s)
# Wavelength units: Angstrom
wave	flux
19000.0	4.981553083973632e+17
19001.0	4.980623222155946e+17
19002.0	4.979709611169108e+17
19003.0	4.9787878988840954e+17
19004.0	4.977866297049086e+17
19005.0	4.976945072701439e+17
19006.0	4.976023753981951e+17
19007.0	4.9751024876912634e+17
19008.0	4.974176537761108e+17
19009.0	4.9732469912152736e+17
19010.0	4.972303516783957e+17
19011.0	4.971415344250879e+17
19012.0	4.970491121674921e+17
19013.0	4.969577224077311e+17
19014.0	4.968656711363242e+17
19015.0	4.9677363097982285e+17
19016.0	4.966811182650709e+17
19017.0	4.9658948250938016e+17
19018.0	4.964975439249406e+17
19019.0	4.96405587165184e+17
19020.0	4.963135450513407e+17
19021.0	4.9622332997631994e+17
19022.0	4.961319558053886e+17
19023.0	4.960399967387647e+17
19024.0	4.9594796846612474e+17
19025.0	4.958560938448213e+17
19026.0	4.957639542833151e+17
19027.0	4.9567167127661216e+17
19028.0	4.955804216765098e+17
19029.0	4.954885396452692e+17
19030.0	4.9539668110213114e+17
19031.0	4.95304828850449e+17
19032.0	4.95212981981457e+17
19033.0	4.9512043655113376e+17
19034.0	4.950293554921472e+17
19035.0	4.949371676262398e+17
19036.0	4.947977026142207e+17
19037.0	4.94753901707264e+17
19038.0	4.9466224421109766e+17
19039.0	4.9457050366771194e+17
19040.0	4.944787747285674e+17
19041.0	4.94387059630626e+17
19042.0	4.9429535795445754e+17
19043.0	4.942036738244606e+17
19044.0	4.9411198242433696e+17
19045.0	4.940203424044372e+17
19046.0	4.9392825827764896e+17
19047.0	4.938367215774378e+17
19048.0	4.9374389240244896e+17
19049.0	4.936538555853483e+17
19050.0	4.935622789693439e+17
19051.0	4.934650362680661e+17
19052.0	4.933772164901545e+17
19053.0	4.9328760546481485e+17
19054.0	4.9319605247672314e+17
19055.0	4.93103147454737e+17
19056.0	4.930130742170966e+17
19057.0	4.929215944196095e+17
19058.0	4.9283012972161696e+17
19059.0	4.927386474075477e+17
19060.0	4.9264706589818874e+17
19061.0	4.925558245468842e+17
19062.0	4.92464377045538e+17
19063.0	4.923730027347966e+17
19064.0	4.922808835855702e+17
19065.0	4.9218969053866656e+17
19066.0	4.9209896222064634e+17
19067.0	4.9200762691693216e+17
19068.0	4.9191631447217485e+17
19069.0	4.918250223697918e+17
19070.0	4.9173366749265914e+17
19071.0	4.916424827644585e+17
19072.0	4.9155123428283725e+17
19073.0	4.914599648996009e+17
19074.0	4.9136878779105274e+17
19075.0	4.912775874041172e+17
19076.0	4.911862514013524e+17
19077.0	4.9109505436986016e+17
19078.0	4.91003858386944e+17
19079.0	4.9091294125533856e+17
19080.0	4.908218274108757e+17
19081.0	4.9073071880929274e+17
19082.0	4.906393083576319e+17
19083.0	4.9054838926868474e+17
19084.0	4.9045575449968634e+17
19085.0	4.903664544819882e+17
19086.0	4.902731615567871e+17
19087.0	4.901830917444949e+17
19088.0	4.9009312755875834e+17
19089.0	4.900007209598975e+17
19090.0	4.8991146512220154e+17
19091.0	4.898204903189162e+17
19092.0	4.897293488619519e+17
19093.0	4.896387182712148e+17
19094.0	4.8954758352513696e+17
19095.0	4.894566587039743e+17
19096.0	4.8936595785864525e+17
19097.0	4.8927519661533856e+17
19098.0	4.891844146102272e+17
19099.0	4.8909359611467085e+17
19100.0	4.890028029946538e+17
19101.0	4.8891190298978976e+17
19102.0	4.888203943914155e+17
19103.0	4.8873050940811936e+17
19104.0	4.886397789929471e+17
19105.0	4.8854906304812365e+17
19106.0	4.884581434698411e+17
19107.0	4.883675594358783e+17
19108.0	4.8827701189236045e+17
19109.0	4.881832405368832e+17
19110.0	4.88095453614353e+17
19111.0	4.88005114667554e+17
19112.0	4.879145134369449e+17
19113.0	4.8782392961269754e+17
19114.0	4.8773335837136205e+17
19115.0	4.8764254805469856e+17
19116.0	4.8755225929973754e+17
19117.0	4.87461697495586e+17
19118.0	4.87370036154641e+17
19119.0	4.872254210965503e+17
19120.0	4.8718992630961485e+17
19121.0	4.8709953780012365e+17
19122.0	4.870093982225748e+17
19123.0	4.8691897259349325e+17
19124.0	4.868285680757419e+17
19125.0	4.8673817572147194e+17
19126.0	4.8664774310188365e+17
19127.0	4.865423953275562e+17
19128.0	4.8646698488736416e+17
19129.0	4.8637673709677216e+17
19130.0	4.862864735775402e+17
19131.0	4.8619615357501434e+17
19132.0	4.8610584363881805e+17
19133.0	4.8601488547293856e+17
19134.0	4.859253920279209e+17
19135.0	4.858351534647979e+17
19136.0	4.8574494272389114e+17
19137.0	4.8565344768709965e+17
19138.0	4.855643505339051e+17
19139.0	4.854743843908266e+17
19140.0	4.853842556485632e+17
19141.0	4.85294119985698e+17
19142.0	4.852039873287508e+17
19143.0	4.851134983656789e+17
19144.0	4.8502365763229e+17
19145.0	4.849337386751316e+17
19146.0	4.8483920102031354e+17
19147.0	4.847524414925482e+17
19148.0	4.8466359355091616e+17
19149.0	4.8457358819109536e+17
19150.0	4.844835335482025e+17
19151.0	4.8439362346898765e+17
19152.0	4.8430365040530765e+17
19153.0	4.842137134126421e+17
19154.0	4.8412272162242554e+17
19155.0	4.840338538277545e+17
19156.0	4.8394393640850765e+17
19157.0	4.838539946622976e+17
19158.0	4.837619208115541e+17
19159.0	4.8367419142089363e+17
19160.0	4.8358443611149645e+17
19161.0	4.834946289325396e+17
19162.0	4.8339995866781005e+17
19163.0	4.833146305860948e+17
19164.0	4.8322526681497594e+17
19165.0	4.831353814821546e+17
19166.0	4.83044583608593e+17
19167.0	4.8295551392808954e+17
19168.0	4.8286605354816845e+17
19169.0	4.827763193501012e+17
19170.0	4.8268684631736314e+17
19171.0	4.825968548686506e+17
19172.0	4.8250749109753165e+17
19173.0	4.824178368708607e+17
19174.0	4.8232772588448416e+17
19175.0	4.8223857098970445e+17
19176.0	4.8214896744420685e+17
19177.0	4.820581322413396e+17
19178.0	4.8196960796016634e+17
19179.0	4.8187980071130445e+17
19180.0	4.817905441745578e+17
19181.0	4.8170012469712205e+17
19182.0	4.81611210765107e+17
19183.0	4.815220193798825e+17
19184.0	4.8143235096248314e+17
19185.0	4.813429679674708e+17
19186.0	4.8125352855906976e+17
19187.0	4.811640264458239e+17
19188.0	4.8107458410141005e+17
19189.0	4.809851910400682e+17
19190.0	4.808957341554004e+17
19191.0	4.808062818844671e+17
19192.0	4.807169195813545e+17
19193.0	4.8062750967289165e+17
19194.0	4.8053813625487354e+17
19195.0	4.804487578036906e+17
19196.0	4.803593170670932e+17
19197.0	4.8026997636464634e+17
19198.0	4.8018068976872096e+17
19199.0	4.800626435293183e+17
19200.0	4.7998048690066765e+17
19201.0	4.799127504988843e+17
19202.0	4.7982348256761165e+17
19203.0	4.7973420897402874e+17
19204.0	4.796447378287274e+17
19205.0	4.795556408153428e+17
19206.0	4.794663238806185e+17
19207.0	4.7937663302369274e+17
19208.0	4.7928627128784205e+17
19209.0	4.7919872994181114e+17
19210.0	4.7910951569762976e+17
19211.0	4.7902031005177165e+17
19212.0	4.789311180374015e+17
19213.0	4.788416749939369e+17
19214.0	4.7875178889215994e+17
19215.0	4.786634599257429e+17
19216.0	4.785744013601449e+17
19217.0	4.784852648503977e+17
19218.0	4.7838924954228045e+17
19219.0	4.783058444091392e+17
19220.0	4.7821786440881485e+17
19221.0	4.7812627318265165e+17
19222.0	4.780393284064596e+17
19223.0	4.779504836105557e+17
19224.0	4.778613373840042e+17
19225.0	4.7777113775800314e+17
19226.0	4.7768321941394765e+17
19227.0	4.7759414952372896e+17
19228.0	4.7750507124490234e+17
19229.0	4.774159770976255e+17
19230.0	4.7732689322639354e+17
19231.0	4.772378628325375e+17
19232.0	4.7714868472927565e+17
19233.0	4.7705954968753485e+17
19234.0	4.769705117439317e+17
19235.0	4.7688163591017805e+17
19236.0	4.7679257706496e+17
19237.0	4.767034043443881e+17
19238.0	4.766141401879892e+17
19239.0	4.765254774947839e+17
19240.0	4.764360950590123e+17
19241.0	4.763472526398804e+17
19242.0	4.762582321725439e+17
19243.0	4.7616822080088736e+17
19244.0	4.7608030091892045e+17
19245.0	4.7599126584142496e+17
19246.0	4.759021097582591e+17
19247.0	4.758131758333952e+17
19248.0	4.757241543873877e+17
19249.0	4.756351010646698e+17
19250.0	4.7554600971359565e+17
19251.0	4.754558019087019e+17
19252.0	4.75366058832691e+17
19253.0	4.7527881031898445e+17
19254.0	4.751898032734207e+17
19255.0	4.750995643607721e+17
19256.0	4.750112141432149e+17
19257.0	4.7492265358131194e+17
19258.0	4.748335689411242e+17
19259.0	4.7474447437441696e+17
19260.0	4.746544935512747e+17
19261.0	4.7456627727182496e+17
19262.0	4.744771611743573e+17
19263.0	4.7438748919179936e+17
19264.0	4.742945183891455e+17
19265.0	4.7420787266682874e+17
19266.0	4.7411860592394234e+17
19267.0	4.7403142291128314e+17
19268.0	4.7394223627960314e+17
19269.0	4.738530372048213e+17
19270.0	4.737637125106346e+17
19271.0	4.7367176924255565e+17
19272.0	4.735850445974187e+17
19273.0	4.734842640007168e+17
19274.0	4.7339840911441914e+17
19275.0	4.7331748036826445e+17
19276.0	4.732281628043946e+17
19277.0	4.731388152512511e+17
19278.0	4.730494505014613e+17
19279.0	4.7296000920562336e+17
19280.0	4.728700350234623e+17
19281.0	4.7278113961629e+17
19282.0	4.7269171341994656e+17
19283.0	4.726017725825023e+17
19284.0	4.72512596995823e+17
19285.0	4.724217990523562e+17
19286.0	4.7233355012724045e+17
19287.0	4.722439307132927e+17
19288.0	4.7213770814696096e+17
19289.0	4.720360614963881e+17
19290.0	4.7197485709393914e+17
19291.0	4.718831259178325e+17
19292.0	4.717952193178281e+17
19293.0	4.717053739707049e+17
19294.0	4.7161554602994336e+17
19295.0	4.7152561036547405e+17
19296.0	4.7143562353049594e+17
19297.0	4.7134557629754016e+17
19298.0	4.7125550361914016e+17
19299.0	4.71165366697984e+17
19300.0	4.710751517627732e+17
19301.0	4.70984869089553e+17
19302.0	4.7089455258228045e+17
19303.0	4.708039361822719e+17
19304.0	4.7071348315040416e+17
19305.0	4.7062329107415034e+17
19306.0	4.705327397557589e+17
19307.0	4.704419068597589e+17
19308.0	4.7035138014795085e+17
19309.0	4.702594487637332e+17
19310.0	4.701683809168042e+17
19311.0	4.700786244190207e+17
19312.0	4.6998777383703885e+17
19313.0	4.6989658267757216e+17
19314.0	4.69740627689472e+17
19315.0	4.696520133006677e+17
19316.0	4.6962264548311034e+17
19317.0	4.695312608264191e+17
19318.0	4.694396496773119e+17
19319.0	4.6934794562437114e+17
19320.0	4.692561019011071e+17
19321.0	4.691641732431871e+17
19322.0	4.690713554627243e+17
19323.0	4.6897949796816205e+17
19324.0	4.688875991597055e+17
19325.0	4.6879410274085536e+17
19326.0	4.687025508013396e+17
19327.0	4.686097137270783e+17
19328.0	4.685169191550974e+17
19329.0	4.684239085764607e+17
19330.0	4.683304160722942e+17
19331.0	4.6823722360067405e+17
19332.0	4.681437951295487e+17
19333.0	4.680500759931562e+17
19334.0	4.6795615259415885e+17
19335.0	4.678620724680021e+17
19336.0	4.677677471847764e+17
19337.0	4.6767320393755296e+17
19338.0	4.6757681736362656e+17
19339.0	4.674835932949162e+17
19340.0	4.6738743293378554e+17
19341.0	4.67292328628497e+17
19342.0	4.671944344819027e+17
19343.0	4.6710141474570234e+17
19344.0	4.670052244652031e+17
19345.0	4.668935119044606e+17
19346.0	4.6680272458656403e+17
19347.0	4.6671439806682445e+17
19348.0	4.6661757137059834e+17
19349.0	4.665198740067668e+17
19350.0	4.664218349469695e+17
19351.0	4.6632346873146016e+17
19352.0	4.6622458242225485e+17
19353.0	4.661255723111764e+17
19354.0	4.6602607670941005e+17
19355.0	4.659254904487936e+17
19356.0	4.6582581155594234e+17
19357.0	4.657250511618047e+17
19358.0	4.6562366455807994e+17
19359.0	4.655215197640021e+17
19360.0	4.6541962054642336e+17
19361.0	4.6531690623576736e+17
19362.0	4.6521396780946765e+17
19363.0	4.6507124053770234e+17
19364.0	4.6494246764543994e+17
19365.0	4.648374944224597e+17
19366.0	4.647318614354602e+17
19367.0	4.64625580778018e+17
19368.0	4.645186308494676e+17
19369.0	4.644104461178196e+17
19370.0	4.6430141798154234e+17
19371.0	4.6419340857180154e+17
19372.0	4.6408345321471994e+17
19373.0	4.6397267185937056e+17
19374.0	4.6386104010888525e+17
19375.0	4.637484768034815e+17
19376.0	4.6363504387904845e+17
19377.0	4.635206520668159e+17
19378.0	4.634053228276394e+17
19379.0	4.6328887524720634e+17
19380.0	4.6317131974137165e+17
19381.0	4.630526187711146e+17
19382.0	4.6293217290048845e+17
19383.0	4.62810657132817e+17
19384.0	4.626890870489087e+17
19385.0	4.625653586460671e+17
19386.0	4.624402154345813e+17
19387.0	4.6231358135773856e+17
19388.0	4.621854245388287e+17
19389.0	4.620556826924373e+17
19390.0	4.6192428514454176e+17
19391.0	4.617500287303679e+17
19392.0	4.61652697948706e+17
19393.0	4.61519761510673e+17
19394.0	4.6138126398477645e+17
19395.0	4.6124082519517856e+17
19396.0	4.610982798163968e+17
19397.0	4.609536419692543e+17
19398.0	4.6080663084509856e+17
19399.0	4.6065147836716365e+17
19400.0	4.605043465169578e+17
19401.0	4.6035085491350176e+17
19402.0	4.6015434589907635e+17
19403.0	4.5993607173242874e+17
19404.0	4.5977258370443936e+17
19405.0	4.596062542452051e+17
19406.0	4.5943668943967565e+17
19407.0	4.5926356688568314e+17
19408.0	4.590803238955691e+17
19409.0	4.589059439591423e+17
19410.0	4.58721695105024e+17
19411.0	4.5851846492815354e+17
19412.0	4.582027406518955e+17
19413.0	4.58002562949666e+17
19414.0	4.577969244733439e+17
19415.0	4.575866974284458e+17
19416.0	4.5730373094604794e+17
19417.0	4.5696596336530765e+17
19418.0	4.567320684920831e+17
19419.0	4.564079762298197e+17
19420.0	4.560112468011689e+17
19421.0	4.556881920699051e+17
19422.0	4.551894299049983e+17
19423.0	4.547008372495705e+17
19424.0	4.541347379806207e+17
19425.0	4.5343054796335776e+17
19426.0	4.525589754369362e+17
19427.0	4.5150769963335686e+17
19428.0	4.5017369642270714e+17
19429.0	4.492633145606142e+17
19430.0	4.485950864359423e+17
19431.0	4.479089130515115e+17
19432.0	4.471866894144852e+17
19433.0	4.464034708105898e+17
19434.0	4.4556310299716256e+17
19435.0	4.445702281931433e+17
19436.0	4.4358444253184e+17
19437.0	4.4241829508765005e+17
19438.0	4.4106770941651603e+17
19439.0	4.395044299603969e+17
19440.0	4.3722804898911635e+17
19441.0	4.332604462115481e+17
19442.0	4.282835982614532e+17
19443.0	4.2511230059588256e+17
19444.0	4.2157924903376186e+17
19445.0	4.176955254155947e+17
19446.0	4.133771277587794e+17
19447.0	4.06297071792947e+17
19448.0	3.9380798350731994e+17
19449.0	3.7821499764463085e+17
19450.0	3.283723154882538e+17
19451.0	3.116252090335221e+17
19452.0	3.5722939159893344e+17
19453.0	3.880663965674158e+17
19454.0	3.997125090912937e+17
19455.0	4.101795595594397e+17
19456.0	4.149427323972268e+17
19457.0	4.1886099296310586e+17
19458.0	4.222469623775232e+17
19459.0	4.2555094153734835e+17
19460.0	4.29195541942545e+17
19461.0	4.340730057894578e+17
19462.0	4.368410643966638e+17
19463.0	4.385170749303467e+17
19464.0	4.397791470856874e+17
19465.0	4.4082576057084595e+17
19466.0	4.417120216896853e+17
19467.0	4.425559928995839e+17
19468.0	4.432925815384746e+17
19469.0	4.439339521365332e+17
19470.0	4.4452528391891616e+17
19471.0	4.450614274686976e+17
19472.0	4.4556072112182586e+17
19473.0	4.461270842824022e+17
19474.0	4.4709448267421037e+17
19475.0	4.4817826985628966e+17
19476.0	4.4895467243656506e+17
19477.0	4.495300676113748e+17
19478.0	4.4999280965277e+17
19479.0	4.504122052400468e+17
19480.0	4.5063717365568845e+17
19481.0	4.509491336140117e+17
19482.0	4.510582438188373e+17
19483.0	4.5134278015931725e+17
19484.0	4.5141387563936416e+17
19485.0	4.5147636944076794e+17
19486.0	4.5169853724972365e+17
19487.0	4.517491418770091e+17
19488.0	4.5178915190210554e+17
19489.0	4.518216474121557e+17
19490.0	4.518537879442772e+17
19491.0	4.520087989343573e+17
19492.0	4.520274925278549e+17
19493.0	4.5204189954266445e+17
19494.0	4.5205226786215245e+17
19495.0	4.520587809871189e+17
19496.0	4.5205815142208845e+17
19497.0	4.520608412991488e+17
19498.0	4.5204496634784416e+17
19499.0	4.519872216170495e+17
19500.0	4.520562653134846e+17
19501.0	4.5212245835120634e+17
19502.0	4.521069435508053e+17
19503.0	4.5208892370234016e+17
19504.0	4.5206850471198714e+17
19505.0	4.520456619032576e+17
19506.0	4.5202053131141114e+17
19507.0	4.519932226174975e+17
19508.0	4.5196401907684685e+17
19509.0	4.5193272278821536e+17
19510.0	4.5189794019409914e+17
19511.0	4.517533230388564e+17
19512.0	4.51813754081553e+17
19513.0	4.517688760074239e+17
19514.0	4.517342211298644e+17
19515.0	4.5170508616608416e+17
19516.0	4.5166571416453126e+17
19517.0	4.516211293421566e+17
19518.0	4.5157596144162125e+17
19519.0	4.515289396587178e+17
19520.0	4.514805216619178e+17
19521.0	4.5143121971554976e+17
19522.0	4.5138057622104736e+17
19523.0	4.513288543709866e+17
19524.0	4.5127617691866445e+17
19525.0	4.5122213820497914e+17
19526.0	4.5116746517271885e+17
19527.0	4.511117594329087e+17
19528.0	4.5105515778976416e+17
19529.0	4.5099768107499514e+17
19530.0	4.5093937102192634e+17
19531.0	4.508802669871102e+17
19532.0	4.508203914799785e+17
19533.0	4.5075979000872954e+17
19534.0	4.506984807486804e+17
19535.0	4.506364906831872e+17
19536.0	4.505737933881343e+17
19537.0	4.505105833394175e+17
19538.0	4.504451450667008e+17
19539.0	4.50378161262865e+17
19540.0	4.503172629747029e+17
19541.0	4.502517529094826e+17
19542.0	4.5018571834654714e+17
19543.0	4.5011918864602445e+17
19544.0	4.500521844998143e+17
19545.0	4.4997988965853856e+17
19546.0	4.4990980102116685e+17
19547.0	4.498485090276693e+17
19548.0	4.497796722502314e+17
19549.0	4.4970995131351034e+17
19550.0	4.4964106266651296e+17
19551.0	4.4957125029396474e+17
19552.0	4.495010604340564e+17
19553.0	4.4943030189643085e+17
19554.0	4.493594283649706e+17
19555.0	4.492885911142399e+17
19556.0	4.4921715198088525e+17
19557.0	4.491453973659647e+17
19558.0	4.4907341374204576e+17
19559.0	4.490011478414677e+17
19560.0	4.4892866907996154e+17
19561.0	4.488559116069545e+17
19562.0	4.4878292260836685e+17
19563.0	4.4875678692147194e+17
19564.0	4.486940016159402e+17
19565.0	4.486203123083946e+17
19566.0	4.485462610324138e+17
19567.0	4.4847230517684896e+17
19568.0	4.48398060683264e+17
19569.0	4.483235233573545e+17
19570.0	4.4824897701369165e+17
19571.0	4.4817417985064954e+17
19572.0	4.4809920435978234e+17
19573.0	4.480240426418176e+17
19574.0	4.4794884422369274e+17
19575.0	4.4787343692922874e+17
19576.0	4.4779788115640314e+17
19577.0	4.4772200326103034e+17
19578.0	4.47645980033024e+17
19579.0	4.475704443928575e+17
19580.0	4.474943323155114e+17
19581.0	4.474180777716393e+17
19582.0	4.4734191738989216e+17
19583.0	4.472655200998741e+17
19584.0	4.471890181619711e+17
19585.0	4.4711236711656096e+17
19586.0	4.4703460493011616e+17
19587.0	4.4695871640917325e+17
19588.0	4.468780277170176e+17
19589.0	4.4680501481089696e+17
19590.0	4.4672731602834765e+17
19591.0	4.46650865680384e+17
19592.0	4.465736384075092e+17
19593.0	4.464963758325759e+17
19594.0	4.4641734095448736e+17
19595.0	4.4634114282400416e+17
19596.0	4.462620357339818e+17
19597.0	4.461862723431083e+17
19598.0	4.4610553758351354e+17
19599.0	4.460311710356821e+17
19600.0	4.45953471484177e+17
19601.0	4.45875339989265e+17
19602.0	4.4579708609058125e+17
19603.0	4.4571635734282234e+17
19604.0	4.456415131336704e+17
19605.0	4.4556180891456845e+17
19606.0	4.454858659375787e+17
19607.0	4.454078026001066e+17
19608.0	4.45329633705984e+17
19609.0	4.4525129431340365e+17
19610.0	4.4517325774957216e+17
19611.0	4.4509495526686714e+17
19612.0	4.450167169570134e+17
19613.0	4.449384008428202e+17
19614.0	4.448600369135615e+17
19615.0	4.4478160063255885e+17
19616.0	4.447028717988523e+17
19617.0	4.446247603666943e+17
19618.0	4.4454106086331725e+17
19619.0	4.444615955098282e+17
19620.0	4.443836931637246e+17
19621.0	4.443106604045653e+17
19622.0	4.4423208004922016e+17
19623.0	4.441534694948863e+17
19624.0	4.4407483566216525e+17
19625.0	4.4399873141418656e+17
19626.0	4.4392025969131514e+17
19627.0	4.43841534422767e+17
19628.0	4.437621139483306e+17
19629.0	4.4368340580652365e+17
19630.0	4.4360048196976634e+17
19631.0	4.43495488753937e+17
19632.0	4.434478449557504e+17
19633.0	4.433690477548884e+17
19634.0	4.4329024943554554e+17
19635.0	4.432114353875626e+17
19636.0	4.431325827519828e+17
19637.0	4.430510902913707e+17
19638.0	4.4297476416471034e+17
19639.0	4.428960340727125e+17
19640.0	4.428153698473302e+17
19641.0	4.4273023344530765e+17
19642.0	4.4265938640786765e+17
19643.0	4.42580463587601e+17
19644.0	4.425011844612095e+17
19645.0	4.4242039223965005e+17
19646.0	4.4234375314800634e+17
19647.0	4.422648304675498e+17
19648.0	4.4218590443165e+17
19649.0	4.4210694784723616e+17
19650.0	4.420280388681727e+17
19651.0	4.4194909969012045e+17
19652.0	4.418701594634921e+17
19653.0	4.417911992440149e+17
19654.0	4.41712270062387e+17
19655.0	4.4163328027306656e+17
