# Flux units: erg / (cm m2 s)
# Wavelength units: Angstrom
wave	flux
19000.0	4.0802325738728096e+17
19001.0	4.0793231592871245e+17
19002.0	4.0787549191755085e+17
19003.0	4.078010470061396e+17
19004.0	4.077251203869354e+17
19005.0	4.0764948869720736e+17
19006.0	4.0755638605359776e+17
19007.0	4.0750512075352736e+17
19008.0	4.074192891456169e+17
19009.0	4.073380802898602e+17
19010.0	4.071862269815465e+17
19011.0	4.072017247950164e+17
19012.0	4.071118698708991e+17
19013.0	4.070597720014846e+17
19014.0	4.0697817195697485e+17
19015.0	4.0690055524297376e+17
19016.0	4.0682343408599034e+17
19017.0	4.0676423889496736e+17
19018.0	4.0668832520820045e+17
19019.0	4.0661153015835296e+17
19020.0	4.0654041727194445e+17
19021.0	4.0646858988584954e+17
19022.0	4.063943002335914e+17
19023.0	4.063152687109461e+17
19024.0	4.062397536927743e+17
19025.0	4.061727670228308e+17
19026.0	4.0609428048008525e+17
19027.0	4.060181899334996e+17
19028.0	4.0595255201191245e+17
19029.0	4.05875902784034e+17
19030.0	4.058062303614293e+17
19031.0	4.0573268338059936e+17
19032.0	4.056572521086976e+17
19033.0	4.0557001051559245e+17
19034.0	4.0551009802868045e+17
19035.0	4.0543390276430483e+17
19036.0	4.0457717919252454e+17
19037.0	4.052900133208063e+17
19038.0	4.0521430767151776e+17
19039.0	4.0514221122082125e+17
19040.0	4.0507087764411725e+17
19041.0	4.049960172868949e+17
19042.0	4.0482759060575546e+17
19043.0	4.048511677672105e+17
19044.0	4.047757678127785e+17
19045.0	4.0470348821080736e+17
19046.0	4.046184911994878e+17
19047.0	4.04554372944145e+17
19048.0	4.044273889924436e+17
19049.0	4.042356591777107e+17
19050.0	4.04326013084194e+17
19051.0	4.041538461324627e+17
19052.0	4.041744816887125e+17
19053.0	4.041174175536468e+17
19054.0	4.040436057724245e+17
19055.0	4.0390473935749126e+17
19056.0	4.0388351303352314e+17
19057.0	4.038235351154687e+17
19058.0	4.0366336897624736e+17
19059.0	4.036430916135595e+17
19060.0	4.0360064043362976e+17
19061.0	4.03531955769617e+17
19062.0	4.034579096666111e+17
19063.0	4.0338492744881485e+17
19064.0	4.0329011548651526e+17
19065.0	4.032122321545898e+17
19066.0	4.031254455735638e+17
19067.0	4.030913287553023e+17
19068.0	4.0302011541531296e+17
19069.0	4.02947193106159e+17
19070.0	4.028691534665044e+17
19071.0	4.028001671621289e+17
19072.0	4.0269452285050874e+17
19073.0	4.026540483062442e+17
19074.0	4.025826272783018e+17
19075.0	4.0250966526306976e+17
19076.0	4.0242581441522336e+17
19077.0	4.023600560472063e+17
19078.0	4.0228205765154125e+17
19079.0	4.0221750773241165e+17
19080.0	4.0214265946876576e+17
19081.0	4.020639945981951e+17
19082.0	4.019917861595817e+17
19083.0	4.019137435839146e+17
19084.0	4.018223905942187e+17
19085.0	4.0177817941442554e+17
19086.0	4.016138205790208e+17
19087.0	4.015483508490238e+17
19088.0	4.0151169067472205e+17
19089.0	4.014553378936149e+17
19090.0	4.014139784910165e+17
19091.0	4.013322642216277e+17
19092.0	4.0120013763379194e+17
19093.0	4.0119992337476256e+17
19094.0	4.0112691571152205e+17
19095.0	4.010546437292032e+17
19096.0	4.009789328370346e+17
19097.0	4.009089670927702e+17
19098.0	4.0080088078745594e+17
19099.0	4.007224152861355e+17
19100.0	4.006847028308649e+17
19101.0	4.006175187490132e+17
19102.0	4.005195866439679e+17
19103.0	4.0047338505721165e+17
19104.0	4.0040202848174074e+17
19105.0	4.0025416780130995e+17
19106.0	4.002531614479701e+17
19107.0	4.001625648310954e+17
19108.0	4.0008545248215034e+17
19109.0	4.000000146494804e+17
19110.0	3.9996708419010554e+17
19111.0	3.998743257590442e+17
19112.0	3.997873193964884e+17
19113.0	3.9974916779758925e+17
19114.0	3.996643048641876e+17
19115.0	3.9958391858135034e+17
19116.0	3.995250302735701e+17
19117.0	3.9945814510578336e+17
19118.0	3.9937287672299526e+17
19119.0	3.965453282749057e+17
19120.0	3.992368291599701e+17
19121.0	3.991682032861183e+17
19122.0	3.9910053776807245e+17
19123.0	3.9902841307572896e+17
19124.0	3.989537522275669e+17
19125.0	3.988835805429759e+17
19126.0	3.9881215371291296e+17
19127.0	3.983906159547731e+17
19128.0	3.9866627001767245e+17
19129.0	3.985838806750548e+17
19130.0	3.985209397608448e+17
19131.0	3.9845088642553165e+17
19132.0	3.9837875586116256e+17
19133.0	3.9829822130967885e+17
19134.0	3.982348097246549e+17
19135.0	3.9816286839330125e+17
19136.0	3.980913771107668e+17
19137.0	3.9798912682994336e+17
19138.0	3.979454630068223e+17
19139.0	3.97876143325184e+17
19140.0	3.9780444414498125e+17
19141.0	3.9773247527103136e+17
19142.0	3.9765590447663763e+17
19143.0	3.9757699151298554e+17
19144.0	3.9751078917789e+17
19145.0	3.974446636684629e+17
19146.0	3.972685715472385e+17
19147.0	3.972680576051882e+17
19148.0	3.971989298129578e+17
19149.0	3.971236087813461e+17
19150.0	3.970846808866815e+17
19151.0	3.9701376869771936e+17
19152.0	3.969419015356416e+17
19153.0	3.96811438268962e+17
19154.0	3.967685536776191e+17
19155.0	3.967282019565568e+17
19156.0	3.966561041776638e+17
19157.0	3.9656347465154554e+17
19158.0	3.964466402863786e+17
19159.0	3.9643162789369165e+17
19160.0	3.9636793668840096e+17
19161.0	3.962979022274559e+17
19162.0	3.961647135020374e+17
19163.0	3.9615447527587834e+17
19164.0	3.9608300755135136e+17
19165.0	3.959453566457171e+17
19166.0	3.9591236879428256e+17
19167.0	3.958536025407487e+17
19168.0	3.9579718614603085e+17
19169.0	3.9572403084328954e+17
19170.0	3.95655263481583e+17
19171.0	3.955792743672491e+17
19172.0	3.9551239402291194e+17
19173.0	3.9544104625547936e+17
19174.0	3.9535775772398925e+17
19175.0	3.952973898055679e+17
19176.0	3.9522659100262394e+17
19177.0	3.951293586472959e+17
19178.0	3.9507206550323194e+17
19179.0	3.949938099967317e+17
19180.0	3.9494070919932576e+17
19181.0	3.9483529410641914e+17
19182.0	3.9479256624223565e+17
19183.0	3.947283708816042e+17
19184.0	3.9465192780376736e+17
19185.0	3.945838887829504e+17
19186.0	3.945144813704533e+17
19187.0	3.9443423398898336e+17
19188.0	3.9436926771527674e+17
19189.0	3.9430172068631885e+17
19190.0	3.9423055795759776e+17
19191.0	3.941513422351018e+17
19192.0	3.9408829345737376e+17
19193.0	3.9400915952380576e+17
19194.0	3.939321328784725e+17
19195.0	3.938749987684351e+17
19196.0	3.9380114770056525e+17
19197.0	3.937318173234517e+17
19198.0	3.936626601710932e+17
19199.0	3.932045912134996e+17
19200.0	3.932635462806187e+17
19201.0	3.934481559846912e+17
19202.0	3.9337882476871674e+17
19203.0	3.933067767622314e+17
19204.0	3.932321496782165e+17
19205.0	3.9316445815548576e+17
19206.0	3.9309177890624845e+17
19207.0	3.9300415136727034e+17
19208.0	3.929023246412457e+17
19209.0	3.928804679133866e+17
19210.0	3.928100101073578e+17
19211.0	3.927403162238976e+17
19212.0	3.9267001577417376e+17
19213.0	3.925843545249108e+17
19214.0	3.925064467262122e+17
19215.0	3.924572363554816e+17
19216.0	3.9238793610745165e+17
19217.0	3.9231641092095994e+17
19218.0	3.9209755710149946e+17
19219.0	3.921549695036074e+17
19220.0	3.9210131918247245e+17
19221.0	3.919749732543146e+17
19222.0	3.919633499291648e+17
19223.0	3.9188981993526605e+17
19224.0	3.9181606862192634e+17
19225.0	3.9172349956369056e+17
19226.0	3.9167816836491936e+17
19227.0	3.9160830188584954e+17
19228.0	3.915410482484566e+17
19229.0	3.9147047649716896e+17
19230.0	3.9139856934939296e+17
19231.0	3.9132765792938656e+17
19232.0	3.912580347898538e+17
19233.0	3.911776891218602e+17
19234.0	3.9111381238852256e+17
19235.0	3.9104301484386976e+17
19236.0	3.9097770365856416e+17
19237.0	3.90903704391953e+17
19238.0	3.908191089153365e+17
19239.0	3.907666752219818e+17
19240.0	3.9069525118812166e+17
19241.0	3.906225694223019e+17
19242.0	3.9055310266040314e+17
19243.0	3.9046155351709e+17
19244.0	3.904149619299668e+17
19245.0	3.903424198344704e+17
19246.0	3.9027151225924256e+17
19247.0	3.902031530732202e+17
19248.0	3.9013456977155405e+17
19249.0	3.9006262263807994e+17
19250.0	3.8997989928905376e+17
19251.0	3.8989335520870394e+17
19252.0	3.898129899672916e+17
19253.0	3.8977832117862394e+17
19254.0	3.897135333725525e+17
19255.0	3.896151368182442e+17
19256.0	3.895665193822891e+17
19257.0	3.895032292223659e+17
19258.0	3.8943345173244576e+17
19259.0	3.8935255269594445e+17
19260.0	3.8927132978926925e+17
19261.0	3.892213900989781e+17
19262.0	3.891439044569769e+17
19263.0	3.8907117117112314e+17
19264.0	3.889026007651667e+17
19265.0	3.889001870131199e+17
19266.0	3.8879021711578464e+17
19267.0	3.888031768160938e+17
19268.0	3.887321801818112e+17
19269.0	3.8866287294327456e+17
19270.0	3.885935566869844e+17
19271.0	3.8845448398219955e+17
19272.0	3.884475511472127e+17
19273.0	3.8830983844549946e+17
19274.0	3.8823811549757414e+17
19275.0	3.882445924117163e+17
19276.0	3.881713544811861e+17
19277.0	3.881028295502506e+17
19278.0	3.8803247038027085e+17
19279.0	3.879615602884606e+17
19280.0	3.8787837472713376e+17
19281.0	3.8782324178944e+17
19282.0	3.8775639164409165e+17
19283.0	3.876812148266325e+17
19284.0	3.87612688847121e+17
19285.0	3.875163726675968e+17
19286.0	3.874704744688297e+17
19287.0	3.874070220592468e+17
19288.0	3.8711938577858534e+17
19289.0	3.867454301623628e+17
19290.0	3.8719844743031456e+17
19291.0	3.87089197694976e+17
19292.0	3.8705905477003936e+17
19293.0	3.8698857829935776e+17
19294.0	3.869184124168874e+17
19295.0	3.8685083959295994e+17
19296.0	3.86747352551697e+17
19297.0	3.8670074698356045e+17
19298.0	3.866374812904106e+17
19299.0	3.865344063395157e+17
19300.0	3.8649877915238394e+17
19301.0	3.8643287971594234e+17
19302.0	3.8636179535080096e+17
19303.0	3.8628208581891405e+17
19304.0	3.862202567447893e+17
19305.0	3.861532866423466e+17
19306.0	3.860858167885823e+17
19307.0	3.860086741707433e+17
19308.0	3.85943646240768e+17
19309.0	3.858624505271638e+17
19310.0	3.85788114178321e+17
19311.0	3.8573393572440736e+17
19312.0	3.85669583147281e+17
19313.0	3.856021655825066e+17
19314.0	3.8290805646950496e+17
19315.0	3.829570423051635e+17
19316.0	3.853479454616234e+17
19317.0	3.853229851585195e+17
19318.0	3.852544185641642e+17
19319.0	3.8518743958377805e+17
19320.0	3.8510311163385165e+17
19321.0	3.850199685748052e+17
19322.0	3.849685334054229e+17
19323.0	3.849045537019221e+17
19324.0	3.848416053777749e+17
19325.0	3.847593484353536e+17
19326.0	3.8470450022099616e+17
19327.0	3.8463126250018125e+17
19328.0	3.844995744967338e+17
19329.0	3.844977933855402e+17
19330.0	3.844215010929322e+17
19331.0	3.8435198966169594e+17
19332.0	3.8429030221523616e+17
19333.0	3.842197851297108e+17
19334.0	3.84149393314065e+17
19335.0	3.839497552090455e+17
19336.0	3.840117236039679e+17
19337.0	3.839453537763328e+17
19338.0	3.838410047356927e+17
19339.0	3.8380792153374714e+17
19340.0	3.8367315274410656e+17
19341.0	3.8360508520202234e+17
19342.0	3.835150592202067e+17
19343.0	3.8353281398865914e+17
19344.0	3.8341556830208e+17
19345.0	3.82962535025868e+17
19346.0	3.831506685744467e+17
19347.0	3.8318449318952954e+17
19348.0	3.831894733662889e+17
19349.0	3.8311561852354554e+17
19350.0	3.8302576569658016e+17
19351.0	3.829759162537301e+17
19352.0	3.828355844887891e+17
19353.0	3.82845628518673e+17
19354.0	3.827779590160383e+17
19355.0	3.8269315599127885e+17
19356.0	3.8264045253427194e+17
19357.0	3.82572391633169e+17
19358.0	3.825034183311359e+17
19359.0	3.824099491752618e+17
19360.0	3.823091949327701e+17
19361.0	3.8229086372713805e+17
19362.0	3.8222977564671994e+17
19363.0	3.821610063276715e+17
19364.0	3.820921194283008e+17
19365.0	3.820232420360192e+17
19366.0	3.819555002515455e+17
19367.0	3.8188731743600634e+17
19368.0	3.8181894874289485e+17
19369.0	3.8174227427928736e+17
19370.0	3.8167449656360954e+17
19371.0	3.8160489712189434e+17
19372.0	3.8154502301286394e+17
19373.0	3.8147401826959354e+17
19374.0	3.814075957335381e+17
19375.0	3.813392545131178e+17
19376.0	3.81270832901871e+17
19377.0	3.81200638218513e+17
19378.0	3.8113297374904314e+17
19379.0	3.810652591576404e+17
19380.0	3.809968996220927e+17
19381.0	3.8092753974504096e+17
19382.0	3.8084960608146765e+17
19383.0	3.8077265381512525e+17
19384.0	3.8071965836465485e+17
19385.0	3.8065515751888205e+17
19386.0	3.8058778364477434e+17
19387.0	3.8051959628540576e+17
19388.0	3.804512214406484e+17
19389.0	3.8038271370635936e+17
19390.0	3.8031459646177274e+17
19391.0	3.7951491989831565e+17
19392.0	3.8016895435844243e+17
19393.0	3.8010973064615245e+17
19394.0	3.80039904362496e+17
19395.0	3.7995279090537805e+17
19396.0	3.798983775005354e+17
19397.0	3.79837096202513e+17
19398.0	3.797472556089344e+17
19399.0	3.7952056200615245e+17
19400.0	3.796062768726015e+17
19401.0	3.7956244793371296e+17
19402.0	3.7949563798377805e+17
19403.0	3.7942415606852256e+17
19404.0	3.7935887878717434e+17
19405.0	3.7928797379843405e+17
19406.0	3.792209751747242e+17
19407.0	3.791302221802153e+17
19408.0	3.789185383836335e+17
19409.0	3.790157575269034e+17
19410.0	3.789493786815146e+17
19411.0	3.788809498700459e+17
19412.0	3.788109600784382e+17
19413.0	3.7871889797174605e+17
19414.0	3.7866701457107616e+17
19415.0	3.7860343192835405e+17
19416.0	3.785087659278335e+17
19417.0	3.78460521435409e+17
19418.0	3.783993578575189e+17
19419.0	3.7832999448521376e+17
19420.0	3.7826140412313594e+17
19421.0	3.7819227647071565e+17
19422.0	3.781153058193406e+17
19423.0	3.780515340135082e+17
19424.0	3.779826377468586e+17
19425.0	3.77912787276049e+17
19426.0	3.778425559624363e+17
19427.0	3.77770147385617e+17
19428.0	3.7770014605967354e+17
19429.0	3.776280849110357e+17
19430.0	3.775437338225323e+17
19431.0	3.773498712741207e+17
19432.0	3.77408878280704e+17
19433.0	3.7733267504715085e+17
19434.0	3.7725564036273485e+17
19435.0	3.771609803740501e+17
19436.0	3.770288332341246e+17
19437.0	3.770136473370623e+17
19438.0	3.752522640523268e+17
19439.0	3.767869449262421e+17
19440.0	3.7672566502632096e+17
19441.0	3.7661242378158074e+17
19442.0	3.764855890771967e+17
19443.0	3.7633518937483936e+17
19444.0	3.761456660436308e+17
19445.0	3.7588407534223354e+17
19446.0	3.7549447266522445e+17
19447.0	3.748228852525738e+17
19448.0	3.733757063681366e+17
19449.0	3.669098024839843e+17
19450.0	3.1516942716108717e+17
19451.0	2.8004123242659827e+17
19452.0	3.330220472227159e+17
19453.0	3.700355429477041e+17
19454.0	3.734702333973844e+17
19455.0	3.744879161813675e+17
19456.0	3.7492128103792634e+17
19457.0	3.751375050287786e+17
19458.0	3.653214891846462e+17
19459.0	3.7492281643281363e+17
19460.0	3.75298309890594e+17
19461.0	3.7528968814919674e+17
19462.0	3.7526141504498336e+17
19463.0	3.752285734349482e+17
19464.0	3.7518379916984314e+17
19465.0	3.7513972954781e+17
19466.0	3.750800459300863e+17
19467.0	3.7503395045922125e+17
19468.0	3.7497770330466976e+17
19469.0	3.748104157265919e+17
19470.0	3.748585677346132e+17
19471.0	3.7480106816088736e+17
19472.0	3.7472931326634656e+17
19473.0	3.746651496426154e+17
19474.0	3.745651188476586e+17
19475.0	3.743557068958376e+17
19476.0	3.744717003729578e+17
19477.0	3.74417329819921e+17
19478.0	3.743597749512874e+17
19479.0	3.7424704254552736e+17
19480.0	3.7422638475946656e+17
19481.0	3.7414596268523526e+17
19482.0	3.7409686052754765e+17
19483.0	3.7403656482106016e+17
19484.0	3.7396882841927674e+17
19485.0	3.738931710743893e+17
19486.0	3.737798432172715e+17
19487.0	3.73772138909969e+17
19488.0	3.7370954808033274e+17
19489.0	3.736229213721942e+17
19490.0	3.732659064799228e+17
19491.0	3.7350620997003936e+17
19492.0	3.734467159348565e+17
19493.0	3.733809739945302e+17
19494.0	3.733139885129727e+17
19495.0	3.7324772214483616e+17
19496.0	3.7308270536294374e+17
19497.0	3.731108592790186e+17
19498.0	3.729807551845717e+17
19499.0	3.717880109596665e+17
19500.0	3.729170558702932e+17
19501.0	3.728576267070122e+17
19502.0	3.7279378324848634e+17
19503.0	3.727281516183551e+17
19504.0	3.7266209594408954e+17
19505.0	3.725947131920384e+17
19506.0	3.725302433841151e+17
19507.0	3.724581080662016e+17
19508.0	3.7239812868014086e+17
19509.0	3.723313708094804e+17
19510.0	3.7221845021928096e+17
19511.0	3.6809739617348e+17
19512.0	3.719535208518993e+17
19513.0	3.716724710965242e+17
19514.0	3.717513156930216e+17
19515.0	3.718379973465432e+17
19516.0	3.7185866359111674e+17
19517.0	3.717851946942463e+17
19518.0	3.7172310955786234e+17
19519.0	3.716552891301887e+17
19520.0	3.715538853997225e+17
19521.0	3.71537604509696e+17
19522.0	3.7146059345319245e+17
19523.0	3.713928943108095e+17
19524.0	3.713068572519083e+17
19525.0	3.7127076030272845e+17
19526.0	3.7120788433032525e+17
19527.0	3.711384804130816e+17
19528.0	3.7107082677889696e+17
19529.0	3.710026833898154e+17
19530.0	3.7094404736942074e+17
19531.0	3.7087809186911565e+17
19532.0	3.708121432894122e+17
19533.0	3.707461504598016e+17
19534.0	3.7067973987751245e+17
19535.0	3.7061159278346234e+17
19536.0	3.705414297670997e+17
19537.0	3.7048188945476256e+17
19538.0	3.7035158599106566e+17
19539.0	3.7023595986507117e+17
19540.0	3.702802766015146e+17
19541.0	3.7020987157381114e+17
19542.0	3.701481960811178e+17
19543.0	3.700414502753621e+17
19544.0	3.7001797070138016e+17
19545.0	3.6986201515403923e+17
19546.0	3.697056674392746e+17
19547.0	3.698246964740095e+17
19548.0	3.697584679944191e+17
19549.0	3.6967785472983034e+17
19550.0	3.696269550332586e+17
19551.0	3.695619533176832e+17
19552.0	3.694957644043603e+17
19553.0	3.6942584773345274e+17
19554.0	3.6935572197649056e+17
19555.0	3.6929201581151565e+17
19556.0	3.6923045559227725e+17
19557.0	3.691669586531669e+17
19558.0	3.6910170597840205e+17
19559.0	3.690367134902953e+17
19560.0	3.6895171298372256e+17
19561.0	3.68901342957841e+17
19562.0	3.688235236589567e+17
19563.0	3.6877497822522016e+17
19564.0	3.687095758837078e+17
19565.0	3.6864361143555405e+17
19566.0	3.685729959935999e+17
19567.0	3.685130860931754e+17
19568.0	3.6844459185056416e+17
19569.0	3.6837828074318496e+17
19570.0	3.6831662384523936e+17
19571.0	3.6825005276091725e+17
19572.0	3.6818100074577914e+17
19573.0	3.681122331044522e+17
19574.0	3.6803990030472525e+17
19575.0	3.6798966121103354e+17
19576.0	3.6792172047674016e+17
19577.0	3.6784822543537485e+17
19578.0	3.677851784052735e+17
19579.0	3.677232544000682e+17
19580.0	3.676593737520469e+17
19581.0	3.6759503298887674e+17
19582.0	3.675332371196585e+17
19583.0	3.6746809412594336e+17
19584.0	3.6740189430743034e+17
19585.0	3.67319074349602e+17
19586.0	3.672492961606315e+17
19587.0	3.672047999778815e+17
19588.0	3.670476691166551e+17
19589.0	3.6707349281723725e+17
19590.0	3.6698147097586336e+17
19591.0	3.669452214239231e+17
19592.0	3.6688020964201805e+17
19593.0	3.6680949884955296e+17
19594.0	3.667066007584767e+17
19595.0	3.666794895463765e+17
19596.0	3.666136879770282e+17
19597.0	3.6655420659466234e+17
19598.0	3.663538432944809e+17
19599.0	3.6642513108336634e+17
19600.0	3.663612834305365e+17
19601.0	3.6628452557018445e+17
19602.0	3.66223251542289e+17
19603.0	3.6607949317079014e+17
19604.0	3.66094799863808e+17
19605.0	3.659850557598378e+17
19606.0	3.659703747171668e+17
19607.0	3.659068013718186e+17
19608.0	3.6583918443779405e+17
19609.0	3.6576755753943034e+17
19610.0	3.656889302078805e+17
19611.0	3.6561324783697914e+17
19612.0	3.6558298411608736e+17
19613.0	3.6551656717243725e+17
19614.0	3.654473029255168e+17
19615.0	3.653882125920938e+17
19616.0	3.6529449121873914e+17
19617.0	3.652208680413866e+17
19618.0	3.650767161742675e+17
19619.0	3.6497352504115174e+17
19620.0	3.6491246590143136e+17
19621.0	3.6495543137293645e+17
19622.0	3.649354496387755e+17
19623.0	3.648691216842751e+17
19624.0	3.6479950770230605e+17
19625.0	3.64741762412271e+17
19626.0	3.6467568772382714e+17
19627.0	3.6461268829907616e+17
19628.0	3.645367269370538e+17
19629.0	3.643555487328938e+17
19630.0	3.644029842139818e+17
19631.0	3.63938005979409e+17
19632.0	3.6428873004482554e+17
19633.0	3.642173219493205e+17
19634.0	3.6416017120187725e+17
19635.0	3.6408316273186125e+17
19636.0	3.639787098821972e+17
19637.0	3.638695002723669e+17
19638.0	3.6389368022521165e+17
19639.0	3.6383603245274445e+17
19640.0	3.6374612768631475e+17
19641.0	3.633527348264967e+17
19642.0	3.636407311881557e+17
19643.0	3.635755039588351e+17
19644.0	3.635051609369258e+17
19645.0	3.63395136234018e+17
19646.0	3.633316107736404e+17
19647.0	3.6332134465535994e+17
19648.0	3.6325876319300256e+17
19649.0	3.631934627031722e+17
19650.0	3.631305624038058e+17
19651.0	3.630658027694763e+17
19652.0	3.630011569405951e+17
19653.0	3.6293750096745805e+17
19654.0	3.628727932725931e+17
19655.0	3.628070321782784e+17
