# Flux units: erg / (cm m2 s)
# Wavelength units: Angstrom
wave	flux
19000.0	8.405080734695424e+17
19001.0	8.40360506110771e+17
19002.0	8.40221248926515e+17
19003.0	8.400772983160831e+17
19004.0	8.399331094691837e+17
19005.0	8.397888030419625e+17
19006.0	8.396441082221908e+17
19007.0	8.394951682075305e+17
19008.0	8.393515801247743e+17
19009.0	8.392046261130579e+17
19010.0	8.390456400412671e+17
19011.0	8.38915059753506e+17
19012.0	8.387573855201961e+17
19013.0	8.386243069651625e+17
19014.0	8.384743477346301e+17
19015.0	8.383287371584854e+17
19016.0	8.381815741306196e+17
19017.0	8.380353446150143e+17
19018.0	8.378876441569962e+17
19019.0	8.377409233485821e+17
19020.0	8.375916008133974e+17
19021.0	8.37444713910545e+17
19022.0	8.372966292542803e+17
19023.0	8.371459781033981e+17
19024.0	8.370915145067177e+17
19025.0	8.370984015538856e+17
19026.0	8.369476026236927e+17
19027.0	8.367892124226902e+17
19028.0	8.36651028840448e+17
19029.0	8.365013900547412e+17
19030.0	8.363514350185128e+17
19031.0	8.362012253880319e+17
19032.0	8.360507710898176e+17
19033.0	8.358961392648192e+17
19034.0	8.357484430011052e+17
19035.0	8.355888908380842e+17
19036.0	8.347275737344681e+17
19037.0	8.352902977770836e+17
19038.0	8.351429448870569e+17
19039.0	8.349932545114112e+17
19040.0	8.348417980541609e+17
19041.0	8.346900222705663e+17
19042.0	8.345345445942612e+17
19043.0	8.343859237661353e+17
19044.0	8.342334919933952e+17
19045.0	8.340810325382483e+17
19046.0	8.339264360852136e+17
19047.0	8.337745522283859e+17
19048.0	8.336148753547263e+17
19049.0	8.334662362114726e+17
19050.0	8.333130100375552e+17
19051.0	8.330462784476498e+17
19052.0	8.329818946229587e+17
19053.0	8.328536870529705e+17
19054.0	8.327015346208764e+17
19055.0	8.325367295115263e+17
19056.0	8.323927645006505e+17
19057.0	8.322390783513939e+17
19058.0	8.320838963735209e+17
19059.0	8.319305287117481e+17
19060.0	8.317751331039913e+17
19061.0	8.316212226992808e+17
19062.0	8.314661366311592e+17
19063.0	8.313111176719016e+17
19064.0	8.311515624330579e+17
19065.0	8.309927497258323e+17
19066.0	8.308424753632596e+17
19067.0	8.306897930507603e+17
19068.0	8.305341531947007e+17
19069.0	8.303783862512298e+17
19070.0	8.302221043870377e+17
19071.0	8.300664269220521e+17
19072.0	8.299102591429288e+17
19073.0	8.29753794686703e+17
19074.0	8.295975751778303e+17
19075.0	8.294410662619817e+17
19076.0	8.293349194727424e+17
19077.0	8.291906108085588e+17
19078.0	8.290330632432298e+17
19079.0	8.288768479286611e+17
19080.0	8.287192700245331e+17
19081.0	8.285601289033046e+17
19082.0	8.284027981834921e+17
19083.0	8.282418047178066e+17
19084.0	8.280775506001917e+17
19085.0	8.279303498235903e+17
19086.0	8.277533569056767e+17
19087.0	8.275993982664703e+17
19088.0	8.274474629595133e+17
19089.0	8.272811894243327e+17
19090.0	8.271362627993597e+17
19091.0	8.26978849451759e+17
19092.0	8.268166322279762e+17
19093.0	8.266633245447508e+17
19094.0	8.265041816059905e+17
19095.0	8.263452423705939e+17
19096.0	8.26186759475473e+17
19097.0	8.260281931137021e+17
19098.0	8.258691388145664e+17
19099.0	8.257097850421247e+17
19100.0	8.255490534408191e+17
19101.0	8.253905922162685e+17
19102.0	8.252276728659965e+17
19103.0	8.250711664667306e+17
19104.0	8.249111423046995e+17
19105.0	8.247506647384064e+17
19106.0	8.245879555227647e+17
19107.0	8.244289883253417e+17
19108.0	8.242672507901266e+17
19109.0	8.240479852997288e+17
19110.0	8.239387194862249e+17
19111.0	8.237875982936748e+17
19112.0	8.236277789534889e+17
19113.0	8.234671779348479e+17
19114.0	8.2330624472733e+17
19115.0	8.231428273733631e+17
19116.0	8.229828468320936e+17
19117.0	8.228212573558098e+17
19118.0	8.226551785761449e+17
19119.0	8.224052306335058e+17
19120.0	8.223313172103167e+17
19121.0	8.221713437993641e+17
19122.0	8.220145428201471e+17
19123.0	8.218525778138454e+17
19124.0	8.216856052279978e+17
19125.0	8.215277534358185e+17
19126.0	8.213647694932649e+17
19127.0	8.211378045190144e+17
19128.0	8.210170869972992e+17
19129.0	8.20874281431859e+17
19130.0	8.207153094808915e+17
19131.0	8.20552633819682e+17
19132.0	8.203893348848979e+17
19133.0	8.202179967276374e+17
19134.0	8.200524202857811e+17
19135.0	8.198998126318932e+17
19136.0	8.19736337116911e+17
19137.0	8.195667489630889e+17
19138.0	8.194081360445437e+17
19139.0	8.192451536399017e+17
19140.0	8.190813237062313e+17
19141.0	8.188272357059242e+17
19142.0	8.185120118101331e+17
19143.0	8.183468901706409e+17
19144.0	8.181839910928381e+17
19145.0	8.180197604633258e+17
19146.0	8.178298971837779e+17
19147.0	8.17687283577651e+17
19148.0	8.175251692541266e+17
19149.0	8.17360165614387e+17
19150.0	8.171950411786922e+17
19151.0	8.170299037406548e+17
19152.0	8.168633915495764e+17
19153.0	8.166977320605012e+17
19154.0	8.165279211891369e+17
19155.0	8.163662792840531e+17
19156.0	8.161991143194621e+17
19157.0	8.160271124834986e+17
19158.0	8.158347116500308e+17
19159.0	8.156958594957311e+17
19160.0	8.155319412020564e+17
19161.0	8.153609060133545e+17
19162.0	8.151050183770112e+17
19163.0	8.150186856196778e+17
19164.0	8.148651429156179e+17
19165.0	8.14697852960768e+17
19166.0	8.145263387825491e+17
19167.0	8.143551531581439e+17
19168.0	8.141943874431654e+17
19169.0	8.140271992700927e+17
19170.0	8.138604095558995e+17
19171.0	8.136893701728936e+17
19172.0	8.1352362847546e+17
19173.0	8.133557146877952e+17
19174.0	8.131853044503892e+17
19175.0	8.130184767078399e+17
19176.0	8.128493018327721e+17
19177.0	8.126732583654739e+17
19178.0	8.125073122656253e+17
19179.0	8.12335638144614e+17
19180.0	8.12169531962163e+17
19181.0	8.117242829646508e+17
19182.0	8.115351987071657e+17
19183.0	8.113657907686058e+17
19184.0	8.111945441869824e+17
19185.0	8.110244620839594e+17
19186.0	8.108537487381842e+17
19187.0	8.106796161957885e+17
19188.0	8.105111131084118e+17
19189.0	8.103386636004009e+17
19190.0	8.10165945377314e+17
19191.0	8.099943373864956e+17
19192.0	8.098225079364266e+17
19193.0	8.096487335875927e+17
19194.0	8.094753734961833e+17
19195.0	8.093008121561088e+17
19196.0	8.091233410875391e+17
19197.0	8.089406602739711e+17
19198.0	8.087316723662847e+17
19199.0	8.080171415022249e+17
19200.0	8.079588631860566e+17
19201.0	8.082147344646143e+17
19202.0	8.080716375348566e+17
19203.0	8.078602247602177e+17
19204.0	8.075545961736873e+17
19205.0	8.073821166064979e+17
19206.0	8.072072757859668e+17
19207.0	8.070298147837267e+17
19208.0	8.068498127323135e+17
19209.0	8.066810771406848e+17
19210.0	8.064721013964799e+17
19211.0	8.062242845797034e+17
19212.0	8.060466352532137e+17
19213.0	8.058623627012777e+17
19214.0	8.056819038901587e+17
19215.0	8.055105180576426e+17
19216.0	8.053345902133248e+17
19217.0	8.051557076216488e+17
19218.0	8.049467078301011e+17
19219.0	8.047898902134783e+17
19220.0	8.046170653152595e+17
19221.0	8.044266379018239e+17
19222.0	8.042569811012264e+17
19223.0	8.04077160243746e+17
19224.0	8.038946751643647e+17
19225.0	8.037095514483368e+17
19226.0	8.035333406283092e+17
19227.0	8.033505636253693e+17
19228.0	8.031695280974505e+17
19229.0	8.029869479471786e+17
19230.0	8.028030024111444e+17
19231.0	8.026202002423809e+17
19232.0	8.024366081463636e+17
19233.0	8.022499391089321e+17
19234.0	8.020677399412735e+17
19235.0	8.018827353434792e+17
19236.0	8.01698442519074e+17
19237.0	8.015121662083071e+17
19238.0	8.013221768200191e+17
19239.0	8.011401438866088e+17
19240.0	8.009515154101585e+17
19241.0	8.007641698314924e+17
19242.0	8.005773077162666e+17
19243.0	8.003821161327273e+17
19244.0	8.002011183535446e+17
19245.0	8.000117248360445e+17
19246.0	7.997866184977064e+17
19247.0	7.994771655447894e+17
19248.0	7.992856319535785e+17
19249.0	7.99093416787968e+17
19250.0	7.989004930646016e+17
19251.0	7.987026241170089e+17
19252.0	7.985007240238419e+17
19253.0	7.983188945141757e+17
19254.0	7.981240433683112e+17
19255.0	7.979203632125268e+17
19256.0	7.977306412810241e+17
19257.0	7.975357778318676e+17
19258.0	7.973384074472105e+17
19259.0	7.97137030942993e+17
19260.0	7.969302011445247e+17
19261.0	7.967423161783634e+17
19262.0	7.96540207907908e+17
19263.0	7.963390054673064e+17
19264.0	7.961220949387944e+17
19265.0	7.959316946485247e+17
19266.0	7.957311270857385e+17
19267.0	7.955104927143251e+17
19268.0	7.951137908282708e+17
19269.0	7.949080139399167e+17
19270.0	7.947010693573289e+17
19271.0	7.944821559088468e+17
19272.0	7.942835254154579e+17
19273.0	7.940181534790994e+17
19274.0	7.938233083450708e+17
19275.0	7.936530019865939e+17
19276.0	7.934403386103123e+17
19277.0	7.932281866594985e+17
19278.0	7.930143031601833e+17
19279.0	7.927987478112938e+17
19280.0	7.925811215947094e+17
19281.0	7.92313902207249e+17
19282.0	7.918609355505663e+17
19283.0	7.916362320052221e+17
19284.0	7.914105702012246e+17
19285.0	7.911939978734249e+17
19286.0	7.909746800940369e+17
19287.0	7.907516302229501e+17
19288.0	7.903347267513e+17
19289.0	7.898592301110605e+17
19290.0	7.900748169172306e+17
19291.0	7.898379255633236e+17
19292.0	7.894896150402391e+17
19293.0	7.890201456148479e+17
19294.0	7.887874249370281e+17
19295.0	7.88553398292753e+17
19296.0	7.883182309375999e+17
19297.0	7.880818732389715e+17
19298.0	7.878437581269672e+17
19299.0	7.87605918440926e+17
19300.0	7.873660709415594e+17
19301.0	7.870445112699566e+17
19302.0	7.864215124224681e+17
19303.0	7.861735250373288e+17
19304.0	7.859282986227028e+17
19305.0	7.856807410139135e+17
19306.0	7.85432139023428e+17
19307.0	7.851788069765123e+17
19308.0	7.849250803853993e+17
19309.0	7.844927800431958e+17
19310.0	7.838217073415508e+17
19311.0	7.835782119161855e+17
19312.0	7.833151299300009e+17
19313.0	7.830456877012308e+17
19314.0	7.824637234074964e+17
19315.0	7.820628066653526e+17
19316.0	7.815549041333587e+17
19317.0	7.812751077059241e+17
19318.0	7.809900432326655e+17
19319.0	7.807040553134761e+17
19320.0	7.804149113203368e+17
19321.0	7.797538168679081e+17
19322.0	7.794304282001408e+17
19323.0	7.791289256902655e+17
19324.0	7.788324211130365e+17
19325.0	7.785199031025663e+17
19326.0	7.782228483724627e+17
19327.0	7.77915700469214e+17
19328.0	7.775980364671657e+17
19329.0	7.772825144961706e+17
19330.0	7.769652124625577e+17
19331.0	7.766460481579689e+17
19332.0	7.76326504268868e+17
19333.0	7.76003730765687e+17
19334.0	7.756782910832637e+17
19335.0	7.753503232141993e+17
19336.0	7.750193320908113e+17
19337.0	7.746854966700714e+17
19338.0	7.743410843331241e+17
19339.0	7.740079655791273e+17
19340.0	7.736624926425088e+17
19341.0	7.733159574284968e+17
19342.0	7.729536637949267e+17
19343.0	7.726134151435604e+17
19344.0	7.722567652256425e+17
19345.0	7.718354861162492e+17
19346.0	7.71504898904337e+17
19347.0	7.71165138330146e+17
19348.0	7.707976156577791e+17
19349.0	7.704229502255101e+17
19350.0	7.700455817041238e+17
19351.0	7.69664465572113e+17
19352.0	7.692777384400212e+17
19353.0	7.688915509750441e+17
19354.0	7.684986496876543e+17
19355.0	7.680985864863743e+17
19356.0	7.677001685707432e+17
19357.0	7.672801147573586e+17
19358.0	7.668474310557693e+17
19359.0	7.664273446666239e+17
19360.0	7.660065360183292e+17
19361.0	7.65581125100066e+17
19362.0	7.651506948582058e+17
19363.0	7.647142554370047e+17
19364.0	7.642734751907837e+17
19365.0	7.638282629633364e+17
19366.0	7.63378560733457e+17
19367.0	7.629242348426582e+17
19368.0	7.624651141633364e+17
19369.0	7.619991064368467e+17
19370.0	7.61488245662242e+17
19371.0	7.609901245267968e+17
19372.0	7.605117648546474e+17
19373.0	7.600251421239977e+17
19374.0	7.595340647628797e+17
19375.0	7.590360139519315e+17
19376.0	7.585264415277055e+17
19377.0	7.580040703246333e+17
19378.0	7.574736699654143e+17
19379.0	7.568365596617385e+17
19380.0	7.562779783331839e+17
19381.0	7.557209233118548e+17
19382.0	7.55151294046754e+17
19383.0	7.545736304525311e+17
19384.0	7.539867058350762e+17
19385.0	7.532246830066348e+17
19386.0	7.526117900550143e+17
19387.0	7.519859643864404e+17
19388.0	7.513463853154303e+17
19389.0	7.506025481502717e+17
19390.0	7.497927576518655e+17
19391.0	7.486379607632545e+17
19392.0	7.48387075952913e+17
19393.0	7.475029011507884e+17
19394.0	7.466296046955177e+17
19395.0	7.458505104905556e+17
19396.0	7.449382383255548e+17
19397.0	7.43873134670643e+17
19398.0	7.430351700535978e+17
19399.0	7.41972084977391e+17
19400.0	7.408649447494996e+17
19401.0	7.399697762571604e+17
19402.0	7.386184843351382e+17
19403.0	7.37605555724834e+17
19404.0	7.363286534193151e+17
19405.0	7.350823993125545e+17
19406.0	7.337202138043727e+17
19407.0	7.323168223352147e+17
19408.0	7.30826282456406e+17
19409.0	7.293503598668458e+17
19410.0	7.27978859508531e+17
19411.0	7.26612792451618e+17
19412.0	7.253892418327892e+17
19413.0	7.241263245950975e+17
19414.0	7.227615650425513e+17
19415.0	7.213753088431444e+17
19416.0	7.199485542618451e+17
19417.0	7.184841524467027e+17
19418.0	7.169403365184851e+17
19419.0	7.153466290645674e+17
19420.0	7.13754873639731e+17
19421.0	7.120883933336918e+17
19422.0	7.102236786163711e+17
19423.0	7.083579270671016e+17
19424.0	7.0633726686877e+17
19425.0	7.041715548454911e+17
19426.0	7.019693391653544e+17
19427.0	6.995112825454592e+17
19428.0	6.970856527189332e+17
19429.0	6.944478330530472e+17
19430.0	6.917390320620886e+17
19431.0	6.887621605195777e+17
19432.0	6.856781731637928e+17
19433.0	6.824294003419821e+17
19434.0	6.788598503658835e+17
19435.0	6.752390132793341e+17
19436.0	6.713313086581418e+17
19437.0	6.671075579177641e+17
19438.0	6.623150530538152e+17
19439.0	6.578831730496855e+17
19440.0	6.527228370223103e+17
19441.0	6.47148205471607e+17
19442.0	6.411043472059053e+17
19443.0	6.345545119432701e+17
19444.0	6.274058665940305e+17
19445.0	6.196131731428696e+17
19446.0	6.110670828688724e+17
19447.0	6.016619529983311e+17
19448.0	5.912309027307524e+17
19449.0	5.794869946963284e+17
19450.0	5.656177801865889e+17
19451.0	5.5834203687048576e+17
19452.0	5.728849697789269e+17
19453.0	5.853106064938328e+17
19454.0	5.961121782912335e+17
19455.0	6.057696316882944e+17
19456.0	6.144870459288237e+17
19457.0	6.224085640019964e+17
19458.0	6.294295843001687e+17
19459.0	6.362054959737517e+17
19460.0	6.422552470268582e+17
19461.0	6.477952835387391e+17
19462.0	6.529135653770582e+17
19463.0	6.57607341008486e+17
19464.0	6.619490401910783e+17
19465.0	6.660193177829377e+17
19466.0	6.698701946180947e+17
19467.0	6.733216830455807e+17
19468.0	6.766367582366378e+17
19469.0	6.797890452193277e+17
19470.0	6.826720494267052e+17
19471.0	6.855266462422356e+17
19472.0	6.879739084013565e+17
19473.0	6.904463191179261e+17
19474.0	6.92653818642432e+17
19475.0	6.948248833665705e+17
19476.0	6.968802261248681e+17
19477.0	6.987690652904108e+17
19478.0	7.006335330331304e+17
19479.0	7.022715552661503e+17
19480.0	7.03857493680674e+17
19481.0	7.053532452618237e+17
19482.0	7.066918312389289e+17
19483.0	7.079907198063956e+17
19484.0	7.093196493772116e+17
19485.0	7.105262129250301e+17
19486.0	7.116893679430314e+17
19487.0	7.128091170876074e+17
19488.0	7.139160505363113e+17
19489.0	7.149355306494633e+17
19490.0	7.158695424513364e+17
19491.0	7.168353869234173e+17
19492.0	7.180965082999466e+17
19493.0	7.190168595333112e+17
19494.0	7.204954290083155e+17
19495.0	7.213831498148518e+17
19496.0	7.22714202542353e+17
19497.0	7.234579128997202e+17
19498.0	7.246312374271999e+17
19499.0	7.246540150145019e+17
19500.0	7.263502137819136e+17
19501.0	7.271085011632127e+17
19502.0	7.277696427316564e+17
19503.0	7.287087834682708e+17
19504.0	7.292676996420948e+17
19505.0	7.29899576293239e+17
19506.0	7.306755390308352e+17
19507.0	7.311744159798611e+17
19508.0	7.316512571741522e+17
19509.0	7.323806308412072e+17
19510.0	7.328014555676671e+17
19511.0	7.325717065542309e+17
19512.0	7.335224469181778e+17
19513.0	7.339756811714556e+17
19514.0	7.34391442813747e+17
19515.0	7.348751428135594e+17
19516.0	7.352239959397718e+17
19517.0	7.356240241885183e+17
19518.0	7.360023831248893e+17
19519.0	7.362945289814015e+17
19520.0	7.365755325295274e+17
19521.0	7.368475541154474e+17
19522.0	7.371085270657705e+17
19523.0	7.37426097255219e+17
19524.0	7.377089887993853e+17
19525.0	7.379439067332608e+17
19526.0	7.381699742662653e+17
19527.0	7.383815569102164e+17
19528.0	7.385853201132202e+17
19529.0	7.387829028694697e+17
19530.0	7.389745662044841e+17
19531.0	7.391605198334633e+17
19532.0	7.393915681024681e+17
19533.0	7.395761462793558e+17
19534.0	7.39745488646963e+17
19535.0	7.39909808894771e+17
19536.0	7.400678098643626e+17
19537.0	7.40223833219618e+17
19538.0	7.403702440689663e+17
19539.0	7.405029895962624e+17
19540.0	7.406592173539327e+17
19541.0	7.407955824257705e+17
19542.0	7.409259605480787e+17
19543.0	7.410522274136063e+17
19544.0	7.411740945940476e+17
19545.0	7.412990905854633e+17
19546.0	7.414020643837268e+17
19547.0	7.415349087567871e+17
19548.0	7.416360135731881e+17
19549.0	7.417290821031251e+17
19550.0	7.418255617206956e+17
19551.0	7.419143605889705e+17
19552.0	7.419991484443305e+17
19553.0	7.420794162380799e+17
19554.0	7.421563073374889e+17
19555.0	7.42231126450722e+17
19556.0	7.423011953748649e+17
19557.0	7.423676215459837e+17
19558.0	7.424308302665044e+17
19559.0	7.424906646694569e+17
19560.0	7.4254615866682e+17
19561.0	7.426006250597033e+17
19562.0	7.426508245871274e+17
19563.0	7.426979081661097e+17
19564.0	7.427416061029034e+17
19565.0	7.427813647493802e+17
19566.0	7.428176741400573e+17
19567.0	7.428523414607187e+17
19568.0	7.428824641131862e+17
19569.0	7.429118949851136e+17
19570.0	7.429386972867241e+17
19571.0	7.429629237264381e+17
19572.0	7.429834651904681e+17
19573.0	7.430031287866708e+17
19574.0	7.43016585372194e+17
19575.0	7.430343636287487e+17
19576.0	7.430537260739242e+17
19577.0	7.430632758050815e+17
19578.0	7.43068934620228e+17
19579.0	7.430735985464659e+17
19580.0	7.430757456106836e+17
19581.0	7.433857597614762e+17
19582.0	7.434249699327999e+17
19583.0	7.434169873334271e+17
19584.0	7.434067564473002e+17
19585.0	7.433903326713172e+17
19586.0	7.43714388233421e+17
19587.0	7.439590196161194e+17
19588.0	7.439223226717526e+17
19589.0	7.439118271250432e+17
19590.0	7.438829907258025e+17
19591.0	7.43856656228898e+17
19592.0	7.44048966465399e+17
19593.0	7.442906795911849e+17
19594.0	7.442423456901802e+17
19595.0	7.442067310160556e+17
19596.0	7.441098890106195e+17
19597.0	7.441144912805887e+17
19598.0	7.440588929848659e+17
19599.0	7.440188681398953e+17
19600.0	7.441713194860538e+17
19601.0	7.443222652168874e+17
19602.0	7.442673010999296e+17
19603.0	7.441913675601236e+17
19604.0	7.441519706024617e+17
19605.0	7.440860086009853e+17
19606.0	7.440380993033555e+17
19607.0	7.439775666885972e+17
19608.0	7.439156122047828e+17
19609.0	7.439147284649299e+17
19610.0	7.441134062141439e+17
19611.0	7.44046055338803e+17
19612.0	7.439780262445055e+17
19613.0	7.439087939442004e+17
19614.0	7.438367378986323e+17
19615.0	7.43767034438178e+17
19616.0	7.436899628438868e+17
19617.0	7.436216751008425e+17
19618.0	7.435274569121791e+17
19619.0	7.43447385551667e+17
19620.0	7.43412301456998e+17
19621.0	7.435691961090047e+17
19622.0	7.434902038031016e+17
19623.0	7.434101609638569e+17
19624.0	7.433291962165929e+17
19625.0	7.432473336086528e+17
19626.0	7.431644587753472e+17
19627.0	7.430796574982143e+17
19628.0	7.429809600724991e+17
19629.0	7.429007145085609e+17
19630.0	7.42724932346402e+17
19631.0	7.421098808661331e+17
19632.0	7.426356879032319e+17
19633.0	7.425585318636202e+17
19634.0	7.424726327973203e+17
19635.0	7.425312072313514e+17
19636.0	7.424757481865216e+17
19637.0	7.423659241111552e+17
19638.0	7.422901590425599e+17
19639.0	7.421960204058624e+17
19640.0	7.42098844254208e+17
19641.0	7.419865785346729e+17
19642.0	7.419119638238548e+17
19643.0	7.41815666938129e+17
19644.0	7.417161937059839e+17
19645.0	7.416117967803732e+17
19646.0	7.415235674985812e+17
19647.0	7.414250862193322e+17
19648.0	7.413259736973311e+17
19649.0	7.412261962383357e+17
19650.0	7.411260761047037e+17
19651.0	7.410253066928127e+17
19652.0	7.409240128531114e+17
19653.0	7.40822129713698e+17
19654.0	7.407198875418623e+17
19655.0	7.406168931915092e+17
19656.0	7.405134629131604e+17
19657.0	7.405153461556564e+17
19658.0	7.404327498241363e+17
19659.0	7.403271912161276e+17
19660.0	7.402213230684842e+17
19661.0	7.401149372039168e+17
19662.0	7.400080902455293e+17
19663.0	7.398987871027199e+17
19664.0	7.397911601435987e+17
19665.0	7.396853447043756e+17
19666.0	7.395765097857023e+17
