# Flux units: erg / (cm m2 s)
# Wavelength units: Angstrom
wave	flux
19000.0	5.738969503367167e+17
19001.0	5.737772339254611e+17
19002.0	5.736831018598399e+17
19003.0	5.7357558597986976e+17
19004.0	5.7346868554410656e+17
19005.0	5.7336092702365005e+17
19006.0	5.732551882702847e+17
19007.0	5.731468798765738e+17
19008.0	5.7303259278213114e+17
19009.0	5.729233243821396e+17
19010.0	5.727614287915689e+17
19011.0	5.7271558840429216e+17
19012.0	5.725873228130986e+17
19013.0	5.7250534926581754e+17
19014.0	5.723919524123989e+17
19015.0	5.722865610173098e+17
19016.0	5.7217762054198605e+17
19017.0	5.7207842693010765e+17
19018.0	5.7196972147561805e+17
19019.0	5.718641074328916e+17
19020.0	5.717555412991999e+17
19021.0	5.716511212350122e+17
19022.0	5.7154385246945274e+17
19023.0	5.7143304217340576e+17
19024.0	5.713281380865364e+17
19025.0	5.7122332396748794e+17
19026.0	5.71112844112691e+17
19027.0	5.709960224702463e+17
19028.0	5.709042514482517e+17
19029.0	5.707955540328447e+17
19030.0	5.7069257555094176e+17
19031.0	5.705859779439274e+17
19032.0	5.7047856887889914e+17
19033.0	5.703610601395541e+17
19034.0	5.702642626636458e+17
19035.0	5.701525397569535e+17
19036.0	5.688916817827152e+17
19037.0	5.699433201139711e+17
19038.0	5.6983696948155725e+17
19039.0	5.6973325329148576e+17
19040.0	5.696274908403028e+17
19041.0	5.6952005409286816e+17
19042.0	5.693940919435262e+17
19043.0	5.693084257310036e+17
19044.0	5.692005072677545e+17
19045.0	5.6909508819025914e+17
19046.0	5.68981497769711e+17
19047.0	5.6888096107178656e+17
19048.0	5.687457525792768e+17
19049.0	5.686440342760106e+17
19050.0	5.6855732500998816e+17
19051.0	5.682839134317223e+17
19052.0	5.6832552791790925e+17
19053.0	5.682454633381887e+17
19054.0	5.681394131577513e+17
19055.0	5.679981601838422e+17
19056.0	5.679224178343935e+17
19057.0	5.678200821295785e+17
19058.0	5.677043676435797e+17
19059.0	5.676047288762368e+17
19060.0	5.67499636674833e+17
19061.0	5.673968471463252e+17
19062.0	5.672901403475967e+17
19063.0	5.671844068371113e+17
19064.0	5.6706208170857805e+17
19065.0	5.669509134985898e+17
19066.0	5.668562714755071e+17
19067.0	5.6675917305828685e+17
19068.0	5.6665484589793274e+17
19069.0	5.665491541207721e+17
19070.0	5.664393603842047e+17
19071.0	5.663361932984319e+17
19072.0	5.662280144388094e+17
19073.0	5.661251400455509e+17
19074.0	5.6602003861667834e+17
19075.0	5.6591425645226656e+17
19076.0	5.658057570779135e+17
19077.0	5.657007284202154e+17
19078.0	5.655918844138836e+17
19079.0	5.654908968282793e+17
19080.0	5.653837326406997e+17
19081.0	5.6527436162007034e+17
19082.0	5.651685554782207e+17
19083.0	5.6505655008515405e+17
19084.0	5.6493565004130976e+17
19085.0	5.648555761642153e+17
19086.0	5.647011209893205e+17
19087.0	5.6461002979409914e+17
19088.0	5.6452541593245e+17
19089.0	5.643982402311509e+17
19090.0	5.643258670962005e+17
19091.0	5.642201609885013e+17
19092.0	5.6409985555715405e+17
19093.0	5.6401346191250765e+17
19094.0	5.6390816272220154e+17
19095.0	5.6380278936261965e+17
19096.0	5.636725309876906e+17
19097.0	5.635486393565183e+17
19098.0	5.6343966532676256e+17
19099.0	5.633330522707284e+17
19100.0	5.632297864790015e+17
19101.0	5.631269557065045e+17
19102.0	5.6300687460051616e+17
19103.0	5.629169843044351e+17
19104.0	5.628122474304852e+17
19105.0	5.626985548786345e+17
19106.0	5.625966116208639e+17
19107.0	5.624919295524862e+17
19108.0	5.623880546779136e+17
19109.0	5.622091610412372e+17
19110.0	5.621787657590101e+17
19111.0	5.6207389243037e+17
19112.0	5.6196853808496634e+17
19113.0	5.618659793130836e+17
19114.0	5.617595779295913e+17
19115.0	5.6164813142753274e+17
19116.0	5.6154878276621645e+17
19117.0	5.61444014854417e+17
19118.0	5.6132676105885005e+17
19119.0	5.6030727884854464e+17
19120.0	5.611206860952915e+17
19121.0	5.6102019238898336e+17
19122.0	5.609222722377043e+17
19123.0	5.6081747258900474e+17
19124.0	5.60707519329075e+17
19125.0	5.6060733012923725e+17
19126.0	5.605019607542443e+17
19127.0	5.601629473254057e+17
19128.0	5.6028315097497594e+17
19129.0	5.6017879494382925e+17
19130.0	5.6008212413590176e+17
19131.0	5.5997929539065165e+17
19132.0	5.59874503291699e+17
19133.0	5.597597446176768e+17
19134.0	5.5966062608384e+17
19135.0	5.595603794919424e+17
19136.0	5.594567499142484e+17
19137.0	5.593308105539583e+17
19138.0	5.5924567380241043e+17
19139.0	5.591431439712255e+17
19140.0	5.5903883966982816e+17
19141.0	5.589343816471892e+17
19142.0	5.58826685272337e+17
19143.0	5.587177253634048e+17
19144.0	5.586162963273045e+17
19145.0	5.585167172588884e+17
19146.0	5.583344581126827e+17
19147.0	5.582950116622334e+17
19148.0	5.5820017292629325e+17
19149.0	5.5809469869370016e+17
19150.0	5.579939919167487e+17
19151.0	5.57890068877585e+17
19152.0	5.5778498821051725e+17
19153.0	5.576735225544702e+17
19154.0	5.5756078196981754e+17
19155.0	5.5747378273757856e+17
19156.0	5.573691961595221e+17
19157.0	5.572612694474752e+17
19158.0	5.5710582882085536e+17
19159.0	5.5705391137641805e+17
19160.0	5.569507043049471e+17
19161.0	5.568473560951467e+17
19162.0	5.566241548096854e+17
19163.0	5.5663690458507936e+17
19164.0	5.5653656816517114e+17
19165.0	5.564223181903188e+17
19166.0	5.5630930525552634e+17
19167.0	5.562134898059945e+17
19168.0	5.561196591011157e+17
19169.0	5.5601374111115936e+17
19170.0	5.559128773973333e+17
19171.0	5.5580155308933114e+17
19172.0	5.5570448151565645e+17
19173.0	5.556010769623721e+17
19174.0	5.5549002304716794e+17
19175.0	5.553934899522218e+17
19176.0	5.552894914854911e+17
19177.0	5.5516670673114445e+17
19178.0	5.550792675863209e+17
19179.0	5.549678213638826e+17
19180.0	5.5487314732427936e+17
19181.0	5.547530178439849e+17
19182.0	5.546653289283583e+17
19183.0	5.5456383089595706e+17
19184.0	5.5445907549716474e+17
19185.0	5.54355016143121e+17
19186.0	5.542525489468757e+17
19187.0	5.5414097102329165e+17
19188.0	5.540450705691988e+17
19189.0	5.539417740891476e+17
19190.0	5.5383760673177594e+17
19191.0	5.5372987037122554e+17
19192.0	5.5363122642288634e+17
19193.0	5.535258599140011e+17
19194.0	5.5342096072048634e+17
19195.0	5.5332016355628365e+17
19196.0	5.53214042911539e+17
19197.0	5.531035862652245e+17
19198.0	5.529574755183274e+17
19199.0	5.521478585942013e+17
19200.0	5.5226809810507104e+17
19201.0	5.5264817495845536e+17
19202.0	5.525490436319913e+17
19203.0	5.5244459218042874e+17
19204.0	5.523401960936787e+17
19205.0	5.522391137168041e+17
19206.0	5.52135595078451e+17
19207.0	5.520200169772372e+17
19208.0	5.518994978461011e+17
19209.0	5.5182613674284365e+17
19210.0	5.5172273037202765e+17
19211.0	5.516212151429802e+17
19212.0	5.515179792007167e+17
19213.0	5.513990498506068e+17
19214.0	5.5129113558166176e+17
19215.0	5.512054601416703e+17
19216.0	5.511050173961555e+17
19217.0	5.510008821252094e+17
19218.0	5.507923217569108e+17
19219.0	5.507769262844586e+17
19220.0	5.506890613478741e+17
19221.0	5.505468699683498e+17
19222.0	5.5048532100382714e+17
19223.0	5.503803200285353e+17
19224.0	5.502742811727188e+17
19225.0	5.501575256604671e+17
19226.0	5.500710319117652e+17
19227.0	5.4996788055463245e+17
19228.0	5.4986796006987085e+17
19229.0	5.497648006037504e+17
19230.0	5.4966066281622176e+17
19231.0	5.495571042620757e+17
19232.0	5.4945474094475936e+17
19233.0	5.493439414839979e+17
19234.0	5.4924652751530643e+17
19235.0	5.491423545655294e+17
19236.0	5.490435717857279e+17
19237.0	5.489385459941375e+17
19238.0	5.48824876720674e+17
19239.0	5.487348791203156e+17
19240.0	5.486300640925013e+17
19241.0	5.485257401477802e+17
19242.0	5.484239130023252e+17
19243.0	5.483031280222207e+17
19244.0	5.482201788099242e+17
19245.0	5.481164986209621e+17
19246.0	5.4801194035445754e+17
19247.0	5.4791020282729805e+17
19248.0	5.4780843013789005e+17
19249.0	5.4770468151186765e+17
19250.0	5.475985517794645e+17
19251.0	5.47483458679603e+17
19252.0	5.473619482946218e+17
19253.0	5.472903446047402e+17
19254.0	5.471905627417258e+17
19255.0	5.470648038763177e+17
19256.0	5.469808440464724e+17
19257.0	5.4688207238157645e+17
19258.0	5.4677905104786765e+17
19259.0	5.466672404103168e+17
19260.0	5.465477853042003e+17
19261.0	5.464684082408106e+17
19262.0	5.463598837006336e+17
19263.0	5.4625604650489165e+17
19264.0	5.4608784100338323e+17
19265.0	5.460311224789674e+17
19266.0	5.458793380970496e+17
19267.0	5.458013600437588e+17
19268.0	5.456975025755477e+17
19269.0	5.455949145833471e+17
19270.0	5.454920214555305e+17
19271.0	5.4534350744234675e+17
19272.0	5.452816881549311e+17
19273.0	5.451037260731732e+17
19274.0	5.4501004489523174e+17
19275.0	5.4497721237285536e+17
19276.0	5.4487162083956045e+17
19277.0	5.447692621359785e+17
19278.0	5.4466653747937274e+17
19279.0	5.445614944212308e+17
19280.0	5.444492479954943e+17
19281.0	5.443562167249577e+17
19282.0	5.442551850292564e+17
19283.0	5.4414159600680954e+17
19284.0	5.440434367102975e+17
19285.0	5.439227307229183e+17
19286.0	5.4383740851322874e+17
19287.0	5.4373828809195514e+17
19288.0	5.433241066536956e+17
19289.0	5.427606676220572e+17
19290.0	5.434281606949545e+17
19291.0	5.432935539452586e+17
19292.0	5.432220701425662e+17
19293.0	5.4311765839708154e+17
19294.0	5.430137405308928e+17
19295.0	5.429115201694379e+17
19296.0	5.4280313599863456e+17
19297.0	5.427004850219689e+17
19298.0	5.425964998372009e+17
19299.0	5.424921282172244e+17
19300.0	5.423918261207039e+17
19301.0	5.4228809580980896e+17
19302.0	5.421830997278719e+17
19303.0	5.420710861559124e+17
19304.0	5.4197237894348794e+17
19305.0	5.418701487254185e+17
19306.0	5.4176692298929485e+17
19307.0	5.416231606332074e+17
19308.0	5.414923088341673e+17
19309.0	5.4136432447105683e+17
19310.0	5.412499297927166e+17
19311.0	5.411759722594303e+17
19312.0	5.410768652599294e+17
19313.0	5.4097338367126176e+17
19314.0	5.391254435135488e+17
19315.0	5.391621436036461e+17
19316.0	5.4065094473373e+17
19317.0	5.405529164393129e+17
19318.0	5.4044760620400634e+17
19319.0	5.403447909504341e+17
19320.0	5.4023764829361485e+17
19321.0	5.401304680977749e+17
19322.0	5.400178322309119e+17
19323.0	5.399110281942357e+17
19324.0	5.3981516458011296e+17
19325.0	5.3968619756148045e+17
19326.0	5.396042923114494e+17
19327.0	5.3949592079346336e+17
19328.0	5.393462899070294e+17
19329.0	5.392473765445632e+17
19330.0	5.3913556192242336e+17
19331.0	5.390279845958996e+17
19332.0	5.389265248714751e+17
19333.0	5.388175896390313e+17
19334.0	5.3871192218883405e+17
19335.0	5.385899210702847e+17
19336.0	5.384959420967594e+17
19337.0	5.383881981864618e+17
19338.0	5.382536433063252e+17
19339.0	5.381717084864511e+17
19340.0	5.380424735216979e+17
19341.0	5.379434431381504e+17
19342.0	5.3773980723227296e+17
19343.0	5.376658984228181e+17
19344.0	5.375504230820521e+17
19345.0	5.371712430407675e+17
19346.0	5.3722442940197536e+17
19347.0	5.372097218652841e+17
19348.0	5.371151893834411e+17
19349.0	5.369992075105621e+17
19350.0	5.3688572320590496e+17
19351.0	5.367749729583103e+17
19352.0	5.366504331673599e+17
19353.0	5.3655475920568314e+17
19354.0	5.364417717862399e+17
19355.0	5.3631560097027405e+17
19356.0	5.362135270599338e+17
19357.0	5.3609918711726074e+17
19358.0	5.3598350751389e+17
19359.0	5.3586011815062176e+17
19360.0	5.357409463697407e+17
19361.0	5.356302950378154e+17
19362.0	5.355181465490772e+17
19363.0	5.354000943677438e+17
19364.0	5.3528129126618445e+17
19365.0	5.351620327331156e+17
19366.0	5.350282348549459e+17
19367.0	5.3481956830085114e+17
19368.0	5.346979223699455e+17
19369.0	5.345688739119103e+17
19370.0	5.344432261955583e+17
19371.0	5.343205788745726e+17
19372.0	5.3420199331758074e+17
19373.0	5.3407310361395194e+17
19374.0	5.3394750294370976e+17
19375.0	5.3381936031552845e+17
19376.0	5.336901537322323e+17
19377.0	5.3355788355938976e+17
19378.0	5.333692448768e+17
19379.0	5.331519877589673e+17
19380.0	5.3301665420629325e+17
19381.0	5.3287908928389114e+17
19382.0	5.3273184027279366e+17
19383.0	5.3258665094458016e+17
19384.0	5.3245805952587085e+17
19385.0	5.3227653578096634e+17
19386.0	5.319822759253332e+17
19387.0	5.3183325202459296e+17
19388.0	5.3168197207763616e+17
19389.0	5.3151375804770976e+17
19390.0	5.313124457163432e+17
19391.0	5.2990477389004634e+17
19392.0	5.307754069622782e+17
19393.0	5.306231631642623e+17
19394.0	5.303379177766911e+17
19395.0	5.299769590502741e+17
19396.0	5.297992995875499e+17
19397.0	5.294789854844244e+17
19398.0	5.2906032592759456e+17
19399.0	5.287676318056446e+17
19400.0	5.2824389941111456e+17
19401.0	5.280222135975936e+17
19402.0	5.273401788028239e+17
19403.0	5.270218651030867e+17
19404.0	5.265336226720425e+17
19405.0	5.262829510721536e+17
19406.0	5.2602839750410234e+17
19407.0	5.2576285017593165e+17
19408.0	5.253757357697708e+17
19409.0	5.25162974945826e+17
19410.0	5.248747932658345e+17
19411.0	5.2457631415009274e+17
19412.0	5.242674535028051e+17
19413.0	5.239473902190592e+17
19414.0	5.2361674973948576e+17
19415.0	5.232111482393941e+17
19416.0	5.228206532941141e+17
19417.0	5.22465411473954e+17
19418.0	5.2207856228761606e+17
19419.0	5.215739647972692e+17
19420.0	5.211665157761706e+17
19421.0	5.205991769505792e+17
19422.0	5.20113469347157e+17
19423.0	5.194117844478632e+17
19424.0	5.187320879775743e+17
19425.0	5.178921786714796e+17
19426.0	5.168472582870361e+17
19427.0	5.1546629131468794e+17
19428.0	5.136426724578639e+17
19429.0	5.112729787083434e+17
19430.0	5.098747405707946e+17
19431.0	5.085569997952342e+17
19432.0	5.07468575879987e+17
19433.0	5.061044638580735e+17
19434.0	5.0469518141904205e+17
19435.0	5.032440452786857e+17
19436.0	5.0170489803025056e+17
19437.0	5.0017869817883296e+17
19438.0	4.968154451847852e+17
19439.0	4.968545015649621e+17
19440.0	4.951711903558314e+17
19441.0	4.9330399855247334e+17
19442.0	4.9103975561734816e+17
19443.0	4.871701590441972e+17
19444.0	4.799185921856837e+17
19445.0	4.740899818263894e+17
19446.0	4.6872982887683405e+17
19447.0	4.624180758009175e+17
19448.0	4.507362726161061e+17
19449.0	4.327808796983296e+17
19450.0	3.906678239352236e+17
19451.0	3.698404109232822e+17
19452.0	4.170281665604288e+17
19453.0	4.4203808786131725e+17
19454.0	4.5760687238021e+17
19455.0	4.652097554000556e+17
19456.0	4.7073524033344864e+17
19457.0	4.756537378253474e+17
19458.0	4.7839049532047994e+17
19459.0	4.8800022746453395e+17
19460.0	4.9072429677062816e+17
19461.0	4.925433865480874e+17
19462.0	4.9412423755147936e+17
19463.0	4.9563926755191443e+17
19464.0	4.970845889888255e+17
19465.0	4.9852416569726285e+17
19466.0	4.998749793288191e+17
19467.0	5.011329951727615e+17
19468.0	5.023643107065856e+17
19469.0	5.035240112259071e+17
19470.0	5.0468578589846176e+17
19471.0	5.056989461042517e+17
19472.0	5.066469078816086e+17
19473.0	5.084318272935257e+17
19474.0	5.104276579112269e+17
19475.0	5.1160920879704736e+17
19476.0	5.127276203081727e+17
19477.0	5.135005245592918e+17
19478.0	5.140877062875819e+17
19479.0	5.1451632172400614e+17
19480.0	5.148884417729876e+17
19481.0	5.15261296104789e+17
19482.0	5.155305989428564e+17
19483.0	5.157832516523349e+17
19484.0	5.160611835019262e+17
19485.0	5.162306950397951e+17
19486.0	5.16391363936256e+17
19487.0	5.1660449889211725e+17
19488.0	5.1677581607785805e+17
19489.0	5.1689254125131085e+17
19490.0	5.168294159974397e+17
19491.0	5.171251718214996e+17
19492.0	5.17229525405969e+17
19493.0	5.1732039793814176e+17
19494.0	5.174429804571306e+17
19495.0	5.1751799684246176e+17
19496.0	5.175260383718057e+17
19497.0	5.1763470817471136e+17
19498.0	5.1766932103932576e+17
19499.0	5.1633537396244365e+17
19500.0	5.182918299222013e+17
19501.0	5.1854918696304634e+17
19502.0	5.1873370739834906e+17
19503.0	5.1898220893525325e+17
19504.0	5.189806511008425e+17
19505.0	5.193036397019134e+17
19506.0	5.193063790018559e+17
19507.0	5.192854014001151e+17
19508.0	5.195204318811478e+17
19509.0	5.1952240271469216e+17
19510.0	5.194633072082943e+17
19511.0	5.1649665900216115e+17
19512.0	5.193985270218747e+17
19513.0	5.191048934457335e+17
19514.0	5.192258692666704e+17
19515.0	5.194675878450518e+17
19516.0	5.194890685535573e+17
19517.0	5.195646043335336e+17
19518.0	5.195655190413311e+17
19519.0	5.1951018561590605e+17
19520.0	5.194477821318485e+17
19521.0	5.1939989841947296e+17
19522.0	5.1933565167861754e+17
19523.0	5.1927894266129056e+17
19524.0	5.192273451024384e+17
19525.0	5.192858851431763e+17
19526.0	5.192224729989119e+17
19527.0	5.1915557147333965e+17
19528.0	5.1908739928337056e+17
19529.0	5.190185840366932e+17
19530.0	5.189519533233493e+17
19531.0	5.188817769551188e+17
19532.0	5.188106831527935e+17
19533.0	5.187387201508692e+17
19534.0	5.186655928101546e+17
19535.0	5.185903058922154e+17
19536.0	5.185127025999872e+17
19537.0	5.184583185552726e+17
19538.0	5.184428566730069e+17
19539.0	5.183079310163969e+17
19540.0	5.1830319760452256e+17
19541.0	5.182271717900287e+17
19542.0	5.1814887678716576e+17
19543.0	5.180651671475541e+17
19544.0	5.1799071384753485e+17
19545.0	5.1784867220466336e+17
19546.0	5.177086612340736e+17
19547.0	5.1775036212292256e+17
19548.0	5.176690269487104e+17
19549.0	5.1757480624346445e+17
19550.0	5.175049865308841e+17
19551.0	5.1742274741425485e+17
19552.0	5.1733965098188794e+17
19553.0	5.172533509401257e+17
19554.0	5.1716734072477005e+17
19555.0	5.17086265737216e+17
19556.0	5.170041978879998e+17
19557.0	5.169194767220735e+17
19558.0	5.168345303220224e+17
19559.0	5.1674958825608525e+17
19560.0	5.166591907987455e+17
19561.0	5.1657527668681376e+17
19562.0	5.1649053378041165e+17
19563.0	5.164069478028628e+17
19564.0	5.1632059882755405e+17
19565.0	5.162340222413483e+17
19566.0	5.161432166782293e+17
19567.0	5.160601542197247e+17
19568.0	5.159771218203989e+17
19569.0	5.159448673430187e+17
19570.0	5.158601431711743e+17
19571.0	5.157716627204778e+17
19572.0	5.156800280133632e+17
19573.0	5.155929980228947e+17
19574.0	5.154963263062015e+17
19575.0	5.154214780425556e+17
19576.0	5.153336066747049e+17
19577.0	5.152415817575083e+17
19578.0	5.1515144658397856e+17
19579.0	5.1506445818702496e+17
19580.0	5.1497558396108794e+17
19581.0	5.149143957067093e+17
19582.0	5.148348164778666e+17
19583.0	5.147454227174741e+17
19584.0	5.1465541540031136e+17
19585.0	5.145520498540542e+17
19586.0	5.144586783555584e+17
19587.0	5.143821087495508e+17
19588.0	5.1423484729535155e+17
19589.0	5.1420400140506445e+17
19590.0	5.141016429111978e+17
19591.0	5.1402565484543994e+17
19592.0	5.1393612022633805e+17
19593.0	5.138431731914068e+17
19594.0	5.1372402622682445e+17
19595.0	5.1366111117748896e+17
19596.0	5.1355144592643405e+17
19597.0	5.134823519682559e+17
19598.0	5.1333231961702374e+17
19599.0	5.133023505459881e+17
19600.0	5.132128011769172e+17
19601.0	5.131132876794538e+17
19602.0	5.1302481065410554e+17
19603.0	5.128750636553556e+17
19604.0	5.128427501780992e+17
19605.0	5.127199631867903e+17
19606.0	5.1266662191595514e+17
19607.0	5.125766486425598e+17
19608.0	5.124832631630506e+17
19609.0	5.12387533906466e+17
19610.0	5.123005406161577e+17
19611.0	5.122576460283903e+17
19612.0	5.1217536252204365e+17
19613.0	5.120827609579519e+17
19614.0	5.119878130302975e+17
19615.0	5.1190129250795514e+17
19616.0	5.1179823272645965e+17
19617.0	5.117133210692266e+17
19618.0	5.115497232203774e+17
19619.0	5.1143802429112294e+17
19620.0	5.1135220407773856e+17
19621.0	5.113475000259925e+17
19622.0	5.11261576073489e+17
19623.0	5.111697949851647e+17
19624.0	5.1107651590116685e+17
19625.0	5.109869988282368e+17
19626.0	5.108948217277098e+17
19627.0	5.1080352144643405e+17
19628.0	5.106934949259947e+17
19629.0	5.105949194147156e+17
19630.0	5.1048440922111994e+17
19631.0	5.096318303207423e+17
19632.0	5.1034259316189856e+17
19633.0	5.1024773107766605e+17
19634.0	5.1016228331847674e+17
19635.0	5.1006550513636685e+17
19636.0	5.0997241458633363e+17
19637.0	5.098392041204394e+17
19638.0	5.0979399658373114e+17
19639.0	5.0970266386650445e+17
19640.0	5.09599712088337e+17
19641.0	5.093693012836355e+17
19642.0	5.0942756009629e+17
19643.0	5.093354778569387e+17
19644.0	5.092375067448659e+17
19645.0	5.0911683689840634e+17
19646.0	5.0905596202844154e+17
19647.0	5.0897057676438176e+17
19648.0	5.088791061943636e+17
19649.0	5.08786453459763e+17
19650.0	5.086956952223743e+17
19651.0	5.086032206757887e+17
19652.0	5.085112372822015e+17
19653.0	5.084203214088874e+17
19654.0	5.08327854481954e+17
19655.0	5.082356653577558e+17
19656.0	5.08144531939874e+17
19657.0	5.080534402553172e+17
