# Flux units: erg / (cm m2 s)
# Wavelength units: Angstrom
wave	flux
19000.0	7.487382318918314e+17
19001.0	7.48582845092113e+17
19002.0	7.48455059608917e+17
19003.0	7.483123566641151e+17
19004.0	7.481697595555839e+17
19005.0	7.480285769061715e+17
19006.0	7.478868892625577e+17
19007.0	7.476762292256768e+17
19008.0	7.475914069770239e+17
19009.0	7.474577114398719e+17
19010.0	7.47255477060676e+17
19011.0	7.471744150055594e+17
19012.0	7.469691524786857e+17
19013.0	7.468936846464339e+17
19014.0	7.467436138474152e+17
19015.0	7.466058847879168e+17
19016.0	7.464633960322387e+17
19017.0	7.462527176802301e+17
19018.0	7.461788281645736e+17
19019.0	7.4604266665629e+17
19020.0	7.458900155214506e+17
19021.0	7.457536571604992e+17
19022.0	7.456194643187028e+17
19023.0	7.454720843055101e+17
19024.0	7.453336218020521e+17
19025.0	7.451865400038739e+17
19026.0	7.450444627094186e+17
19027.0	7.448761127141375e+17
19028.0	7.447703772463101e+17
19029.0	7.446262715864404e+17
19030.0	7.444891842554538e+17
19031.0	7.443487356092415e+17
19032.0	7.4420681979549e+17
19033.0	7.44053042909457e+17
19034.0	7.4392087312029e+17
19035.0	7.437776902073002e+17
19036.0	7.4003967671009e+17
19037.0	7.434982863667199e+17
19038.0	7.433561442003625e+17
19039.0	7.432175785170259e+17
19040.0	7.430770780012543e+17
19041.0	7.429347442950143e+17
19042.0	7.427822071054333e+17
19043.0	7.426536747565056e+17
19044.0	7.425107615372628e+17
19045.0	7.423696145394345e+17
19046.0	7.422190683859625e+17
19047.0	7.420893086438739e+17
19048.0	7.419201966833663e+17
19049.0	7.417976468100436e+17
19050.0	7.416599185894058e+17
19051.0	7.411058536873974e+17
19052.0	7.41355646021359e+17
19053.0	7.412264304203091e+17
19054.0	7.411019858400595e+17
19055.0	7.409274120568832e+17
19056.0	7.408169798074368e+17
19057.0	7.406784322994173e+17
19058.0	7.405197662530217e+17
19059.0	7.403983784815272e+17
19060.0	7.402547583822506e+17
19061.0	7.401177408165204e+17
19062.0	7.399761868313939e+17
19063.0	7.398361574757716e+17
19064.0	7.396775323937452e+17
19065.0	7.395290670344874e+17
19066.0	7.394054080473769e+17
19067.0	7.3927213725341e+17
19068.0	7.391331788434089e+17
19069.0	7.389930581917693e+17
19070.0	7.388473100424531e+17
19071.0	7.387089588278612e+17
19072.0	7.385713898509651e+17
19073.0	7.384303281373183e+17
19074.0	7.382913042961747e+17
19075.0	7.381509437303466e+17
19076.0	7.380074593867092e+17
19077.0	7.378687764026706e+17
19078.0	7.377127399052627e+17
19079.0	7.375888319163049e+17
19080.0	7.374474781392893e+17
19081.0	7.373019392857427e+17
19082.0	7.371564492259327e+17
19083.0	7.370115075014653e+17
19084.0	7.368534329917437e+17
19085.0	7.367458748192083e+17
19086.0	7.365495001623209e+17
19087.0	7.363803729625087e+17
19088.0	7.36316068410163e+17
19089.0	7.361157181123241e+17
19090.0	7.360430105515348e+17
19091.0	7.359030846554111e+17
19092.0	7.35738654377028e+17
19093.0	7.356276490458451e+17
19094.0	7.354851653233321e+17
19095.0	7.35344630833698e+17
19096.0	7.351910247956479e+17
19097.0	7.350663560997545e+17
19098.0	7.349284058606249e+17
19099.0	7.347869428918953e+17
19100.0	7.346429988525395e+17
19101.0	7.345080135669076e+17
19102.0	7.34358952616482e+17
19103.0	7.342297831527764e+17
19104.0	7.34091351687168e+17
19105.0	7.33950961062161e+17
19106.0	7.337948246005075e+17
19107.0	7.336697796755455e+17
19108.0	7.335327168113322e+17
19109.0	7.329651754707617e+17
19110.0	7.332512825081855e+17
19111.0	7.331127565309267e+17
19112.0	7.329744246101332e+17
19113.0	7.328353426079741e+17
19114.0	7.326957623225e+17
19115.0	7.325452722328916e+17
19116.0	7.32414440846131e+17
19117.0	7.322755513625258e+17
19118.0	7.321107700208982e+17
19119.0	7.317247668256763e+17
19120.0	7.318358666685097e+17
19121.0	7.317073551512916e+17
19122.0	7.315819591630845e+17
19123.0	7.314362870704808e+17
19124.0	7.312859127436628e+17
19125.0	7.311555000882518e+17
19126.0	7.309979972621654e+17
19127.0	7.306675487419045e+17
19128.0	7.303361790126757e+17
19129.0	7.30595257815313e+17
19130.0	7.304674456283817e+17
19131.0	7.303152934759081e+17
19132.0	7.301906781874858e+17
19133.0	7.29900292820173e+17
19134.0	7.297126516828846e+17
19135.0	7.297734517544276e+17
19136.0	7.296362892055891e+17
19137.0	7.294752448490153e+17
19138.0	7.292655868313599e+17
19139.0	7.292185654678868e+17
19140.0	7.290812099810642e+17
19141.0	7.289427153212756e+17
19142.0	7.287988952935081e+17
19143.0	7.286557986433705e+17
19144.0	7.285169994771113e+17
19145.0	7.28385480643925e+17
19146.0	7.281566995360426e+17
19147.0	7.28099314466816e+17
19148.0	7.279688347025407e+17
19149.0	7.278311316477268e+17
19150.0	7.276865188965034e+17
19151.0	7.275559739807062e+17
19152.0	7.274066827629908e+17
19153.0	7.27276069200418e+17
19154.0	7.271235584349523e+17
19155.0	7.270010327487828e+17
19156.0	7.268633102603603e+17
19157.0	7.267199258809684e+17
19158.0	7.262853343302993e+17
19159.0	7.264451163411795e+17
19160.0	7.262939211890687e+17
19161.0	7.261277375518039e+17
19162.0	7.253771867040431e+17
19163.0	7.25891744338193e+17
19164.0	7.257578056712191e+17
19165.0	7.256110726993236e+17
19166.0	7.254593539582633e+17
19167.0	7.252808168374271e+17
19168.0	7.251751473599828e+17
19169.0	7.250453161749161e+17
19170.0	7.249288845328383e+17
19171.0	7.247644679558484e+17
19172.0	7.246500680346281e+17
19173.0	7.24514368459025e+17
19174.0	7.243698952383145e+17
19175.0	7.242391491357353e+17
19176.0	7.241008549636777e+17
19177.0	7.239435685636777e+17
19178.0	7.238199754271402e+17
19179.0	7.23648343109359e+17
19180.0	7.233864770519043e+17
19181.0	7.233970376103251e+17
19182.0	7.232375185823062e+17
19183.0	7.231183273678164e+17
19184.0	7.229645413941245e+17
19185.0	7.228581970531668e+17
19186.0	7.227235281578666e+17
19187.0	7.225726150027945e+17
19188.0	7.224425787162623e+17
19189.0	7.222918221485395e+17
19190.0	7.221507635107156e+17
19191.0	7.220224826802175e+17
19192.0	7.218781775112874e+17
19193.0	7.215567548536147e+17
19194.0	7.215333779002708e+17
19195.0	7.2146539787933e+17
19196.0	7.213421144222377e+17
19197.0	7.212047111203497e+17
19198.0	7.21063072829713e+17
19199.0	7.171739926659062e+17
19200.0	7.183693630144529e+17
19201.0	7.206517673558015e+17
19202.0	7.205192628611753e+17
19203.0	7.203751437795325e+17
19204.0	7.202408746014035e+17
19205.0	7.201067534822058e+17
19206.0	7.199689243186518e+17
19207.0	7.198224200761343e+17
19208.0	7.196672660602879e+17
19209.0	7.195533707138387e+17
19210.0	7.194189648013994e+17
19211.0	7.192818173520553e+17
19212.0	7.191475188137983e+17
19213.0	7.189634900907348e+17
19214.0	7.188050081742847e+17
19215.0	7.187215666905088e+17
19216.0	7.18582945362739e+17
19217.0	7.184595920005802e+17
19218.0	7.18216477697638e+17
19219.0	7.181642713355603e+17
19220.0	7.180436796429651e+17
19221.0	7.178640573158739e+17
19222.0	7.177755134612819e+17
19223.0	7.176350792155135e+17
19224.0	7.17471736939588e+17
19225.0	7.173381486368083e+17
19226.0	7.172231332713812e+17
19227.0	7.170857681376598e+17
19228.0	7.169527399142739e+17
19229.0	7.168156475501225e+17
19230.0	7.166591192006655e+17
19231.0	7.165239314699603e+17
19232.0	7.16383173284113e+17
19233.0	7.162565034857812e+17
19234.0	7.16126516412416e+17
19235.0	7.159877688360957e+17
19236.0	7.158554856609108e+17
19237.0	7.157165570304681e+17
19238.0	7.155640792601939e+17
19239.0	7.154439850120531e+17
19240.0	7.15249657455138e+17
19241.0	7.151512864860841e+17
19242.0	7.15025465614882e+17
19243.0	7.148698014318591e+17
19244.0	7.147586014849705e+17
19245.0	7.1462138441018e+17
19246.0	7.14483203903761e+17
19247.0	7.143436665399978e+17
19248.0	7.142107655438335e+17
19249.0	7.140729697949011e+17
19250.0	7.139343423154858e+17
19251.0	7.137873692895913e+17
19252.0	7.136093055658666e+17
19253.0	7.135226987806719e+17
19254.0	7.133795099956564e+17
19255.0	7.1322204925242e+17
19256.0	7.130997823548072e+17
19257.0	7.129759423135743e+17
19258.0	7.128384057726292e+17
19259.0	7.126911067095039e+17
19260.0	7.125281563213823e+17
19261.0	7.124261802082304e+17
19262.0	7.12281939911202e+17
19263.0	7.121467233796096e+17
19264.0	7.119465312070313e+17
19265.0	7.118541667609258e+17
19266.0	7.117252490952701e+17
19267.0	7.116041051526484e+17
19268.0	7.114641245907625e+17
19269.0	7.113281086248276e+17
19270.0	7.111882783588351e+17
19271.0	7.110086194014893e+17
19272.0	7.10911263314193e+17
19273.0	7.093298626472599e+17
19274.0	7.099411214980429e+17
19275.0	7.105034756030463e+17
19276.0	7.103631520869033e+17
19277.0	7.102244833634985e+17
19278.0	7.100877106053119e+17
19279.0	7.099265118983508e+17
19280.0	7.097996694345044e+17
19281.0	7.09672900370978e+17
19282.0	7.095366182065492e+17
19283.0	7.093339101506217e+17
19284.0	7.091062749265917e+17
19285.0	7.090884874425683e+17
19286.0	7.089797520687101e+17
19287.0	7.088464600236032e+17
19288.0	7.078898560925692e+17
19289.0	7.060752089219021e+17
19290.0	7.084312509109587e+17
19291.0	7.08255725719825e+17
19292.0	7.081536953603412e+17
19293.0	7.080141532430335e+17
19294.0	7.078745280785066e+17
19295.0	7.077373898566313e+17
19296.0	7.075974016051881e+17
19297.0	7.074536653236905e+17
19298.0	7.073157745038675e+17
19299.0	7.071806573772799e+17
19300.0	7.070413388163753e+17
19301.0	7.069001009419603e+17
19302.0	7.067592636235775e+17
19303.0	7.066061592242858e+17
19304.0	7.064710970430804e+17
19305.0	7.063393588477951e+17
19306.0	7.061971831270057e+17
19307.0	7.060480620582228e+17
19308.0	7.059129692585981e+17
19309.0	7.056652002568872e+17
19310.0	7.054519583462738e+17
19311.0	7.054845032093011e+17
19312.0	7.05350707847714e+17
19313.0	7.051673524502528e+17
19314.0	7.041504925887128e+17
19315.0	7.040690713613672e+17
19316.0	7.047851726427475e+17
19317.0	7.046477369049087e+17
19318.0	7.045048716405417e+17
19319.0	7.043643051343871e+17
19320.0	7.042097265770493e+17
19321.0	7.040782200471552e+17
19322.0	7.03907751928354e+17
19323.0	7.037241132755626e+17
19324.0	7.036452416258047e+17
19325.0	7.034257218906793e+17
19326.0	7.033574942659923e+17
19327.0	7.032108105072639e+17
19328.0	7.030699859815082e+17
19329.0	7.029250113317545e+17
19330.0	7.027736072333993e+17
19331.0	7.026280012709888e+17
19332.0	7.024860815425535e+17
19333.0	7.023371940265983e+17
19334.0	7.021791692193791e+17
19335.0	7.020465184833536e+17
19336.0	7.018974879416319e+17
19337.0	7.017492905284947e+17
19338.0	7.015745745584127e+17
19339.0	7.014528018197161e+17
19340.0	7.01297677443618e+17
19341.0	7.011535665408681e+17
19342.0	7.009401128878079e+17
19343.0	7.008523746192042e+17
19344.0	7.006987505456468e+17
19345.0	7.00277826623897e+17
19346.0	7.003264749578922e+17
19347.0	7.002314172792831e+17
19348.0	7.000879229392212e+17
19349.0	6.999270996923732e+17
19350.0	6.997715412757161e+17
19351.0	6.996155699298303e+17
19352.0	6.994544082725546e+17
19353.0	6.993069361943892e+17
19354.0	6.991464378662911e+17
19355.0	6.989740581934422e+17
19356.0	6.988264130303316e+17
19357.0	6.986630557947219e+17
19358.0	6.98486925365521e+17
19359.0	6.982571909622442e+17
19360.0	6.98165788479761e+17
19361.0	6.979959832707071e+17
19362.0	6.978393045554518e+17
19363.0	6.976699424746153e+17
19364.0	6.974979574857725e+17
19365.0	6.973274143588351e+17
19366.0	6.97155621748736e+17
19367.0	6.969779494234793e+17
19368.0	6.968023873923753e+17
19369.0	6.965936471583402e+17
19370.0	6.962599612645375e+17
19371.0	6.962537577491113e+17
19372.0	6.960770895402323e+17
19373.0	6.958853610536959e+17
19374.0	6.956974202333866e+17
19375.0	6.955056168785236e+17
19376.0	6.953105365838506e+17
19377.0	6.951152506284713e+17
19378.0	6.94916456976657e+17
19379.0	6.947130201604095e+17
19380.0	6.945085193191423e+17
19381.0	6.942983341473791e+17
19382.0	6.940724949942272e+17
19383.0	6.938530771806889e+17
19384.0	6.936472065496403e+17
19385.0	6.934212417071785e+17
19386.0	6.931919496631636e+17
19387.0	6.929569703526399e+17
19388.0	6.927178067345407e+17
19389.0	6.924735670998356e+17
19390.0	6.922149957380778e+17
19391.0	6.888054704133409e+17
19392.0	6.916915166795091e+17
19393.0	6.914248522683731e+17
19394.0	6.911456029878953e+17
19395.0	6.908563659511124e+17
19396.0	6.905562323222527e+17
19397.0	6.902632032851286e+17
19398.0	6.8994682861213e+17
19399.0	6.895392733353299e+17
19400.0	6.892840574866771e+17
19401.0	6.889350695135913e+17
19402.0	6.885761773207551e+17
19403.0	6.882013084647423e+17
19404.0	6.878130997646676e+17
19405.0	6.874082705058473e+17
19406.0	6.86980507631616e+17
19407.0	6.865373137731583e+17
19408.0	6.859868273115137e+17
19409.0	6.855751036654932e+17
19410.0	6.850767525423785e+17
19411.0	6.845508540694527e+17
19412.0	6.83994104533265e+17
19413.0	6.834049620377597e+17
19414.0	6.827882975679827e+17
19415.0	6.821235289052499e+17
19416.0	6.813908029407231e+17
19417.0	6.806252204763817e+17
19418.0	6.799081953995434e+17
19419.0	6.790520140813652e+17
19420.0	6.7816909176832e+17
19421.0	6.772166358641321e+17
19422.0	6.761736741497514e+17
19423.0	6.751026296826537e+17
19424.0	6.739782805050708e+17
19425.0	6.727746324179625e+17
19426.0	6.714591107088383e+17
19427.0	6.700169080165716e+17
19428.0	6.68521309737233e+17
19429.0	6.668448136429567e+17
19430.0	6.649187665270102e+17
19431.0	6.623277873801912e+17
19432.0	6.607639957995519e+17
19433.0	6.585446687571968e+17
19434.0	6.561745185275901e+17
19435.0	6.535344654647293e+17
19436.0	6.504538413116069e+17
19437.0	6.475315594046122e+17
19438.0	6.406811727604394e+17
19439.0	6.39777725131435e+17
19440.0	6.355613938352127e+17
19441.0	6.311300306392402e+17
19442.0	6.261165515953495e+17
19443.0	6.20288567934976e+17
19444.0	6.136512589245094e+17
19445.0	6.067140390027267e+17
19446.0	5.986507367470419e+17
19447.0	5.893300048013989e+17
19448.0	5.785038078257839e+17
19449.0	5.635111207479979e+17
19450.0	5.282022487141002e+17
19451.0	5.143152153329661e+17
19452.0	5.487058787936945e+17
19453.0	5.7189672359908755e+17
19454.0	5.837446575030267e+17
19455.0	5.93391264290133e+17
19456.0	6.019135490927278e+17
19457.0	6.09075119679078e+17
19458.0	6.146133395679931e+17
19459.0	6.21635370204092e+17
19460.0	6.26771286574148e+17
19461.0	6.31220568465954e+17
19462.0	6.352264016953344e+17
19463.0	6.392514818168147e+17
19464.0	6.42844418183441e+17
19465.0	6.459658795483137e+17
19466.0	6.485818611509928e+17
19467.0	6.51182921167667e+17
19468.0	6.533965621318998e+17
19469.0	6.552101877798227e+17
19470.0	6.573867026524842e+17
19471.0	6.592505829130241e+17
19472.0	6.609145891389436e+17
19473.0	6.623998955050323e+17
19474.0	6.637374214417066e+17
19475.0	6.648529551709523e+17
19476.0	6.660247613603839e+17
19477.0	6.670195838593706e+17
19478.0	6.679246897763667e+17
19479.0	6.687417195735722e+17
19480.0	6.6954006102016e+17
19481.0	6.702731630040403e+17
19482.0	6.709316105011199e+17
19483.0	6.715487873051305e+17
19484.0	6.720873776720553e+17
19485.0	6.725725649720659e+17
19486.0	6.730310653837311e+17
19487.0	6.73447193678097e+17
19488.0	6.738252369231872e+17
19489.0	6.741562987205972e+17
19490.0	6.743063969923068e+17
19491.0	6.747411274443433e+17
19492.0	6.75002286481954e+17
19493.0	6.752366903339689e+17
19494.0	6.754468569808896e+17
19495.0	6.756136081773908e+17
19496.0	6.75754109252403e+17
19497.0	6.759580532299092e+17
19498.0	6.759460859718319e+17
19499.0	6.711669003299444e+17
19500.0	6.763154985975807e+17
19501.0	6.764008765216084e+17
19502.0	6.764885704004948e+17
19503.0	6.765596901376e+17
19504.0	6.766064996887209e+17
19505.0	6.766637389359785e+17
19506.0	6.767016300685993e+17
19507.0	6.767305386797738e+17
19508.0	6.767533083678036e+17
19509.0	6.767649565791571e+17
19510.0	6.767471836353876e+17
19511.0	6.734793425289197e+17
19512.0	6.761375158938254e+17
19513.0	6.753129378174266e+17
19514.0	6.757673268325021e+17
19515.0	6.765916129853441e+17
19516.0	6.766831213040979e+17
19517.0	6.766402671913641e+17
19518.0	6.766127301875028e+17
19519.0	6.765695975030783e+17
19520.0	6.765225447522301e+17
19521.0	6.764775135860052e+17
19522.0	6.764190403046058e+17
19523.0	6.763716106256383e+17
19524.0	6.763121922976425e+17
19525.0	6.7623968061085e+17
19526.0	6.761837922091007e+17
19527.0	6.761157446598655e+17
19528.0	6.760473315770365e+17
19529.0	6.759747877339135e+17
19530.0	6.759019162457427e+17
19531.0	6.758268083546793e+17
19532.0	6.757480558231551e+17
19533.0	6.75670971785762e+17
19534.0	6.755894046665385e+17
19535.0	6.755024709353471e+17
19536.0	6.754154593299113e+17
19537.0	6.753336442574163e+17
19538.0	6.752414317150208e+17
19539.0	6.750830090081624e+17
19540.0	6.750611601795753e+17
19541.0	6.749730934969684e+17
19542.0	6.74880546668544e+17
19543.0	6.747858280295081e+17
19544.0	6.746907168735231e+17
19545.0	6.74551402157397e+17
19546.0	6.743756236303017e+17
19547.0	6.74392141079074e+17
19548.0	6.742992545819306e+17
19549.0	6.741840860545023e+17
19550.0	6.740976220853587e+17
19551.0	6.739963355856895e+17
19552.0	6.738933887707818e+17
19553.0	6.737876507164671e+17
19554.0	6.736803593715711e+17
19555.0	6.735792078585855e+17
19556.0	6.7347506280093e+17
19557.0	6.733681145501012e+17
19558.0	6.732620536042835e+17
19559.0	6.731489781044564e+17
19560.0	6.730438039044095e+17
19561.0	6.729358293772969e+17
19562.0	6.728298092560383e+17
19563.0	6.727191742119935e+17
19564.0	6.726117270487037e+17
19565.0	6.725007926711635e+17
19566.0	6.723875401018026e+17
19567.0	6.722787416735743e+17
19568.0	6.721645444770473e+17
19569.0	6.720535891279871e+17
19570.0	6.719455649682772e+17
19571.0	6.718328325625172e+17
19572.0	6.717150198759423e+17
19573.0	6.716055817464489e+17
19574.0	6.714783201318227e+17
19575.0	6.71378800902144e+17
19576.0	6.712645948975785e+17
19577.0	6.711316293790378e+17
19578.0	6.710318313679529e+17
19579.0	6.709188393347753e+17
19580.0	6.708043732134568e+17
19581.0	6.706907658059775e+17
19582.0	6.705775811843412e+17
19583.0	6.704618502007465e+17
19584.0	6.703442914093737e+17
19585.0	6.702121337137833e+17
19586.0	6.700636039719594e+17
19587.0	6.699319981069652e+17
19588.0	6.698086078349311e+17
19589.0	6.696916118492499e+17
19590.0	6.696315106885631e+17
19591.0	6.695280488131241e+17
19592.0	6.694112136790015e+17
19593.0	6.692886183673855e+17
19594.0	6.69134783460147e+17
19595.0	6.690560135222612e+17
19596.0	6.679587886290267e+17
19597.0	6.68818120568559e+17
19598.0	6.686735248042665e+17
19599.0	6.685868839753044e+17
19600.0	6.684693768437759e+17
19601.0	6.683423357796351e+17
19602.0	6.682274140170921e+17
19603.0	6.680017246704978e+17
19604.0	6.679855724756991e+17
19605.0	6.678349528520022e+17
19606.0	6.677528864008874e+17
19607.0	6.676375708631039e+17
19608.0	6.675165456891904e+17
19609.0	6.673907132137471e+17
19610.0	6.672809471595859e+17
19611.0	6.671604045403476e+17
19612.0	6.670426920277332e+17
19613.0	6.669207463439017e+17
19614.0	6.667977705390079e+17
19615.0	6.666836807865684e+17
19616.0	6.665362427521706e+17
19617.0	6.664431971510953e+17
19618.0	6.662620860557993e+17
19619.0	6.66118389130854e+17
19620.0	6.660035480387583e+17
19621.0	6.659635897434111e+17
19622.0	6.658450006212607e+17
19623.0	6.657254017903274e+17
19624.0	6.6560393229981e+17
19625.0	6.654841004752895e+17
19626.0	6.653633098328746e+17
19627.0	6.652445089682771e+17
19628.0	6.650341667198295e+17
19629.0	6.649914656292861e+17
19630.0	6.648269732752044e+17
19631.0	6.60890780242191e+17
19632.0	6.646400182561449e+17
19633.0	6.645144804305578e+17
19634.0	6.644021393533609e+17
19635.0	6.642761021958826e+17
19636.0	6.641595812850345e+17
19637.0	6.639834389020672e+17
19638.0	6.639188868158804e+17
19639.0	6.637950140590762e+17
19640.0	6.63670491255057e+17
19641.0	6.634917972672513e+17
19642.0	6.634365095597395e+17
19643.0	6.63311647646242e+17
19644.0	6.631889704757929e+17
19645.0	6.630431323586559e+17
19646.0	6.629558562324479e+17
19647.0	6.628353594010282e+17
19648.0	6.62714008609314e+17
19649.0	6.625929098952701e+17
19650.0	6.624731753786026e+17
19651.0	6.62351540003362e+17
19652.0	6.622305858529962e+17
19653.0	6.621093796249599e+17
19654.0	6.619886377063763e+17
19655.0	6.618670344175616e+17
19656.0	6.617464209844906e+17
19657.0	6.616266246018388e+17
19658.0	6.615053651061417e+17
19659.0	6.613860347106643e+17
19660.0	6.612658558074879e+17
19661.0	6.61144415047953e+17
19662.0	6.610243196114259e+17
19663.0	6.608968054996991e+17
19664.0	6.607631681235625e+17
19665.0	6.606620143736148e+17
19666.0	6.605383927857151e+17
