# Flux units: erg / (cm m2 s)
# Wavelength units: Angstrom
wave	flux
19000.0	7.069451546176169e+17
19001.0	7.068099668869117e+17
19002.0	7.066795111699795e+17
19003.0	7.065466265316008e+17
19004.0	7.064137569927168e+17
19005.0	7.062809684038995e+17
19006.0	7.061481189976745e+17
19007.0	7.060100954980352e+17
19008.0	7.058808793377449e+17
19009.0	7.057482385282387e+17
19010.0	7.056056299552765e+17
19011.0	7.054830530985983e+17
19012.0	7.053427368525824e+17
19013.0	7.05218224464418e+17
19014.0	7.050835984908287e+17
19015.0	7.049513909529258e+17
19016.0	7.048182686373204e+17
19017.0	7.046848854360063e+17
19018.0	7.045530247670441e+17
19019.0	7.044210272239615e+17
19020.0	7.042868402541908e+17
19021.0	7.041547995097769e+17
19022.0	7.040225860998484e+17
19023.0	7.038891780123305e+17
19024.0	7.037562484948991e+17
19025.0	7.036236176119123e+17
19026.0	7.034899012430506e+17
19027.0	7.033520845225983e+17
19028.0	7.032256967912106e+17
19029.0	7.030928905863167e+17
19030.0	7.029601215010132e+17
19031.0	7.028273394133674e+17
19032.0	7.026945673920511e+17
19033.0	7.025596625671507e+17
19034.0	7.024290193648298e+17
19035.0	7.022953290006527e+17
19036.0	7.017114956551506e+17
19037.0	7.020307643979092e+17
19038.0	7.018974991963476e+17
19039.0	7.017654107067732e+17
19040.0	7.016327156509354e+17
19041.0	7.015000245796864e+17
19042.0	7.0136540706461e+17
19043.0	7.01234707239185e+17
19044.0	7.011019961051817e+17
19045.0	7.009694061865642e+17
19046.0	7.008355669945002e+17
19047.0	7.007039830097919e+17
19048.0	7.005666536674644e+17
19049.0	7.004373987098623e+17
19050.0	7.003053348268713e+17
19051.0	7.001057778816339e+17
19052.0	7.000333563024724e+17
19053.0	6.999073585714516e+17
19054.0	6.997761353667926e+17
19055.0	6.996375226373462e+17
19056.0	6.995105808383999e+17
19057.0	6.993786234907306e+17
19058.0	6.992452411282772e+17
19059.0	6.991136628058793e+17
19060.0	6.989806347223039e+17
19061.0	6.988487783175508e+17
19062.0	6.987162481677652e+17
19063.0	6.985838962758996e+17
19064.0	6.984488552759295e+17
19065.0	6.983148820059476e+17
19066.0	6.981853293226665e+17
19067.0	6.980544880093865e+17
19068.0	6.979221512170153e+17
19069.0	6.97789861400849e+17
19070.0	6.976573094406826e+17
19071.0	6.975252707934205e+17
19072.0	6.97392994329122e+17
19073.0	6.972606046885204e+17
19074.0	6.971284959264765e+17
19075.0	6.969962695142057e+17
19076.0	6.968635313968467e+17
19077.0	6.967316179495593e+17
19078.0	6.965988247470079e+17
19079.0	6.964675177261737e+17
19080.0	6.963352441978879e+17
19081.0	6.962022276486484e+17
19082.0	6.960699793560916e+17
19083.0	6.95936665920034e+17
19084.0	6.958010594579796e+17
19085.0	6.956748637558099e+17
19086.0	6.955334762845523e+17
19087.0	6.953970699687252e+17
19088.0	6.952767421677568e+17
19089.0	6.951353040852308e+17
19090.0	6.950141693700778e+17
19091.0	6.948821297441449e+17
19092.0	6.947464375085738e+17
19093.0	6.946189403138729e+17
19094.0	6.944861499075241e+17
19095.0	6.943540150708905e+17
19096.0	6.94222519865617e+17
19097.0	6.940913051194708e+17
19098.0	6.939595809751039e+17
19099.0	6.938277209352873e+17
19100.0	6.93695248736802e+17
19101.0	6.935641554856617e+17
19102.0	6.934302686183424e+17
19103.0	6.9330064651933e+17
19104.0	6.931689051783168e+17
19105.0	6.930371632081577e+17
19106.0	6.929029728130387e+17
19107.0	6.927734011854847e+17
19108.0	6.926420578839209e+17
19109.0	6.924660502080169e+17
19110.0	6.923782158199465e+17
19111.0	6.922471991847594e+17
19112.0	6.921156180661588e+17
19113.0	6.919840421205332e+17
19114.0	6.918524758218067e+17
19115.0	6.917195319738367e+17
19116.0	6.915888345950889e+17
19117.0	6.914573990188372e+17
19118.0	6.91322180669713e+17
19119.0	6.911272508107433e+17
19120.0	6.9105979256122e+17
19121.0	6.909294496011603e+17
19122.0	6.908005685657599e+17
19123.0	6.906690061118121e+17
19124.0	6.905353284004521e+17
19125.0	6.904059478933503e+17
19126.0	6.902742854751571e+17
19127.0	6.901037882758484e+17
19128.0	6.899811731810985e+17
19129.0	6.898789195448319e+17
19130.0	6.897496115991891e+17
19131.0	6.896178058756095e+17
19132.0	6.89487105560849e+17
19133.0	6.8934268630685e+17
19134.0	6.892103953022975e+17
19135.0	6.890933887609513e+17
19136.0	6.88962349965858e+17
19137.0	6.888273208497491e+17
19138.0	6.886971527222612e+17
19139.0	6.885687772403028e+17
19140.0	6.884377380956841e+17
19141.0	6.883066339393535e+17
19142.0	6.881749465650516e+17
19143.0	6.880431732075177e+17
19144.0	6.879132216459264e+17
19145.0	6.877821283248808e+17
19146.0	6.876365981395625e+17
19147.0	6.875182071982762e+17
19148.0	6.873889828590931e+17
19149.0	6.872580726194175e+17
19150.0	6.871269805566634e+17
19151.0	6.869963260996265e+17
19152.0	6.868646193616212e+17
19153.0	6.867339440029695e+17
19154.0	6.866005029901652e+17
19155.0	6.864726074763946e+17
19156.0	6.863416150982653e+17
19157.0	6.862101609971711e+17
19158.0	6.860493431330131e+17
19159.0	6.859484748753578e+17
19160.0	6.858173764512425e+17
19161.0	6.856843269767168e+17
19162.0	6.854880175412566e+17
19163.0	6.854249428287488e+17
19164.0	6.852950166426963e+17
19165.0	6.851630478305961e+17
19166.0	6.850295638261759e+17
19167.0	6.848962687052457e+17
19168.0	6.847695875822932e+17
19169.0	6.846388841218047e+17
19170.0	6.845105076611753e+17
19171.0	6.843760131790164e+17
19172.0	6.84249100460578e+17
19173.0	6.841183616281258e+17
19174.0	6.839865398263807e+17
19175.0	6.838572033594708e+17
19176.0	6.837265468751871e+17
19177.0	6.835923281685161e+17
19178.0	6.834639862409897e+17
19179.0	6.833291244776106e+17
19180.0	6.831993264974505e+17
19181.0	6.830708259553279e+17
19182.0	6.829415162620586e+17
19183.0	6.828117049300308e+17
19184.0	6.826794851587412e+17
19185.0	6.825508280991743e+17
19186.0	6.824204295645865e+17
19187.0	6.8228831772672e+17
19188.0	6.82158946656802e+17
19189.0	6.820273580583593e+17
19190.0	6.818965207995732e+17
19191.0	6.817668849991679e+17
19192.0	6.816368389958314e+17
19193.0	6.815037457607337e+17
19194.0	6.813747068097875e+17
19195.0	6.812451439902719e+17
19196.0	6.811146625482751e+17
19197.0	6.809839674064895e+17
19198.0	6.808527853060095e+17
19199.0	6.803151584406185e+17
19200.0	6.803233661343062e+17
19201.0	6.804614334644223e+17
19202.0	6.803317176227155e+17
19203.0	6.802005014784681e+17
19204.0	6.800703710298111e+17
19205.0	6.799405080379391e+17
19206.0	6.798097264235859e+17
19207.0	6.796777439799978e+17
19208.0	6.795442679447551e+17
19209.0	6.794185364821332e+17
19210.0	6.792880010734249e+17
19211.0	6.791574173603156e+17
19212.0	6.790269666765481e+17
19213.0	6.788914102665215e+17
19214.0	6.787586327926099e+17
19215.0	6.786338016373417e+17
19216.0	6.785043787677693e+17
19217.0	6.783742550999039e+17
19218.0	6.782245203345407e+17
19219.0	6.781092803641341e+17
19220.0	6.77981972472354e+17
19221.0	6.778443172326057e+17
19222.0	6.777213366042621e+17
19223.0	6.775906770441555e+17
19224.0	6.774587667425962e+17
19225.0	6.773259213209599e+17
19226.0	6.771988369855827e+17
19227.0	6.770676171363668e+17
19228.0	6.769375242966355e+17
19229.0	6.768068115387731e+17
19230.0	6.766747973582847e+17
19231.0	6.765445296859817e+17
19232.0	6.764138396472659e+17
19233.0	6.762820920847017e+17
19234.0	6.761524330758141e+17
19235.0	6.760216634152276e+17
19236.0	6.758913624681129e+17
19237.0	6.757601245134847e+17
19238.0	6.756119099037011e+17
19239.0	6.754747776936617e+17
19240.0	6.753392388997119e+17
19241.0	6.752109522670934e+17
19242.0	6.750814620090368e+17
19243.0	6.749465957018281e+17
19244.0	6.748197698753876e+17
19245.0	6.746887281442815e+17
19246.0	6.745572340574889e+17
19247.0	6.744263750582272e+17
19248.0	6.742952677561684e+17
19249.0	6.741639970859689e+17
19250.0	6.740325991186431e+17
19251.0	6.738987342714196e+17
19252.0	6.737627242474153e+17
19253.0	6.736384259085652e+17
19254.0	6.735065119719423e+17
19255.0	6.733710238591658e+17
19256.0	6.732425760953684e+17
19257.0	6.731124973764608e+17
19258.0	6.729808728468138e+17
19259.0	6.728473780071082e+17
19260.0	6.727106409704105e+17
19261.0	6.725856096070313e+17
19262.0	6.724525189584212e+17
19263.0	6.723205116286291e+17
19264.0	6.721776769127763e+17
19265.0	6.72053294338321e+17
19266.0	6.719219576078335e+17
19267.0	6.717932947461459e+17
19268.0	6.716609933257386e+17
19269.0	6.715286137514666e+17
19270.0	6.713961339333289e+17
19271.0	6.712560439700138e+17
19272.0	6.711301383738708e+17
19273.0	6.708739407085565e+17
19274.0	6.708000380507476e+17
19275.0	6.707325569422676e+17
19276.0	6.705991063524691e+17
19277.0	6.704665033616042e+17
19278.0	6.703333079252991e+17
19279.0	6.701989649274195e+17
19280.0	6.700647594328063e+17
19281.0	6.699330054389759e+17
19282.0	6.697993627500541e+17
19283.0	6.69659308298513e+17
19284.0	6.695204387378515e+17
19285.0	6.693930122870783e+17
19286.0	6.692628717021865e+17
19287.0	6.691293366670676e+17
19288.0	6.688798251417597e+17
19289.0	6.68559334807961e+17
19290.0	6.687110523606355e+17
19291.0	6.68540880359697e+17
19292.0	6.684122140726612e+17
19293.0	6.682768492724223e+17
19294.0	6.681417248058025e+17
19295.0	6.68006213624354e+17
19296.0	6.678705359290367e+17
19297.0	6.677346147543721e+17
19298.0	6.675981551708841e+17
19299.0	6.674623299758762e+17
19300.0	6.67325829497924e+17
19301.0	6.671902018546345e+17
19302.0	6.67054670750242e+17
19303.0	6.669156845879295e+17
19304.0	6.667791360152916e+17
19305.0	6.666428078533289e+17
19306.0	6.665048632066047e+17
19307.0	6.663650788682409e+17
19308.0	6.662273440765268e+17
19309.0	6.660761558450175e+17
19310.0	6.659316168436393e+17
19311.0	6.658095066032808e+17
19312.0	6.656721148357289e+17
19313.0	6.655309358912852e+17
19314.0	6.651605496976723e+17
19315.0	6.650346528396631e+17
19316.0	6.65109912424721e+17
19317.0	6.64969818616627e+17
19318.0	6.648278229013844e+17
19319.0	6.646863786672127e+17
19320.0	6.645437230481408e+17
19321.0	6.644013505445888e+17
19322.0	6.642548367949823e+17
19323.0	6.64108051604002e+17
19324.0	6.639704905263785e+17
19325.0	6.638141465165823e+17
19326.0	6.636810441239209e+17
19327.0	6.635353724507475e+17
19328.0	6.633898077323263e+17
19329.0	6.632433335489876e+17
19330.0	6.630953232018089e+17
19331.0	6.629476130968916e+17
19332.0	6.628003877836116e+17
19333.0	6.626516206441811e+17
19334.0	6.625017268447913e+17
19335.0	6.623050895545683e+17
19336.0	6.621435915141119e+17
19337.0	6.6199198119581e+17
19338.0	6.618349479220564e+17
19339.0	6.616869802169684e+17
19340.0	6.615319243478356e+17
19341.0	6.613782816096255e+17
19342.0	6.612138773359274e+17
19343.0	6.610668422343338e+17
19344.0	6.60909621125666e+17
19345.0	6.607056628875261e+17
19346.0	6.605752657510399e+17
19347.0	6.604303419921748e+17
19348.0	6.602707549465257e+17
19349.0	6.601077090680831e+17
19350.0	6.599440414539775e+17
19351.0	6.597794150219776e+17
19352.0	6.596122670443178e+17
19353.0	6.594374866916692e+17
19354.0	6.592039015677951e+17
19355.0	6.590319099379711e+17
19356.0	6.588623270270292e+17
19357.0	6.586892481637033e+17
19358.0	6.585135622608212e+17
19359.0	6.583318449487871e+17
19360.0	6.581594056469161e+17
19361.0	6.57979533828642e+17
19362.0	6.577988893496659e+17
19363.0	6.576151553463635e+17
19364.0	6.57413024776192e+17
19365.0	6.571483980278441e+17
19366.0	6.569583059490131e+17
19367.0	6.567658810682025e+17
19368.0	6.56571015242274e+17
19369.0	6.563708364914687e+17
19370.0	6.561302240209577e+17
19371.0	6.559271643425449e+17
19372.0	6.556420059867817e+17
19373.0	6.553993288002217e+17
19374.0	6.551871293139625e+17
19375.0	6.549714856749738e+17
19376.0	6.547524257054719e+17
19377.0	6.545000236755625e+17
19378.0	6.54165729957205e+17
19379.0	6.539350206578687e+17
19380.0	6.537000364539903e+17
19381.0	6.534605664419839e+17
19382.0	6.530642772754432e+17
19383.0	6.528023025855146e+17
19384.0	6.525507331249492e+17
19385.0	6.52206679400994e+17
19386.0	6.518347490743636e+17
19387.0	6.515584673338708e+17
19388.0	6.511622745664169e+17
19389.0	6.508213075705855e+17
19390.0	6.50529464263202e+17
19391.0	6.498435254102693e+17
19392.0	6.49921160159778e+17
19393.0	6.496092917071871e+17
19394.0	6.492858247457449e+17
19395.0	6.489529036832768e+17
19396.0	6.485671689934164e+17
19397.0	6.481654382766761e+17
19398.0	6.478012272869375e+17
19399.0	6.474110030140756e+17
19400.0	6.470381092558163e+17
19401.0	6.466049678158506e+17
19402.0	6.460998902874111e+17
19403.0	6.456703342084096e+17
19404.0	6.452269535636137e+17
19405.0	6.446686536029526e+17
19406.0	6.441271748984832e+17
19407.0	6.436281849129642e+17
19408.0	6.429238850049366e+17
19409.0	6.423666430574591e+17
19410.0	6.416356751354538e+17
19411.0	6.409685375997267e+17
19412.0	6.400858321321985e+17
19413.0	6.392709248625324e+17
19414.0	6.383421923611988e+17
19415.0	6.372911948496899e+17
19416.0	6.360925593053865e+17
19417.0	6.347705650861395e+17
19418.0	6.336697323225087e+17
19419.0	6.327247259915604e+17
19420.0	6.317520959744681e+17
19421.0	6.30742132597282e+17
19422.0	6.296823106895871e+17
19423.0	6.285701558217385e+17
19424.0	6.273924866244607e+17
19425.0	6.261055120474111e+17
19426.0	6.248028295921663e+17
19427.0	6.233784691195904e+17
19428.0	6.218699197382655e+17
19429.0	6.202374381109245e+17
19430.0	6.184723992805377e+17
19431.0	6.164617337591127e+17
19432.0	6.143620481198764e+17
19433.0	6.118576862440106e+17
19434.0	6.089157584967002e+17
19435.0	6.053246036606972e+17
19436.0	6.0145324799645e+17
19437.0	5.984125490036736e+17
19438.0	5.946904217823914e+17
19439.0	5.915277520098644e+17
19440.0	5.875696654789288e+17
19441.0	5.829906365677564e+17
19442.0	5.775643435685211e+17
19443.0	5.706713471997268e+17
19444.0	5.6323589226714394e+17
19445.0	5.5579817513669997e+17
19446.0	5.4679536311555437e+17
19447.0	5.3525306045453645e+17
19448.0	5.2214117744421594e+17
19449.0	5.044799943999488e+17
19450.0	4.754898765043003e+17
19451.0	4.660923713890985e+17
19452.0	4.910114038699353e+17
19453.0	5.1410197335244864e+17
19454.0	5.2867114617623834e+17
19455.0	5.40693412271446e+17
19456.0	5.507311910344023e+17
19457.0	5.585848945519271e+17
19458.0	5.6526681879347206e+17
19459.0	5.7284943605486995e+17
19460.0	5.786564860837883e+17
19461.0	5.833689828513107e+17
19462.0	5.87370685600017e+17
19463.0	5.909215330347688e+17
19464.0	5.940958386454527e+17
19465.0	5.970178354795862e+17
19466.0	6.00138384024098e+17
19467.0	6.03836359604087e+17
19468.0	6.067950630993925e+17
19469.0	6.092161902007635e+17
19470.0	6.11340048872243e+17
19471.0	6.131326510607021e+17
19472.0	6.147393016474281e+17
19473.0	6.162103806547284e+17
19474.0	6.17490322292736e+17
19475.0	6.187431839662079e+17
19476.0	6.198529845013161e+17
19477.0	6.208982923695444e+17
19478.0	6.218980135359828e+17
19479.0	6.227931646918655e+17
19480.0	6.23633799123217e+17
19481.0	6.244242141741053e+17
19482.0	6.251649357403476e+17
19483.0	6.25887015932177e+17
19484.0	6.266528081117184e+17
19485.0	6.276410619112102e+17
19486.0	6.286195454989647e+17
19487.0	6.294611543370408e+17
19488.0	6.301789854192982e+17
19489.0	6.309008212230144e+17
19490.0	6.314202904570538e+17
19491.0	6.319289432801279e+17
19492.0	6.324408758392147e+17
19493.0	6.328033231940265e+17
19494.0	6.331985173676032e+17
19495.0	6.335416484844884e+17
19496.0	6.337772201705471e+17
19497.0	6.341294007779327e+17
19498.0	6.343368967716864e+17
19499.0	6.339289470205947e+17
19500.0	6.347377202604714e+17
19501.0	6.350142826698068e+17
19502.0	6.351610062045183e+17
19503.0	6.352960920136361e+17
19504.0	6.354190671893844e+17
19505.0	6.355310857945087e+17
19506.0	6.356942828077055e+17
19507.0	6.358121159065597e+17
19508.0	6.358938747054761e+17
19509.0	6.359666047756969e+17
19510.0	6.360270946085545e+17
19511.0	6.355446756190888e+17
19512.0	6.36049120646485e+17
19513.0	6.360037901467644e+17
19514.0	6.361565008407208e+17
19515.0	6.363844981030911e+17
19516.0	6.36430699340322e+17
19517.0	6.365635696481618e+17
19518.0	6.366415996409171e+17
19519.0	6.366492083180884e+17
19520.0	6.366532999315455e+17
19521.0	6.367987667129684e+17
19522.0	6.367895374965417e+17
19523.0	6.367771042512895e+17
19524.0	6.367600554541055e+17
19525.0	6.368057777717247e+17
19526.0	6.368427877509802e+17
19527.0	6.368144780864169e+17
19528.0	6.367828117203625e+17
19529.0	6.367478051504127e+17
19530.0	6.367096975917056e+17
19531.0	6.367371589582847e+17
19532.0	6.367309551632383e+17
19533.0	6.366843493853866e+17
19534.0	6.366357458605395e+17
19535.0	6.366222062977023e+17
19536.0	6.36567133757986e+17
19537.0	6.365117386762921e+17
19538.0	6.364515991377236e+17
19539.0	6.364242540931753e+17
19540.0	6.364152496914432e+17
19541.0	6.363515308736511e+17
19542.0	6.362852761097556e+17
19543.0	6.362172939217578e+17
19544.0	6.361476503699455e+17
19545.0	6.360667804139519e+17
19546.0	6.359829773811711e+17
19547.0	6.359292508635135e+17
19548.0	6.358536825077759e+17
19549.0	6.357743512322047e+17
19550.0	6.356985547063295e+17
19551.0	6.356191143089491e+17
19552.0	6.356041854528169e+17
19553.0	6.355235252120234e+17
19554.0	6.354402087884116e+17
19555.0	6.353570743975935e+17
19556.0	6.352720456493738e+17
19557.0	6.351859291783167e+17
19558.0	6.350990231295315e+17
19559.0	6.350108067102719e+17
19560.0	6.349217960995497e+17
19561.0	6.348329324991828e+17
19562.0	6.347425664991231e+17
19563.0	6.34651351851554e+17
19564.0	6.345595227384489e+17
19565.0	6.344669121566036e+17
19566.0	6.343731366068223e+17
19567.0	6.342795453967018e+17
19568.0	6.341842925431465e+17
19569.0	6.340895544005972e+17
19570.0	6.339938891071487e+17
19571.0	6.338973796401153e+17
19572.0	6.337997076518227e+17
19573.0	6.337024605465257e+17
19574.0	6.336025591458472e+17
19575.0	6.335127000973311e+17
19576.0	6.334583934375254e+17
19577.0	6.333578712798548e+17
19578.0	6.332578857134762e+17
19579.0	6.331578590429183e+17
19580.0	6.330570987885908e+17
19581.0	6.329559932731391e+17
19582.0	6.328547550079657e+17
19583.0	6.327527410062676e+17
19584.0	6.326502731109716e+17
19585.0	6.325449352631636e+17
19586.0	6.32440680943889e+17
19587.0	6.323380723296938e+17
19588.0	6.322261766875817e+17
19589.0	6.321319399041705e+17
19590.0	6.320271293502804e+17
19591.0	6.319243398217728e+17
19592.0	6.318193907859456e+17
19593.0	6.317137268310015e+17
19594.0	6.316025050038272e+17
19595.0	6.315023079047167e+17
19596.0	6.313238069248e+17
19597.0	6.312896281706495e+17
19598.0	6.31178249965841e+17
19599.0	6.310779272473258e+17
19600.0	6.309710706420393e+17
19601.0	6.308623930796714e+17
19602.0	6.307556990036649e+17
19603.0	6.306337957522089e+17
19604.0	6.305399721077418e+17
19605.0	6.304266427826175e+17
19606.0	6.303255635514708e+17
19607.0	6.302175621808127e+17
19608.0	6.301090897898154e+17
19609.0	6.299995872777556e+17
19610.0	6.298919988363264e+17
19611.0	6.297830350127104e+17
19612.0	6.296742051971071e+17
19613.0	6.295650306097151e+17
19614.0	6.294548066074623e+17
19615.0	6.293463725244413e+17
19616.0	6.292335049921876e+17
19617.0	6.291272593571839e+17
19618.0	6.290052831947433e+17
19619.0	6.288919564561065e+17
19620.0	6.287826762421588e+17
19621.0	6.286874997948415e+17
19622.0	6.285772878861652e+17
19623.0	6.284669754540032e+17
19624.0	6.28356552921361e+17
19625.0	6.282459655525716e+17
19626.0	6.281354004135935e+17
19627.0	6.280246855379625e+17
19628.0	6.279044937722538e+17
19629.0	6.278008704860159e+17
19630.0	6.276784527332692e+17
19631.0	6.271451611004927e+17
19632.0	6.274695755552084e+17
19633.0	6.273583899388585e+17
19634.0	6.272474655577427e+17
19635.0	6.27135164326434e+17
19636.0	6.270247746491731e+17
19637.0	6.269038637700438e+17
19638.0	6.268016029335551e+17
19639.0	6.266898206075561e+17
19640.0	6.265767468553556e+17
19641.0	6.264521305183572e+17
19642.0	6.263550854387027e+17
19643.0	6.262429763764223e+17
19644.0	6.261299307260585e+17
19645.0	6.260132817491284e+17
19646.0	6.259075210455721e+17
19647.0	6.257955101999103e+17
19648.0	6.256834540557652e+17
19649.0	6.255712888597161e+17
19650.0	6.254592146800637e+17
19651.0	6.253470335456595e+17
19652.0	6.252348117265066e+17
19653.0	6.251225091670015e+17
19654.0	6.250102619723091e+17
19655.0	6.248978233775444e+17
19656.0	6.247854027483818e+17
19657.0	6.246731712823295e+17
19658.0	6.245607498842111e+17
19659.0	6.244482557848233e+17
19660.0	6.243358149530963e+17
19661.0	6.242233051250687e+17
19662.0	6.241107678243497e+17
19663.0	6.239971009975635e+17
19664.0	6.238839616045055e+17
19665.0	6.237730142945279e+17
