# Flux units: erg / (cm m2 s)
# Wavelength units: Angstrom
wave	flux
19000.0	5.840542803951615e+17
19001.0	5.839380436484095e+17
19002.0	5.838366664818687e+17
19003.0	5.837273841008639e+17
19004.0	5.836186998276096e+17
19005.0	5.835100660957183e+17
19006.0	5.834013379919872e+17
19007.0	5.832852678290089e+17
19008.0	5.831792059744255e+17
19009.0	5.830650136712531e+17
19010.0	5.829329232243369e+17
19011.0	5.828523042275327e+17
19012.0	5.827208427165012e+17
19013.0	5.826389768230228e+17
19014.0	5.825262170144768e+17
19015.0	5.824188238178986e+17
19016.0	5.823088803446783e+17
19017.0	5.822038239346687e+17
19018.0	5.820937576382463e+17
19019.0	5.819861708745385e+17
19020.0	5.818761684713471e+17
19021.0	5.817690267931988e+17
19022.0	5.816608375177215e+17
19023.0	5.815499118084095e+17
19024.0	5.814420041105407e+17
19025.0	5.813328230918825e+17
19026.0	5.812221185622015e+17
19027.0	5.810953607533907e+17
19028.0	5.810089880802644e+17
19029.0	5.809001563073193e+17
19030.0	5.807927046701056e+17
19031.0	5.806842098395818e+17
19032.0	5.805753181579946e+17
19033.0	5.804603361372842e+17
19034.0	5.803576293763754e+17
19035.0	5.802434080626003e+17
19036.0	5.786010973634563e+17
19037.0	5.800314929501524e+17
19038.0	5.799244419388756e+17
19039.0	5.798194195027284e+17
19040.0	5.797110068805631e+17
19041.0	5.796022991192063e+17
19042.0	5.794862580367359e+17
19043.0	5.793858724036607e+17
19044.0	5.792764226000212e+17
19045.0	5.791683854379689e+17
19046.0	5.79056872596002e+17
19047.0	5.789501492996778e+17
19048.0	5.788290082930685e+17
19049.0	5.787282664936788e+17
19050.0	5.786243670824276e+17
19051.0	5.783031546991954e+17
19052.0	5.783529997380265e+17
19053.0	5.783010409097897e+17
19054.0	5.781942763694761e+17
19055.0	5.780672007023274e+17
19056.0	5.779760394622292e+17
19057.0	5.778692598923263e+17
19058.0	5.777581289417386e+17
19059.0	5.776530886797993e+17
19060.0	5.775440411798186e+17
19061.0	5.774376415439529e+17
19062.0	5.773291696422911e+17
19063.0	5.77221234401826e+17
19064.0	5.771045919959721e+17
19065.0	5.769925985566719e+17
19066.0	5.768928401118547e+17
19067.0	5.767889467124394e+17
19068.0	5.766813338741417e+17
19069.0	5.765733546633897e+17
19070.0	5.764636975912276e+17
19071.0	5.7635691068129274e+17
19072.0	5.762488440892073e+17
19073.0	5.7614138371386016e+17
19074.0	5.7603390879825914e+17
19075.0	5.759260482164053e+17
19076.0	5.758167522738175e+17
19077.0	5.757090093421908e+17
19078.0	5.756005368113834e+17
19079.0	5.754945643653802e+17
19080.0	5.7538557712356685e+17
19081.0	5.752763900231679e+17
19082.0	5.7516830567519565e+17
19083.0	5.7505600150787405e+17
19084.0	5.7493944012199245e+17
19085.0	5.748482650406911e+17
19086.0	5.7471296427349325e+17
19087.0	5.745874022607531e+17
19088.0	5.7451686098807456e+17
19089.0	5.7438257272586234e+17
19090.0	5.7430781736605e+17
19091.0	5.7420009911091194e+17
19092.0	5.740806207264085e+17
19093.0	5.7398753395124896e+17
19094.0	5.7387986826472096e+17
19095.0	5.737723100921856e+17
19096.0	5.736636672726356e+17
19097.0	5.73557250789649e+17
19098.0	5.734495832855892e+17
19099.0	5.7334200595906554e+17
19100.0	5.732324613641556e+17
19101.0	5.731265570755924e+17
19102.0	5.7301283649181e+17
19103.0	5.729132827290281e+17
19104.0	5.7280593706789536e+17
19105.0	5.7269732409780896e+17
19106.0	5.725832092494506e+17
19107.0	5.724824791242069e+17
19108.0	5.7237614792540154e+17
19109.0	5.7214886327528083e+17
19110.0	5.721554761547775e+17
19111.0	5.720541836432724e+17
19112.0	5.7194731375602336e+17
19113.0	5.7184070936821754e+17
19114.0	5.717333154026836e+17
19115.0	5.7161987227211085e+17
19116.0	5.7151761059676154e+17
19117.0	5.714102717164202e+17
19118.0	5.7129028575122765e+17
19119.0	5.7079184242332966e+17
19120.0	5.710776362161492e+17
19121.0	5.709739311409835e+17
19122.0	5.708769447116798e+17
19123.0	5.707698850321749e+17
19124.0	5.706561973736787e+17
19125.0	5.7055432346173434e+17
19126.0	5.704482751687337e+17
19127.0	5.702073793729877e+17
19128.0	5.70190137078579e+17
19129.0	5.7012285568887456e+17
19130.0	5.700195350915754e+17
19131.0	5.699134206683817e+17
19132.0	5.6980736391686816e+17
19133.0	5.6968209005281274e+17
19134.0	5.6957486448858445e+17
19135.0	5.694864656870057e+17
19136.0	5.6938062836749645e+17
19137.0	5.692618588902741e+17
19138.0	5.6916394831598925e+17
19139.0	5.69060293222946e+17
19140.0	5.689537862128981e+17
19141.0	5.688470378206547e+17
19142.0	5.6873865476833274e+17
19143.0	5.6862993218710176e+17
19144.0	5.685241959503188e+17
19145.0	5.684200643843413e+17
19146.0	5.682708330752681e+17
19147.0	5.6819770237911034e+17
19148.0	5.680996335397545e+17
19149.0	5.679932162878121e+17
19150.0	5.678870888622762e+17
19151.0	5.6778112871956474e+17
19152.0	5.676727710427818e+17
19153.0	5.6756612380317005e+17
19154.0	5.6745201196072954e+17
19155.0	5.6735538183755085e+17
19156.0	5.6724871642262176e+17
19157.0	5.6714015182684154e+17
19158.0	5.669513926279166e+17
19159.0	5.669281427619839e+17
19160.0	5.668215306846207e+17
19161.0	5.66713186918946e+17
19162.0	5.6642366641711795e+17
19163.0	5.664943337985364e+17
19164.0	5.6639803712252576e+17
19165.0	5.662869823684607e+17
19166.0	5.6617169626071034e+17
19167.0	5.660614374457343e+17
19168.0	5.659701505163264e+17
19169.0	5.6586178934429005e+17
19170.0	5.6576043916110496e+17
19171.0	5.6564257998766074e+17
19172.0	5.6554714055748256e+17
19173.0	5.654413897804457e+17
19174.0	5.6533172676635296e+17
19175.0	5.6522978350858234e+17
19176.0	5.651239100481534e+17
19177.0	5.650064886202368e+17
19178.0	5.64906126615074e+17
19179.0	5.6478984016581965e+17
19180.0	5.6469591753577805e+17
19181.0	5.6458485397367443e+17
19182.0	5.64484767744e+17
19183.0	5.6438105448994125e+17
19184.0	5.642734473139541e+17
19185.0	5.641689156812798e+17
19186.0	5.6406330317646496e+17
19187.0	5.639524829538985e+17
19188.0	5.6385073822651725e+17
19189.0	5.637435572617215e+17
19190.0	5.6363683214786554e+17
19191.0	5.6352962049474554e+17
19192.0	5.634275992928255e+17
19193.0	5.6332049843923616e+17
19194.0	5.6321466608298656e+17
19195.0	5.631100823710379e+17
19196.0	5.6300331056059725e+17
19197.0	5.6289722976174074e+17
19198.0	5.6279038203439776e+17
19199.0	5.6159603579508e+17
19200.0	5.6179305686411974e+17
19201.0	5.624733483663358e+17
19202.0	5.6236899883636045e+17
19203.0	5.622604890461524e+17
19204.0	5.6215555993326925e+17
19205.0	5.620512000573438e+17
19206.0	5.6194505207971834e+17
19207.0	5.6183183061811194e+17
19208.0	5.61719807119633e+17
19209.0	5.6162844574132896e+17
19210.0	5.615230177159849e+17
19211.0	5.6141795913891834e+17
19212.0	5.6131226945890976e+17
19213.0	5.611923275339092e+17
19214.0	5.6107983832787616e+17
19215.0	5.609905264962217e+17
19216.0	5.6088926383418016e+17
19217.0	5.607838711108949e+17
19218.0	5.606153486598143e+17
19219.0	5.6056159369079456e+17
19220.0	5.60464520089873e+17
19221.0	5.6033763568298656e+17
19222.0	5.6025397840226976e+17
19223.0	5.6014833478970016e+17
19224.0	5.600405079020884e+17
19225.0	5.599276788875262e+17
19226.0	5.59831482105856e+17
19227.0	5.5972569595685536e+17
19228.0	5.5962181024699725e+17
19229.0	5.5951619683341645e+17
19230.0	5.594087451962026e+17
19231.0	5.593028951539711e+17
19232.0	5.5919825712578554e+17
19233.0	5.5908859942447776e+17
19234.0	5.5898640318027085e+17
19235.0	5.5888094831138125e+17
19236.0	5.5877683338280954e+17
19237.0	5.5867000432011936e+17
19238.0	5.585573305647102e+17
19239.0	5.584599025451007e+17
19240.0	5.5835041254604794e+17
19241.0	5.5824573257482234e+17
19242.0	5.581413687143081e+17
19243.0	5.580259964835156e+17
19244.0	5.5793187735033165e+17
19245.0	5.578262892423849e+17
19246.0	5.5771948667371514e+17
19247.0	5.5761483480432634e+17
19248.0	5.575092846548308e+17
19249.0	5.574027104660138e+17
19250.0	5.572964010775892e+17
19251.0	5.571815190211242e+17
19252.0	5.5706774719692794e+17
19253.0	5.5697888723162445e+17
19254.0	5.568743254698666e+17
19255.0	5.5675716548689914e+17
19256.0	5.5665825408177485e+17
19257.0	5.565574545407999e+17
19258.0	5.564518099495593e+17
19259.0	5.5634129681995085e+17
19260.0	5.562088757919742e+17
19261.0	5.561332307503785e+17
19262.0	5.5602418150277114e+17
19263.0	5.55916522107699e+17
19264.0	5.557759168741375e+17
19265.0	5.5569492164826426e+17
19266.0	5.5558847133122554e+17
19267.0	5.554987323796137e+17
19268.0	5.553927096718676e+17
19269.0	5.552866607497215e+17
19270.0	5.551801204648617e+17
19271.0	5.550489835230549e+17
19272.0	5.549656333352958e+17
19273.0	5.5473229861137043e+17
19274.0	5.546690268364798e+17
19275.0	5.546496455868416e+17
19276.0	5.545419046125568e+17
19277.0	5.544359602683903e+17
19278.0	5.5432966059677e+17
19279.0	5.5422144349907616e+17
19280.0	5.541109706347863e+17
19281.0	5.5370051471714995e+17
19282.0	5.5359318660218874e+17
19283.0	5.534686661749418e+17
19284.0	5.5336386610681165e+17
19285.0	5.5325898257203194e+17
19286.0	5.53163416473873e+17
19287.0	5.530589765566464e+17
19288.0	5.5243970490750214e+17
19289.0	5.5190043422446854e+17
19290.0	5.527379089468074e+17
19291.0	5.526122527719424e+17
19292.0	5.5252334869654176e+17
19293.0	5.524156420456447e+17
19294.0	5.5230804989924685e+17
19295.0	5.522013599476393e+17
19296.0	5.52093093007633e+17
19297.0	5.5198420740778656e+17
19298.0	5.5187636618963616e+17
19299.0	5.517698040244905e+17
19300.0	5.516619789544105e+17
19301.0	5.515539462662826e+17
19302.0	5.514445524566015e+17
19303.0	5.51332538884642e+17
19304.0	5.51226484719616e+17
19305.0	5.5111943608511136e+17
19306.0	5.5101119186425165e+17
19307.0	5.508987144721749e+17
19308.0	5.5079124179353594e+17
19309.0	5.506431376337577e+17
19310.0	5.50523670573875e+17
19311.0	5.5045873890317645e+17
19312.0	5.5035679166081696e+17
19313.0	5.5024744203113805e+17
19314.0	5.484119637098511e+17
19315.0	5.483820596505265e+17
19316.0	5.4991385610158074e+17
19317.0	5.498077330101587e+17
19318.0	5.496970614057642e+17
19319.0	5.4958763418146125e+17
19320.0	5.494764726124543e+17
19321.0	5.4936547965446816e+17
19322.0	5.4924529040534176e+17
19323.0	5.491266191447381e+17
19324.0	5.490306784952319e+17
19325.0	5.488808494279338e+17
19326.0	5.488073924149247e+17
19327.0	5.486943036331349e+17
19328.0	5.4858170264890016e+17
19329.0	5.4826256420918586e+17
19330.0	5.479928044716031e+17
19331.0	5.478781435248639e+17
19332.0	5.47766535332386e+17
19333.0	5.476516413221547e+17
19334.0	5.4753690991110816e+17
19335.0	5.474197801970347e+17
19336.0	5.4730512281545376e+17
19337.0	5.471893789693267e+17
19338.0	5.470576535666687e+17
19339.0	5.4695594658802336e+17
19340.0	5.468313357036202e+17
19341.0	5.4671627860486816e+17
19342.0	5.465726209665705e+17
19343.0	5.464832579644073e+17
19344.0	5.463634083839999e+17
19345.0	5.461064660899155e+17
19346.0	5.460472316821502e+17
19347.0	5.459970600468479e+17
19348.0	5.458820411162623e+17
19349.0	5.45672001556753e+17
19350.0	5.452166474323285e+17
19351.0	5.450924845694975e+17
19352.0	5.449624956786005e+17
19353.0	5.448423606059007e+17
19354.0	5.4471541880695456e+17
19355.0	5.4458040108537165e+17
19356.0	5.4445838598580896e+17
19357.0	5.443286888087551e+17
19358.0	5.4419603282984954e+17
19359.0	5.4405873927891616e+17
19360.0	5.439293545076051e+17
19361.0	5.437050196415828e+17
19362.0	5.434251209430357e+17
19363.0	5.432744237946196e+17
19364.0	5.43127343534353e+17
19365.0	5.429875176723796e+17
19366.0	5.42846077632512e+17
19367.0	5.427032327804245e+17
19368.0	5.4255890629044896e+17
19369.0	5.4240721984552954e+17
19370.0	5.42250812641553e+17
19371.0	5.421120808637781e+17
19372.0	5.419643437055999e+17
19373.0	5.418096147824639e+17
19374.0	5.416560142669141e+17
19375.0	5.4149852458298016e+17
19376.0	5.41339225825826e+17
19377.0	5.4117712422502394e+17
19378.0	5.410130257160873e+17
19379.0	5.4084623152797005e+17
19380.0	5.406767100635817e+17
19381.0	5.405043710754815e+17
19382.0	5.4032386242205005e+17
19383.0	5.401421965601449e+17
19384.0	5.3996828093317114e+17
19385.0	5.3978367472435194e+17
19386.0	5.395953578147838e+17
19387.0	5.3940292000153594e+17
19388.0	5.3920649683053216e+17
19389.0	5.3900587579037e+17
19390.0	5.3880069239603194e+17
19391.0	5.372017284306245e+17
19392.0	5.383037397237757e+17
19393.0	5.381571417385641e+17
19394.0	5.379313324348757e+17
19395.0	5.3769837694593696e+17
19396.0	5.374616363073534e+17
19397.0	5.372219509178368e+17
19398.0	5.3697071266747725e+17
19399.0	5.3666561158458016e+17
19400.0	5.364451377851049e+17
19401.0	5.361815385014271e+17
19402.0	5.359032058860885e+17
19403.0	5.356140176430421e+17
19404.0	5.353184718837076e+17
19405.0	5.3501132551837e+17
19406.0	5.3469615698739194e+17
19407.0	5.3437012129437005e+17
19408.0	5.339769069021866e+17
19409.0	5.3368313812964685e+17
19410.0	5.333276325576703e+17
19411.0	5.3295715269126816e+17
19412.0	5.325740192388436e+17
19413.0	5.321774832375124e+17
19414.0	5.3176534966818125e+17
19415.0	5.313429397744298e+17
19416.0	5.3088776964014074e+17
19417.0	5.3040555694052685e+17
19418.0	5.299260554390186e+17
19419.0	5.294423780884479e+17
19420.0	5.289457353053525e+17
19421.0	5.28430963831603e+17
19422.0	5.2789649618589005e+17
19423.0	5.273499044850345e+17
19424.0	5.2667810686784845e+17
19425.0	5.260922436889258e+17
19426.0	5.254880677593087e+17
19427.0	5.2472082567877965e+17
19428.0	5.240477685820073e+17
19429.0	5.2315907791257594e+17
19430.0	5.222355332060499e+17
19431.0	5.2096504203400544e+17
19432.0	5.1993809081685325e+17
19433.0	5.1825214747224723e+17
19434.0	5.1599027557717395e+17
19435.0	5.12679542679141e+17
19436.0	5.101334555175594e+17
19437.0	5.084020668891134e+17
19438.0	5.041910141244766e+17
19439.0	5.0399580010141005e+17
19440.0	5.018208339055956e+17
19441.0	4.992677488973138e+17
19442.0	4.9639033387963744e+17
19443.0	4.9286541737983994e+17
19444.0	4.872951906871968e+17
19445.0	4.78500022019686e+17
19446.0	4.7182693860201805e+17
19447.0	4.6412592522635904e+17
19448.0	4.512722191734102e+17
19449.0	4.311250118901755e+17
19450.0	3.811740519934615e+17
19451.0	3.6497371525283674e+17
19452.0	4.0991505724211315e+17
19453.0	4.422088009973778e+17
19454.0	4.5874386871255046e+17
19455.0	4.676153399487145e+17
19456.0	4.744851936859479e+17
19457.0	4.8190211419886976e+17
19458.0	4.854302321410083e+17
19459.0	4.9298047224163155e+17
19460.0	4.9632887257606803e+17
19461.0	4.9885951078782285e+17
19462.0	5.0108992596213766e+17
19463.0	5.0320847387579725e+17
19464.0	5.0511085260417696e+17
19465.0	5.0683553901445114e+17
19466.0	5.085136581645651e+17
19467.0	5.116183803417935e+17
19468.0	5.1411975524406656e+17
19469.0	5.157826891262633e+17
19470.0	5.170651619568295e+17
19471.0	5.180349706054312e+17
19472.0	5.1885965507734176e+17
19473.0	5.1948773553384115e+17
19474.0	5.200531044346538e+17
19475.0	5.2053562639428243e+17
19476.0	5.210687136246442e+17
19477.0	5.214708829956777e+17
19478.0	5.2190420786653856e+17
19479.0	5.22315157873186e+17
19480.0	5.226561187872768e+17
19481.0	5.229816207551145e+17
19482.0	5.232905883571541e+17
19483.0	5.235837061038079e+17
19484.0	5.2385889152314016e+17
19485.0	5.241668150231039e+17
19486.0	5.2441974679360845e+17
19487.0	5.246542659190784e+17
19488.0	5.248717723183785e+17
19489.0	5.250591682286933e+17
19490.0	5.2516630920779085e+17
19491.0	5.2543719686362445e+17
19492.0	5.256038730519892e+17
19493.0	5.257559589344596e+17
19494.0	5.2589754493610656e+17
19495.0	5.260278621011967e+17
19496.0	5.261182806698665e+17
19497.0	5.262555076012713e+17
19498.0	5.2604198879668883e+17
19499.0	5.2428867346541216e+17
19500.0	5.265319480961706e+17
19501.0	5.2660639153957536e+17
19502.0	5.2667170300450125e+17
19503.0	5.267317014746451e+17
19504.0	5.2678255741064525e+17
19505.0	5.2682838514510496e+17
19506.0	5.2686742293053434e+17
19507.0	5.2689889146525e+17
19508.0	5.269276680956586e+17
19509.0	5.2694928302189216e+17
19510.0	5.2695009692658323e+17
19511.0	5.238560326855332e+17
19512.0	5.265577547399168e+17
19513.0	5.263596163781966e+17
19514.0	5.264917892431865e+17
19515.0	5.269306421368149e+17
19516.0	5.2696659668937376e+17
19517.0	5.2695053117685754e+17
19518.0	5.269378748645375e+17
19519.0	5.269164161761278e+17
19520.0	5.2689175716386125e+17
19521.0	5.2686828248323405e+17
19522.0	5.268369141224788e+17
19523.0	5.2680720859354445e+17
19524.0	5.2677244606218234e+17
19525.0	5.2673486621682323e+17
19526.0	5.266967738974206e+17
19527.0	5.266551598306645e+17
19528.0	5.2661125902936723e+17
19529.0	5.265660872840532e+17
19530.0	5.265190808802644e+17
19531.0	5.264697801921877e+17
19532.0	5.2641872957057696e+17
19533.0	5.263660028351828e+17
19534.0	5.263113712566272e+17
19535.0	5.2625507922302285e+17
19536.0	5.261955400291668e+17
19537.0	5.261398054884694e+17
19538.0	5.260673268667732e+17
19539.0	5.259810879220394e+17
19540.0	5.2595387080376314e+17
19541.0	5.258919078614357e+17
19542.0	5.258269173306709e+17
19543.0	5.257604164310357e+17
19544.0	5.2581318496965965e+17
19545.0	5.258082563129343e+17
19546.0	5.2571558889826976e+17
19547.0	5.2570774771684685e+17
19548.0	5.256356682530815e+17
19549.0	5.2555745399057056e+17
19550.0	5.254908138400426e+17
19551.0	5.2541718737715194e+17
19552.0	5.2534259517576525e+17
19553.0	5.2526538789573965e+17
19554.0	5.251889758557526e+17
19555.0	5.25114112352802e+17
19556.0	5.250381790926164e+17
19557.0	5.249602456387584e+17
19558.0	5.2488218258090656e+17
19559.0	5.249511057610069e+17
19560.0	5.2510539589003936e+17
19561.0	5.250247181729792e+17
19562.0	5.24945248415471e+17
19563.0	5.248638659854334e+17
19564.0	5.247817908660906e+17
19565.0	5.246993126042283e+17
19566.0	5.2461424960252576e+17
19567.0	5.245330304707242e+17
19568.0	5.2444788176541005e+17
19569.0	5.2436505090239136e+17
19570.0	5.2428152525291514e+17
19571.0	5.2419646001425056e+17
19572.0	5.241102785314815e+17
19573.0	5.240441825219924e+17
19574.0	5.2395470172979194e+17
19575.0	5.2387493396698445e+17
19576.0	5.2378916813974176e+17
19577.0	5.237007633962324e+17
19578.0	5.2361308860142925e+17
19579.0	5.235277902992724e+17
19580.0	5.2344075394744314e+17
19581.0	5.233547291918335e+17
19582.0	5.232685924483071e+17
19583.0	5.2318108144107514e+17
19584.0	5.2309178198261754e+17
19585.0	5.2299782558842874e+17
19586.0	5.2290662205576525e+17
19587.0	5.2282218512383994e+17
19588.0	5.227052068940458e+17
19589.0	5.2264996874922656e+17
19590.0	5.2255547604336634e+17
19591.0	5.224743130453332e+17
19592.0	5.224032216896853e+17
19593.0	5.2261954976918176e+17
19594.0	5.225146101006335e+17
19595.0	5.224367758420649e+17
19596.0	5.2225980543358285e+17
19597.0	5.2225305246433274e+17
19598.0	5.2214095144113485e+17
19599.0	5.2208024937649485e+17
19600.0	5.2199045897475405e+17
19601.0	5.2189487777710074e+17
19602.0	5.2180404453157536e+17
19603.0	5.216727601599828e+17
19604.0	5.216201537312086e+17
19605.0	5.2151583258269005e+17
19606.0	5.214456144811349e+17
19607.0	5.21354914964002e+17
19608.0	5.212622725753513e+17
19609.0	5.2116876238520314e+17
19610.0	5.2108078958510074e+17
19611.0	5.2098887462857376e+17
19612.0	5.2089849394845005e+17
19613.0	5.208062635802624e+17
19614.0	5.2071261232168954e+17
19615.0	5.206229787869182e+17
19616.0	5.205197517925034e+17
19617.0	5.20439460790272e+17
19618.0	5.20303796167202e+17
19619.0	5.202036982633812e+17
19620.0	5.201148271132671e+17
19621.0	5.200724988963498e+17
19622.0	5.1998129061014176e+17
19623.0	5.1988929344525645e+17
19624.0	5.197965408862207e+17
19625.0	5.1970504277360634e+17
19626.0	5.196129789192875e+17
19627.0	5.195203687568724e+17
19628.0	5.194012303207081e+17
19629.0	5.19327698858803e+17
19630.0	5.191139648165203e+17
19631.0	5.17968666278844e+17
19632.0	5.190585432408062e+17
19633.0	5.18962839359761e+17
19634.0	5.1887454898094074e+17
19635.0	5.1877937330257914e+17
19636.0	5.186889791307775e+17
19637.0	5.1857089374453754e+17
19638.0	5.1850383332474874e+17
19639.0	5.1841099869716474e+17
19640.0	5.1830645161547085e+17
19641.0	5.181618057292458e+17
19642.0	5.18134991683584e+17
19643.0	5.1804537415707296e+17
19644.0	5.1794843715065165e+17
19645.0	5.1784036258938874e+17
19646.0	5.177674478299817e+17
19647.0	5.1767560641358496e+17
19648.0	5.175830054087338e+17
19649.0	5.1749009185832954e+17
19650.0	5.173975732715519e+17
19651.0	5.1730442868490234e+17
19652.0	5.172118580887551e+17
19653.0	5.1711860892412576e+17
19654.0	5.170265524098389e+17
19655.0	5.1693341236701856e+17
19656.0	5.168404896590506e+17
