# Flux units: erg / (cm m2 s)
# Wavelength units: Angstrom
wave	flux
19000.0	5.7025550670452045e+17
19001.0	5.701412911229609e+17
19002.0	5.7004359529704096e+17
19003.0	5.699374252993194e+17
19004.0	5.698313732314453e+17
19005.0	5.6972549501747194e+17
19006.0	5.6961964763163296e+17
19007.0	5.6951278501451085e+17
19008.0	5.694026537063764e+17
19009.0	5.692913089860947e+17
19010.0	5.691578560894292e+17
19011.0	5.6908666581811194e+17
19012.0	5.689751221480106e+17
19013.0	5.688770280729258e+17
19014.0	5.687667157106687e+17
19015.0	5.6866219022964045e+17
19016.0	5.685548886086997e+17
19017.0	5.684534792159231e+17
19018.0	5.6834703602920083e+17
19019.0	5.6824122303665485e+17
19020.0	5.6813397964663456e+17
19021.0	5.680310092038143e+17
19022.0	5.6792788972339194e+17
19023.0	5.67818837959202e+17
19024.0	5.677147327474347e+17
19025.0	5.6761034162394445e+17
19026.0	5.675027178804564e+17
19027.0	5.673955693516116e+17
19028.0	5.6729293067823776e+17
19029.0	5.6718686959261e+17
19030.0	5.6708236270632934e+17
19031.0	5.6697667798958074e+17
19032.0	5.6687053937923405e+17
19033.0	5.6675769365736083e+17
19034.0	5.6665848270902605e+17
19035.0	5.6655054376359245e+17
19036.0	5.6615174598382925e+17
19037.0	5.663415649435647e+17
19038.0	5.662349320344916e+17
19039.0	5.6613127959784096e+17
19040.0	5.660256691901779e+17
19041.0	5.65919815373073e+17
19042.0	5.658067079266303e+17
19043.0	5.657089217833642e+17
19044.0	5.6560237555657363e+17
19045.0	5.654978090412713e+17
19046.0	5.653878863997609e+17
19047.0	5.6528443046625274e+17
19048.0	5.651641813783892e+17
19049.0	5.6506945770618874e+17
19050.0	5.6496686880522234e+17
19051.0	5.648216232034302e+17
19052.0	5.6474972842885114e+17
19053.0	5.64653993230336e+17
19054.0	5.6454828984893434e+17
19055.0	5.6442212168936096e+17
19056.0	5.6433546387346765e+17
19057.0	5.642317268516863e+17
19058.0	5.641259020451839e+17
19059.0	5.640215740459689e+17
19060.0	5.639145468024149e+17
19061.0	5.638111635002709e+17
19062.0	5.6370544802529274e+17
19063.0	5.636003233180329e+17
19064.0	5.6348478618118816e+17
19065.0	5.633759063135572e+17
19066.0	5.632803569926143e+17
19067.0	5.6317925497241594e+17
19068.0	5.630744079280809e+17
19069.0	5.629692316308821e+17
19070.0	5.6286214405925536e+17
19071.0	5.6275904184538445e+17
19072.0	5.626539158798335e+17
19073.0	5.6254841885818874e+17
19074.0	5.624437778939902e+17
19075.0	5.623387034484735e+17
19076.0	5.6223200238196045e+17
19077.0	5.621271068235091e+17
19078.0	5.620207141082452e+17
19079.0	5.619183023467179e+17
19080.0	5.6181205056006816e+17
19081.0	5.6170537137384096e+17
19082.0	5.6160006127834445e+17
19083.0	5.6149025852402336e+17
19084.0	5.6137552872079366e+17
19085.0	5.6128888362762234e+17
19086.0	5.6115540808171514e+17
19087.0	5.610700017762302e+17
19088.0	5.6096804544621216e+17
19089.0	5.6085173585838074e+17
19090.0	5.6076245121979725e+17
19091.0	5.606573959282687e+17
19092.0	5.605499752589994e+17
19093.0	5.604502582678868e+17
19094.0	5.603452103163903e+17
19095.0	5.602404036771839e+17
19096.0	5.601347011346431e+17
19097.0	5.60031028425523e+17
19098.0	5.5992652818022394e+17
19099.0	5.598218310123519e+17
19100.0	5.5971654230780576e+17
19101.0	5.5961208218801485e+17
19102.0	5.594992829530111e+17
19103.0	5.594035412533247e+17
19104.0	5.592989625745407e+17
19105.0	5.591940661772288e+17
19106.0	5.590883726524415e+17
19107.0	5.5898409806069754e+17
19108.0	5.588807904657407e+17
19109.0	5.5875514883112954e+17
19110.0	5.586708559036414e+17
19111.0	5.585673897639935e+17
19112.0	5.5846295809556474e+17
19113.0	5.583585360740351e+17
19114.0	5.582539045470207e+17
19115.0	5.581457082111317e+17
19116.0	5.580435283946154e+17
19117.0	5.579390456954879e+17
19118.0	5.578281068440234e+17
19119.0	5.572448706975055e+17
19120.0	5.576248365416447e+17
19121.0	5.575218259733163e+17
19122.0	5.574195074651476e+17
19123.0	5.573151991791615e+17
19124.0	5.571418165084158e+17
19125.0	5.5703535668428794e+17
19126.0	5.569310372134911e+17
19127.0	5.5667701359575034e+17
19128.0	5.5671738286298445e+17
19129.0	5.566129695795881e+17
19130.0	5.5651289355605325e+17
19131.0	5.5641047906822816e+17
19132.0	5.5630633547857914e+17
19133.0	5.561909299030698e+17
19134.0	5.56095963730193e+17
19135.0	5.5599412959423136e+17
19136.0	5.5589067170338125e+17
19137.0	5.557732273466026e+17
19138.0	5.55681042346803e+17
19139.0	5.55578642469137e+17
19140.0	5.554748478455806e+17
19141.0	5.553708657366356e+17
19142.0	5.552650115700052e+17
19143.0	5.551587458722474e+17
19144.0	5.5505600129269754e+17
19145.0	5.5495532820998816e+17
19146.0	5.548043972291242e+17
19147.0	5.5473739531987616e+17
19148.0	5.546438111701674e+17
19149.0	5.545400486330368e+17
19150.0	5.544356041020757e+17
19151.0	5.5433259695909536e+17
19152.0	5.542282585440255e+17
19153.0	5.541235615159636e+17
19154.0	5.540106855251967e+17
19155.0	5.5391770584459936e+17
19156.0	5.5381380839069005e+17
19157.0	5.537100000657407e+17
19158.0	5.5359144498735776e+17
19159.0	5.5350155042706765e+17
19160.0	5.5339830197179725e+17
19161.0	5.5329560919190176e+17
19162.0	5.531588662132735e+17
19163.0	5.5308722337655456e+17
19164.0	5.5298513240937805e+17
19165.0	5.528807622574079e+17
19166.0	5.527671263286611e+17
19167.0	5.52671381762867e+17
19168.0	5.525689412004521e+17
19169.0	5.5246543878007456e+17
19170.0	5.5236393515526816e+17
19171.0	5.5225842177583776e+17
19172.0	5.5215711863876256e+17
19173.0	5.5205366060810234e+17
19174.0	5.519453789181268e+17
19175.0	5.5184665800430925e+17
19176.0	5.5174355208546976e+17
19177.0	5.51627611386675e+17
19178.0	5.515358028955647e+17
19179.0	5.514303754294611e+17
19180.0	5.5132879476927136e+17
19181.0	5.5121678392360954e+17
19182.0	5.511206490079231e+17
19183.0	5.510199905353726e+17
19184.0	5.5091494419169274e+17
19185.0	5.5081294067575456e+17
19186.0	5.507100366427477e+17
19187.0	5.506014740742143e+17
19188.0	5.505033319044436e+17
19189.0	5.5040035747703456e+17
19190.0	5.502969498479273e+17
19191.0	5.501915321685332e+17
19192.0	5.500908534235135e+17
19193.0	5.499874013347839e+17
19194.0	5.498835611331242e+17
19195.0	5.497813294470484e+17
19196.0	5.4967728064866976e+17
19197.0	5.4957423407923194e+17
19198.0	5.4947160526247245e+17
19199.0	5.491742136598526e+17
19200.0	5.491282710713685e+17
19201.0	5.49162362933521e+17
19202.0	5.4905952552004256e+17
19203.0	5.4895650013184e+17
19204.0	5.488512834295124e+17
19205.0	5.487492478970539e+17
19206.0	5.486457407930367e+17
19207.0	5.4853444423734605e+17
19208.0	5.484236307955711e+17
19209.0	5.483371474627241e+17
19210.0	5.482344275596628e+17
19211.0	5.481321186284884e+17
19212.0	5.480291249072811e+17
19213.0	5.47918775006003e+17
19214.0	5.4781241025276576e+17
19215.0	5.477193080285866e+17
19216.0	5.47616842649873e+17
19217.0	5.4751407290449914e+17
19218.0	5.4734199934593696e+17
19219.0	5.4729626745132365e+17
19220.0	5.4720322199005856e+17
19221.0	5.4707600434571936e+17
19222.0	5.46997649084689e+17
19223.0	5.4689437224796154e+17
19224.0	5.46789103116834e+17
19225.0	5.466774351555242e+17
19226.0	5.465855122298198e+17
19227.0	5.464823921901567e+17
19228.0	5.463813602847402e+17
19229.0	5.4627839047106554e+17
19230.0	5.461751210442751e+17
19231.0	5.4607148545474554e+17
19232.0	5.4596844426799776e+17
19233.0	5.458608790350505e+17
19234.0	5.4576168185801376e+17
19235.0	5.4565890358422176e+17
19236.0	5.455576215584766e+17
19237.0	5.454533133423956e+17
19238.0	5.4534415273601696e+17
19239.0	5.4524870163169274e+17
19240.0	5.451420850804052e+17
19241.0	5.450397834193577e+17
19242.0	5.44938022404096e+17
19243.0	5.4482410566669645e+17
19244.0	5.44733873115409e+17
19245.0	5.4463049065212576e+17
19246.0	5.4452636810390176e+17
19247.0	5.4442477290345805e+17
19248.0	5.443218564273491e+17
19249.0	5.442184890635604e+17
19250.0	5.441141395335851e+17
19251.0	5.4400122614360723e+17
19252.0	5.43888796356881e+17
19253.0	5.4380445142002323e+17
19254.0	5.4370280728603296e+17
19255.0	5.4358678759451296e+17
19256.0	5.4349278946699936e+17
19257.0	5.433940116504575e+17
19258.0	5.432907851453781e+17
19259.0	5.431823981783722e+17
19260.0	5.430773012234239e+17
19261.0	5.4298002643572045e+17
19262.0	5.4287322337771514e+17
19263.0	5.4276830440106656e+17
19264.0	5.426255502857556e+17
19265.0	5.425505308945066e+17
19266.0	5.4244554823434234e+17
19267.0	5.4236139155182925e+17
19268.0	5.422580018883241e+17
19269.0	5.421545809772543e+17
19270.0	5.420507404260692e+17
19271.0	5.419190366939818e+17
19272.0	5.418411469307903e+17
19273.0	5.416164976317779e+17
19274.0	5.415535451133268e+17
19275.0	5.415333415004842e+17
19276.0	5.414280608350206e+17
19277.0	5.413248024532308e+17
19278.0	5.412211800058538e+17
19279.0	5.4111674638008314e+17
19280.0	5.410076008731988e+17
19281.0	5.4090930756867405e+17
19282.0	5.4080703953196365e+17
19283.0	5.4069980404121594e+17
19284.0	5.405958456999935e+17
19285.0	5.404795498135551e+17
19286.0	5.403879269903017e+17
19287.0	5.4028665649889274e+17
19288.0	5.4008861649360186e+17
19289.0	5.3989565033786e+17
19290.0	5.399739812719274e+17
19291.0	5.398489350187689e+17
19292.0	5.397649811308543e+17
19293.0	5.3965996897075194e+17
19294.0	5.395551719784447e+17
19295.0	5.394514088820735e+17
19296.0	5.3934658539574605e+17
19297.0	5.3924081651329696e+17
19298.0	5.3913474857697274e+17
19299.0	5.390319877095423e+17
19300.0	5.389263698919424e+17
19301.0	5.388211784253439e+17
19302.0	5.3871465177197216e+17
19303.0	5.386050301416789e+17
19304.0	5.3850230953956685e+17
19305.0	5.3839831268065274e+17
19306.0	5.3829355581385376e+17
19307.0	5.381844096079188e+17
19308.0	5.380800044335103e+17
19309.0	5.3796835527666323e+17
19310.0	5.3785969924505594e+17
19311.0	5.3776088053405005e+17
19312.0	5.3765696469510816e+17
19313.0	5.375510128710996e+17
19314.0	5.371011837635245e+17
19315.0	5.370113786118145e+17
19316.0	5.372306892608852e+17
19317.0	5.3712365313938765e+17
19318.0	5.370161397060949e+17
19319.0	5.3691011098651296e+17
19320.0	5.368025658163199e+17
19321.0	5.366950778983763e+17
19322.0	5.365800721099434e+17
19323.0	5.364762681890133e+17
19324.0	5.3637098221076474e+17
19325.0	5.3625580851036154e+17
19326.0	5.361539747938303e+17
19327.0	5.360439489724415e+17
19328.0	5.359360643432448e+17
19329.0	5.358270077556052e+17
19330.0	5.3571441998342816e+17
19331.0	5.356041219517098e+17
19332.0	5.3549735454528845e+17
19333.0	5.353877102657536e+17
19334.0	5.3527701901803514e+17
19335.0	5.351662995985749e+17
19336.0	5.35055320551697e+17
19337.0	5.349437082348202e+17
19338.0	5.3481510521186976e+17
19339.0	5.3472038272805536e+17
19340.0	5.3459927331853645e+17
19341.0	5.344916841081513e+17
19342.0	5.343518465720319e+17
19343.0	5.342693814523221e+17
19344.0	5.341558206715221e+17
19345.0	5.3388425144128826e+17
19346.0	5.3384308106199014e+17
19347.0	5.338074466746367e+17
19348.0	5.3369845076459514e+17
19349.0	5.3358026205866656e+17
19350.0	5.334646262857728e+17
19351.0	5.3334804239045965e+17
19352.0	5.3322728774915405e+17
19353.0	5.3311569290854394e+17
19354.0	5.329979211164329e+17
19355.0	5.328714319527935e+17
19356.0	5.32760139801122e+17
19357.0	5.3264062178044576e+17
19358.0	5.325190860898304e+17
19359.0	5.323922986412713e+17
19360.0	5.322743058093396e+17
19361.0	5.321528572204372e+17
19362.0	5.320332251845973e+17
19363.0	5.319095466939732e+17
19364.0	5.317851963457536e+17
19365.0	5.316605000373589e+17
19366.0	5.3153477654391456e+17
19367.0	5.3134150308549965e+17
19368.0	5.3118340452843514e+17
19369.0	5.3104916254337696e+17
19370.0	5.3091203110229325e+17
19371.0	5.307912224243711e+17
19372.0	5.306640518261417e+17
19373.0	5.3053003752188576e+17
19374.0	5.3039850296005965e+17
19375.0	5.3026383609200634e+17
19376.0	5.301285084113579e+17
19377.0	5.2999141765502285e+17
19378.0	5.298535954120703e+17
19379.0	5.297142992906922e+17
19380.0	5.295736073748479e+17
19381.0	5.2943154140501325e+17
19382.0	5.2928224536384845e+17
19383.0	5.291336729799338e+17
19384.0	5.289960940765182e+17
19385.0	5.288484999441066e+17
19386.0	5.2869911078939296e+17
19387.0	5.2854752633596576e+17
19388.0	5.2834173120238925e+17
19389.0	5.2810227775788365e+17
19390.0	5.279441252341077e+17
19391.0	5.275236642936145e+17
19392.0	5.276100829642751e+17
19393.0	5.2745626867903123e+17
19394.0	5.272879950899881e+17
19395.0	5.2711805181842765e+17
19396.0	5.269453512114175e+17
19397.0	5.267496558220628e+17
19398.0	5.2640981758334285e+17
19399.0	5.2616831626990925e+17
19400.0	5.2603267562427725e+17
19401.0	5.258496821952511e+17
19402.0	5.256560134236843e+17
19403.0	5.2531238828769274e+17
19404.0	5.2502231322897056e+17
19405.0	5.248080342766932e+17
19406.0	5.245691174933845e+17
19407.0	5.241081183950161e+17
19408.0	5.237652768249174e+17
19409.0	5.235796987958613e+17
19410.0	5.23002711323443e+17
19411.0	5.227417619311274e+17
19412.0	5.221364054447448e+17
19413.0	5.217671873647957e+17
19414.0	5.2101542191650125e+17
19415.0	5.2042731876952685e+17
19416.0	5.196773305177428e+17
19417.0	5.188031176769536e+17
19418.0	5.1809964502548474e+17
19419.0	5.1767080903857485e+17
19420.0	5.172206427089577e+17
19421.0	5.167465506712234e+17
19422.0	5.162451196706815e+17
19423.0	5.1572316216579405e+17
19424.0	5.1511061335681696e+17
19425.0	5.1451663517832525e+17
19426.0	5.1389952038010874e+17
19427.0	5.132490347205973e+17
19428.0	5.1250827407742285e+17
19429.0	5.1173043683546445e+17
19430.0	5.1092118691293875e+17
19431.0	5.099594744594432e+17
19432.0	5.08988777177634e+17
19433.0	5.078309002018818e+17
19434.0	5.063837122297858e+17
19435.0	5.0448088128553005e+17
19436.0	5.0175095659124077e+17
19437.0	4.9774743770890125e+17
19438.0	4.946179813714602e+17
19439.0	4.926932142172843e+17
19440.0	4.9018733533156685e+17
19441.0	4.8746348727500774e+17
19442.0	4.844819798381909e+17
19443.0	4.81314706886929e+17
19444.0	4.777217821245434e+17
19445.0	4.724467213970095e+17
19446.0	4.625115232862196e+17
19447.0	4.5409472026596666e+17
19448.0	4.439653423775749e+17
19449.0	4.231210358276098e+17
19450.0	3.7324626958745485e+17
19451.0	3.554349278734994e+17
19452.0	4.026497426434751e+17
19453.0	4.3517559414893306e+17
19454.0	4.4925300335356525e+17
19455.0	4.576838930836138e+17
19456.0	4.671080405576361e+17
19457.0	4.745672019061412e+17
19458.0	4.776225591525383e+17
19459.0	4.815563263399257e+17
19460.0	4.84494405743411e+17
19461.0	4.87161864598323e+17
19462.0	4.8960898722693114e+17
19463.0	4.918373664860842e+17
19464.0	4.939049348715861e+17
19465.0	4.9745458364416006e+17
19466.0	5.0058346249584614e+17
19467.0	5.026623544535718e+17
19468.0	5.040665133405524e+17
19469.0	5.051432419983359e+17
19470.0	5.060767460098046e+17
19471.0	5.0680031231344646e+17
19472.0	5.075099348631551e+17
19473.0	5.080534150894932e+17
19474.0	5.086807449053866e+17
19475.0	5.090860287568553e+17
19476.0	5.0958956620677114e+17
19477.0	5.1000248718677325e+17
19478.0	5.1041756795371514e+17
19479.0	5.107920374420821e+17
19480.0	5.1110689119054496e+17
19481.0	5.1139963955882656e+17
19482.0	5.1166861482175136e+17
19483.0	5.119160837909162e+17
19484.0	5.122667236906325e+17
19485.0	5.128067217358841e+17
19486.0	5.134180604881577e+17
19487.0	5.1405627668998816e+17
19488.0	5.143770519568385e+17
19489.0	5.147345460483412e+17
19490.0	5.14954529184154e+17
19491.0	5.1529469457858554e+17
19492.0	5.154740283375619e+17
19493.0	5.1574009324284576e+17
19494.0	5.15783274860817e+17
19495.0	5.159452918065834e+17
19496.0	5.160819378967892e+17
19497.0	5.161458092474367e+17
19498.0	5.161232347343529e+17
19499.0	5.159046730481665e+17
19500.0	5.16408813429282e+17
19501.0	5.1640810431228576e+17
19502.0	5.1640184669033786e+17
19503.0	5.1639362159028896e+17
19504.0	5.1638123196579834e+17
19505.0	5.164986888355839e+17
19506.0	5.1651751329136634e+17
19507.0	5.164933645860862e+17
19508.0	5.1647019266430285e+17
19509.0	5.1644247970938874e+17
19510.0	5.1639487883291296e+17
19511.0	5.157628923609086e+17
19512.0	5.1626830885901645e+17
19513.0	5.1616415771962e+17
19514.0	5.16172390998562e+17
19515.0	5.162866273419265e+17
19516.0	5.163106882464425e+17
19517.0	5.162621764370432e+17
19518.0	5.162205824330409e+17
19519.0	5.161716309906772e+17
19520.0	5.161193542341973e+17
19521.0	5.160703670004394e+17
19522.0	5.160149584969728e+17
19523.0	5.1596336953644365e+17
19524.0	5.1590784568961683e+17
19525.0	5.1584968425471994e+17
19526.0	5.1579286716415994e+17
19527.0	5.1573337704366074e+17
19528.0	5.156726556852223e+17
19529.0	5.156116833675946e+17
19530.0	5.1554975516808525e+17
19531.0	5.154863184871423e+17
19532.0	5.1542191005586765e+17
19533.0	5.153565783184724e+17
19534.0	5.152900180694357e+17
19535.0	5.1522240351218336e+17
19536.0	5.151519464751103e+17
19537.0	5.150866069083477e+17
19538.0	5.1500454206504954e+17
19539.0	5.1490336161136634e+17
19540.0	5.1487373577420794e+17
19541.0	5.1485514668878496e+17
19542.0	5.148218506259113e+17
19543.0	5.147489773202089e+17
19544.0	5.1467538804681376e+17
19545.0	5.145566596737706e+17
19546.0	5.1445426119420576e+17
19547.0	5.1445144485887994e+17
19548.0	5.1437505225250125e+17
19549.0	5.1429182670547616e+17
19550.0	5.142222905977515e+17
19551.0	5.1414513924177914e+17
19552.0	5.140672410899798e+17
19553.0	5.1398672695077536e+17
19554.0	5.1390725355820365e+17
19555.0	5.1383003460403194e+17
19556.0	5.1375180006905165e+17
19557.0	5.136715443688789e+17
19558.0	5.135914103035221e+17
19559.0	5.135106155653803e+17
19560.0	5.1342783167856634e+17
19561.0	5.13346341315106e+17
19562.0	5.132670911294121e+17
19563.0	5.131851748343807e+17
19564.0	5.1310297227810125e+17
19565.0	5.130204689902251e+17
19566.0	5.1293516726272e+17
19567.0	5.1285441992021325e+17
19568.0	5.127693314031615e+17
19569.0	5.126868934066175e+17
19570.0	5.126038715629566e+17
19571.0	5.125192520389972e+17
19572.0	5.124332671292756e+17
19573.0	5.123488294982996e+17
19574.0	5.122593764584106e+17
19575.0	5.1218117030488736e+17
19576.0	5.1209618678524576e+17
19577.0	5.1200852149753165e+17
19578.0	5.119214914371583e+17
19579.0	5.1183730763147936e+17
19580.0	5.1175129517916154e+17
19581.0	5.1166637471389005e+17
19582.0	5.1158152366434976e+17
19583.0	5.1149515539524256e+17
19584.0	5.114075936369321e+17
19585.0	5.1131333315570336e+17
19586.0	5.112237418435924e+17
19587.0	5.111467800701609e+17
19588.0	5.1102109956833286e+17
19589.0	5.109719230316543e+17
19590.0	5.108779699929088e+17
19591.0	5.1079903654707194e+17
19592.0	5.1071127912448006e+17
19593.0	5.1062210116102816e+17
19594.0	5.1051796190549325e+17
19595.0	5.104433448878079e+17
19596.0	5.103447174370645e+17
19597.0	5.1026973222939296e+17
19598.0	5.1014855571101005e+17
19599.0	5.100948600913919e+17
19600.0	5.100071459400361e+17
19601.0	5.099130184881492e+17
19602.0	5.0982462961309005e+17
19603.0	5.0970586265245005e+17
19604.0	5.0964763984090445e+17
19605.0	5.095402418208768e+17
19606.0	5.094747706927787e+17
19607.0	5.0938620160245754e+17
19608.0	5.092955315153577e+17
19609.0	5.092038155785557e+17
19610.0	5.091189278987604e+17
19611.0	5.090291705621162e+17
19612.0	5.089404875964415e+17
19613.0	5.0885033578550605e+17
19614.0	5.0875860328120314e+17
19615.0	5.0867231980694176e+17
19616.0	5.085807880000851e+17
19617.0	5.084927601147903e+17
19618.0	5.083533681535657e+17
19619.0	5.082542574490963e+17
19620.0	5.081680360505342e+17
19621.0	5.081349233486506e+17
19622.0	5.080451967702357e+17
19623.0	5.079554196504575e+17
19624.0	5.078648177207977e+17
19625.0	5.077777266333013e+17
19626.0	5.076897956364288e+17
19627.0	5.075997934922411e+17
19628.0	5.0750507583187616e+17
19629.0	5.074126691631103e+17
19630.0	5.073095707940181e+17
19631.0	5.070256206774272e+17
19632.0	5.07149494203187e+17
19633.0	5.070565566054398e+17
19634.0	5.069692985846443e+17
19635.0	5.068762617217024e+17
19636.0	5.0678901866059085e+17
19637.0	5.0667050580486816e+17
19638.0	5.0660765073408e+17
19639.0	5.065168615986517e+17
19640.0	5.064138098562389e+17
19641.0	5.062595429356885e+17
19642.0	5.0624664649946445e+17
19643.0	5.0615594537451514e+17
19644.0	5.0606107105689594e+17
19645.0	5.0595300733091834e+17
19646.0	5.058860451976532e+17
19647.0	5.057956592047445e+17
19648.0	5.057052514014549e+17
19649.0	5.0561460550150816e+17
19650.0	5.055244035686398e+17
19651.0	5.054335058007381e+17
19652.0	5.053432592684373e+17
19653.0	5.052528860681557e+17
19654.0	5.0516257913787725e+17
19655.0	5.0507168528465914e+17
