# Flux units: erg / (cm m2 s)
# Wavelength units: Angstrom
wave	flux
19000.0	4.48779206594833e+17
19001.0	4.486840481830228e+17
19002.0	4.4862284888364365e+17
19003.0	4.485431824831828e+17
19004.0	4.484605266624511e+17
19005.0	4.483803761694036e+17
19006.0	4.482860266990249e+17
19007.0	4.4822897011370656e+17
19008.0	4.481401472679936e+17
19009.0	4.480614907860309e+17
19010.0	4.4789952144561466e+17
19011.0	4.4790788565674656e+17
19012.0	4.4780233466839034e+17
19013.0	4.477583085273087e+17
19014.0	4.476712820320938e+17
19015.0	4.475880641746259e+17
19016.0	4.4750885593197216e+17
19017.0	4.474435887169534e+17
19018.0	4.473629502166355e+17
19019.0	4.472831954561706e+17
19020.0	4.472064506680661e+17
19021.0	4.471295922143232e+17
19022.0	4.470518277210112e+17
19023.0	4.469632855441408e+17
19024.0	4.4687996590489594e+17
19025.0	4.468156636594175e+17
19026.0	4.467324913800532e+17
19027.0	4.4664746773490336e+17
19028.0	4.465802270299476e+17
19029.0	4.464992997517994e+17
19030.0	4.4642341486591994e+17
19031.0	4.463457935381844e+17
19032.0	4.462689041864021e+17
19033.0	4.4617648521434445e+17
19034.0	4.4611132942800205e+17
19035.0	4.4603270824809805e+17
19036.0	4.450247165433165e+17
19037.0	4.4587651670125216e+17
19038.0	4.4579662702400845e+17
19039.0	4.4572020289044474e+17
19040.0	4.456421079558826e+17
19041.0	4.455635178138282e+17
19042.0	4.4502240855763565e+17
19043.0	4.454112762527743e+17
19044.0	4.4533247304007674e+17
19045.0	4.452524486557695e+17
19046.0	4.451658880778238e+17
19047.0	4.45098108125184e+17
19048.0	4.449223183433727e+17
19049.0	4.439933264243359e+17
19050.0	4.4485417558343674e+17
19051.0	4.446175431578962e+17
19052.0	4.447000836352683e+17
19053.0	4.4463212933939194e+17
19054.0	4.4455327824172365e+17
19055.0	4.443008536324778e+17
19056.0	4.4435196828712934e+17
19057.0	4.443204811576661e+17
19058.0	4.4375970362163117e+17
19059.0	4.439726134831785e+17
19060.0	4.440843665888596e+17
19061.0	4.4400823976154445e+17
19062.0	4.439294402538155e+17
19063.0	4.438545538220031e+17
19064.0	4.437576549837482e+17
19065.0	4.436758739550207e+17
19066.0	4.434343390172503e+17
19067.0	4.435387648835583e+17
19068.0	4.434671580479487e+17
19069.0	4.433892704518143e+17
19070.0	4.433046222667775e+17
19071.0	4.4323161746964474e+17
19072.0	4.429693499473916e+17
19073.0	4.430785415916202e+17
19074.0	4.429993810242217e+17
19075.0	4.4292444495981216e+17
19076.0	4.428340041613311e+17
19077.0	4.427663403210068e+17
19078.0	4.426819206556329e+17
19079.0	4.4261272554482336e+17
19080.0	4.425352441670314e+17
19081.0	4.4245095270754976e+17
19082.0	4.423751006770517e+17
19083.0	4.422945605331625e+17
19084.0	4.422004016939007e+17
19085.0	4.4214657297503565e+17
19086.0	4.417924017509716e+17
19087.0	4.415798501528912e+17
19088.0	4.4167958615818195e+17
19089.0	4.418053723564714e+17
19090.0	4.41760875684386e+17
19091.0	4.416542318701228e+17
19092.0	4.4123394030960736e+17
19093.0	4.4153225885341e+17
19094.0	4.414552191358293e+17
19095.0	4.4137681759764474e+17
19096.0	4.4129823989869216e+17
19097.0	4.412233964584959e+17
19098.0	4.4095474506574483e+17
19099.0	4.4083740738409837e+17
19100.0	4.4098571489771514e+17
19101.0	4.40912114089984e+17
19102.0	4.408131096412159e+17
19103.0	4.407587795632127e+17
19104.0	4.4068508690022394e+17
19105.0	4.401885888905229e+17
19106.0	4.405226561164628e+17
19107.0	4.4035078612145466e+17
19108.0	4.4021966609667424e+17
19109.0	4.402519861450068e+17
19110.0	4.402218616750079e+17
19111.0	4.4002789070383763e+17
19112.0	4.39918070682965e+17
19113.0	4.3998980935953056e+17
19114.0	4.3983611300413414e+17
19115.0	4.3980644340640416e+17
19116.0	4.397511856881664e+17
19117.0	4.3967770602591565e+17
19118.0	4.395657395000662e+17
19119.0	4.37068273339593e+17
19120.0	4.3942931046509216e+17
19121.0	4.39367759962658e+17
19122.0	4.393005407884628e+17
19123.0	4.392248082257236e+17
19124.0	4.391442108295849e+17
19125.0	4.3907115814748154e+17
19126.0	4.389949855323476e+17
19127.0	4.3860900093187366e+17
19128.0	4.3883922620852896e+17
19129.0	4.3875407379824614e+17
19130.0	4.386873998835711e+17
19131.0	4.386117779805525e+17
19132.0	4.385337623882411e+17
19133.0	4.3845256905140896e+17
19134.0	4.38381530124561e+17
19135.0	4.383050117589673e+17
19136.0	4.382274648102228e+17
19137.0	4.3812336805696845e+17
19138.0	4.3807446205289805e+17
19139.0	4.380008542546602e+17
19140.0	4.379245115604992e+17
19141.0	4.378476171056467e+17
19142.0	4.37765984485376e+17
19143.0	4.3768303569250976e+17
19144.0	4.3761316977268045e+17
19145.0	4.375410509523626e+17
19146.0	4.373726764204032e+17
19147.0	4.3736023940027725e+17
19148.0	4.371553993097218e+17
19149.0	4.3704978219117216e+17
19150.0	4.3716000961877325e+17
19151.0	4.370836398713513e+17
19152.0	4.370077184251221e+17
19153.0	4.3659673814958016e+17
19154.0	4.3680748340073805e+17
19155.0	4.367800909605546e+17
19156.0	4.3670351107850234e+17
19157.0	4.3652212651458586e+17
19158.0	4.362864071191213e+17
19159.0	4.364637895480661e+17
19160.0	4.363970384581972e+17
19161.0	4.363224742887423e+17
19162.0	4.361738401786538e+17
19163.0	4.361709953220607e+17
19164.0	4.360936011857919e+17
19165.0	4.356555166187513e+17
19166.0	4.3591516151261843e+17
19167.0	4.358522993814185e+17
19168.0	4.357907324512938e+17
19169.0	4.357118572363775e+17
19170.0	4.356391721850197e+17
19171.0	4.3555538103610016e+17
19172.0	4.3548664925607245e+17
19173.0	4.3541159463266976e+17
19174.0	4.3532527935160314e+17
19175.0	4.35258618089745e+17
19176.0	4.3518392893003085e+17
19177.0	4.350845422403582e+17
19178.0	4.350207591099051e+17
19179.0	4.349348878658217e+17
19180.0	4.3487890019887776e+17
19181.0	4.3477071854305274e+17
19182.0	4.347220137257642e+17
19183.0	4.346526167291221e+17
19184.0	4.345741738770432e+17
19185.0	4.344991341434197e+17
19186.0	4.344260015598249e+17
19187.0	4.3434227297594016e+17
19188.0	4.342727550435327e+17
19189.0	4.341997560485206e+17
19190.0	4.341246348055893e+17
19191.0	4.340409402654719e+17
19192.0	4.339726490970794e+17
19193.0	4.3385758004456115e+17
19194.0	4.337559138904747e+17
19195.0	4.3374566049491635e+17
19196.0	4.336673531188564e+17
19197.0	4.3359251051752096e+17
19198.0	4.335183792701438e+17
19199.0	4.328863648361129e+17
19200.0	4.3302126728424115e+17
19201.0	4.332903763454634e+17
19202.0	4.3321859719386445e+17
19203.0	4.3314095489460896e+17
19204.0	4.330637773242366e+17
19205.0	4.329909788868607e+17
19206.0	4.329143003687593e+17
19207.0	4.3282508654400845e+17
19208.0	4.3271611761732243e+17
19209.0	4.3268898990762656e+17
19210.0	4.3261168448088736e+17
19211.0	4.325394264795818e+17
19212.0	4.324646880367955e+17
19213.0	4.3237339949957094e+17
19214.0	4.3229347857476275e+17
19215.0	4.3223790949935776e+17
19216.0	4.321647964891817e+17
19217.0	4.320894473557332e+17
19218.0	4.318818453159932e+17
19219.0	4.319195200924329e+17
19220.0	4.3186048673163936e+17
19221.0	4.31735713108241e+17
19222.0	4.317118479379114e+17
19223.0	4.3163480710184954e+17
19224.0	4.3155663317456205e+17
19225.0	4.314636065876649e+17
19226.0	4.3141103539104416e+17
19227.0	4.3133598670957216e+17
19228.0	4.3126406152628896e+17
19229.0	4.311859336664404e+17
19230.0	4.3111194076119034e+17
19231.0	4.3103791451122336e+17
19232.0	4.309638507921406e+17
19233.0	4.308791515764053e+17
19234.0	4.308088260307627e+17
19235.0	4.307343437900459e+17
19236.0	4.3066432554707616e+17
19237.0	4.3058523984800416e+17
19238.0	4.30497266209041e+17
19239.0	4.3044022800875514e+17
19240.0	4.3036361897629e+17
19241.0	4.302880602674517e+17
19242.0	4.3021110911959034e+17
19243.0	4.301199122279082e+17
19244.0	4.3006495202563405e+17
19245.0	4.299883277538645e+17
19246.0	4.299136490100053e+17
19247.0	4.2984122673179296e+17
19248.0	4.2976721187635194e+17
19249.0	4.296843524920661e+17
19250.0	4.295518184975018e+17
19251.0	4.29467938988578e+17
19252.0	4.294295022469119e+17
19253.0	4.2938897855938554e+17
19254.0	4.293200532122282e+17
19255.0	4.292173280662867e+17
19256.0	4.2916595084820474e+17
19257.0	4.290956467634175e+17
19258.0	4.290207492866046e+17
19259.0	4.2893734163688096e+17
19260.0	4.2883755110563834e+17
19261.0	4.287964258850134e+17
19262.0	4.287123071609514e+17
19263.0	4.2863599690274125e+17
19264.0	4.2847787024383974e+17
19265.0	4.284611683155967e+17
19266.0	4.283487581721941e+17
19267.0	4.283514950953642e+17
19268.0	4.2827488263755085e+17
19269.0	4.282022396690431e+17
19270.0	4.2812804082346656e+17
19271.0	4.2799156446276275e+17
19272.0	4.2797399655055354e+17
19273.0	4.278720665048404e+17
19274.0	4.277723737707859e+17
19275.0	4.277576110789972e+17
19276.0	4.2768009887307085e+17
19277.0	4.276076369586857e+17
19278.0	4.2752805192772256e+17
19279.0	4.2745675693861536e+17
19280.0	4.27371178946287e+17
19281.0	4.273099989407062e+17
19282.0	4.272382469821781e+17
19283.0	4.271578882419369e+17
19284.0	4.270858862329855e+17
19285.0	4.2698816097703245e+17
19286.0	4.269353573460649e+17
19287.0	4.2686591421207885e+17
19288.0	4.265896321220607e+17
19289.0	4.260457882495643e+17
19290.0	4.266458335586987e+17
19291.0	4.2653594195503795e+17
19292.0	4.264972074177876e+17
19293.0	4.264218133353812e+17
19294.0	4.26347020296738e+17
19295.0	4.2627496474050554e+17
19296.0	4.260020452939098e+17
19297.0	4.260927980087979e+17
19298.0	4.260491938146987e+17
19299.0	4.257561656863405e+17
19300.0	4.259008112929451e+17
19301.0	4.2583009357987834e+17
19302.0	4.2575699245356365e+17
19303.0	4.256707316984489e+17
19304.0	4.256051933216768e+17
19305.0	4.255330198355967e+17
19306.0	4.2546141698457594e+17
19307.0	4.253779706074453e+17
19308.0	4.253093372537514e+17
19309.0	4.252177184849919e+17
19310.0	4.251405675484502e+17
19311.0	4.2508428509183994e+17
19312.0	4.2501196697217696e+17
19313.0	4.249279380062207e+17
19314.0	4.210413032614527e+17
19315.0	4.211852411491735e+17
19316.0	4.24452287015595e+17
19317.0	4.246427901362175e+17
19318.0	4.245744319288661e+17
19319.0	4.245026449478997e+17
19320.0	4.2435346117427174e+17
19321.0	4.241808379521707e+17
19322.0	4.242747980513278e+17
19323.0	4.242036367207082e+17
19324.0	4.24137230262818e+17
19325.0	4.2404460430185805e+17
19326.0	4.23991173133107e+17
19327.0	4.2391440192088736e+17
19328.0	4.2346426676893056e+17
19329.0	4.237712476689749e+17
19330.0	4.236919862285653e+17
19331.0	4.2361842743377914e+17
19332.0	4.2355173408549536e+17
19333.0	4.2347641179559245e+17
19334.0	4.23394758553327e+17
19335.0	4.2255792444102074e+17
19336.0	4.2325167029179725e+17
19337.0	4.231842634924032e+17
19338.0	4.230792041463806e+17
19339.0	4.230358407053311e+17
19340.0	4.228941701884585e+17
19341.0	4.2260544373828314e+17
19342.0	4.226784871230124e+17
19343.0	4.22745342021905e+17
19344.0	4.2238986790720896e+17
19345.0	4.2207021755269037e+17
19346.0	4.2241379347551584e+17
19347.0	4.2209351956780365e+17
19348.0	4.223802694522197e+17
19349.0	4.2230227874611194e+17
19350.0	4.221031825451691e+17
19351.0	4.221511258166613e+17
19352.0	4.217012403656015e+17
19353.0	4.220136883311957e+17
19354.0	4.2194185185744205e+17
19355.0	4.2185460117667846e+17
19356.0	4.217946607277396e+17
19357.0	4.2172266291309216e+17
19358.0	4.2164932494841165e+17
19359.0	4.2149057746261306e+17
19360.0	4.212024369567059e+17
19361.0	4.2142359498697376e+17
19362.0	4.2135812462783136e+17
19363.0	4.2128533457906336e+17
19364.0	4.2121300527458976e+17
19365.0	4.2113857504324256e+17
19366.0	4.2106434970364576e+17
19367.0	4.209932131194197e+17
19368.0	4.209213883897174e+17
19369.0	4.208416158733653e+17
19370.0	4.2077264753459194e+17
19371.0	4.2069438182195194e+17
19372.0	4.2062898402426874e+17
19373.0	4.2055352444081485e+17
19374.0	4.2048250991083514e+17
19375.0	4.204116356803242e+17
19376.0	4.203398127681534e+17
19377.0	4.2026562895216634e+17
19378.0	4.2019399883816954e+17
19379.0	4.201215778182485e+17
19380.0	4.200455790570153e+17
19381.0	4.1997192176599034e+17
19382.0	4.198926891963733e+17
19383.0	4.1981398888393376e+17
19384.0	4.1975191856742394e+17
19385.0	4.196846584288597e+17
19386.0	4.1961319657635834e+17
19387.0	4.1954036129901216e+17
19388.0	4.1946324517519354e+17
19389.0	4.1938048198027936e+17
19390.0	4.1930757728720205e+17
19391.0	4.183583975538673e+17
19392.0	4.191592091658921e+17
19393.0	4.1908809334347085e+17
19394.0	4.190143423796565e+17
19395.0	4.1882864397407597e+17
19396.0	4.1884259129316685e+17
19397.0	4.1879608680775674e+17
19398.0	4.18628005457647e+17
19399.0	4.183754627787431e+17
19400.0	4.184926902201002e+17
19401.0	4.1850291796049914e+17
19402.0	4.1843164429243725e+17
19403.0	4.183559100519764e+17
19404.0	4.1828334153236474e+17
19405.0	4.182065948568234e+17
19406.0	4.181365100642304e+17
19407.0	4.1792760212794003e+17
19408.0	4.178426337776986e+17
19409.0	4.179146046089898e+17
19410.0	4.1784366019379194e+17
19411.0	4.1776937061143885e+17
19412.0	4.17693556609297e+17
19413.0	4.1747944675737594e+17
19414.0	4.175400954844502e+17
19415.0	4.174702598335146e+17
19416.0	4.1736988468619936e+17
19417.0	4.173115387718314e+17
19418.0	4.1724745560883194e+17
19419.0	4.1717149522548045e+17
19420.0	4.170970148022953e+17
19421.0	4.170203731940693e+17
19422.0	4.169373809202517e+17
19423.0	4.168664898426197e+17
19424.0	4.167900325740542e+17
19425.0	4.167104113322666e+17
19426.0	4.166329560290645e+17
19427.0	4.165533006736043e+17
19428.0	4.164722039455743e+17
19429.0	4.163917470586196e+17
19430.0	4.163011871419051e+17
19431.0	4.160265875270318e+17
19432.0	4.161354192300715e+17
19433.0	4.160441262189227e+17
19434.0	4.1595068145991674e+17
19435.0	4.158360049243476e+17
19436.0	4.1564330496709946e+17
19437.0	4.156235718153557e+17
19438.0	4.136781122721112e+17
19439.0	4.152673117579947e+17
19440.0	4.1523618806497274e+17
19441.0	4.15075760480802e+17
19442.0	4.1487663911403514e+17
19443.0	4.146213070831615e+17
19444.0	4.142860024676351e+17
19445.0	4.138114694687402e+17
19446.0	4.1308241974176416e+17
19447.0	4.118409451842217e+17
19448.0	4.093824446671532e+17
19449.0	4.0321266745344e+17
19450.0	3.85397924228846e+17
19451.0	3.7172450297555616e+17
19452.0	3.9119905847159494e+17
19453.0	4.051888690080431e+17
19454.0	4.097683469194579e+17
19455.0	4.116439657786027e+17
19456.0	4.1255733391523834e+17
19457.0	4.1302233612724896e+17
19458.0	3.997222802817268e+17
19459.0	4.1306191763428915e+17
19460.0	4.136027641173333e+17
19461.0	4.1367317061304314e+17
19462.0	4.1369432318716576e+17
19463.0	4.1369680838219085e+17
19464.0	4.13676680057105e+17
19465.0	4.136528842326015e+17
19466.0	4.1361248805191674e+17
19467.0	4.135759252553728e+17
19468.0	4.1352876072632314e+17
19469.0	4.1315598664553766e+17
19470.0	4.134231352890709e+17
19471.0	4.133684012995925e+17
19472.0	4.133000397367979e+17
19473.0	4.1323792335284896e+17
19474.0	4.129045934156453e+17
19475.0	4.129474095699282e+17
19476.0	4.1304983489303885e+17
19477.0	4.129883013076309e+17
19478.0	4.129308885559978e+17
19479.0	4.1259533270166125e+17
19480.0	4.12794357879057e+17
19481.0	4.127114476737877e+17
19482.0	4.1265890143327565e+17
19483.0	4.125975473640789e+17
19484.0	4.125259202559999e+17
19485.0	4.124497229643775e+17
19486.0	4.1209968187146323e+17
19487.0	4.123210318610432e+17
19488.0	4.1225652339561805e+17
19489.0	4.1218344554769056e+17
19490.0	4.118263066438309e+17
19491.0	4.12042459681041e+17
19492.0	4.11979237888273e+17
19493.0	4.119098067080533e+17
19494.0	4.118386958488916e+17
19495.0	4.117691272353108e+17
19496.0	4.1160878493532134e+17
19497.0	4.11626259943697e+17
19498.0	4.115379074192726e+17
19499.0	4.100260952189593e+17
19500.0	4.114206392232619e+17
19501.0	4.1136542897056416e+17
19502.0	4.113011210627753e+17
19503.0	4.112316563980288e+17
19504.0	4.111601646261589e+17
19505.0	4.1108418487910394e+17
19506.0	4.110201292587008e+17
19507.0	4.109433586057215e+17
19508.0	4.108766501579434e+17
19509.0	4.10802164072448e+17
19510.0	4.106427684967763e+17
19511.0	4.04741989614654e+17
19512.0	4.103891117408247e+17
19513.0	4.100436830541133e+17
19514.0	4.101614799421436e+17
19515.0	4.102900567506948e+17
19516.0	4.102786643918848e+17
19517.0	4.102219959894014e+17
19518.0	4.1009724697258656e+17
19519.0	4.100240323204435e+17
19520.0	4.0977052159617664e+17
19521.0	4.0996213264220154e+17
19522.0	4.098518695630163e+17
19523.0	4.0975974160575155e+17
19524.0	4.095521998241796e+17
19525.0	4.096742567269717e+17
19526.0	4.0960914323319456e+17
19527.0	4.095361598270123e+17
19528.0	4.0944970683296416e+17
19529.0	4.093695685733034e+17
19530.0	4.0932866704889165e+17
19531.0	4.0925769823682554e+17
19532.0	4.0918688090903885e+17
19533.0	4.0911534761355936e+17
19534.0	4.090469214584832e+17
19535.0	4.0897488939035296e+17
19536.0	4.088999471742974e+17
19537.0	4.088341093242197e+17
19538.0	4.085147597012995e+17
19539.0	4.085834047990447e+17
19540.0	4.08621646225954e+17
19541.0	4.085038239623851e+17
19542.0	4.084625689979562e+17
19543.0	4.0815501221997235e+17
19544.0	4.0832958858963616e+17
19545.0	4.082081483194362e+17
19546.0	4.080221086373206e+17
19547.0	4.0813565005441696e+17
19548.0	4.0806520028747085e+17
19549.0	4.079804879994879e+17
19550.0	4.079219077633365e+17
19551.0	4.0785511389156685e+17
19552.0	4.077826113623381e+17
19553.0	4.07711291207407e+17
19554.0	4.0763370783812256e+17
19555.0	4.075443793690624e+17
19556.0	4.074838837340841e+17
19557.0	4.074312474558464e+17
19558.0	4.0736352804099405e+17
19559.0	4.0729430063404365e+17
19560.0	4.071317103968254e+17
19561.0	4.071505965787817e+17
19562.0	4.069953616827731e+17
19563.0	4.0701559808109216e+17
19564.0	4.0694196008386554e+17
19565.0	4.068744573048148e+17
19566.0	4.0679858192602445e+17
19567.0	4.0673595719243085e+17
19568.0	4.0666343411111245e+17
19569.0	4.065927915459926e+17
19570.0	4.0652474693277e+17
19571.0	4.06455068987665e+17
19572.0	4.0638218575544314e+17
19573.0	4.06286718083618e+17
19574.0	4.062248432915795e+17
19575.0	4.0617798159127885e+17
19576.0	4.060943182288213e+17
19577.0	4.059964598736213e+17
19578.0	4.0596140269240314e+17
19579.0	4.0589515373062816e+17
19580.0	4.0582590849788576e+17
19581.0	4.0575464881083725e+17
19582.0	4.0569046973808634e+17
19583.0	4.056218451225259e+17
19584.0	4.055502149386238e+17
19585.0	4.054655356458323e+17
19586.0	4.053926304634197e+17
19587.0	4.053397597934932e+17
19588.0	4.051895196144982e+17
19589.0	4.052012230508543e+17
19590.0	4.051068649122474e+17
19591.0	4.0506350070224205e+17
19592.0	4.0499342912170656e+17
19593.0	4.049017493258238e+17
19594.0	4.0479758224807226e+17
19595.0	4.047834713511253e+17
19596.0	4.047130663933268e+17
19597.0	4.0464681589364045e+17
19598.0	4.044512756935337e+17
19599.0	4.045088181889706e+17
19600.0	4.0443939448859296e+17
19601.0	4.043604221056342e+17
19602.0	4.042953928474623e+17
19603.0	4.041513252858537e+17
19604.0	4.041588201575765e+17
19605.0	4.0404647544531616e+17
19606.0	4.0402199070638074e+17
19607.0	4.0395564373770234e+17
19608.0	4.038814278352895e+17
19609.0	4.038081732673536e+17
19610.0	4.03622476958925e+17
19611.0	4.0349005481246726e+17
19612.0	4.0360991187271674e+17
19613.0	4.0353738256984736e+17
19614.0	4.034659235834538e+17
19615.0	4.034025105304234e+17
19616.0	4.0320223531062624e+17
19617.0	4.0307266403259744e+17
19618.0	4.030896775976276e+17
19619.0	4.029576032288764e+17
19620.0	4.028675930456059e+17
19621.0	4.027180946292735e+17
19622.0	4.029187123139925e+17
19623.0	4.028392234024959e+17
19624.0	4.027478618843818e+17
19625.0	4.0271173298858675e+17
19626.0	4.0264093502450336e+17
19627.0	4.0257441566993056e+17
19628.0	4.024916920412843e+17
19629.0	4.017794487506258e+17
19630.0	4.023634639192064e+17
19631.0	4.0179626406488704e+17
19632.0	4.022267437296298e+17
19633.0	4.0215159899859616e+17
19634.0	4.020899886574249e+17
19635.0	4.019898750249639e+17
19636.0	4.016434324351655e+17
19637.0	4.0154710409215974e+17
19638.0	4.0179306017587174e+17
19639.0	4.017444062494719e+17
19640.0	4.0166948766132915e+17
19641.0	4.012692826925751e+17
19642.0	4.015227233020586e+17
19643.0	4.0145250771708576e+17
19644.0	4.0139401842742605e+17
19645.0	4.012852323024894e+17
19646.0	4.009400736590501e+17
19647.0	4.0119075602431994e+17
19648.0	4.011295979689301e+17
19649.0	4.010583024904874e+17
19650.0	4.009920278036479e+17
19651.0	4.0092340892030285e+17
19652.0	4.0085446029475834e+17
19653.0	4.007851702528682e+17
19654.0	4.007177120732499e+17
19655.0	4.006457692738901e+17
19656.0	4.005806090835285e+17
