# Flux units: erg / (cm m2 s)
# Wavelength units: Angstrom
wave	flux
19000.0	6.335459823889066e+17
19001.0	6.33387469644322e+17
19002.0	6.333108108394495e+17
19003.0	6.331902942948009e+17
19004.0	6.330715947925501e+17
19005.0	6.329516323853652e+17
19006.0	6.328340659743401e+17
19007.0	6.327072927864148e+17
19008.0	6.325706401251327e+17
19009.0	6.324692133259946e+17
19010.0	6.321404704893605e+17
19011.0	6.322305389035519e+17
19012.0	6.320752248051028e+17
19013.0	6.320021521301501e+17
19014.0	6.318605629128701e+17
19015.0	6.317506845212672e+17
19016.0	6.316271272460288e+17
19017.0	6.315140159548074e+17
19018.0	6.31405180756514e+17
19019.0	6.312884138497364e+17
19020.0	6.311583873499135e+17
19021.0	6.310494227573418e+17
19022.0	6.309363253772288e+17
19023.0	6.308025372857683e+17
19024.0	6.306906556246697e+17
19025.0	6.305818929878355e+17
19026.0	6.304518612451327e+17
19027.0	6.303322953394857e+17
19028.0	6.302267795133778e+17
19029.0	6.301016427331583e+17
19030.0	6.299945202789033e+17
19031.0	6.298784870258003e+17
19032.0	6.297586454145706e+17
19033.0	6.296018765217791e+17
19034.0	6.295165018832895e+17
19035.0	6.293905630822399e+17
19036.0	6.279388440035314e+17
19037.0	6.291640138334208e+17
19038.0	6.290410973080234e+17
19039.0	6.28930443878946e+17
19040.0	6.288142465586516e+17
19041.0	6.28694259474978e+17
19042.0	6.285406995043667e+17
19043.0	6.284597453127679e+17
19044.0	6.283383052522835e+17
19045.0	6.282246403828393e+17
19046.0	6.280795721302015e+17
19047.0	6.279886444429311e+17
19048.0	6.277764715905021e+17
19049.0	6.277233008181245e+17
19050.0	6.276140749903188e+17
19051.0	6.272773666810533e+17
19052.0	6.273855397385556e+17
19053.0	6.272780025375401e+17
19054.0	6.271604252213247e+17
19055.0	6.269387147313156e+17
19056.0	6.269157987319807e+17
19057.0	6.268070704185344e+17
19058.0	6.266836893040639e+17
19059.0	6.265728901229225e+17
19060.0	6.264464841463124e+17
19061.0	6.263397848973311e+17
19062.0	6.262184306802687e+17
19063.0	6.261038706065405e+17
19064.0	6.259308160002729e+17
19065.0	6.257936876350121e+17
19066.0	6.257256247765673e+17
19067.0	6.256280251400192e+17
19068.0	6.255151933991593e+17
19069.0	6.253982896182612e+17
19070.0	6.252686091485183e+17
19071.0	6.25161255588113e+17
19072.0	6.250462230959444e+17
19073.0	6.249253229821952e+17
19074.0	6.248118365803862e+17
19075.0	6.246946094885545e+17
19076.0	6.245675574493183e+17
19077.0	6.244553647106729e+17
19078.0	6.243219922048339e+17
19079.0	6.242243033694207e+17
19080.0	6.241018963820543e+17
19081.0	6.239692670369791e+17
19082.0	6.238494683474602e+17
19083.0	6.237129201243476e+17
19084.0	6.23540879491072e+17
19085.0	6.235152812343295e+17
19086.0	6.232451407937533e+17
19087.0	6.232456587902975e+17
19088.0	6.231396856452435e+17
19089.0	6.229552118366209e+17
19090.0	6.229208257440425e+17
19091.0	6.228084694275412e+17
19092.0	6.226657315302058e+17
19093.0	6.225817241649151e+17
19094.0	6.22464631640337e+17
19095.0	6.223490593412436e+17
19096.0	6.222244413964287e+17
19097.0	6.221153903312895e+17
19098.0	6.219966538492585e+17
19099.0	6.218788728296787e+17
19100.0	6.217604438600362e+17
19101.0	6.216473427050495e+17
19102.0	6.214875922912595e+17
19103.0	6.214112296042495e+17
19104.0	6.212974534459391e+17
19105.0	6.211779055058943e+17
19106.0	6.210557144552787e+17
19107.0	6.209381741887487e+17
19108.0	6.208299459062442e+17
19109.0	6.205946361544701e+17
19110.0	6.205957313571497e+17
19111.0	6.20478760886818e+17
19112.0	6.203629511901183e+17
19113.0	6.202449627622057e+17
19114.0	6.201275768460627e+17
19115.0	6.199906876260351e+17
19116.0	6.198867315916799e+17
19117.0	6.197723770388479e+17
19118.0	6.196255169795411e+17
19119.0	6.179331348190523e+17
19120.0	6.194111345677652e+17
19121.0	6.193057623965695e+17
19122.0	6.1919704645632e+17
19123.0	6.190780855091199e+17
19124.0	6.189559249371135e+17
19125.0	6.188454301925375e+17
19126.0	6.187279481569279e+17
19127.0	6.178939860243786e+17
19128.0	6.184258717963603e+17
19129.0	6.183436537910611e+17
19130.0	6.182592314692948e+17
19131.0	6.181456910308692e+17
19132.0	6.180309120144724e+17
19133.0	6.177982814442838e+17
19134.0	6.177632097927168e+17
19135.0	6.176811598391978e+17
19136.0	6.175677552263165e+17
19137.0	6.173824716374015e+17
19138.0	6.173256803418112e+17
19139.0	6.172186786835114e+17
19140.0	6.171024733241343e+17
19141.0	6.16986257269282e+17
19142.0	6.168588545862314e+17
19143.0	6.167269525334698e+17
19144.0	6.166237405686441e+17
19145.0	6.165204355601747e+17
19146.0	6.161568412030295e+17
19147.0	6.162507472655699e+17
19148.0	6.161718183635625e+17
19149.0	6.160546241970176e+17
19150.0	6.159366152869204e+17
19151.0	6.158233367128746e+17
19152.0	6.157060382479699e+17
19153.0	6.155839899435007e+17
19154.0	6.15424483009058e+17
19155.0	6.153621229360468e+17
19156.0	6.152449431000404e+17
19157.0	6.15127366972211e+17
19158.0	6.149307091998034e+17
19159.0	6.148898192796329e+17
19160.0	6.147744200654847e+17
19161.0	6.146591833806163e+17
19162.0	6.143636211935916e+17
19163.0	6.144336837563732e+17
19164.0	6.143198878149289e+17
19165.0	6.141968451108863e+17
19166.0	6.140379311811241e+17
19167.0	6.139550859875667e+17
19168.0	6.138289954226175e+17
19169.0	6.137225912429225e+17
19170.0	6.136255086941524e+17
19171.0	6.13497087983616e+17
19172.0	6.133919124553727e+17
19173.0	6.132787818703532e+17
19174.0	6.131380026430806e+17
19175.0	6.130468233674751e+17
19176.0	6.129300561111722e+17
19177.0	6.127534493488467e+17
19178.0	6.126984862804649e+17
19179.0	6.125683828151638e+17
19180.0	6.124578969485312e+17
19181.0	6.123026246533119e+17
19182.0	6.122262840563028e+17
19183.0	6.12122902991121e+17
19184.0	6.11983249584947e+17
19185.0	6.118859091563859e+17
19186.0	6.117765207993002e+17
19187.0	6.116296720646144e+17
19188.0	6.115442467449513e+17
19189.0	6.114283523233108e+17
19190.0	6.113128607645695e+17
19191.0	6.111857061746003e+17
19192.0	6.110855371074217e+17
19193.0	6.109644249017001e+17
19194.0	6.108450854185641e+17
19195.0	6.107372572027561e+17
19196.0	6.106155305314986e+17
19197.0	6.105043927302144e+17
19198.0	6.103913781876052e+17
19199.0	6.09174801298227e+17
19200.0	6.094765427436206e+17
19201.0	6.100466441475412e+17
19202.0	6.099326911294122e+17
19203.0	6.098154712378026e+17
19204.0	6.096902968486569e+17
19205.0	6.095820668185258e+17
19206.0	6.094640696524799e+17
19207.0	6.093200434746707e+17
19208.0	6.091430083340966e+17
19209.0	6.091186141921279e+17
19210.0	6.090058074772819e+17
19211.0	6.088965078996307e+17
19212.0	6.087800073311571e+17
19213.0	6.086205740766547e+17
19214.0	6.085010186567681e+17
19215.0	6.084330442282324e+17
19216.0	6.083175594502826e+17
19217.0	6.082029964405418e+17
19218.0	6.077494982956367e+17
19219.0	6.079111720075263e+17
19220.0	6.078504269512704e+17
19221.0	6.076052078067711e+17
19222.0	6.076297606332415e+17
19223.0	6.075047853337258e+17
19224.0	6.073755491106815e+17
19225.0	6.072203486778707e+17
19226.0	6.071583935649108e+17
19227.0	6.070438091642195e+17
19228.0	6.069396172002644e+17
19229.0	6.068246316843007e+17
19230.0	6.067029208814932e+17
19231.0	6.065868574993065e+17
19232.0	6.064722870097235e+17
19233.0	6.063331465669289e+17
19234.0	6.06235290448691e+17
19235.0	6.061166437946708e+17
19236.0	6.0601732183709e+17
19237.0	6.058943448438099e+17
19238.0	6.057490154957482e+17
19239.0	6.056732954460159e+17
19240.0	6.055044285027668e+17
19241.0	6.054206017022634e+17
19242.0	6.053190909471401e+17
19243.0	6.051401403378344e+17
19244.0	6.050969447388499e+17
19245.0	6.049800622090921e+17
19246.0	6.048601180471295e+17
19247.0	6.047470932284756e+17
19248.0	6.046371622682623e+17
19249.0	6.045215627061929e+17
19250.0	6.043983964798975e+17
19251.0	6.042566605318822e+17
19252.0	6.04040712875759e+17
19253.0	6.040513070585171e+17
19254.0	6.039384143604393e+17
19255.0	6.037444346511356e+17
19256.0	6.037088759010644e+17
19257.0	6.035998678974463e+17
19258.0	6.034855404677802e+17
19259.0	6.033367471838547e+17
19260.0	6.032267524003156e+17
19261.0	6.031347123836244e+17
19262.0	6.029992742529706e+17
19263.0	6.028878398444884e+17
19264.0	6.025723793899515e+17
19265.0	6.025943722229756e+17
19266.0	6.024859220617898e+17
19267.0	6.0244979889821e+17
19268.0	6.023311281269418e+17
19269.0	6.022157447113386e+17
19270.0	6.021013891099306e+17
19271.0	6.018448696715951e+17
19272.0	6.018556837057876e+17
19273.0	6.003118294695916e+17
19274.0	6.008934095650804e+17
19275.0	6.015246710516393e+17
19276.0	6.014005530678612e+17
19277.0	6.012857790147242e+17
19278.0	6.011716586438655e+17
19279.0	6.01043530346223e+17
19280.0	6.009014200565759e+17
19281.0	6.008220123048617e+17
19282.0	6.007115956442452e+17
19283.0	6.005796869505023e+17
19284.0	6.004494158528511e+17
19285.0	6.002768818995199e+17
19286.0	6.002331625717759e+17
19287.0	6.001317264053588e+17
19288.0	5.997229144451753e+17
19289.0	5.989384055335572e+17
19290.0	5.9978224776861e+17
19291.0	5.995576210489348e+17
19292.0	5.99548774842368e+17
19293.0	5.994291981713407e+17
19294.0	5.993107703201791e+17
19295.0	5.991986374901759e+17
19296.0	5.990787001789098e+17
19297.0	5.989521094432084e+17
19298.0	5.988337120706559e+17
19299.0	5.987287544365055e+17
19300.0	5.986110459084799e+17
19301.0	5.984909311781546e+17
19302.0	5.983726138469033e+17
19303.0	5.982203343973033e+17
19304.0	5.98120202309905e+17
19305.0	5.980141419932329e+17
19306.0	5.97899265249553e+17
19307.0	5.977622002182826e+17
19308.0	5.976546809129641e+17
19309.0	5.975065066384041e+17
19310.0	5.973658414962003e+17
19311.0	5.972932970938367e+17
19312.0	5.971843289361065e+17
19313.0	5.970616015039146e+17
19314.0	5.959249895096293e+17
19315.0	5.959077237970284e+17
19316.0	5.967139097105748e+17
19317.0	5.965904157693268e+17
19318.0	5.964691850745172e+17
19319.0	5.963559234874025e+17
19320.0	5.962329583080788e+17
19321.0	5.961152227966976e+17
19322.0	5.959535504130045e+17
19323.0	5.958521969442815e+17
19324.0	5.957504018153471e+17
19325.0	5.955967745960618e+17
19326.0	5.955080453532329e+17
19327.0	5.953798042987178e+17
19328.0	5.952656180073812e+17
19329.0	5.951429919375359e+17
19330.0	5.950020589890218e+17
19331.0	5.948786654314495e+17
19332.0	5.947726665613312e+17
19333.0	5.946427438006271e+17
19334.0	5.944472918906198e+17
19335.0	5.943122039144447e+17
19336.0	5.941869136226986e+17
19337.0	5.940603137294336e+17
19338.0	5.938495866535933e+17
19339.0	5.938091076354047e+17
19340.0	5.936443740389376e+17
19341.0	5.935527612121087e+17
19342.0	5.932634941161468e+17
19343.0	5.933014674571263e+17
19344.0	5.931667488593236e+17
19345.0	5.921187211946641e+17
19346.0	5.927005576320347e+17
19347.0	5.927576529447593e+17
19348.0	5.926546676121599e+17
19349.0	5.925087986668883e+17
19350.0	5.923808099696639e+17
19351.0	5.922414916184746e+17
19352.0	5.920965964507818e+17
19353.0	5.91994288218658e+17
19354.0	5.918597591334911e+17
19355.0	5.916829388810924e+17
19356.0	5.915880335256234e+17
19357.0	5.914497703914154e+17
19358.0	5.913019327097513e+17
19359.0	5.910952888587606e+17
19360.0	5.910180774543359e+17
19361.0	5.908751064935081e+17
19362.0	5.907543527609684e+17
19363.0	5.906108172468223e+17
19364.0	5.904650086296234e+17
19365.0	5.903195450638335e+17
19366.0	5.901752926033236e+17
19367.0	5.90027928248866e+17
19368.0	5.898794389820756e+17
19369.0	5.896928608212307e+17
19370.0	5.894074633901395e+17
19371.0	5.894016308609023e+17
19372.0	5.892151586761385e+17
19373.0	5.889836083489449e+17
19374.0	5.888332494711465e+17
19375.0	5.886746057943722e+17
19376.0	5.885124725964799e+17
19377.0	5.88344299880448e+17
19378.0	5.881795163717632e+17
19379.0	5.880108434849791e+17
19380.0	5.878405362876413e+17
19381.0	5.876642698231805e+17
19382.0	5.874536221594964e+17
19383.0	5.872674268687018e+17
19384.0	5.871303305199615e+17
19385.0	5.869442282029055e+17
19386.0	5.866266032078845e+17
19387.0	5.864089714688e+17
19388.0	5.862115884313257e+17
19389.0	5.860134410518527e+17
19390.0	5.858099541136724e+17
19391.0	5.843902857390742e+17
19392.0	5.853854061734569e+17
19393.0	5.851210524043944e+17
19394.0	5.847500763518292e+17
19395.0	5.845204900773887e+17
19396.0	5.842868313434794e+17
19397.0	5.840498475750739e+17
19398.0	5.837353019681453e+17
19399.0	5.83004943128985e+17
19400.0	5.830258578161664e+17
19401.0	5.827703892606973e+17
19402.0	5.823189223473151e+17
19403.0	5.819097601627476e+17
19404.0	5.816170222103209e+17
19405.0	5.810286315438079e+17
19406.0	5.806358780357289e+17
19407.0	5.800897487568895e+17
19408.0	5.79249410233686e+17
19409.0	5.788699416242863e+17
19410.0	5.78307014996787e+17
19411.0	5.774175806772564e+17
19412.0	5.767748245607768e+17
19413.0	5.761930132193279e+17
19414.0	5.756897280567977e+17
19415.0	5.751876357543252e+17
19416.0	5.745988292924756e+17
19417.0	5.7408584326403386e+17
19418.0	5.7351789241958394e+17
19419.0	5.7290325358892365e+17
19420.0	5.7226732782660256e+17
19421.0	5.7159656648212474e+17
19422.0	5.7085803420276026e+17
19423.0	5.7006386490026656e+17
19424.0	5.692849041440768e+17
19425.0	5.684655624465066e+17
19426.0	5.675440693138773e+17
19427.0	5.665330407232852e+17
19428.0	5.65579548057054e+17
19429.0	5.644124822700032e+17
19430.0	5.631872758098603e+17
19431.0	5.615901400017587e+17
19432.0	5.6026251171375776e+17
19433.0	5.5837443919708154e+17
19434.0	5.559927762321409e+17
19435.0	5.528651265212412e+17
19436.0	5.490590246502404e+17
19437.0	5.4668362049563296e+17
19438.0	5.424826727880015e+17
19439.0	5.414287740764161e+17
19440.0	5.3843681932738554e+17
19441.0	5.350917031329788e+17
19442.0	5.3126189596453574e+17
19443.0	5.263932668597583e+17
19444.0	5.1916840779120506e+17
19445.0	5.1107923213243757e+17
19446.0	5.0356742954243405e+17
19447.0	4.9387033081500966e+17
19448.0	4.7917667104850016e+17
19449.0	4.59403080761344e+17
19450.0	4.182102159392758e+17
19451.0	4.059515299299313e+17
19452.0	4.4068795811102835e+17
19453.0	4.7081989362155584e+17
19454.0	4.867440019592529e+17
19455.0	4.985879447732221e+17
19456.0	5.067293223201454e+17
19457.0	5.138635059888125e+17
19458.0	5.201225985294358e+17
19459.0	5.2757687519150054e+17
19460.0	5.316416154632191e+17
19461.0	5.349696337870846e+17
19462.0	5.378950354173952e+17
19463.0	5.405839788255913e+17
19464.0	5.4297308681994234e+17
19465.0	5.45172643311343e+17
19466.0	5.480144723159718e+17
19467.0	5.514186616471557e+17
19468.0	5.539215080510808e+17
19469.0	5.5551429184935174e+17
19470.0	5.5728641038527155e+17
19471.0	5.585252403642368e+17
19472.0	5.596316734324735e+17
19473.0	5.6052364404763296e+17
19474.0	5.614234523489622e+17
19475.0	5.618370114224123e+17
19476.0	5.6291477984815763e+17
19477.0	5.6355829604242765e+17
19478.0	5.641453403373567e+17
19479.0	5.6470752862754125e+17
19480.0	5.6526282735397536e+17
19481.0	5.657412809785343e+17
19482.0	5.661759036369577e+17
19483.0	5.665958720263509e+17
19484.0	5.6696875746590714e+17
19485.0	5.673033308045311e+17
19486.0	5.6763826653102074e+17
19487.0	5.6795028674751123e+17
19488.0	5.6823569962762234e+17
19489.0	5.684892022429013e+17
19490.0	5.684354640510967e+17
19491.0	5.694135128293375e+17
19492.0	5.699296630407168e+17
19493.0	5.704177818796026e+17
19494.0	5.706740306455209e+17
19495.0	5.711214903907666e+17
19496.0	5.7113801434071014e+17
19497.0	5.715636820901888e+17
19498.0	5.7177408075202566e+17
19499.0	5.698923499530898e+17
19500.0	5.7213156708406605e+17
19501.0	5.7228776450293754e+17
19502.0	5.7233545667543034e+17
19503.0	5.7237792456267085e+17
19504.0	5.726048128510632e+17
19505.0	5.7266565067134285e+17
19506.0	5.7268901077756576e+17
19507.0	5.7269224493547514e+17
19508.0	5.727111195131902e+17
19509.0	5.728242038909609e+17
19510.0	5.7281505198953786e+17
19511.0	5.707406638055402e+17
19512.0	5.7265334661065254e+17
19513.0	5.72171473999188e+17
19514.0	5.7247630748549075e+17
19515.0	5.7260489198360006e+17
19516.0	5.727882129877674e+17
19517.0	5.727915348066303e+17
19518.0	5.7287328689466016e+17
19519.0	5.728341031474515e+17
19520.0	5.7278167791261e+17
19521.0	5.727527156143445e+17
19522.0	5.7269021377385805e+17
19523.0	5.7266017367927456e+17
19524.0	5.726093755547647e+17
19525.0	5.725445971858772e+17
19526.0	5.725024621865643e+17
19527.0	5.7244136767488e+17
19528.0	5.723850735441236e+17
19529.0	5.723239724613631e+17
19530.0	5.7226563465598285e+17
19531.0	5.7220512965372576e+17
19532.0	5.721396088231252e+17
19533.0	5.721544603642538e+17
19534.0	5.721174317203455e+17
19535.0	5.7203836936956576e+17
19536.0	5.719611596428627e+17
19537.0	5.7190455024025594e+17
19538.0	5.71819257810125e+17
19539.0	5.715051447757496e+17
19540.0	5.7167121306965325e+17
19541.0	5.716071387146921e+17
19542.0	5.715271288706388e+17
19543.0	5.7144859647016954e+17
19544.0	5.713712434380799e+17
19545.0	5.7115373081722765e+17
19546.0	5.70795814289408e+17
19547.0	5.7113133798741325e+17
19548.0	5.7105025873565e+17
19549.0	5.709234804446549e+17
19550.0	5.708836358848511e+17
19551.0	5.708004308899156e+17
19552.0	5.707144119364266e+17
19553.0	5.706220005840211e+17
19554.0	5.7052430391924045e+17
19555.0	5.704506288723284e+17
19556.0	5.7036887021322234e+17
19557.0	5.702805273356969e+17
19558.0	5.7019208547259725e+17
19559.0	5.7009920226099194e+17
19560.0	5.700042745359018e+17
19561.0	5.699139563509076e+17
19562.0	5.6983264564346874e+17
19563.0	5.697449698699945e+17
19564.0	5.696539342493011e+17
19565.0	5.695618817196031e+17
19566.0	5.6945853868277754e+17
19567.0	5.6937962222387194e+17
19568.0	5.6927587974949536e+17
19569.0	5.691849808631124e+17
19570.0	5.691013274271743e+17
19571.0	5.690085248860158e+17
19572.0	5.688991148583594e+17
19573.0	5.6881593621763405e+17
19574.0	5.6868489385738214e+17
19575.0	5.686306787732138e+17
19576.0	5.6853646869353805e+17
19577.0	5.6842011268874214e+17
19578.0	5.68330191704337e+17
19579.0	5.6824060018251085e+17
19580.0	5.6814758575909555e+17
19581.0	5.6805410234258765e+17
19582.0	5.679663047245824e+17
19583.0	5.6786980993761274e+17
19584.0	5.677731776473769e+17
19585.0	5.676286791210324e+17
19586.0	5.675211264010922e+17
19587.0	5.674739032915967e+17
19588.0	5.671884063855958e+17
19589.0	5.67279352947234e+17
19590.0	5.67152065327923e+17
19591.0	5.6709094180563616e+17
19592.0	5.6699509168319136e+17
19593.0	5.668897359396862e+17
19594.0	5.666930376922449e+17
19595.0	5.666925752003241e+17
19596.0	5.664488648168789e+17
19597.0	5.664989725589503e+17
19598.0	5.6626485273122106e+17
19599.0	5.663053114070356e+17
19600.0	5.662100069635413e+17
19601.0	5.6609023693509965e+17
19602.0	5.660732643344382e+17
19603.0	5.658065939114663e+17
19604.0	5.658742931936596e+17
19605.0	5.656632302938797e+17
19606.0	5.656891310997503e+17
19607.0	5.6559148546566816e+17
19608.0	5.65488132292608e+17
19609.0	5.6537018734564685e+17
19610.0	5.652956535149908e+17
19611.0	5.6519116794975565e+17
19612.0	5.650972629357908e+17
19613.0	5.6499200694681594e+17
19614.0	5.648802810342058e+17
19615.0	5.6479687275533645e+17
19616.0	5.646870642687998e+17
19617.0	5.6459555343346336e+17
19618.0	5.6428357404153146e+17
19619.0	5.640951467518627e+17
19620.0	5.640202556364112e+17
19621.0	5.641924063002623e+17
19622.0	5.6409582329309856e+17
19623.0	5.639965626422613e+17
19624.0	5.6389186197913594e+17
19625.0	5.637956124191402e+17
19626.0	5.6369026100974925e+17
19627.0	5.635944659025919e+17
19628.0	5.634639152545792e+17
19629.0	5.633556806107134e+17
19630.0	5.6328088442634234e+17
19631.0	5.6198877902711366e+17
19632.0	5.630886820533588e+17
19633.0	5.629710507704319e+17
19634.0	5.6288961374453754e+17
19635.0	5.627728176174419e+17
19636.0	5.6268382238583456e+17
19637.0	5.6243009887054534e+17
19638.0	5.624809498432851e+17
19639.0	5.6238224934174726e+17
19640.0	5.6225985990055245e+17
19641.0	5.6184860489810054e+17
19642.0	5.620786562509483e+17
19643.0	5.6197222173245434e+17
19644.0	5.618554957201407e+17
19645.0	5.616666023034877e+17
19646.0	5.61679273365777e+17
19647.0	5.6157879678621e+17
19648.0	5.6147578370129894e+17
19649.0	5.613733803283796e+17
19650.0	5.612753867767807e+17
19651.0	5.6117152078015136e+17
19652.0	5.6106956032573434e+17
19653.0	5.609713781702655e+17
19654.0	5.608669272080383e+17
19655.0	5.607628123493715e+17
19656.0	5.606654098451113e+17
19657.0	5.6056401079828474e+17
19658.0	5.6046567331375776e+17
19659.0	5.603635682257577e+17
19660.0	5.602649314077354e+17
19661.0	5.6016192971735034e+17
