# Flux units: erg / (cm m2 s)
# Wavelength units: Angstrom
wave	flux
19000.0	5.575000198567254e+17
19001.0	5.5739143226217805e+17
19002.0	5.5729237384669856e+17
19003.0	5.571879574175743e+17
19004.0	5.5707922560887456e+17
19005.0	5.569724354134015e+17
19006.0	5.568688544896341e+17
19007.0	5.5674732774686714e+17
19008.0	5.566015535928664e+17
19009.0	5.561958915549864e+17
19010.0	5.561448024156843e+17
19011.0	5.559818842537983e+17
19012.0	5.559256370992473e+17
19013.0	5.557769870508032e+17
19014.0	5.556709690266964e+17
19015.0	5.555682869422762e+17
19016.0	5.5546409385984e+17
19017.0	5.553620823747241e+17
19018.0	5.552566424655188e+17
19019.0	5.5515569486561274e+17
19020.0	5.5505104509337594e+17
19021.0	5.549485734232062e+17
19022.0	5.548456106000382e+17
19023.0	5.547404236772692e+17
19024.0	5.546376962943658e+17
19025.0	5.5453209504426643e+17
19026.0	5.544266331149653e+17
19027.0	5.542934707437568e+17
19028.0	5.542253507029674e+17
19029.0	5.54120660525602e+17
19030.0	5.5401885456138234e+17
19031.0	5.539158417560917e+17
19032.0	5.5381209403883514e+17
19033.0	5.537047255886505e+17
19034.0	5.536052001374207e+17
19035.0	5.534972906919251e+17
19036.0	5.51028527062491e+17
19037.0	5.532728431389354e+17
19038.0	5.531682893463551e+17
19039.0	5.53066133856802e+17
19040.0	5.5296316600046925e+17
19041.0	5.528596941286058e+17
19042.0	5.527517425303551e+17
19043.0	5.526539255589545e+17
19044.0	5.525500821416618e+17
19045.0	5.524463247076009e+17
19046.0	5.523416318738432e+17
19047.0	5.522413063591252e+17
19048.0	5.5212775704275616e+17
19049.0	5.5203137557189965e+17
19050.0	5.519307588326741e+17
19051.0	5.514950555817291e+17
19052.0	5.5170177262332576e+17
19053.0	5.516199422416213e+17
19054.0	5.5152127110021114e+17
19055.0	5.514061926105088e+17
19056.0	5.5131412085691725e+17
19057.0	5.5121214089898656e+17
19058.0	5.5110658865233894e+17
19059.0	5.510198531719167e+17
19060.0	5.509160602959871e+17
19061.0	5.5081479309011616e+17
19062.0	5.507117822421674e+17
19063.0	5.5060917887085216e+17
19064.0	5.5050021162188794e+17
19065.0	5.5039550424787616e+17
19066.0	5.502980268053844e+17
19067.0	5.5019778203101856e+17
19068.0	5.5009569770482336e+17
19069.0	5.499931023026858e+17
19070.0	5.498890377756671e+17
19071.0	5.497860836207275e+17
19072.0	5.496848065582421e+17
19073.0	5.4958245862004045e+17
19074.0	5.494801667457023e+17
19075.0	5.4937764145834656e+17
19076.0	5.492740129991338e+17
19077.0	5.4917203835398816e+17
19078.0	5.490674840021673e+17
19079.0	5.489663487071574e+17
19080.0	5.4886336714943136e+17
19081.0	5.488249225084925e+17
19082.0	5.4881845335381325e+17
19083.0	5.487140030906367e+17
19084.0	5.4860535579716256e+17
19085.0	5.485132002973011e+17
19086.0	5.483916587346602e+17
19087.0	5.4822317955481594e+17
19088.0	5.4820138825809914e+17
19089.0	5.480586522482004e+17
19090.0	5.480001464609449e+17
19091.0	5.4789863116199245e+17
19092.0	5.477773593630036e+17
19093.0	5.47695164006946e+17
19094.0	5.475927267300692e+17
19095.0	5.4749045603696634e+17
19096.0	5.4738669426879136e+17
19097.0	5.4728624656001696e+17
19098.0	5.471835651746473e+17
19099.0	5.47081480638737e+17
19100.0	5.4697595705316685e+17
19101.0	5.4687634806538234e+17
19102.0	5.4677065901451936e+17
19103.0	5.4667336234653005e+17
19104.0	5.465717368072873e+17
19105.0	5.464688565420031e+17
19106.0	5.4635429493036365e+17
19107.0	5.4626457876780365e+17
19108.0	5.461633532253524e+17
19109.0	5.458561612819111e+17
19110.0	5.459561107772756e+17
19111.0	5.4585683334922234e+17
19112.0	5.457557713147219e+17
19113.0	5.456540628680703e+17
19114.0	5.455518467009194e+17
19115.0	5.4544275166549325e+17
19116.0	5.4534765637795834e+17
19117.0	5.452461110897321e+17
19118.0	5.4512864701972474e+17
19119.0	5.44813312673928e+17
19120.0	5.449192808557225e+17
19121.0	5.4482705635956045e+17
19122.0	5.44738245677329e+17
19123.0	5.4463646683627514e+17
19124.0	5.4452238631130445e+17
19125.0	5.4443227518511776e+17
19126.0	5.443295859703807e+17
19127.0	5.4414450021280403e+17
19128.0	5.440182531304104e+17
19129.0	5.440226925914793e+17
19130.0	5.439246447935487e+17
19131.0	5.438199798519124e+17
19132.0	5.4372207403117216e+17
19133.0	5.435985276611243e+17
19134.0	5.434643003561301e+17
19135.0	5.434168267767807e+17
19136.0	5.433164483439274e+17
19137.0	5.4320709871424845e+17
19138.0	5.431068108783615e+17
19139.0	5.430121661289811e+17
19140.0	5.429109057738069e+17
19141.0	5.4280956321027405e+17
19142.0	5.4270631671234554e+17
19143.0	5.426038348360362e+17
19144.0	5.425041090368852e+17
19145.0	5.424036354632361e+17
19146.0	5.4227177877886285e+17
19147.0	5.4219672597299194e+17
19148.0	5.420990524467883e+17
19149.0	5.419981288942251e+17
19150.0	5.41897777025297e+17
19151.0	5.4179686801298765e+17
19152.0	5.416933399374506e+17
19153.0	5.415933298343936e+17
19154.0	5.414875806651732e+17
19155.0	5.4139195207188474e+17
19156.0	5.4129145892481696e+17
19157.0	5.4118821193755296e+17
19158.0	5.409452991010131e+17
19159.0	5.409766750814207e+17
19160.0	5.408734897504255e+17
19161.0	5.407659312283647e+17
19162.0	5.4035929387499526e+17
19163.0	5.405686109656404e+17
19164.0	5.404731832096085e+17
19165.0	5.4036534262060365e+17
19166.0	5.402578442868053e+17
19167.0	5.401405469403817e+17
19168.0	5.400668472868862e+17
19169.0	5.3996180199178234e+17
19170.0	5.3986792766614176e+17
19171.0	5.3974734212519245e+17
19172.0	5.396649245409279e+17
19173.0	5.395649300966057e+17
19174.0	5.394623653827926e+17
19175.0	5.393644234211328e+17
19176.0	5.392635781622441e+17
19177.0	5.3915594421261645e+17
19178.0	5.3905903845376e+17
19179.0	5.3893133965284704e+17
19180.0	5.3884989899188896e+17
19181.0	5.387543839943338e+17
19182.0	5.3865807103044256e+17
19183.0	5.38558110699793e+17
19184.0	5.384550164550996e+17
19185.0	5.3835768895897594e+17
19186.0	5.382576366332585e+17
19187.0	5.381530968915967e+17
19188.0	5.380550479052798e+17
19189.0	5.379514542587903e+17
19190.0	5.37849350988322e+17
19191.0	5.377496391002794e+17
19192.0	5.3765436059156474e+17
19193.0	5.375493048107006e+17
19194.0	5.3745073188590925e+17
19195.0	5.3735229758286496e+17
19196.0	5.3725199611549005e+17
19197.0	5.371516618626388e+17
19198.0	5.3705036522673485e+17
19199.0	5.3509407794790336e+17
19200.0	5.356836778322612e+17
19201.0	5.367520824743252e+17
19202.0	5.3665579390730234e+17
19203.0	5.3655097755129165e+17
19204.0	5.364534500567722e+17
19205.0	5.3635481946030086e+17
19206.0	5.362541853846185e+17
19207.0	5.361507079902547e+17
19208.0	5.360433154927274e+17
19209.0	5.3595271132610554e+17
19210.0	5.358536193561941e+17
19211.0	5.35755114029602e+17
19212.0	5.3565564904625485e+17
19213.0	5.3553480590513485e+17
19214.0	5.3541807318193485e+17
19215.0	5.353271935194452e+17
19216.0	5.352331834381653e+17
19217.0	5.351329881565866e+17
19218.0	5.3499285652985165e+17
19219.0	5.349260136546303e+17
19220.0	5.348306681069568e+17
19221.0	5.347161242512041e+17
19222.0	5.346323120608598e+17
19223.0	5.345321326477311e+17
19224.0	5.344305891770366e+17
19225.0	5.3432580749393914e+17
19226.0	5.342317394613589e+17
19227.0	5.3413194529505274e+17
19228.0	5.340331873315498e+17
19229.0	5.339331918386517e+17
19230.0	5.338290304232105e+17
19231.0	5.337296956030975e+17
19232.0	5.3363226576595616e+17
19233.0	5.3352934474601805e+17
19234.0	5.334319679668223e+17
19235.0	5.333315250115925e+17
19236.0	5.3323254139453434e+17
19237.0	5.3313154262411936e+17
19238.0	5.3302543239522976e+17
19239.0	5.3293230808104954e+17
19240.0	5.3282780692698445e+17
19241.0	5.327305568856745e+17
19242.0	5.326330958009685e+17
19243.0	5.325267450986494e+17
19244.0	5.3243884066570234e+17
19245.0	5.323396006368596e+17
19246.0	5.3223913712954016e+17
19247.0	5.321396996188842e+17
19248.0	5.320396033228799e+17
19249.0	5.319391553344852e+17
19250.0	5.318391585133909e+17
19251.0	5.31736646857523e+17
19252.0	5.316248804698793e+17
19253.0	5.3153936867764896e+17
19254.0	5.3143969300043085e+17
19255.0	5.3133098300211194e+17
19256.0	5.3123730266303136e+17
19257.0	5.311405202866175e+17
19258.0	5.3104092625851725e+17
19259.0	5.309374018879487e+17
19260.0	5.307959598907391e+17
19261.0	5.3074059381964794e+17
19262.0	5.3063843609313274e+17
19263.0	5.3053839991548576e+17
19264.0	5.30415943295522e+17
19265.0	5.3033031685898234e+17
19266.0	5.3023063803603616e+17
19267.0	5.3014083847673165e+17
19268.0	5.3004039027862176e+17
19269.0	5.299406686038698e+17
19270.0	5.29840452210961e+17
19271.0	5.297241873623722e+17
19272.0	5.296390475350015e+17
19273.0	5.2939366683989306e+17
19274.0	5.293598422947156e+17
19275.0	5.2934054919536634e+17
19276.0	5.292394382273194e+17
19277.0	5.29139380658722e+17
19278.0	5.290393855153492e+17
19279.0	5.289349689464149e+17
19280.0	5.2883971609285965e+17
19281.0	5.287450870721194e+17
19282.0	5.286455995793407e+17
19283.0	5.2840348268189e+17
19284.0	5.2802892909772794e+17
19285.0	5.279549145918121e+17
19286.0	5.2786265136824314e+17
19287.0	5.2776326202217805e+17
19288.0	5.271681231399594e+17
19289.0	5.258469897316999e+17
19290.0	5.274619793637375e+17
19291.0	5.273494566032725e+17
19292.0	5.272609232344404e+17
19293.0	5.271600138027007e+17
19294.0	5.270592358623913e+17
19295.0	5.2695909154160634e+17
19296.0	5.2685760049971194e+17
19297.0	5.2675488576962554e+17
19298.0	5.2665503651812685e+17
19299.0	5.265552073293823e+17
19300.0	5.264544652503721e+17
19301.0	5.26353225027857e+17
19302.0	5.262521944506367e+17
19303.0	5.261464125658453e+17
19304.0	5.260479967177385e+17
19305.0	5.2594787770258765e+17
19306.0	5.2584464651386874e+17
19307.0	5.2573994647988896e+17
19308.0	5.256406540222464e+17
19309.0	5.254767835436371e+17
19310.0	5.253471996127913e+17
19311.0	5.2533244454065466e+17
19312.0	5.252360215461886e+17
19313.0	5.2513373792064845e+17
19314.0	5.227272734070019e+17
19315.0	5.228825301833099e+17
19316.0	5.248226640090453e+17
19317.0	5.2472565891508896e+17
19318.0	5.246231234215934e+17
19319.0	5.245211865251839e+17
19320.0	5.2458387361409696e+17
19321.0	5.244909312628053e+17
19322.0	5.2438206579561805e+17
19323.0	5.242535570746027e+17
19324.0	5.2418066461491194e+17
19325.0	5.240157317890047e+17
19326.0	5.239750385816917e+17
19327.0	5.2387093085334176e+17
19328.0	5.237675156744874e+17
19329.0	5.236642651220651e+17
19330.0	5.23558061150481e+17
19331.0	5.234537172129108e+17
19332.0	5.233506586897066e+17
19333.0	5.2324520165375994e+17
19334.0	5.228989104783356e+17
19335.0	5.226059934291283e+17
19336.0	5.225088157395625e+17
19337.0	5.224105301245951e+17
19338.0	5.222946466081449e+17
19339.0	5.2219750324196685e+17
19340.0	5.2208585772018336e+17
19341.0	5.2198328447795194e+17
19342.0	5.21855536603682e+17
19343.0	5.2176532068980045e+17
19344.0	5.2165268685018445e+17
19345.0	5.2143248127644966e+17
19346.0	5.21413260668655e+17
19347.0	5.2132351787226445e+17
19348.0	5.2121833164854605e+17
19349.0	5.211062644594005e+17
19350.0	5.2099583186042874e+17
19351.0	5.208856345619113e+17
19352.0	5.207729474546345e+17
19353.0	5.2066537208545274e+17
19354.0	5.2054024921634125e+17
19355.0	5.2017747288828576e+17
19356.0	5.200572825905834e+17
19357.0	5.1997759207287475e+17
19358.0	5.200346113288874e+17
19359.0	5.199134004871168e+17
19360.0	5.1980309903005e+17
19361.0	5.1966577709765965e+17
19362.0	5.195416750522367e+17
19363.0	5.1942376442866336e+17
19364.0	5.1930487170880845e+17
19365.0	5.1918577654388045e+17
19366.0	5.19065532768802e+17
19367.0	5.1894405656739834e+17
19368.0	5.1882241881538554e+17
19369.0	5.1866008163450874e+17
19370.0	5.184848823407956e+17
19371.0	5.1837422059301536e+17
19372.0	5.182504604532736e+17
19373.0	5.182649831609688e+17
19374.0	5.1823591390795085e+17
19375.0	5.1810635458368845e+17
19376.0	5.1797606167565645e+17
19377.0	5.1783892198577485e+17
19378.0	5.176734451586388e+17
19379.0	5.1753821569460896e+17
19380.0	5.1740138330740045e+17
19381.0	5.172624428630015e+17
19382.0	5.172909159656108e+17
19383.0	5.172820867459753e+17
19384.0	5.171457238411946e+17
19385.0	5.170006974616917e+17
19386.0	5.168432366485502e+17
19387.0	5.1666360789019296e+17
19388.0	5.166593639535959e+17
19389.0	5.1663369732969805e+17
19390.0	5.164922794497364e+17
19391.0	5.1407748029480614e+17
19392.0	5.1615465859973114e+17
19393.0	5.161968805609471e+17
19394.0	5.1602936628073805e+17
19395.0	5.15827689464354e+17
19396.0	5.156637861303636e+17
19397.0	5.1544830187492685e+17
19398.0	5.152597335867391e+17
19399.0	5.1504806055553696e+17
19400.0	5.14865765617937e+17
19401.0	5.146726140739584e+17
19402.0	5.1448730231330125e+17
19403.0	5.141955416337067e+17
19404.0	5.139672937616725e+17
19405.0	5.137777700110336e+17
19406.0	5.135045740898985e+17
19407.0	5.1318072460793146e+17
19408.0	5.12828919250944e+17
19409.0	5.126131166478336e+17
19410.0	5.12216287674368e+17
19411.0	5.1191561605611514e+17
19412.0	5.1156582424466765e+17
19413.0	5.1122588338530976e+17
19414.0	5.1085824984350726e+17
19415.0	5.1040758138579616e+17
19416.0	5.0987065692651514e+17
19417.0	5.0944415569892685e+17
19418.0	5.0912321545611936e+17
19419.0	5.087942513699498e+17
19420.0	5.081994812369577e+17
19421.0	5.078001512000171e+17
19422.0	5.0718943656017914e+17
19423.0	5.066582421493076e+17
19424.0	5.059218776260607e+17
19425.0	5.0510592688346477e+17
19426.0	5.042320679021223e+17
19427.0	5.0297650334924845e+17
19428.0	5.0160958729530035e+17
19429.0	4.999422842066265e+17
19430.0	4.9745242833114426e+17
19431.0	4.9536267249691334e+17
19432.0	4.951944107917307e+17
19433.0	4.9477523959971885e+17
19434.0	4.939771557533017e+17
19435.0	4.921720283245225e+17
19436.0	4.901580767756285e+17
19437.0	4.886567251694931e+17
19438.0	4.8337875492317715e+17
19439.0	4.851841098230442e+17
19440.0	4.831871415702869e+17
19441.0	4.805227834245117e+17
19442.0	4.7680238914983405e+17
19443.0	4.69644318220834e+17
19444.0	4.624992821400907e+17
19445.0	4.6018142572380224e+17
19446.0	4.538531751220562e+17
19447.0	4.457964767980177e+17
19448.0	4.309690764055907e+17
19449.0	4.1394648089886835e+17
19450.0	3.68870343486122e+17
19451.0	3.5570838943388954e+17
19452.0	3.9375620216804717e+17
19453.0	4.249848619816276e+17
19454.0	4.377748815129243e+17
19455.0	4.5000115638763514e+17
19456.0	4.564888174548314e+17
19457.0	4.60692351090687e+17
19458.0	4.5978882915260314e+17
19459.0	4.726072453802688e+17
19460.0	4.773914858575196e+17
19461.0	4.802370607950509e+17
19462.0	4.8243613808721946e+17
19463.0	4.841745645480615e+17
19464.0	4.856051920098645e+17
19465.0	4.8710325842739194e+17
19466.0	4.8862211349326483e+17
19467.0	4.9031252964365645e+17
19468.0	4.915654639484932e+17
19469.0	4.917819492444844e+17
19470.0	4.9204505660620794e+17
19471.0	4.928982434010464e+17
19472.0	4.9505573381952845e+17
19473.0	4.96919042745957e+17
19474.0	4.982697181751977e+17
19475.0	4.992656035807233e+17
19476.0	5.0008691806917965e+17
19477.0	5.0072734271187616e+17
19478.0	5.014824807301115e+17
19479.0	5.016946467318442e+17
19480.0	5.022510231147865e+17
19481.0	5.024996057415679e+17
19482.0	5.027556047366826e+17
19483.0	5.031141580297558e+17
19484.0	5.0322053585524045e+17
19485.0	5.034193560010751e+17
19486.0	5.036089774090922e+17
19487.0	5.0400476165133664e+17
19488.0	5.0420020992628045e+17
19489.0	5.043359292151125e+17
19490.0	5.044378045950632e+17
19491.0	5.046441792416426e+17
19492.0	5.0476675085544083e+17
19493.0	5.049551698963115e+17
19494.0	5.050023368720382e+17
19495.0	5.0511023338509645e+17
19496.0	5.052184582422527e+17
19497.0	5.0531534421797536e+17
19498.0	5.051537260107094e+17
19499.0	5.01661171292565e+17
19500.0	5.0543149064738125e+17
19501.0	5.0543007604845216e+17
19502.0	5.0543058048341325e+17
19503.0	5.054553879041366e+17
19504.0	5.0543930547459405e+17
19505.0	5.054296917803007e+17
19506.0	5.0544474940156576e+17
19507.0	5.054276851553619e+17
19508.0	5.0543586230053536e+17
19509.0	5.0541208849612794e+17
19510.0	5.052631266710868e+17
19511.0	5.005610898685907e+17
19512.0	5.047245992886249e+17
19513.0	5.040187293827054e+17
19514.0	5.043427110551543e+17
19515.0	5.0472745665822726e+17
19516.0	5.047085172785151e+17
19517.0	5.0466487722311674e+17
19518.0	5.046570375796053e+17
19519.0	5.0460763049601696e+17
19520.0	5.045578318741503e+17
19521.0	5.045029452120062e+17
19522.0	5.0416906896670694e+17
19523.0	5.0411084259000314e+17
19524.0	5.0405517571741e+17
19525.0	5.0399754423282336e+17
19526.0	5.0394084493230074e+17
19527.0	5.038909093664083e+17
19528.0	5.038543565662889e+17
19529.0	5.0379229449857696e+17
19530.0	5.0372982593290234e+17
19531.0	5.036655372490068e+17
19532.0	5.035266513305598e+17
19533.0	5.0330803462908576e+17
19534.0	5.032413469431123e+17
19535.0	5.0317289387458554e+17
19536.0	5.0310343906645325e+17
19537.0	5.03036065681681e+17
19538.0	5.02951178141696e+17
19539.0	5.028482536964097e+17
19540.0	5.028044462882815e+17
19541.0	5.027334263057065e+17
19542.0	5.026602185042602e+17
19543.0	5.025863656188587e+17
19544.0	5.025125818695679e+17
19545.0	5.0242284564425363e+17
19546.0	5.023127846606164e+17
19547.0	5.022869749410474e+17
19548.0	5.022124096531114e+17
19549.0	5.0220626248116896e+17
19550.0	5.021432422247081e+17
19551.0	5.020654216675328e+17
19552.0	5.0198701852153165e+17
19553.0	5.019073893804713e+17
19554.0	5.016744037624488e+17
19555.0	5.0168088710785683e+17
19556.0	5.017280830242815e+17
19557.0	5.016475562322602e+17
19558.0	5.015665743582548e+17
19559.0	5.014853871031636e+17
19560.0	5.0140306479950496e+17
19561.0	5.013215167643647e+17
19562.0	5.0126137778503674e+17
19563.0	5.0118277128519674e+17
19564.0	5.011003163017215e+17
19565.0	5.010173078099285e+17
19566.0	5.009330975102292e+17
19567.0	5.008512624448851e+17
19568.0	5.007667319799808e+17
19569.0	5.0068334697949856e+17
19570.0	5.0060045753603405e+17
19571.0	5.005163151840596e+17
19572.0	5.0043046267453434e+17
19573.0	5.003472261524138e+17
19574.0	5.002589093494783e+17
19575.0	5.001781719334911e+17
19576.0	5.0009349480775674e+17
19577.0	5.000074704016723e+17
19578.0	4.999245345412436e+17
19579.0	4.998402757973331e+17
19580.0	4.997550843101183e+17
19581.0	4.9966971316688205e+17
19582.0	4.9958488204028576e+17
19583.0	4.9949902240044365e+17
19584.0	4.994120028258303e+17
19585.0	4.993215506328233e+17
19586.0	4.992331465184598e+17
19587.0	4.991421266963114e+17
19588.0	4.990448969973759e+17
19589.0	4.989788892779861e+17
19590.0	4.9888904952326816e+17
19591.0	4.9880782633697274e+17
19592.0	4.9872128099833165e+17
19593.0	4.986335014158335e+17
19594.0	4.9875873669229184e+17
19595.0	4.9884418221451936e+17
19596.0	4.9852593953832966e+17
19597.0	4.9866601433224525e+17
19598.0	4.985650064042666e+17
19599.0	4.984951167167146e+17
19600.0	4.9840792531544736e+17
19601.0	4.983169453391872e+17
19602.0	4.98229972181538e+17
19603.0	4.9809341438143123e+17
19604.0	4.980529077507413e+17
19605.0	4.979542130513237e+17
19606.0	4.978803276600661e+17
19607.0	4.977927150108671e+17
19608.0	4.976997599368534e+17
19609.0	4.976001965271721e+17
19610.0	4.9751483545026554e+17
19611.0	4.974260087597738e+17
19612.0	4.973386723054932e+17
19613.0	4.9724981247999994e+17
19614.0	4.9716021816197114e+17
19615.0	4.970733568524287e+17
19616.0	4.9696521462306125e+17
19617.0	4.968965038145535e+17
19618.0	4.9678397678987936e+17
19619.0	4.966836437254142e+17
19620.0	4.9659956652496205e+17
19621.0	4.965426063387306e+17
19622.0	4.964548876435455e+17
19623.0	4.9636639460993696e+17
19624.0	4.962774175536468e+17
19625.0	4.9618897051757216e+17
19626.0	4.9610028797132794e+17
19627.0	4.9601167211451744e+17
19628.0	4.9587786018542944e+17
19629.0	4.9582920835618125e+17
19630.0	4.9568629562627405e+17
19631.0	4.936008960660803e+17
19632.0	4.955678774220117e+17
19633.0	4.9547595358754125e+17
19634.0	4.9539124933864083e+17
19635.0	4.9530074842180256e+17
19636.0	4.9521284000426656e+17
19637.0	4.951075468257962e+17
19638.0	4.950357967547049e+17
19639.0	4.949464763247274e+17
19640.0	4.948546711890602e+17
19641.0	4.947273442131969e+17
19642.0	4.946811814237523e+17
19643.0	4.945914671486293e+17
19644.0	4.9450082348564474e+17
19645.0	4.944019008957098e+17
19646.0	4.943258649449812e+17
19647.0	4.9423758861707936e+17
19648.0	4.9414870684139514e+17
19649.0	4.940597360765609e+17
19650.0	4.9397121550035616e+17
19651.0	4.938821341457066e+17
19652.0	4.937933531032235e+17
19653.0	4.937040730084691e+17
19654.0	4.936163169140734e+17
19655.0	4.9352714013900794e+17
