# Flux units: erg / (cm m2 s)
# Wavelength units: Angstrom
wave	flux
19000.0	8.302417204477953e+17
19001.0	8.300935418391209e+17
19002.0	8.299528096579581e+17
19003.0	8.298079225992532e+17
19004.0	8.296628484745897e+17
19005.0	8.295177206628352e+17
19006.0	8.293722505958739e+17
19007.0	8.292265615862441e+17
19008.0	8.29078459593523e+17
19009.0	8.289315076789588e+17
19010.0	8.287722636574719e+17
19011.0	8.286407297247913e+17
19012.0	8.28491146024277e+17
19013.0	8.283484297975123e+17
19014.0	8.281983855624191e+17
19015.0	8.280531895233194e+17
19016.0	8.279047441569108e+17
19017.0	8.277580785734996e+17
19018.0	8.276113760802131e+17
19019.0	8.274635040751615e+17
19020.0	8.273139287632553e+17
19021.0	8.271668213798228e+17
19022.0	8.270187830007123e+17
19023.0	8.26869210624819e+17
19024.0	8.267203730909866e+17
19025.0	8.265721652619948e+17
19026.0	8.264222457375402e+17
19027.0	8.262725254425256e+17
19028.0	8.261248533659647e+17
19029.0	8.259753190184276e+17
19030.0	8.258256672303785e+17
19031.0	8.256758390019412e+17
19032.0	8.255258694254592e+17
19033.0	8.253722784869033e+17
19034.0	8.252254268162048e+17
19035.0	8.250730943086591e+17
19036.0	8.248181569617917e+17
19037.0	8.247734993682431e+17
19038.0	8.246220552142847e+17
19039.0	8.244722128650239e+17
19040.0	8.24321187582225e+17
19041.0	8.24170003195494e+17
19042.0	8.240155850003795e+17
19043.0	8.238673135577769e+17
19044.0	8.237156801008982e+17
19045.0	8.235640789401599e+17
19046.0	8.234105028214781e+17
19047.0	8.232597099031209e+17
19048.0	8.231011675886932e+17
19049.0	8.229535974337192e+17
19050.0	8.228022419193855e+17
19051.0	8.226329419142484e+17
19052.0	8.22495723720977e+17
19053.0	8.223464298468691e+17
19054.0	8.221937507500031e+17
19055.0	8.220310433518932e+17
19056.0	8.218871654427305e+17
19057.0	8.217349983305727e+17
19058.0	8.215818452773548e+17
19059.0	8.214285058572288e+17
19060.0	8.212743800051028e+17
19061.0	8.211217611664041e+17
19062.0	8.209680274817024e+17
19063.0	8.208144158512467e+17
19064.0	8.206564770971645e+17
19065.0	8.20499683807505e+17
19066.0	8.203503400211796e+17
19067.0	8.201987911494314e+17
19068.0	8.200446741053439e+17
19069.0	8.198904362653011e+17
19070.0	8.197357269854889e+17
19071.0	8.195816380432383e+17
19072.0	8.194270935995732e+17
19073.0	8.19272263943236e+17
19074.0	8.191177228550144e+17
19075.0	8.189628936181075e+17
19076.0	8.188072244019197e+17
19077.0	8.186525209941332e+17
19078.0	8.18496947687697e+17
19079.0	8.183427255063891e+17
19080.0	8.18187185894195e+17
19081.0	8.180303879908009e+17
19082.0	8.178749867906387e+17
19083.0	8.177167078785024e+17
19084.0	8.175554040343209e+17
19085.0	8.174096049941161e+17
19086.0	8.172380986452649e+17
19087.0	8.170951748004521e+17
19088.0	8.16938466095923e+17
19089.0	8.167773519740927e+17
19090.0	8.166286005633024e+17
19091.0	8.16472257602082e+17
19092.0	8.163145945535828e+17
19093.0	8.161605839050066e+17
19094.0	8.160027172929535e+17
19095.0	8.158458869536084e+17
19096.0	8.156903170026153e+17
19097.0	8.155341352424786e+17
19098.0	8.153774333886463e+17
19099.0	8.152204962343594e+17
19100.0	8.150635129427284e+17
19101.0	8.149063375519744e+17
19102.0	8.147461573618345e+17
19103.0	8.14591995159074e+17
19104.0	8.144346452852736e+17
19105.0	8.142771758738089e+17
19106.0	8.14119180916053e+17
19107.0	8.139614722894506e+17
19108.0	8.138041679937535e+17
19109.0	8.136367297003519e+17
19110.0	8.134877337616381e+17
19111.0	8.133308420456447e+17
19112.0	8.1317291112093e+17
19113.0	8.130148352131071e+17
19114.0	8.128899958090409e+17
19115.0	8.127446034765139e+17
19116.0	8.125860358564521e+17
19117.0	8.124274975965183e+17
19118.0	8.122662590436691e+17
19119.0	8.120245801713661e+17
19120.0	8.119510152948392e+17
19121.0	8.117923386228735e+17
19122.0	8.116340753694719e+17
19123.0	8.114748885303296e+17
19124.0	8.113157671223297e+17
19125.0	8.111564838141952e+17
19126.0	8.109966342750204e+17
19127.0	8.10776737961301e+17
19128.0	8.106763050724009e+17
19129.0	8.105151927681021e+17
19130.0	8.103587607478271e+17
19131.0	8.101992354283519e+17
19132.0	8.10039158977331e+17
19133.0	8.098727902314496e+17
19134.0	8.097189207911081e+17
19135.0	8.095593693271379e+17
19136.0	8.093991365683881e+17
19137.0	8.092331662813864e+17
19138.0	8.09077889372433e+17
19139.0	8.089179588831914e+17
19140.0	8.087574544733522e+17
19141.0	8.085967835496447e+17
19142.0	8.084350490902527e+17
19143.0	8.082732921214292e+17
19144.0	8.081137669417641e+17
19145.0	8.079530743474857e+17
19146.0	8.077699304827561e+17
19147.0	8.076274713668266e+17
19148.0	8.074691763765247e+17
19149.0	8.073077106322089e+17
19150.0	8.071458791445844e+17
19151.0	8.069844468148904e+17
19152.0	8.068224513299795e+17
19153.0	8.066599307182079e+17
19154.0	8.064941200943786e+17
19155.0	8.063365003870207e+17
19156.0	8.061741306303828e+17
19157.0	8.060111177471315e+17
19158.0	8.058435021744809e+17
19159.0	8.056858287800319e+17
19160.0	8.055239071148714e+17
19161.0	8.053610673165654e+17
19162.0	8.051829061451773e+17
19163.0	8.050339985664681e+17
19164.0	8.048722747326463e+17
19165.0	8.047088220067155e+17
19166.0	8.045419014302378e+17
19167.0	8.043807210384042e+17
19168.0	8.042171427629737e+17
19169.0	8.040537375724884e+17
19170.0	8.038908038217727e+17
19171.0	8.037262330342058e+17
19172.0	8.035626353251667e+17
19173.0	8.033984203543892e+17
19174.0	8.032320482530642e+17
19175.0	8.030694715774291e+17
19176.0	8.02904780832768e+17
19177.0	8.027341874440876e+17
19178.0	8.025744141014355e+17
19179.0	8.024088740102144e+17
19180.0	8.022441568414377e+17
19181.0	8.020756297067178e+17
19182.0	8.019125877429587e+17
19183.0	8.017477132877824e+17
19184.0	8.015807286782633e+17
19185.0	8.014155523730089e+17
19186.0	8.012495661476521e+17
19187.0	8.010805179405655e+17
19188.0	8.009166151658153e+17
19189.0	8.007501182140415e+17
19190.0	8.005831672987647e+17
19191.0	8.004158925832191e+17
19192.0	8.002485725691903e+17
19193.0	8.000807857291261e+17
19194.0	7.999130458652672e+17
19195.0	7.997450002366463e+17
19196.0	7.995761952991914e+17
19197.0	7.994073008832512e+17
19198.0	7.992357376316756e+17
19199.0	7.989766697342291e+17
19200.0	7.988307008247123e+17
19201.0	7.987300777940308e+17
19202.0	7.985639303675901e+17
19203.0	7.983954123205289e+17
19204.0	7.982253620942163e+17
19205.0	7.980567029787306e+17
19206.0	7.978865030157651e+17
19207.0	7.977144818860032e+17
19208.0	7.975399756311208e+17
19209.0	7.973763597467647e+17
19210.0	7.972057351804246e+17
19211.0	7.970348476312233e+17
19212.0	7.968407446093821e+17
19213.0	7.966261855475027e+17
19214.0	7.964536191582207e+17
19215.0	7.962857038326442e+17
19216.0	7.961139674961236e+17
19217.0	7.959417232293885e+17
19218.0	7.95740459691759e+17
19219.0	7.955900747393705e+17
19220.0	7.954230960018772e+17
19221.0	7.952397873010004e+17
19222.0	7.950771732960594e+17
19223.0	7.949040801021951e+17
19224.0	7.947289535097514e+17
19225.0	7.945511937332564e+17
19226.0	7.943820243107841e+17
19227.0	7.942065477735763e+17
19228.0	7.940327204367017e+17
19229.0	7.938576019532458e+17
19230.0	7.936821331055955e+17
19231.0	7.935066814545917e+17
19232.0	7.933302061137917e+17
19233.0	7.931517204430845e+17
19234.0	7.929772537544701e+17
19235.0	7.928004343409322e+17
19236.0	7.926242897909076e+17
19237.0	7.924463957966848e+17
19238.0	7.922659010543615e+17
19239.0	7.920914417756841e+17
19240.0	7.919108009317715e+17
19241.0	7.917328384305833e+17
19242.0	7.915550912370003e+17
19243.0	7.913694000316412e+17
19244.0	7.911963637405011e+17
19245.0	7.910157465245012e+17
19246.0	7.90834180137506e+17
19247.0	7.906532592538963e+17
19248.0	7.904715618648063e+17
19249.0	7.902893221522089e+17
19250.0	7.901065573127508e+17
19251.0	7.899191454640809e+17
19252.0	7.897289494364157e+17
19253.0	7.895564407887187e+17
19254.0	7.893722833005226e+17
19255.0	7.891805827760127e+17
19256.0	7.890017099710463e+17
19257.0	7.88817572475699e+17
19258.0	7.886315903254527e+17
19259.0	7.884422518931453e+17
19260.0	7.882563568446121e+17
19261.0	7.880709038757203e+17
19262.0	7.878355008006826e+17
19263.0	7.875946111565824e+17
19264.0	7.873905038808404e+17
19265.0	7.872118294664531e+17
19266.0	7.870235860271101e+17
19267.0	7.868377471822506e+17
19268.0	7.866465836684628e+17
19269.0	7.864548240042666e+17
19270.0	7.862622682611711e+17
19271.0	7.860582464094207e+17
19272.0	7.858743569372499e+17
19273.0	7.856099137596072e+17
19274.0	7.854407816664403e+17
19275.0	7.852914538184701e+17
19276.0	7.85095668601105e+17
19277.0	7.848990118073684e+17
19278.0	7.847016176549885e+17
19279.0	7.8450334395706e+17
19280.0	7.843020286896809e+17
19281.0	7.841049572190889e+17
19282.0	7.839046800419497e+17
19283.0	7.837026296528896e+17
19284.0	7.83499556692514e+17
19285.0	7.832936534157993e+17
19286.0	7.830943758811135e+17
19287.0	7.827679712291497e+17
19288.0	7.825163988325715e+17
19289.0	7.822718193194322e+17
19290.0	7.821312557492904e+17
19291.0	7.819130811973632e+17
19292.0	7.817141524889599e+17
19293.0	7.815041741662889e+17
19294.0	7.812937369867603e+17
19295.0	7.810820950633128e+17
19296.0	7.808694343434241e+17
19297.0	7.806556814267732e+17
19298.0	7.804409775215955e+17
19299.0	7.802251660405417e+17
19300.0	7.800081608605693e+17
19301.0	7.797899205978794e+17
19302.0	7.79534756478976e+17
19303.0	7.791548894106964e+17
19304.0	7.789344228114432e+17
19305.0	7.787127057503572e+17
19306.0	7.784884440050344e+17
19307.0	7.782606194780842e+17
19308.0	7.780343297867773e+17
19309.0	7.778043054871892e+17
19310.0	7.775724362530815e+17
19311.0	7.773446454203732e+17
19312.0	7.771138078452394e+17
19313.0	7.768727746161322e+17
19314.0	7.76344012132625e+17
19315.0	7.761073321716394e+17
19316.0	7.759009104789501e+17
19317.0	7.75659698991923e+17
19318.0	7.754163660259327e+17
19319.0	7.751712725707433e+17
19320.0	7.749241764752041e+17
19321.0	7.74675285217553e+17
19322.0	7.742207206708566e+17
19323.0	7.738482164236287e+17
19324.0	7.735927798147753e+17
19325.0	7.733320692880726e+17
19326.0	7.730721289753939e+17
19327.0	7.728080383989076e+17
19328.0	7.724614908816041e+17
19329.0	7.718772570499754e+17
19330.0	7.716032855321258e+17
19331.0	7.71327984280098e+17
19332.0	7.710522201167186e+17
19333.0	7.707731839767892e+17
19334.0	7.700771603393194e+17
19335.0	7.697260775211008e+17
19336.0	7.69436783092258e+17
19337.0	7.691448862375935e+17
19338.0	7.687387523405144e+17
19339.0	7.679853183281833e+17
19340.0	7.676807604076543e+17
19341.0	7.673756148651348e+17
19342.0	7.670561935895209e+17
19343.0	7.664406436861267e+17
19344.0	7.661096552191318e+17
19345.0	7.657312262378834e+17
19346.0	7.654423538958336e+17
19347.0	7.65142306390016e+17
19348.0	7.648170754441215e+17
19349.0	7.644855796061526e+17
19350.0	7.641509822201855e+17
19351.0	7.638082751474345e+17
19352.0	7.634583477201578e+17
19353.0	7.630802542832298e+17
19354.0	7.627196741626538e+17
19355.0	7.623560808540841e+17
19356.0	7.619936928486739e+17
19357.0	7.616246719709183e+17
19358.0	7.612515704548009e+17
19359.0	7.608718103412735e+17
19360.0	7.604920791684436e+17
19361.0	7.601058315851092e+17
19362.0	7.597161622885715e+17
19363.0	7.59320184758818e+17
19364.0	7.589189148562772e+17
19365.0	7.585122034035369e+17
19366.0	7.580999533723645e+17
19367.0	7.576686171608403e+17
19368.0	7.571925020005715e+17
19369.0	7.567597169366356e+17
19370.0	7.563182576325972e+17
19371.0	7.558797301470547e+17
19372.0	7.55430587297519e+17
19373.0	7.549724929643862e+17
19374.0	7.545072771224918e+17
19375.0	7.540345488627028e+17
19376.0	7.534758187761663e+17
19377.0	7.529521111280297e+17
19378.0	7.524517263267155e+17
19379.0	7.519434112150185e+17
19380.0	7.514283415961599e+17
19381.0	7.508838757782867e+17
19382.0	7.502078914068479e+17
19383.0	7.496646833209344e+17
19384.0	7.491162344521727e+17
19385.0	7.485544425237161e+17
19386.0	7.47825370566929e+17
19387.0	7.471706627812009e+17
19388.0	7.465721093160957e+17
19389.0	7.459604390040914e+17
19390.0	7.450759116008105e+17
19391.0	7.443273480142845e+17
19392.0	7.437346079943336e+17
19393.0	7.427736080831828e+17
19394.0	7.419770188769961e+17
19395.0	7.41151912597914e+17
19396.0	7.400783177143636e+17
19397.0	7.392891943692969e+17
19398.0	7.380054831704745e+17
19399.0	7.371134935411372e+17
19400.0	7.35742561231394e+17
19401.0	7.346228364137814e+17
19402.0	7.3328065787549e+17
19403.0	7.317653285415602e+17
19404.0	7.304833295974401e+17
19405.0	7.291746825622867e+17
19406.0	7.281564382309033e+17
19407.0	7.270826344710143e+17
19408.0	7.259828331566419e+17
19409.0	7.248989380411391e+17
19410.0	7.237734752758442e+17
19411.0	7.226212377515347e+17
19412.0	7.21439365651934e+17
19413.0	7.201670691116372e+17
19414.0	7.189201946673151e+17
19415.0	7.176374782175916e+17
19416.0	7.162810032543058e+17
19417.0	7.147977638412287e+17
19418.0	7.133498397687808e+17
19419.0	7.117847476742824e+17
19420.0	7.101244977272147e+17
19421.0	7.084369581004118e+17
19422.0	7.065392021940905e+17
19423.0	7.046088909389819e+17
19424.0	7.025232518141268e+17
19425.0	7.002849094052522e+17
19426.0	6.980043265802237e+17
19427.0	6.955792532679336e+17
19428.0	6.929593605466793e+17
19429.0	6.900852003089062e+17
19430.0	6.8705092384413e+17
19431.0	6.837885652522323e+17
19432.0	6.803963185026388e+17
19433.0	6.770301560597162e+17
19434.0	6.737697775288319e+17
19435.0	6.703052393633107e+17
19436.0	6.665087625112234e+17
19437.0	6.623367059385002e+17
19438.0	6.5784050642234e+17
19439.0	6.53121304920064e+17
19440.0	6.47828531506927e+17
19441.0	6.420910442195622e+17
19442.0	6.358682073126231e+17
19443.0	6.290453111155369e+17
19444.0	6.216022388375548e+17
19445.0	6.134485395439619e+17
19446.0	6.044656422879231e+17
19447.0	5.945639332478971e+17
19448.0	5.83619222018458e+17
19449.0	5.714997913059328e+17
19450.0	5.580023511646195e+17
19451.0	5.517909105311747e+17
19452.0	5.648642383806462e+17
19453.0	5.774925986004996e+17
19454.0	5.887716229819046e+17
19455.0	5.989458639148374e+17
19456.0	6.08132009872589e+17
19457.0	6.164415029531986e+17
19458.0	6.239775012945919e+17
19459.0	6.308568716978861e+17
19460.0	6.37143437768567e+17
19461.0	6.428330819583997e+17
19462.0	6.481085080098134e+17
19463.0	6.52866111091507e+17
19464.0	6.572217805220521e+17
19465.0	6.612581671589207e+17
19466.0	6.649686111464104e+17
19467.0	6.683598902001661e+17
19468.0	6.713961090471254e+17
19469.0	6.744691458441212e+17
19470.0	6.776115399316819e+17
19471.0	6.806710939986598e+17
19472.0	6.835440248160253e+17
19473.0	6.862038391324672e+17
19474.0	6.886521441353727e+17
19475.0	6.908636687936169e+17
19476.0	6.930069728875859e+17
19477.0	6.950107679293437e+17
19478.0	6.96815889835622e+17
19479.0	6.986222127808511e+17
19480.0	7.002119120879617e+17
19481.0	7.017516267558227e+17
19482.0	7.031067935156904e+17
19483.0	7.044894669406207e+17
19484.0	7.056906918384978e+17
19485.0	7.068782821725523e+17
19486.0	7.080234689320276e+17
19487.0	7.090594079135059e+17
19488.0	7.100438393039529e+17
19489.0	7.11021122761523e+17
19490.0	7.11940320281668e+17
19491.0	7.128549297924778e+17
19492.0	7.137145146485417e+17
19493.0	7.145462943449087e+17
19494.0	7.153522560030036e+17
19495.0	7.161553068141225e+17
19496.0	7.169069677543423e+17
19497.0	7.177642293854208e+17
19498.0	7.187458227699711e+17
19499.0	7.199689359228924e+17
19500.0	7.20953481957649e+17
19501.0	7.220833509791059e+17
19502.0	7.229143608808786e+17
19503.0	7.237813429512874e+17
19504.0	7.24546367363481e+17
19505.0	7.252890898224468e+17
19506.0	7.258833420288e+17
19507.0	7.26620328497425e+17
19508.0	7.270466677549736e+17
19509.0	7.277440289559894e+17
19510.0	7.281908236943357e+17
19511.0	7.284632810684416e+17
19512.0	7.290757498361174e+17
19513.0	7.294770328808105e+17
19514.0	7.29811186369604e+17
19515.0	7.301286556161366e+17
19516.0	7.306105214468096e+17
19517.0	7.30926278718259e+17
19518.0	7.311967463145472e+17
19519.0	7.314556577644543e+17
19520.0	7.31759469797922e+17
19521.0	7.320986701529087e+17
19522.0	7.323285627513514e+17
19523.0	7.32551785287953e+17
19524.0	7.327671289643007e+17
19525.0	7.329743692453204e+17
19526.0	7.332488939918676e+17
19527.0	7.334623974872403e+17
19528.0	7.336419946485076e+17
19529.0	7.338141877447336e+17
19530.0	7.33979206623778e+17
19531.0	7.341366627532799e+17
19532.0	7.342870546961748e+17
19533.0	7.344309669986301e+17
19534.0	7.345749283744425e+17
19535.0	7.347604845232127e+17
19536.0	7.348841210008916e+17
19537.0	7.350046717291178e+17
19538.0	7.351151692698963e+17
19539.0	7.352105723494399e+17
19540.0	7.353285151992489e+17
19541.0	7.354277602612564e+17
19542.0	7.35521309598242e+17
19543.0	7.356099524384083e+17
19544.0	7.35693768892962e+17
19545.0	7.357590858104832e+17
19546.0	7.358229179443881e+17
19547.0	7.359215651782656e+17
19548.0	7.359891751217833e+17
19549.0	7.360491048752468e+17
19550.0	7.361409321708204e+17
19551.0	7.361961127138644e+17
19552.0	7.362435719626751e+17
19553.0	7.362842203608404e+17
19554.0	7.363220993998847e+17
19555.0	7.363584093498025e+17
19556.0	7.363905354814804e+17
19557.0	7.364196006100991e+17
19558.0	7.364459427965609e+17
19559.0	7.366417695375361e+17
19560.0	7.367926155837439e+17
19561.0	7.368094662000637e+17
19562.0	7.36822525305378e+17
19563.0	7.369921001772374e+17
19564.0	7.373602178815316e+17
19565.0	7.373616734448298e+17
19566.0	7.373599449721513e+17
19567.0	7.373569145875112e+17
19568.0	7.375840378268329e+17
19569.0	7.377777317642237e+17
19570.0	7.377646167348563e+17
19571.0	7.377488822228308e+17
19572.0	7.377299756985e+17
19573.0	7.377481615015933e+17
19574.0	7.380445795363498e+17
19575.0	7.380212420094634e+17
19576.0	7.379923319302825e+17
19577.0	7.379607978945194e+17
19578.0	7.379257533661183e+17
19579.0	7.378899727373654e+17
19580.0	7.379894110169769e+17
19581.0	7.381004865328467e+17
19582.0	7.380574222155773e+17
19583.0	7.380119703606612e+17
19584.0	7.379645780809046e+17
19585.0	7.379117734712659e+17
19586.0	7.378599964661076e+17
19587.0	7.37812185874432e+17
19588.0	7.377437053332138e+17
19589.0	7.378846001135615e+17
19590.0	7.378711647791785e+17
19591.0	7.378218006173012e+17
19592.0	7.377608611550548e+17
19593.0	7.376977895882752e+17
19594.0	7.376264422402729e+17
19595.0	7.375694342389757e+17
19596.0	7.374933954221395e+17
19597.0	7.37435425247505e+17
19598.0	7.373588997515944e+17
19599.0	7.372974839562237e+17
19600.0	7.372545461671254e+17
19601.0	7.373218664240468e+17
19602.0	7.372485955682303e+17
19603.0	7.371613903956649e+17
19604.0	7.370975518304936e+17
19605.0	7.370119272114857e+17
19606.0	7.369447797598889e+17
19607.0	7.368659679488684e+17
19608.0	7.367858563230377e+17
19609.0	7.367035041000105e+17
19610.0	7.366234288248148e+17
19611.0	7.365408208890538e+17
19612.0	7.364576685326335e+17
19613.0	7.363734485860351e+17
19614.0	7.36286739739443e+17
19615.0	7.362024203878399e+17
19616.0	7.361148515691177e+17
19617.0	7.360834148412074e+17
19618.0	7.360424734010026e+17
19619.0	7.359482851317075e+17
19620.0	7.358592499843071e+17
19621.0	7.357903625956009e+17
19622.0	7.356987427782653e+17
19623.0	7.356063433796264e+17
19624.0	7.355132284327251e+17
19625.0	7.354194386223101e+17
19626.0	7.353249819175594e+17
19627.0	7.352297668826454e+17
19628.0	7.351318128274089e+17
19629.0	7.350339689425577e+17
19630.0	7.349298554120872e+17
19631.0	7.34742314099234e+17
19632.0	7.347440696950783e+17
19633.0	7.346455092832936e+17
19634.0	7.345473710981117e+17
19635.0	7.34446012805939e+17
19636.0	7.343474416287743e+17
19637.0	7.342307411318099e+17
19638.0	7.341450411551402e+17
19639.0	7.340429485801472e+17
19640.0	7.339385544507391e+17
19641.0	7.338190715923114e+17
19642.0	7.337352013108563e+17
19643.0	7.336313404172969e+17
19644.0	7.335326727711402e+17
19645.0	7.334952843258536e+17
19646.0	7.333993245223594e+17
19647.0	7.332937211751084e+17
19648.0	7.331876715539113e+17
19649.0	7.330810958271827e+17
19650.0	7.32974311084305e+17
19651.0	7.328670662262783e+17
19652.0	7.32759481909248e+17
19653.0	7.326514576097279e+17
19654.0	7.325431879434239e+17
19655.0	7.324343070272169e+17
19656.0	7.32325156696883e+17
19657.0	7.322159661012308e+17
19658.0	7.321060939311786e+17
19659.0	7.319956634992637e+17
19660.0	7.318847398171987e+17
19661.0	7.317734025767594e+17
19662.0	7.316617583132671e+17
19663.0	7.315482882692436e+17
19664.0	7.314372538575529e+17
19665.0	7.313251238936575e+17
19666.0	7.31211830010402e+17
