# Flux units: erg / (cm m2 s)
# Wavelength units: Angstrom
wave	flux
19000.0	4.6563038397289805e+17
19001.0	4.6554334915898016e+17
19002.0	4.6547284975943674e+17
19003.0	4.653921607177555e+17
19004.0	4.6530491199433376e+17
19005.0	4.652273065350484e+17
19006.0	4.6514867577815034e+17
19007.0	4.650696759225002e+17
19008.0	4.6498846503949645e+17
19009.0	4.6490190348288e+17
19010.0	4.64821552292386e+17
19011.0	4.647399269422421e+17
19012.0	4.646491382961493e+17
19013.0	4.645921418990932e+17
19014.0	4.645008648262996e+17
19015.0	4.6442069112477e+17
19016.0	4.6434930616784205e+17
19017.0	4.642727966102868e+17
19018.0	4.6418962838541645e+17
19019.0	4.641127067374932e+17
19020.0	4.640303521376938e+17
19021.0	4.6395200938967034e+17
19022.0	4.638741303918592e+17
19023.0	4.6378404324311034e+17
19024.0	4.637050013745152e+17
19025.0	4.636295314451114e+17
19026.0	4.6355054011787936e+17
19027.0	4.6347158003821216e+17
19028.0	4.6338595779597645e+17
19029.0	4.6330312336779936e+17
19030.0	4.632225203093502e+17
19031.0	4.6314742514100896e+17
19032.0	4.630685616002389e+17
19033.0	4.629691031879679e+17
19034.0	4.6288943014652576e+17
19035.0	4.627816660336639e+17
19036.0	4.626491897107796e+17
19037.0	4.626253109089621e+17
19038.0	4.6257069680667296e+17
19039.0	4.625025111949311e+17
19040.0	4.624258407159123e+17
19041.0	4.6234889893533005e+17
19042.0	4.620181870826833e+17
19043.0	4.621928323787434e+17
19044.0	4.621164702509738e+17
19045.0	4.6203222283168416e+17
19046.0	4.6194892765921274e+17
19047.0	4.618684196716544e+17
19048.0	4.6175736289034234e+17
19049.0	4.61188216249821e+17
19050.0	4.616236359658153e+17
19051.0	4.615369030019755e+17
19052.0	4.614623177211904e+17
19053.0	4.6139157540154016e+17
19054.0	4.6131139065501005e+17
19055.0	4.6114307791912954e+17
19056.0	4.611379809310036e+17
19057.0	4.610827230030506e+17
19058.0	4.6073864704928384e+17
19059.0	4.608154214771369e+17
19060.0	4.608449644767913e+17
19061.0	4.6076309816388256e+17
19062.0	4.6067920236707834e+17
19063.0	4.606071332492628e+17
19064.0	4.6052606797851296e+17
19065.0	4.604384869963093e+17
19066.0	4.602706542985217e+17
19067.0	4.602782758382249e+17
19068.0	4.6021261918207994e+17
19069.0	4.6013282247857485e+17
19070.0	4.600447478267902e+17
19071.0	4.5996889062331725e+17
19072.0	4.5979606467652243e+17
19073.0	4.5981818075217914e+17
19074.0	4.5972883124169376e+17
19075.0	4.5965713471788365e+17
19076.0	4.595756534420821e+17
19077.0	4.5949675096418976e+17
19078.0	4.594162502467583e+17
19079.0	4.59336425860847e+17
19080.0	4.59260011164467e+17
19081.0	4.591782046902955e+17
19082.0	4.591057401894229e+17
19083.0	4.590160601677824e+17
19084.0	4.589276875106985e+17
19085.0	4.5886354597696845e+17
19086.0	4.5862039210775885e+17
19087.0	4.5849162340980026e+17
19088.0	4.5849025858327866e+17
19089.0	4.5853594364149766e+17
19090.0	4.584699408853674e+17
19091.0	4.583760325858646e+17
19092.0	4.5810484979084e+17
19093.0	4.5823288860999674e+17
19094.0	4.5815556263116794e+17
19095.0	4.5807200811089914e+17
19096.0	4.579979725635583e+17
19097.0	4.579182657579691e+17
19098.0	4.577366988816383e+17
19099.0	4.576324143633749e+17
19100.0	4.576811857302868e+17
19101.0	4.576002594308096e+17
19102.0	4.575214294444714e+17
19103.0	4.574412607062014e+17
19104.0	4.573696911299925e+17
19105.0	4.570554162653874e+17
19106.0	4.5720874904453114e+17
19107.0	4.5707408713973734e+17
19108.0	4.5696025058344966e+17
19109.0	4.569709377399466e+17
19110.0	4.568914503663615e+17
19111.0	4.5674171888653645e+17
19112.0	4.566527298764798e+17
19113.0	4.56656241557504e+17
19114.0	4.565268493762559e+17
19115.0	4.564844989994325e+17
19116.0	4.5640153657507834e+17
19117.0	4.563046832450217e+17
19118.0	4.561039649669119e+17
19119.0	4.555907804080807e+17
19120.0	4.5600102409393485e+17
19121.0	4.559953596863829e+17
19122.0	4.559395146257749e+17
19123.0	4.5586762970781005e+17
19124.0	4.557847238366548e+17
19125.0	4.5570576305793696e+17
19126.0	4.5561824191447034e+17
19127.0	4.555274394970793e+17
19128.0	4.554584509557418e+17
19129.0	4.553893917403818e+17
19130.0	4.5532180451601056e+17
19131.0	4.552460678288725e+17
19132.0	4.5516644448993274e+17
19133.0	4.550898060274347e+17
19134.0	4.5501328493554336e+17
19135.0	4.5493760731818656e+17
19136.0	4.548559656801621e+17
19137.0	4.547743934578687e+17
19138.0	4.547021973924523e+17
19139.0	4.546266077855743e+17
19140.0	4.5454953730976403e+17
19141.0	4.5446991355139405e+17
19142.0	4.5438826960650234e+17
19143.0	4.54311213601041e+17
19144.0	4.542292236260693e+17
19145.0	4.54155091120401e+17
19146.0	4.540255274620245e+17
19147.0	4.539987877953536e+17
19148.0	4.5383939340806835e+17
19149.0	4.5374078364330656e+17
19150.0	4.5376897356049056e+17
19151.0	4.5368759343732045e+17
19152.0	4.536125628612607e+17
19153.0	4.5335166694632064e+17
19154.0	4.534411462705152e+17
19155.0	4.5337884072345594e+17
19156.0	4.5329910658498554e+17
19157.0	4.5316451339687264e+17
19158.0	4.530159329738754e+17
19159.0	4.5305928662821536e+17
19160.0	4.529834854187008e+17
19161.0	4.5290801234356896e+17
19162.0	4.528298727396692e+17
19163.0	4.5275301491507194e+17
19164.0	4.526746019124565e+17
19165.0	4.523982831921831e+17
19166.0	4.5251357796816205e+17
19167.0	4.524438395551743e+17
19168.0	4.5236417637034656e+17
19169.0	4.5228749281908045e+17
19170.0	4.522114997900628e+17
19171.0	4.521288285902164e+17
19172.0	4.5205452027330554e+17
19173.0	4.5198012093999776e+17
19174.0	4.51899667128866e+17
19175.0	4.5182042938627405e+17
19176.0	4.517462399079766e+17
19177.0	4.516544257545557e+17
19178.0	4.5158875819322016e+17
19179.0	4.5151192728207354e+17
19180.0	4.5143196322583885e+17
19181.0	4.513539219084628e+17
19182.0	4.5127149139176096e+17
19183.0	4.512000172359679e+17
19184.0	4.5112475667223885e+17
19185.0	4.5104429489192954e+17
19186.0	4.5096816666651296e+17
19187.0	4.5088686343891616e+17
19188.0	4.5081491553648634e+17
19189.0	4.5073630624044365e+17
19190.0	4.5065792266786125e+17
19191.0	4.5057725305978874e+17
19192.0	4.5050051183684256e+17
19193.0	4.5039582830045856e+17
19194.0	4.503032159709866e+17
19195.0	4.502630553004713e+17
19196.0	4.501799938905429e+17
19197.0	4.500956612569769e+17
19198.0	4.500101166792704e+17
19199.0	4.4992901694532256e+17
19200.0	4.498515052287316e+17
19201.0	4.4978178128609274e+17
19202.0	4.497123612207785e+17
19203.0	4.496382774389419e+17
19204.0	4.495691246906025e+17
19205.0	4.494902117968555e+17
19206.0	4.494164066566144e+17
19207.0	4.4932348870219085e+17
19208.0	4.4926112932823034e+17
19209.0	4.49187964588305e+17
19210.0	4.4910973942060365e+17
19211.0	4.490378163344723e+17
19212.0	4.4896064051172685e+17
19213.0	4.488770966869334e+17
19214.0	4.488059114487808e+17
19215.0	4.4872994197777056e+17
19216.0	4.486523308561749e+17
19217.0	4.485752401778004e+17
19218.0	4.4849039332256416e+17
19219.0	4.48404004221747e+17
19220.0	4.483431014596607e+17
19221.0	4.4826664628824736e+17
19222.0	4.4818685643543885e+17
19223.0	4.481143571917481e+17
19224.0	4.4803459753792845e+17
19225.0	4.4796557698007034e+17
19226.0	4.4789036737713485e+17
19227.0	4.4781249222410234e+17
19228.0	4.477389292350121e+17
19229.0	4.476521348246185e+17
19230.0	4.4758404519253325e+17
19231.0	4.4751141019320314e+17
19232.0	4.474352780531029e+17
19233.0	4.4735269682107725e+17
19234.0	4.472774069671253e+17
19235.0	4.4720005729047885e+17
19236.0	4.4712699069726714e+17
19237.0	4.470451085159081e+17
19238.0	4.469672138593621e+17
19239.0	4.4689743434219514e+17
19240.0	4.46816369840401e+17
19241.0	4.46744426971136e+17
19242.0	4.4666052446344525e+17
19243.0	4.4658059396164256e+17
19244.0	4.465136971197098e+17
19245.0	4.4643923836709536e+17
19246.0	4.463645516540587e+17
19247.0	4.462881472337236e+17
19248.0	4.462103817617407e+17
19249.0	4.46124812996881e+17
19250.0	4.460170850948438e+17
19251.0	4.459391254964904e+17
19252.0	4.458810328481791e+17
19253.0	4.458259022872576e+17
19254.0	4.45752799203601e+17
19255.0	4.4565874284516685e+17
19256.0	4.4559481095673165e+17
19257.0	4.4552087928832e+17
19258.0	4.454426593634985e+17
19259.0	4.453638495098198e+17
19260.0	4.4528359227173536e+17
19261.0	4.4521355655249914e+17
19262.0	4.4512924349235194e+17
19263.0	4.450484243573418e+17
19264.0	4.4497110809531725e+17
19265.0	4.4489238401515514e+17
19266.0	4.4481758377629005e+17
19267.0	4.4475534778477216e+17
19268.0	4.446769835059882e+17
19269.0	4.4460308518229325e+17
19270.0	4.445254197444608e+17
19271.0	4.4444581807609165e+17
19272.0	4.4437669657531725e+17
19273.0	4.4429156478702925e+17
19274.0	4.441949967395497e+17
19275.0	4.4415304076711245e+17
19276.0	4.440761454034944e+17
19277.0	4.440017589327189e+17
19278.0	4.439210266198015e+17
19279.0	4.4384723441199763e+17
19280.0	4.4377317118225056e+17
19281.0	4.436960510738432e+17
19282.0	4.436209517811029e+17
19283.0	4.4354217128755194e+17
19284.0	4.434655754671445e+17
19285.0	4.4338552710539936e+17
19286.0	4.433004900384766e+17
19287.0	4.4321214072968525e+17
19288.0	4.430954958072489e+17
19289.0	4.4301141511154336e+17
19290.0	4.4298598490658125e+17
19291.0	4.429052964241408e+17
19292.0	4.428568143942997e+17
19293.0	4.427836811116543e+17
19294.0	4.4270996775676576e+17
19295.0	4.4263386511660365e+17
19296.0	4.424440899873454e+17
19297.0	4.4246503878819846e+17
19298.0	4.4240429359213216e+17
19299.0	4.422070688896341e+17
19300.0	4.4225876837007354e+17
19301.0	4.4218188901471565e+17
19302.0	4.421061721107114e+17
19303.0	4.420237835370495e+17
19304.0	4.4195299480043526e+17
19305.0	4.418743283220479e+17
19306.0	4.4180052891402234e+17
19307.0	4.4171953774264314e+17
19308.0	4.4164311647518714e+17
19309.0	4.415634960023551e+17
19310.0	4.4148062046999885e+17
19311.0	4.4139260516761594e+17
19312.0	4.412904020028075e+17
19313.0	4.411118985063081e+17
19314.0	4.3987148119299424e+17
19315.0	4.398397698080769e+17
19316.0	4.4074370628321306e+17
19317.0	4.4091354693413536e+17
19318.0	4.4087122060465485e+17
19319.0	4.4080337738792966e+17
19320.0	4.406975903301631e+17
19321.0	4.4056507465072634e+17
19322.0	4.405945631244287e+17
19323.0	4.405222796077738e+17
19324.0	4.4044686714033485e+17
19325.0	4.4037454314864634e+17
19326.0	4.4029668777874765e+17
19327.0	4.4022510960421536e+17
19328.0	4.399366051725314e+17
19329.0	4.4007492192392525e+17
19330.0	4.4000114509523616e+17
19331.0	4.399229534120618e+17
19332.0	4.398495100305407e+17
19333.0	4.3977621198165325e+17
19334.0	4.3968933375508474e+17
19335.0	4.391953185636357e+17
19336.0	4.3954414519582714e+17
19337.0	4.394729127717546e+17
19338.0	4.393800112450218e+17
19339.0	4.39315639374097e+17
19340.0	4.392253739674282e+17
19341.0	4.390005140444505e+17
19342.0	4.3904086688399366e+17
19343.0	4.3900668799003296e+17
19344.0	4.387641798339245e+17
19345.0	4.3875797289315e+17
19346.0	4.3874666700690765e+17
19347.0	4.385029764065962e+17
19348.0	4.386372750147583e+17
19349.0	4.385650394529791e+17
19350.0	4.3841375838754125e+17
19351.0	4.384177796065962e+17
19352.0	4.381333828665341e+17
19353.0	4.382744373100544e+17
19354.0	4.382029172965375e+17
19355.0	4.38120117960704e+17
19356.0	4.380520114814975e+17
19357.0	4.3797893538119674e+17
19358.0	4.3790364475828896e+17
19359.0	4.377836952835411e+17
19360.0	4.375848366899199e+17
19361.0	4.376791455454548e+17
19362.0	4.3760480737908045e+17
19363.0	4.3753056631084365e+17
19364.0	4.374574310708565e+17
19365.0	4.3738053871315616e+17
19366.0	4.373003695554559e+17
19367.0	4.3723037969394336e+17
19368.0	4.3715783025841485e+17
19369.0	4.370838641967104e+17
19370.0	4.3700990093120845e+17
19371.0	4.369264358894249e+17
19372.0	4.3685675081400314e+17
19373.0	4.3677924035570336e+17
19374.0	4.367047861469183e+17
19375.0	4.3663571616617805e+17
19376.0	4.3656142951983776e+17
19377.0	4.3648676496670714e+17
19378.0	4.3641262008784205e+17
19379.0	4.3633761656504314e+17
19380.0	4.362545341136895e+17
19381.0	4.3618044970270714e+17
19382.0	4.3610396936546976e+17
19383.0	4.3603165292352845e+17
19384.0	4.359512314085375e+17
19385.0	4.358836768997376e+17
19386.0	4.358096020657493e+17
19387.0	4.357316865075882e+17
19388.0	4.3565281996090016e+17
19389.0	4.355721416146944e+17
19390.0	4.354762448655699e+17
19391.0	4.3534216841570976e+17
19392.0	4.353023875394218e+17
19393.0	4.3526355394669216e+17
19394.0	4.3520205811002016e+17
19395.0	4.350709950578689e+17
19396.0	4.350444205069653e+17
19397.0	4.3498059431499085e+17
19398.0	4.3484922689617914e+17
19399.0	4.34748955627793e+17
19400.0	4.3470245100257274e+17
19401.0	4.34679705571601e+17
19402.0	4.3461047362082125e+17
19403.0	4.3453515517569696e+17
19404.0	4.34456567550225e+17
19405.0	4.34378276671761e+17
19406.0	4.343055191288489e+17
19407.0	4.3415275097292774e+17
19408.0	4.341461100614996e+17
19409.0	4.340718435478186e+17
19410.0	4.340015823148372e+17
19411.0	4.3392715634769914e+17
19412.0	4.338508099485696e+17
19413.0	4.337003165035178e+17
19414.0	4.3369971615880525e+17
19415.0	4.3361992371950925e+17
19416.0	4.335299542209876e+17
19417.0	4.334664650413397e+17
19418.0	4.3338744749970765e+17
19419.0	4.333075042751829e+17
19420.0	4.3322694343939405e+17
19421.0	4.331470479600297e+17
19422.0	4.330591977035093e+17
19423.0	4.3298329072762874e+17
19424.0	4.3290003435246925e+17
19425.0	4.3281046058653005e+17
19426.0	4.32725948506658e+17
19427.0	4.3263747686399994e+17
19428.0	4.325396612907006e+17
19429.0	4.324497276534783e+17
19430.0	4.323444763481429e+17
19431.0	4.322371127214079e+17
19432.0	4.321401432091306e+17
19433.0	4.320290231637332e+17
19434.0	4.319136541485738e+17
19435.0	4.31777260765184e+17
19436.0	4.3162245208036685e+17
19437.0	4.3143837015954765e+17
19438.0	4.311584318248277e+17
19439.0	4.3105038131090765e+17
19440.0	4.309159326864725e+17
19441.0	4.307012877112661e+17
19442.0	4.304231693549568e+17
19443.0	4.3006671894609914e+17
19444.0	4.2963804954296314e+17
19445.0	4.2906014785208314e+17
19446.0	4.2831632040372896e+17
19447.0	4.272835683243348e+17
19448.0	4.257710608482304e+17
19449.0	4.233749956220244e+17
19450.0	4.185402257353384e+17
19451.0	4.143225163306326e+17
19452.0	4.213675636293632e+17
19453.0	4.244486281145003e+17
19454.0	4.2613814046228454e+17
19455.0	4.2718713638202016e+17
19456.0	4.2783958728267085e+17
19457.0	4.2802077366572365e+17
19458.0	4.25008011393981e+17
19459.0	4.2756420962440576e+17
19460.0	4.2898569266462714e+17
19461.0	4.292633982315178e+17
19462.0	4.2939537333507405e+17
19463.0	4.294661602541568e+17
19464.0	4.294973835618986e+17
19465.0	4.2951128753984845e+17
19466.0	4.295081406234623e+17
19467.0	4.294943160576681e+17
19468.0	4.29467994563106e+17
19469.0	4.2928378681316666e+17
19470.0	4.2939237405818874e+17
19471.0	4.293488993282729e+17
19472.0	4.292981693612031e+17
19473.0	4.2924571022240416e+17
19474.0	4.2902878718088506e+17
19475.0	4.29103771759411e+17
19476.0	4.290656597267796e+17
19477.0	4.290087276423851e+17
19478.0	4.289543566699178e+17
19479.0	4.2874261639004134e+17
19480.0	4.288260133442902e+17
19481.0	4.28752066436574e+17
19482.0	4.2869126727379616e+17
19483.0	4.286277657209514e+17
19484.0	4.285557357499732e+17
19485.0	4.2849022540513274e+17
19486.0	4.2826043067378394e+17
19487.0	4.2834491625963514e+17
19488.0	4.282735803061589e+17
19489.0	4.28192877842705e+17
19490.0	4.2811456291689805e+17
19491.0	4.280539629835606e+17
19492.0	4.279947039692116e+17
19493.0	4.279236548362238e+17
19494.0	4.2785106226926925e+17
19495.0	4.277776551684778e+17
19496.0	4.276848327742806e+17
19497.0	4.276057018466302e+17
19498.0	4.2747724527479456e+17
19499.0	4.2735949088904525e+17
19500.0	4.273809021119146e+17
19501.0	4.2734300671508474e+17
19502.0	4.272808796356606e+17
19503.0	4.2721510344185165e+17
19504.0	4.2714268682594976e+17
19505.0	4.2706645542065485e+17
19506.0	4.2699862415769594e+17
19507.0	4.26919345590545e+17
19508.0	4.268312911413247e+17
19509.0	4.267184116553044e+17
19510.0	4.264344142129833e+17
19511.0	4.250970015225172e+17
19512.0	4.261917206686378e+17
19513.0	4.263388966289407e+17
19514.0	4.263170847102293e+17
19515.0	4.2631665039005005e+17
19516.0	4.262433436030293e+17
19517.0	4.262050486987434e+17
19518.0	4.260972968192682e+17
19519.0	4.260284114578089e+17
19520.0	4.258531975539369e+17
19521.0	4.259395187769344e+17
19522.0	4.2584109705680205e+17
19523.0	4.2576237828942515e+17
19524.0	4.256086945868461e+17
19525.0	4.2565229060205216e+17
19526.0	4.255797875135829e+17
19527.0	4.255106104382804e+17
19528.0	4.254256571176276e+17
19529.0	4.2534904438019405e+17
19530.0	4.252962218748587e+17
19531.0	4.2522365279600634e+17
19532.0	4.2515123806754125e+17
19533.0	4.25076240556578e+17
19534.0	4.2500910128387405e+17
19535.0	4.2493626467833165e+17
19536.0	4.248579679278421e+17
19537.0	4.2478823154210125e+17
19538.0	4.245712068586156e+17
19539.0	4.2464179091319456e+17
19540.0	4.2457217721084576e+17
19541.0	4.244685541343232e+17
19542.0	4.2441522341915296e+17
19543.0	4.242056592840021e+17
19544.0	4.242699146231808e+17
19545.0	4.241980212467029e+17
19546.0	4.2412807402728096e+17
19547.0	4.240688839393279e+17
19548.0	4.2400166518456314e+17
19549.0	4.239215999057919e+17
19550.0	4.2385607432164685e+17
19551.0	4.23792975352081e+17
19552.0	4.237171944849406e+17
19553.0	4.236493999920468e+17
19554.0	4.235738002489342e+17
19555.0	4.2348289653910195e+17
19556.0	4.234204479662762e+17
19557.0	4.233618609493333e+17
19558.0	4.232919400841215e+17
19559.0	4.232201716279978e+17
19560.0	4.230928085811199e+17
19561.0	4.2307560892880205e+17
19562.0	4.229562445594622e+17
19563.0	4.229366296171861e+17
19564.0	4.2285591918455456e+17
19565.0	4.2278984778164896e+17
19566.0	4.2271435757977594e+17
19567.0	4.2265007686505805e+17
19568.0	4.2257677210528416e+17
19569.0	4.225066314585429e+17
19570.0	4.2243572660961274e+17
19571.0	4.2236295131081376e+17
19572.0	4.222903067344895e+17
19573.0	4.2220463569851725e+17
19574.0	4.2213614446182374e+17
19575.0	4.2208014498092365e+17
19576.0	4.2200028787944096e+17
19577.0	4.2191041352171526e+17
19578.0	4.2186500032430074e+17
19579.0	4.217933347684351e+17
19580.0	4.217192093231786e+17
19581.0	4.2164574378175136e+17
19582.0	4.215806783826602e+17
19583.0	4.215113942127957e+17
19584.0	4.214356534012587e+17
19585.0	4.2135739076444154e+17
19586.0	4.2128427174242976e+17
19587.0	4.212217501188095e+17
19588.0	4.211452243432789e+17
19589.0	4.210766992725333e+17
19590.0	4.2100256061521914e+17
19591.0	4.209370519481001e+17
19592.0	4.2086779497130656e+17
19593.0	4.207827246994772e+17
19594.0	4.206929196875775e+17
19595.0	4.206536793172649e+17
19596.0	4.205783208864425e+17
19597.0	4.2050661758184096e+17
19598.0	4.204086292032171e+17
19599.0	4.203615075259732e+17
19600.0	4.2029297623367674e+17
19601.0	4.202222978072575e+17
19602.0	4.201510307102719e+17
19603.0	4.200778466066431e+17
19604.0	4.2000901647018656e+17
19605.0	4.199259294050987e+17
19606.0	4.1986863017929376e+17
19607.0	4.198034294439934e+17
19608.0	4.19724218405137e+17
19609.0	4.1965892259894605e+17
19610.0	4.195207799111682e+17
19611.0	4.194104804813482e+17
19612.0	4.1944947394696525e+17
19613.0	4.193711494441641e+17
19614.0	4.19301200756736e+17
19615.0	4.1923357550400845e+17
19616.0	4.190905987410602e+17
19617.0	4.1897445315051514e+17
19618.0	4.189899355149653e+17
19619.0	4.189075009437696e+17
19620.0	4.188219133744467e+17
19621.0	4.1863720915872416e+17
19622.0	4.187340401191593e+17
19623.0	4.1866059533953696e+17
19624.0	4.1857638378154656e+17
19625.0	4.185268384956415e+17
19626.0	4.184509584332117e+17
19627.0	4.183831366773418e+17
19628.0	4.183084847770282e+17
19629.0	4.178657186676733e+17
19630.0	4.1815995195938125e+17
19631.0	4.1807364506692256e+17
19632.0	4.1802244456884896e+17
19633.0	4.179537454344874e+17
19634.0	4.1788901229417805e+17
19635.0	4.178025694363646e+17
19636.0	4.175735527484071e+17
19637.0	4.174843623418537e+17
19638.0	4.175958667952127e+17
19639.0	4.17530599580194e+17
19640.0	4.1743110971064314e+17
19641.0	4.1734244128522234e+17
19642.0	4.173086544887808e+17
19643.0	4.172459488750251e+17
19644.0	4.1718488400308896e+17
19645.0	4.171192821525162e+17
19646.0	4.1686419360098963e+17
19647.0	4.1697055905327776e+17
19648.0	4.169126713666217e+17
19649.0	4.1684029026249376e+17
19650.0	4.167716657168383e+17
19651.0	4.167019974186325e+17
19652.0	4.1663320370271565e+17
19653.0	4.1656063238690125e+17
19654.0	4.164935323309398e+17
