# Flux units: erg / (cm m2 s)
# Wavelength units: Angstrom
wave	flux
19000.0	6.987842529350995e+17
19001.0	6.986534060993193e+17
19002.0	6.985329179361279e+17
19003.0	6.984043609806164e+17
19004.0	6.982758825284947e+17
19005.0	6.981475694018559e+17
19006.0	6.980190216039081e+17
19007.0	6.978902664675327e+17
19008.0	6.977578797629439e+17
19009.0	6.976227776659456e+17
19010.0	6.974745384495785e+17
19011.0	6.973733455527935e+17
19012.0	6.972388733703508e+17
19013.0	6.971180306486612e+17
19014.0	6.969850336728404e+17
19015.0	6.968579672331604e+17
19016.0	6.967295591754409e+17
19017.0	6.966039401201663e+17
19018.0	6.964743763219796e+17
19019.0	6.963460568339798e+17
19020.0	6.962162227828052e+17
19021.0	6.960890741347668e+17
19022.0	6.95960530391313e+17
19023.0	6.958283127870804e+17
19024.0	6.957013940568063e+17
19025.0	6.955739880183124e+17
19026.0	6.954439973797887e+17
19027.0	6.95314035052817e+17
19028.0	6.951874752151551e+17
19029.0	6.950585095247188e+17
19030.0	6.949310294567594e+17
19031.0	6.948021886167721e+17
19032.0	6.946732747259903e+17
19033.0	6.945370841371987e+17
19034.0	6.944134933075284e+17
19035.0	6.942763940926804e+17
19036.0	6.939451753583955e+17
19037.0	6.940225301381119e+17
19038.0	6.93897492832802e+17
19039.0	6.937713383746217e+17
19040.0	6.936427517094569e+17
19041.0	6.935133546348543e+17
19042.0	6.933770250048852e+17
19043.0	6.932564198206121e+17
19044.0	6.931266305785855e+17
19045.0	6.929985500960083e+17
19046.0	6.928663213069652e+17
19047.0	6.92737743659554e+17
19048.0	6.925989879043411e+17
19049.0	6.924755592544255e+17
19050.0	6.923499573957972e+17
19051.0	6.921899263830697e+17
19052.0	6.920854954835965e+17
19053.0	6.919673925511849e+17
19054.0	6.918391167538516e+17
19055.0	6.916902741868543e+17
19056.0	6.915792889883306e+17
19057.0	6.914522169562452e+17
19058.0	6.9132223002269e+17
19059.0	6.911949475064489e+17
19060.0	6.910651576352767e+17
19061.0	6.909376273754793e+17
19062.0	6.908085010431999e+17
19063.0	6.906795678586195e+17
19064.0	6.905430669612372e+17
19065.0	6.904082925092861e+17
19066.0	6.902885974190762e+17
19067.0	6.901648983763625e+17
19068.0	6.900361667280895e+17
19069.0	6.899074375963987e+17
19070.0	6.897769716034217e+17
19071.0	6.896499485048831e+17
19072.0	6.895212128720212e+17
19073.0	6.893922276780713e+17
19074.0	6.89263781871616e+17
19075.0	6.891350208632148e+17
19076.0	6.890051378085887e+17
19077.0	6.888762551653716e+17
19078.0	6.887465743461033e+17
19079.0	6.886200821066409e+17
19080.0	6.884903281666729e+17
19081.0	6.883593301961385e+17
19082.0	6.882315763100329e+17
19083.0	6.880963135012863e+17
19084.0	6.8795805218461e+17
19085.0	6.87847834264098e+17
19086.0	6.876885153742847e+17
19087.0	6.875862128044714e+17
19088.0	6.874546594381823e+17
19089.0	6.873166913732607e+17
19090.0	6.872016581820415e+17
19091.0	6.870740861889193e+17
19092.0	6.869422528528383e+17
19093.0	6.868189261944148e+17
19094.0	6.86690507231505e+17
19095.0	6.865619737640959e+17
19096.0	6.864325116777812e+17
19097.0	6.863045912079017e+17
19098.0	6.861760048922623e+17
19099.0	6.860474003314004e+17
19100.0	6.859188142254761e+17
19101.0	6.857900913153364e+17
19102.0	6.856554496131071e+17
19103.0	6.855336733791572e+17
19104.0	6.854052100265299e+17
19105.0	6.852756886607187e+17
19106.0	6.851473711999657e+17
19107.0	6.850182035537919e+17
19108.0	6.848895889266004e+17
19109.0	6.847503852896256e+17
19110.0	6.84630738084386e+17
19111.0	6.845052029151913e+17
19112.0	6.843771009018537e+17
19113.0	6.842490770423807e+17
19114.0	6.841204831769939e+17
19115.0	6.839887215635113e+17
19116.0	6.838616898666495e+17
19117.0	6.837331771610451e+17
19118.0	6.835963645569706e+17
19119.0	6.831698088733349e+17
19120.0	6.833447998499497e+17
19121.0	6.8321983608477e+17
19122.0	6.830934124920831e+17
19123.0	6.829651442444969e+17
19124.0	6.828352017705642e+17
19125.0	6.827074988452521e+17
19126.0	6.825741516450473e+17
19127.0	6.823356919010644e+17
19128.0	6.823156517262676e+17
19129.0	6.821874716988755e+17
19130.0	6.820656430361257e+17
19131.0	6.819386922893311e+17
19132.0	6.818102687126868e+17
19133.0	6.81677872431104e+17
19134.0	6.815535624880127e+17
19135.0	6.814256085336063e+17
19136.0	6.812972759034538e+17
19137.0	6.811596229006676e+17
19138.0	6.810396874768383e+17
19139.0	6.809130797542058e+17
19140.0	6.807851515947689e+17
19141.0	6.806569847794345e+17
19142.0	6.805267728913748e+17
19143.0	6.803972620812285e+17
19144.0	6.802689692969642e+17
19145.0	6.801441438739113e+17
19146.0	6.799686507692032e+17
19147.0	6.798823988221267e+17
19148.0	6.797592527284906e+17
19149.0	6.796311386914815e+17
19150.0	6.795030800192852e+17
19151.0	6.793751756974762e+17
19152.0	6.792468701205844e+17
19153.0	6.791161073106943e+17
19154.0	6.789827812917245e+17
19155.0	6.788617069046442e+17
19156.0	6.787337632961876e+17
19157.0	6.786039493077674e+17
19158.0	6.784704877428736e+17
19159.0	6.783473296954707e+17
19160.0	6.782202566847146e+17
19161.0	6.780916556890111e+17
19162.0	6.779457135531348e+17
19163.0	6.778321568268287e+17
19164.0	6.777086999352659e+17
19165.0	6.775799697549993e+17
19166.0	6.774450677263017e+17
19167.0	6.773197614262953e+17
19168.0	6.771923957230249e+17
19169.0	6.770644426773843e+17
19170.0	6.769368716629332e+17
19171.0	6.768082067739988e+17
19172.0	6.766807492154708e+17
19173.0	6.765527640134996e+17
19174.0	6.764211683546452e+17
19175.0	6.762965350307156e+17
19176.0	6.76168694112802e+17
19177.0	6.760286970533203e+17
19178.0	6.759115626556074e+17
19179.0	6.757829505449983e+17
19180.0	6.756550934091091e+17
19181.0	6.755201995593044e+17
19182.0	6.75398320075571e+17
19183.0	6.752718528621225e+17
19184.0	6.751434587155113e+17
19185.0	6.750152925293225e+17
19186.0	6.748873224268458e+17
19187.0	6.747535358033919e+17
19188.0	6.74630807462434e+17
19189.0	6.745029624900266e+17
19190.0	6.743745932296191e+17
19191.0	6.74243808399633e+17
19192.0	6.741180345046356e+17
19193.0	6.739894950952959e+17
19194.0	6.738597942132735e+17
19195.0	6.737317114937341e+17
19196.0	6.736007574934868e+17
19197.0	6.734698327135572e+17
19198.0	6.733281944229203e+17
19199.0	6.73080213189427e+17
19200.0	6.729738445914111e+17
19201.0	6.72945477464883e+17
19202.0	6.728258534681257e+17
19203.0	6.726954733185704e+17
19204.0	6.725669785086634e+17
19205.0	6.724396885125801e+17
19206.0	6.723120641605631e+17
19207.0	6.72174804443682e+17
19208.0	6.720425498596692e+17
19209.0	6.71927073120802e+17
19210.0	6.717992175228243e+17
19211.0	6.716715325631146e+17
19212.0	6.715428952866815e+17
19213.0	6.71406922801698e+17
19214.0	6.712784931433129e+17
19215.0	6.711563610226687e+17
19216.0	6.710281148650835e+17
19217.0	6.708968805455188e+17
19218.0	6.707201598379347e+17
19219.0	6.706258190357844e+17
19220.0	6.705108270186495e+17
19221.0	6.703663613476863e+17
19222.0	6.702528100040704e+17
19223.0	6.701257857870505e+17
19224.0	6.69994525462801e+17
19225.0	6.698611258337962e+17
19226.0	6.697391895871487e+17
19227.0	6.696104285787476e+17
19228.0	6.694838276369065e+17
19229.0	6.693547142370644e+17
19230.0	6.692255175802879e+17
19231.0	6.69095462768913e+17
19232.0	6.689667471289001e+17
19233.0	6.688327379976191e+17
19234.0	6.687076627338579e+17
19235.0	6.685771991875583e+17
19236.0	6.684502343898451e+17
19237.0	6.683199353301673e+17
19238.0	6.681846564432553e+17
19239.0	6.680621312464212e+17
19240.0	6.679321408176127e+17
19241.0	6.678010759479295e+17
19242.0	6.676720393038505e+17
19243.0	6.675303836767572e+17
19244.0	6.674139741945855e+17
19245.0	6.67283484713506e+17
19246.0	6.671403338869417e+17
19247.0	6.670112008437759e+17
19248.0	6.668813628080127e+17
19249.0	6.667511233773565e+17
19250.0	6.666194133538132e+17
19251.0	6.664832432472061e+17
19252.0	6.663362902141609e+17
19253.0	6.662281381281792e+17
19254.0	6.66099413819938e+17
19255.0	6.65953078677777e+17
19256.0	6.658365226046804e+17
19257.0	6.657074356289535e+17
19258.0	6.655765128063657e+17
19259.0	6.654393880062633e+17
19260.0	6.653093317967871e+17
19261.0	6.651821073716564e+17
19262.0	6.65046919221521e+17
19263.0	6.64913029767714e+17
19264.0	6.647527428325375e+17
19265.0	6.646427453227008e+17
19266.0	6.645115978252287e+17
19267.0	6.643939316596735e+17
19268.0	6.642621370509993e+17
19269.0	6.64125002953523e+17
19270.0	6.639778987857235e+17
19271.0	6.638256886819498e+17
19272.0	6.637116236059988e+17
19273.0	6.635502488780797e+17
19274.0	6.634105312291497e+17
19275.0	6.633166120943615e+17
19276.0	6.63182527046178e+17
19277.0	6.630498114382506e+17
19278.0	6.629167856615423e+17
19279.0	6.627814628742484e+17
19280.0	6.626449601593343e+17
19281.0	6.625148029370367e+17
19282.0	6.623823103262719e+17
19283.0	6.62246814454033e+17
19284.0	6.621098045079551e+17
19285.0	6.619543429797204e+17
19286.0	6.618079326896127e+17
19287.0	6.616754407079933e+17
19288.0	6.61472955020083e+17
19289.0	6.612697803478354e+17
19290.0	6.612694941564927e+17
19291.0	6.61115167956446e+17
19292.0	6.609999604918953e+17
19293.0	6.608636428855978e+17
19294.0	6.60726655029521e+17
19295.0	6.605909718117034e+17
19296.0	6.604536008758612e+17
19297.0	6.603157985558527e+17
19298.0	6.601659262173183e+17
19299.0	6.600255521598121e+17
19300.0	6.598878882518355e+17
19301.0	6.597494177791999e+17
19302.0	6.596098929983487e+17
19303.0	6.594665537077247e+17
19304.0	6.593309442397524e+17
19305.0	6.591916998481236e+17
19306.0	6.590523254330708e+17
19307.0	6.589088752730111e+17
19308.0	6.587693771259903e+17
19309.0	6.586254258864127e+17
19310.0	6.584809579784874e+17
19311.0	6.583435887902719e+17
19312.0	6.582039798437203e+17
19313.0	6.580616609573546e+17
19314.0	6.577044278214653e+17
19315.0	6.575783427790167e+17
19316.0	6.576294821800617e+17
19317.0	6.574739248119808e+17
19318.0	6.573257913619796e+17
19319.0	6.571818838829738e+17
19320.0	6.570355765630291e+17
19321.0	6.568883817283583e+17
19322.0	6.567370825575081e+17
19323.0	6.565921492216489e+17
19324.0	6.564448985328297e+17
19325.0	6.562940667472553e+17
19326.0	6.561467221759316e+17
19327.0	6.559963950350336e+17
19328.0	6.558457354256383e+17
19329.0	6.556953236297044e+17
19330.0	6.555412692904617e+17
19331.0	6.553869636425044e+17
19332.0	6.552375189132628e+17
19333.0	6.550829078500691e+17
19334.0	6.549065797293395e+17
19335.0	6.547459411716777e+17
19336.0	6.545906218303487e+17
19337.0	6.544328584680788e+17
19338.0	6.542573030779561e+17
19339.0	6.541094412091391e+17
19340.0	6.539422324839763e+17
19341.0	6.537824842372435e+17
19342.0	6.536022719812948e+17
19343.0	6.534593832987306e+17
19344.0	6.532919260610559e+17
19345.0	6.530038943274322e+17
19346.0	6.528574479663103e+17
19347.0	6.527475637725866e+17
19348.0	6.525847153759572e+17
19349.0	6.524117264105472e+17
19350.0	6.522398782958249e+17
19351.0	6.520650906031443e+17
19352.0	6.518864184956244e+17
19353.0	6.517158093083988e+17
19354.0	6.51517008945698e+17
19355.0	6.512944909822634e+17
19356.0	6.511191700537343e+17
19357.0	6.509348737340756e+17
19358.0	6.507483316442452e+17
19359.0	6.505577551932074e+17
19360.0	6.503669218410495e+17
19361.0	6.501288711815168e+17
19362.0	6.499123898002089e+17
19363.0	6.497169027978579e+17
19364.0	6.495191728914431e+17
19365.0	6.493191523358035e+17
19366.0	6.490945021979305e+17
19367.0	6.488022888830292e+17
19368.0	6.485955863816874e+17
19369.0	6.483830842064893e+17
19370.0	6.481715269380778e+17
19371.0	6.478986003611647e+17
19372.0	6.476258606404948e+17
19373.0	6.474062158452052e+17
19374.0	6.47185411674385e+17
19375.0	6.468952867733504e+17
19376.0	6.465837960178346e+17
19377.0	6.463498600404307e+17
19378.0	6.461136750772223e+17
19379.0	6.45798265233954e+17
19380.0	6.455099229820244e+17
19381.0	6.452606710142291e+17
19382.0	6.450017229340671e+17
19383.0	6.447431601706323e+17
19384.0	6.444861446859433e+17
19385.0	6.442184813314048e+17
19386.0	6.439449557379753e+17
19387.0	6.436509204174163e+17
19388.0	6.43321316839697e+17
19389.0	6.43025006109218e+17
19390.0	6.427210068000765e+17
19391.0	6.42239091266901e+17
19392.0	6.42087535125026e+17
19393.0	6.417474959791443e+17
19394.0	6.413661843226623e+17
19395.0	6.41031671451921e+17
19396.0	6.406894588876115e+17
19397.0	6.403396164648959e+17
19398.0	6.398840418598911e+17
19399.0	6.394443506647039e+17
19400.0	6.390985834976596e+17
19401.0	6.387153370087423e+17
19402.0	6.381562996894378e+17
19403.0	6.37726617571601e+17
19404.0	6.372943598015828e+17
19405.0	6.36707832594432e+17
19406.0	6.36180178805282e+17
19407.0	6.357011934128809e+17
19408.0	6.349725294919681e+17
19409.0	6.344431031899476e+17
19410.0	6.338594877385382e+17
19411.0	6.330382041481215e+17
19412.0	6.324604879852884e+17
19413.0	6.316630263638694e+17
19414.0	6.308955766652927e+17
19415.0	6.301647124824061e+17
19416.0	6.291479961359699e+17
19417.0	6.284683032308394e+17
19418.0	6.27581742289169e+17
19419.0	6.268592305733631e+17
19420.0	6.260108670883155e+17
19421.0	6.251562452822698e+17
19422.0	6.242842905149439e+17
19423.0	6.232855673132374e+17
19424.0	6.222344355839999e+17
19425.0	6.212117250878121e+17
19426.0	6.199681716933972e+17
19427.0	6.187250865231188e+17
19428.0	6.17417676947456e+17
19429.0	6.158397360220841e+17
19430.0	6.143709006178986e+17
19431.0	6.125999142644396e+17
19432.0	6.109248057158313e+17
19433.0	6.090988818093394e+17
19434.0	6.068851445858304e+17
19435.0	6.047982601022121e+17
19436.0	6.025025689048406e+17
19437.0	5.996217251834538e+17
19438.0	5.966252323373055e+17
19439.0	5.93834686808064e+17
19440.0	5.904138739821225e+17
19441.0	5.865982796322131e+17
19442.0	5.822692714348547e+17
19443.0	5.773277546239316e+17
19444.0	5.717374932789928e+17
19445.0	5.651176450162689e+17
19446.0	5.572810446121642e+17
19447.0	5.477152316544336e+17
19448.0	5.3549628744444646e+17
19449.0	5.1879630822440954e+17
19450.0	4.923473920349511e+17
19451.0	4.749039471951883e+17
19452.0	5.0755346237139616e+17
19453.0	5.277919397369179e+17
19454.0	5.4163083215503296e+17
19455.0	5.5213453594678605e+17
19456.0	5.6049995776436934e+17
19457.0	5.674507823306066e+17
19458.0	5.7289364821333395e+17
19459.0	5.782768253752663e+17
19460.0	5.82710578206037e+17
19461.0	5.865399902710441e+17
19462.0	5.899200650805249e+17
19463.0	5.929322068748969e+17
19464.0	5.9555684300445e+17
19465.0	5.981538296528892e+17
19466.0	6.005021490195112e+17
19467.0	6.024390590332927e+17
19468.0	6.043364234712407e+17
19469.0	6.061667295865513e+17
19470.0	6.076141553756842e+17
19471.0	6.092079460166313e+17
19472.0	6.105250638681427e+17
19473.0	6.117883797744296e+17
19474.0	6.130325983854591e+17
19475.0	6.139593822131539e+17
19476.0	6.150911799154004e+17
19477.0	6.159435031729492e+17
19478.0	6.167100480902484e+17
19479.0	6.175714463536468e+17
19480.0	6.18227645214447e+17
19481.0	6.188369625918121e+17
19482.0	6.194922671570944e+17
19483.0	6.200083222975827e+17
19484.0	6.205936484657837e+17
19485.0	6.211224270973609e+17
19486.0	6.217145466399405e+17
19487.0	6.224051578776234e+17
19488.0	6.228020717158399e+17
19489.0	6.234785822627158e+17
19490.0	6.237782313795583e+17
19491.0	6.243069457683796e+17
19492.0	6.247924915415721e+17
19493.0	6.250872962372948e+17
19494.0	6.255327562082988e+17
19495.0	6.258385915740159e+17
19496.0	6.260442409555283e+17
19497.0	6.264465262291629e+17
19498.0	6.266410416209919e+17
19499.0	6.265890530831016e+17
19500.0	6.271296724445866e+17
19501.0	6.273617422363305e+17
19502.0	6.275040655267156e+17
19503.0	6.276434833528148e+17
19504.0	6.27854890115618e+17
19505.0	6.280007012493994e+17
19506.0	6.281074482435412e+17
19507.0	6.282050696904704e+17
19508.0	6.283077064065023e+17
19509.0	6.284639452790783e+17
19510.0	6.285264703979519e+17
19511.0	6.282303608542546e+17
19512.0	6.286200660120915e+17
19513.0	6.286327533622611e+17
19514.0	6.287277868537171e+17
19515.0	6.288584952075604e+17
19516.0	6.289221330752852e+17
19517.0	6.289521017268905e+17
19518.0	6.289826447185236e+17
19519.0	6.290036727218175e+17
19520.0	6.290175242709674e+17
19521.0	6.290313889622697e+17
19522.0	6.290361943763625e+17
19523.0	6.291288940172627e+17
19524.0	6.291524269987156e+17
19525.0	6.291478411564372e+17
19526.0	6.291437069707945e+17
19527.0	6.292654848125609e+17
19528.0	6.292501244324521e+17
19529.0	6.292310970422612e+17
19530.0	6.29208977121826e+17
19531.0	6.292864492721494e+17
19532.0	6.292693300805631e+17
19533.0	6.292401346489002e+17
19534.0	6.292082512975188e+17
19535.0	6.291939056593578e+17
19536.0	6.292267827811668e+17
19537.0	6.292011483135997e+17
19538.0	6.29148521402641e+17
19539.0	6.290842471890944e+17
19540.0	6.29069766074914e+17
19541.0	6.290676002062335e+17
19542.0	6.290437654446079e+17
19543.0	6.289924426825727e+17
19544.0	6.289393176980138e+17
19545.0	6.288488086721876e+17
19546.0	6.287731212681215e+17
19547.0	6.287714922004479e+17
19548.0	6.28749339075106e+17
19549.0	6.286937546205865e+17
19550.0	6.28638243496482e+17
19551.0	6.285736266782036e+17
19552.0	6.285074699212116e+17
19553.0	6.28438356529425e+17
19554.0	6.283688658599936e+17
19555.0	6.283000439723348e+17
19556.0	6.282317772707156e+17
19557.0	6.281917371864404e+17
19558.0	6.281180002735444e+17
19559.0	6.280432240121171e+17
19560.0	6.27964947604002e+17
19561.0	6.278876648265043e+17
19562.0	6.278116460724223e+17
19563.0	6.277332201373695e+17
19564.0	6.276532150468608e+17
19565.0	6.275720242965161e+17
19566.0	6.274892506857471e+17
19567.0	6.274117159703892e+17
19568.0	6.273259534286847e+17
19569.0	6.2725165692573e+17
19570.0	6.271810644126378e+17
19571.0	6.270948823007231e+17
19572.0	6.270056867211946e+17
19573.0	6.2691995563677e+17
19574.0	6.268255041748991e+17
19575.0	6.2674471237277e+17
19576.0	6.266555720182441e+17
19577.0	6.265647545013588e+17
19578.0	6.264730202494292e+17
19579.0	6.263823242974548e+17
19580.0	6.262911141937151e+17
19581.0	6.262004635402239e+17
19582.0	6.261090270838783e+17
19583.0	6.26016063201826e+17
19584.0	6.259224457773055e+17
19585.0	6.258196088531625e+17
19586.0	6.257230500331519e+17
19587.0	6.256428107606698e+17
19588.0	6.255270484596052e+17
19589.0	6.25457935487249e+17
19590.0	6.253582071016105e+17
19591.0	6.25267840192785e+17
19592.0	6.251714271248383e+17
19593.0	6.250724928607572e+17
19594.0	6.249572236700329e+17
19595.0	6.248761899264681e+17
19596.0	6.247747659235327e+17
19597.0	6.246794200962388e+17
19598.0	6.245559474061311e+17
19599.0	6.244811418544809e+17
19600.0	6.243822190548308e+17
19601.0	6.242770315029161e+17
19602.0	6.241749984171348e+17
19603.0	6.240587311218687e+17
19604.0	6.239882498277376e+17
19605.0	6.238793646473216e+17
19606.0	6.238038468329472e+17
19607.0	6.237031286614697e+17
19608.0	6.235999691953492e+17
19609.0	6.234954333683712e+17
19610.0	6.233963319612756e+17
19611.0	6.23293420797952e+17
19612.0	6.231914973932202e+17
19613.0	6.230875981916841e+17
19614.0	6.229819224227837e+17
19615.0	6.228814981322068e+17
19616.0	6.227758527720106e+17
19617.0	6.226718705232553e+17
19618.0	6.225332894608041e+17
19619.0	6.224329459804842e+17
19620.0	6.223374697103359e+17
19621.0	6.222750613329235e+17
19622.0	6.221724706144255e+17
19623.0	6.220704382276948e+17
19624.0	6.219690666535593e+17
19625.0	6.218646786757972e+17
19626.0	6.217592079384573e+17
19627.0	6.216529929218729e+17
19628.0	6.21543887540497e+17
19629.0	6.214297056531795e+17
19630.0	6.212965130829823e+17
19631.0	6.210907325595645e+17
19632.0	6.211157401883987e+17
19633.0	6.21013844955409e+17
19634.0	6.209117442015231e+17
19635.0	6.208076474482687e+17
19636.0	6.207130954629119e+17
19637.0	6.205776982966272e+17
19638.0	6.205004604680874e+17
19639.0	6.20393161223919e+17
19640.0	6.202777366342314e+17
19641.0	6.201226114192726e+17
19642.0	6.200719365373951e+17
19643.0	6.199647359991807e+17
19644.0	6.198522448358057e+17
19645.0	6.197335456830804e+17
19646.0	6.196426649720148e+17
19647.0	6.195363047626067e+17
19648.0	6.194287827309908e+17
19649.0	6.193209731099306e+17
19650.0	6.192133570559999e+17
19651.0	6.191049772193108e+17
19652.0	6.189974093998761e+17
19653.0	6.18889476186658e+17
19654.0	6.187807919833087e+17
19655.0	6.186724492662099e+17
19656.0	6.18564735275281e+17
19657.0	6.184569147490304e+17
19658.0	6.183485955899392e+17
19659.0	6.182401241776127e+17
19660.0	6.181317829984255e+17
19661.0	6.18023263211793e+17
19662.0	6.179155065088682e+17
19663.0	6.178133137599146e+17
19664.0	6.177063820066815e+17
19665.0	6.175988190806015e+17
