# Flux units: erg / (cm m2 s)
# Wavelength units: Angstrom
wave	flux
19000.0	7.156796856030547e+17
19001.0	7.154957894199977e+17
19002.0	7.154182187035305e+17
19003.0	7.152842555697833e+17
19004.0	7.151520115414356e+17
19005.0	7.150181840235177e+17
19006.0	7.148871629144061e+17
19007.0	7.147440873755987e+17
19008.0	7.14590138662912e+17
19009.0	7.144383768603306e+17
19010.0	7.141182636643665e+17
19011.0	7.142082797196628e+17
19012.0	7.14022338254165e+17
19013.0	7.13959077664085e+17
19014.0	7.137947712574803e+17
19015.0	7.136755339056468e+17
19016.0	7.135370592387071e+17
19017.0	7.134173086438739e+17
19018.0	7.132904092773033e+17
19019.0	7.131586780725247e+17
19020.0	7.130173147884202e+17
19021.0	7.128963249165651e+17
19022.0	7.127655992262653e+17
19023.0	7.126127692742655e+17
19024.0	7.124913097801727e+17
19025.0	7.123655237216936e+17
19026.0	7.122203562038612e+17
19027.0	7.120706861006845e+17
19028.0	7.119698746059433e+17
19029.0	7.118284247793663e+17
19030.0	7.117101212194131e+17
19031.0	7.115804828325204e+17
19032.0	7.114461391355904e+17
19033.0	7.112621772417705e+17
19034.0	7.111712043259219e+17
19035.0	7.110242536696489e+17
19036.0	7.082629656477693e+17
19037.0	7.107729983624532e+17
19038.0	7.106356611907581e+17
19039.0	7.10513641197841e+17
19040.0	7.103835403190272e+17
19041.0	7.102457732311721e+17
19042.0	7.100670152103251e+17
19043.0	7.099830505570301e+17
19044.0	7.098449567328938e+17
19045.0	7.097172530386259e+17
19046.0	7.095507299423571e+17
19047.0	7.094403241170258e+17
19048.0	7.092065550030163e+17
19049.0	7.09145068184098e+17
19050.0	7.090245107449855e+17
19051.0	7.084889084701349e+17
19052.0	7.087004912538964e+17
19053.0	7.08648753954816e+17
19054.0	7.085144148716202e+17
19055.0	7.082450892445014e+17
19056.0	7.082381395623935e+17
19057.0	7.081143437011625e+17
19058.0	7.079751460760234e+17
19059.0	7.078509046398975e+17
19060.0	7.07707445322274e+17
19061.0	7.075869672953172e+17
19062.0	7.074505249084756e+17
19063.0	7.073187906278739e+17
19064.0	7.071136904205654e+17
19065.0	7.069547604126378e+17
19066.0	7.068877477380093e+17
19067.0	7.067780163567615e+17
19068.0	7.066514782595753e+17
19069.0	7.065195790030164e+17
19070.0	7.063705029530964e+17
19071.0	7.062498194052436e+17
19072.0	7.061194793112916e+17
19073.0	7.059826873991168e+17
19074.0	7.058544293576704e+17
19075.0	7.057210689454079e+17
19076.0	7.055764988362752e+17
19077.0	7.054467116914003e+17
19078.0	7.052969990859433e+17
19079.0	7.051847449706493e+17
19080.0	7.050438636120745e+17
19081.0	7.048967994299732e+17
19082.0	7.047618913195347e+17
19083.0	7.045897967894527e+17
19084.0	7.043882431457962e+17
19085.0	7.043783303277225e+17
19086.0	7.040416051713364e+17
19087.0	7.040337591664641e+17
19088.0	7.039364106289151e+17
19089.0	7.037121100163756e+17
19090.0	7.0370042328733e+17
19091.0	7.035673229918207e+17
19092.0	7.034164492632063e+17
19093.0	7.033299358711805e+17
19094.0	7.031964972351487e+17
19095.0	7.030650555771561e+17
19096.0	7.029234309879124e+17
19097.0	7.027972551387818e+17
19098.0	7.026626794269353e+17
19099.0	7.025283627133609e+17
19100.0	7.023915768829268e+17
19101.0	7.022614326629716e+17
19102.0	7.020787952604499e+17
19103.0	7.019938691328681e+17
19104.0	7.018643212031316e+17
19105.0	7.017268795932672e+17
19106.0	7.01582146675234e+17
19107.0	7.014523449202004e+17
19108.0	7.013288084067667e+17
19109.0	7.009593722929148e+17
19110.0	7.010520017491284e+17
19111.0	7.009281298311849e+17
19112.0	7.007956131031721e+17
19113.0	7.006610738817706e+17
19114.0	7.005252944046761e+17
19115.0	7.003650869515604e+17
19116.0	7.002485510810281e+17
19117.0	7.001125857263615e+17
19118.0	6.999390900191231e+17
19119.0	6.980158365193532e+17
19120.0	6.996950986173097e+17
19121.0	6.995754678397609e+17
19122.0	6.994599655855444e+17
19123.0	6.993242868416511e+17
19124.0	6.991779105254058e+17
19125.0	6.990543690487123e+17
19126.0	6.989213742399487e+17
19127.0	6.978640947795284e+17
19128.0	6.985561223637672e+17
19129.0	6.984786901991423e+17
19130.0	6.983781419668819e+17
19131.0	6.982521396221267e+17
19132.0	6.981205607404884e+17
19133.0	6.978836944125951e+17
19134.0	6.978101222659412e+17
19135.0	6.977185573939881e+17
19136.0	6.975889215236778e+17
19137.0	6.973687406264319e+17
19138.0	6.973098776941908e+17
19139.0	6.971867060153001e+17
19140.0	6.970545196586323e+17
19141.0	6.969206776004607e+17
19142.0	6.967719229740372e+17
19143.0	6.96622121029905e+17
19144.0	6.964960080953343e+17
19145.0	6.96382646264354e+17
19146.0	6.959330834251779e+17
19147.0	6.96061828075793e+17
19148.0	6.959812536085161e+17
19149.0	6.95845769060898e+17
19150.0	6.957108817821695e+17
19151.0	6.955796738867197e+17
19152.0	6.954429645324287e+17
19153.0	6.953035894882304e+17
19154.0	6.951118326202365e+17
19155.0	6.950466869002237e+17
19156.0	6.949118349934591e+17
19157.0	6.947697009360895e+17
19158.0	6.944814463451133e+17
19159.0	6.944994818523136e+17
19160.0	6.943668135701161e+17
19161.0	6.94231880433664e+17
19162.0	6.937388143433048e+17
19163.0	6.939589200926035e+17
19164.0	6.938417123644755e+17
19165.0	6.93696194552354e+17
19166.0	6.935082452036265e+17
19167.0	6.934045773878612e+17
19168.0	6.932851540885501e+17
19169.0	6.931529794759338e+17
19170.0	6.930373254578175e+17
19171.0	6.928805404169555e+17
19172.0	6.927650431259988e+17
19173.0	6.926352043212799e+17
19174.0	6.924697263057578e+17
19175.0	6.923674618342058e+17
19176.0	6.922312176981332e+17
19177.0	6.920168087224319e+17
19178.0	6.919549106520063e+17
19179.0	6.918006346437972e+17
19180.0	6.916847423892138e+17
19181.0	6.915065862509908e+17
19182.0	6.914116866277375e+17
19183.0	6.912923912546985e+17
19184.0	6.911408037953536e+17
19185.0	6.910166747665748e+17
19186.0	6.908893844908714e+17
19187.0	6.90712239878963e+17
19188.0	6.906183359834793e+17
19189.0	6.904834952615252e+17
19190.0	6.903472827924479e+17
19191.0	6.901978665145684e+17
19192.0	6.900820933782185e+17
19193.0	6.89941084512802e+17
19194.0	6.898019077892778e+17
19195.0	6.896752439328767e+17
19196.0	6.89531575738914e+17
19197.0	6.893985201826474e+17
19198.0	6.892529846845439e+17
19199.0	6.869719281128782e+17
19200.0	6.87465717790584e+17
19201.0	6.888513689616383e+17
19202.0	6.887299595894783e+17
19203.0	6.885927822207657e+17
19204.0	6.884484908930387e+17
19205.0	6.88321575658018e+17
19206.0	6.881822072548009e+17
19207.0	6.879974237667327e+17
19208.0	6.878171822205608e+17
19209.0	6.877800958350676e+17
19210.0	6.876463137554431e+17
19211.0	6.875183631564799e+17
19212.0	6.873814984731306e+17
19213.0	6.871896512877907e+17
19214.0	6.870317311983615e+17
19215.0	6.869674583130111e+17
19216.0	6.868383098208255e+17
19217.0	6.866998192854356e+17
19218.0	6.86127394376908e+17
19219.0	6.863459111840425e+17
19220.0	6.862825214793044e+17
19221.0	6.859857760791212e+17
19222.0	6.860182277586943e+17
19223.0	6.858748754657279e+17
19224.0	6.857234603223721e+17
19225.0	6.855329416828242e+17
19226.0	6.854647592867156e+17
19227.0	6.853280084088148e+17
19228.0	6.852047491388755e+17
19229.0	6.850683283526995e+17
19230.0	6.849249030788435e+17
19231.0	6.847866250548564e+17
19232.0	6.846515957989375e+17
19233.0	6.844820072256852e+17
19234.0	6.843703877085865e+17
19235.0	6.842269804702378e+17
19236.0	6.841101604356093e+17
19237.0	6.839626330625363e+17
19238.0	6.83784807784994e+17
19239.0	6.836984570620585e+17
19240.0	6.835250883723261e+17
19241.0	6.833987446811305e+17
19242.0	6.832733714819754e+17
19243.0	6.830513191561897e+17
19244.0	6.830091032068095e+17
19245.0	6.828678739307178e+17
19246.0	6.82722254266914e+17
19247.0	6.825878950510592e+17
19248.0	6.824555469340672e+17
19249.0	6.823139736551423e+17
19250.0	6.821664487986516e+17
19251.0	6.819626558160893e+17
19252.0	6.817478628518568e+17
19253.0	6.817464749566634e+17
19254.0	6.81614904463633e+17
19255.0	6.81382540231748e+17
19256.0	6.813138518627668e+17
19257.0	6.811990436260522e+17
19258.0	6.810597702238205e+17
19259.0	6.808819385849171e+17
19260.0	6.807222043191976e+17
19261.0	6.806303194218495e+17
19262.0	6.804566067292841e+17
19263.0	6.802919323424084e+17
19264.0	6.799017409249275e+17
19265.0	6.799403726318249e+17
19266.0	6.798122596433919e+17
19267.0	6.797606652302676e+17
19268.0	6.796145764335615e+17
19269.0	6.794721094183593e+17
19270.0	6.793305896867155e+17
19271.0	6.790105483531608e+17
19272.0	6.790257222265514e+17
19273.0	6.778682666385398e+17
19274.0	6.781062269108214e+17
19275.0	6.786164323953321e+17
19276.0	6.784624625014099e+17
19277.0	6.783195527774207e+17
19278.0	6.781773433623891e+17
19279.0	6.780179251374761e+17
19280.0	6.778415255737684e+17
19281.0	6.777387565973503e+17
19282.0	6.776020999514793e+17
19283.0	6.774235355676671e+17
19284.0	6.772647494942719e+17
19285.0	6.77055867073331e+17
19286.0	6.769961364094975e+17
19287.0	6.768697523131732e+17
19288.0	6.75942524588304e+17
19289.0	6.749128451162086e+17
19290.0	6.764270630294868e+17
19291.0	6.761365851777708e+17
19292.0	6.761289378430975e+17
19293.0	6.759765999528617e+17
19294.0	6.758250388477268e+17
19295.0	6.756811004706815e+17
19296.0	6.75527066194193e+17
19297.0	6.753636058486099e+17
19298.0	6.752115267469311e+17
19299.0	6.75075694141986e+17
19300.0	6.749224375593642e+17
19301.0	6.74767447400994e+17
19302.0	6.746065329979391e+17
19303.0	6.744230781954729e+17
19304.0	6.742872187469823e+17
19305.0	6.741429737663146e+17
19306.0	6.739924931138899e+17
19307.0	6.738129752948735e+17
19308.0	6.736657049627305e+17
19309.0	6.734455491614035e+17
19310.0	6.732526539593043e+17
19311.0	6.731858876301311e+17
19312.0	6.73046018986257e+17
19313.0	6.728887165779967e+17
19314.0	6.709634059119286e+17
19315.0	6.708871080269157e+17
19316.0	6.724043388485631e+17
19317.0	6.72245844349201e+17
19318.0	6.720804655289684e+17
19319.0	6.719246739789139e+17
19320.0	6.717605066134868e+17
19321.0	6.715957342197076e+17
19322.0	6.713804559745023e+17
19323.0	6.712263046769322e+17
19324.0	6.710908413105492e+17
19325.0	6.708600939828566e+17
19326.0	6.707550170207572e+17
19327.0	6.705802460353876e+17
19328.0	6.704176977412095e+17
19329.0	6.702477201462612e+17
19330.0	6.700537628764842e+17
19331.0	6.698771342338729e+17
19332.0	6.697237009312425e+17
19333.0	6.695402131335849e+17
19334.0	6.693693673876137e+17
19335.0	6.691916724830207e+17
19336.0	6.690125104108884e+17
19337.0	6.688319798771711e+17
19338.0	6.685403215385939e+17
19339.0	6.684681918130858e+17
19340.0	6.682470707625983e+17
19341.0	6.680846380914003e+17
19342.0	6.67705025197943e+17
19343.0	6.677211922126166e+17
19344.0	6.675253140215123e+17
19345.0	6.663705388733764e+17
19346.0	6.66683650447769e+17
19347.0	6.669196136022015e+17
19348.0	6.667607545479167e+17
19349.0	6.665446644951721e+17
19350.0	6.663216092413951e+17
19351.0	6.66086641115682e+17
19352.0	6.658642872893439e+17
19353.0	6.657027841458173e+17
19354.0	6.654978221408255e+17
19355.0	6.652382606437034e+17
19356.0	6.650807414598314e+17
19357.0	6.648685719628457e+17
19358.0	6.646437453146794e+17
19359.0	6.643838985349802e+17
19360.0	6.641979144972969e+17
19361.0	6.639842123317247e+17
19362.0	6.637830666540372e+17
19363.0	6.635583873657514e+17
19364.0	6.63330817712674e+17
19365.0	6.630990567615146e+17
19366.0	6.628689439621119e+17
19367.0	6.626351791123113e+17
19368.0	6.623986448334847e+17
19369.0	6.621151788094804e+17
19370.0	6.617531608115881e+17
19371.0	6.615466349603498e+17
19372.0	6.61323598860561e+17
19373.0	6.610569386437289e+17
19374.0	6.608081512650067e+17
19375.0	6.605500539994111e+17
19376.0	6.602878519782057e+17
19377.0	6.600151846092799e+17
19378.0	6.597472100373844e+17
19379.0	6.594750387148116e+17
19380.0	6.591422771058003e+17
19381.0	6.587731259250003e+17
19382.0	6.584517607991978e+17
19383.0	6.58141984395537e+17
19384.0	6.579062179539625e+17
19385.0	6.576086838149119e+17
19386.0	6.573074765141331e+17
19387.0	6.568087497910953e+17
19388.0	6.564853956564308e+17
19389.0	6.561635986571263e+17
19390.0	6.55831220687121e+17
19391.0	6.53264253301552e+17
19392.0	6.548332024780113e+17
19393.0	6.545355756448426e+17
19394.0	6.541678154350591e+17
19395.0	6.534813854990335e+17
19396.0	6.530870986932223e+17
19397.0	6.526291253657603e+17
19398.0	6.518819350642687e+17
19399.0	6.511150638301181e+17
19400.0	6.5055223227351e+17
19401.0	6.500792230652585e+17
19402.0	6.49062236116309e+17
19403.0	6.483292600314533e+17
19404.0	6.473725134241791e+17
19405.0	6.461492494161234e+17
19406.0	6.45228064704648e+17
19407.0	6.4445093511168e+17
19408.0	6.434760386325167e+17
19409.0	6.43153193406737e+17
19410.0	6.424934774123177e+17
19411.0	6.417946157689514e+17
19412.0	6.410707673284608e+17
19413.0	6.403264594924884e+17
19414.0	6.395033387969193e+17
19415.0	6.386966403394217e+17
19416.0	6.377906265653245e+17
19417.0	6.369672598738259e+17
19418.0	6.361063028512084e+17
19419.0	6.351421632937983e+17
19420.0	6.341685009885865e+17
19421.0	6.332063130408276e+17
19422.0	6.321270481573203e+17
19423.0	6.310496507876692e+17
19424.0	6.298581229109247e+17
19425.0	6.286187694129152e+17
19426.0	6.271621996216319e+17
19427.0	6.256062857128621e+17
19428.0	6.238710739763192e+17
19429.0	6.217014176994641e+17
19430.0	6.19142704424552e+17
19431.0	6.154661214726829e+17
19432.0	6.122303372219731e+17
19433.0	6.098921459111254e+17
19434.0	6.075317658932563e+17
19435.0	6.05054427288917e+17
19436.0	6.022987641782271e+17
19437.0	5.996086027441492e+17
19438.0	5.940051947727537e+17
19439.0	5.929986835174743e+17
19440.0	5.89086852889532e+17
19441.0	5.841718686864721e+17
19442.0	5.7775307564428e+17
19443.0	5.7039722503645856e+17
19444.0	5.639943460924071e+17
19445.0	5.565822567885483e+17
19446.0	5.4717278029086656e+17
19447.0	5.348409551967564e+17
19448.0	5.197787380230833e+17
19449.0	4.99360911729186e+17
19450.0	4.6786359758683757e+17
19451.0	4.5803639665240736e+17
19452.0	4.842886365446141e+17
19453.0	5.1062538641954214e+17
19454.0	5.273186972554574e+17
19455.0	5.408543279327911e+17
19456.0	5.5138268710174726e+17
19457.0	5.593991503063719e+17
19458.0	5.635692191984329e+17
19459.0	5.7227222404737805e+17
19460.0	5.794896973660166e+17
19461.0	5.84793772540996e+17
19462.0	5.889722940740952e+17
19463.0	5.92415019971379e+17
19464.0	5.954045420240893e+17
19465.0	5.981101268926464e+17
19466.0	6.006091890556925e+17
19467.0	6.0293599737501e+17
19468.0	6.050909434587818e+17
19469.0	6.070027649635667e+17
19470.0	6.098045618530989e+17
19471.0	6.133250409889786e+17
19472.0	6.159673679238483e+17
19473.0	6.179809829497514e+17
19474.0	6.196640949993472e+17
19475.0	6.207313898285732e+17
19476.0	6.222592262974124e+17
19477.0	6.23350291435793e+17
19478.0	6.244180177190912e+17
19479.0	6.252409430999039e+17
19480.0	6.261175094345725e+17
19481.0	6.268643913848147e+17
19482.0	6.275732102359721e+17
19483.0	6.283519552651264e+17
19484.0	6.29006428868881e+17
19485.0	6.296226900563284e+17
19486.0	6.302373590859776e+17
19487.0	6.308246711872169e+17
19488.0	6.314043098791935e+17
19489.0	6.318744451503444e+17
19490.0	6.318141565042682e+17
19491.0	6.328655951167487e+17
19492.0	6.333256809054208e+17
19493.0	6.33741914546722e+17
19494.0	6.341347709550591e+17
19495.0	6.345054631930538e+17
19496.0	6.350666386287268e+17
19497.0	6.360440048538966e+17
19498.0	6.364190128209919e+17
19499.0	6.341732850816332e+17
19500.0	6.3804438740992e+17
19501.0	6.385088097594026e+17
19502.0	6.389818627282266e+17
19503.0	6.393542368821247e+17
19504.0	6.396427622853289e+17
19505.0	6.40069862040098e+17
19506.0	6.402183703909716e+17
19507.0	6.404843517597012e+17
19508.0	6.407817291016874e+17
19509.0	6.408915341628755e+17
19510.0	6.409001073901567e+17
19511.0	6.377165868935837e+17
19512.0	6.408286923041445e+17
19513.0	6.403770909633179e+17
19514.0	6.408141083596108e+17
19515.0	6.414520208938328e+17
19516.0	6.418793145652564e+17
19517.0	6.419127538636116e+17
19518.0	6.41991061938722e+17
19519.0	6.420318794372438e+17
19520.0	6.420581762553171e+17
19521.0	6.421105698231636e+17
19522.0	6.422076851574102e+17
19523.0	6.423023430489427e+17
19524.0	6.423253006417919e+17
19525.0	6.423350266735273e+17
19526.0	6.423614317745492e+17
19527.0	6.423706732942675e+17
19528.0	6.423814344103252e+17
19529.0	6.423863955729066e+17
19530.0	6.42395771310353e+17
19531.0	6.423984816695978e+17
19532.0	6.423960529578665e+17
19533.0	6.424767670954665e+17
19534.0	6.424650016533161e+17
19535.0	6.42443433353762e+17
19536.0	6.424175213630803e+17
19537.0	6.424187685393747e+17
19538.0	6.423370953042605e+17
19539.0	6.421087936752303e+17
19540.0	6.423348935043754e+17
19541.0	6.423217582724436e+17
19542.0	6.422895110651901e+17
19543.0	6.422554349316777e+17
19544.0	6.422238219031892e+17
19545.0	6.419346191198888e+17
19546.0	6.417082967130111e+17
19547.0	6.421106420350973e+17
19548.0	6.420671649284095e+17
19549.0	6.419706571390973e+17
19550.0	6.419779073430867e+17
19551.0	6.419319367226708e+17
19552.0	6.418824770704724e+17
19553.0	6.41819158319377e+17
19554.0	6.417590809963177e+17
19555.0	6.417553082198697e+17
19556.0	6.417220084520275e+17
19557.0	6.416640012976127e+17
19558.0	6.416049573112489e+17
19559.0	6.415434034533716e+17
19560.0	6.414709738351273e+17
19561.0	6.414075804254207e+17
19562.0	6.413553799353684e+17
19563.0	6.412945741316095e+17
19564.0	6.41227089318161e+17
19565.0	6.411592814733994e+17
19566.0	6.410743138222079e+17
19567.0	6.41021068321314e+17
19568.0	6.409334914635092e+17
19569.0	6.408657218568191e+17
19570.0	6.408040801282729e+17
19571.0	6.40727586509073e+17
19572.0	6.406360142970879e+17
19573.0	6.40566350193186e+17
19574.0	6.404533569017172e+17
19575.0	6.404219400268457e+17
19576.0	6.403433036775424e+17
19577.0	6.402487530902867e+17
19578.0	6.401609342910463e+17
19579.0	6.400877179611817e+17
19580.0	6.400056898879487e+17
19581.0	6.399304017117183e+17
19582.0	6.398552431394815e+17
19583.0	6.397708037608788e+17
19584.0	6.396802781675519e+17
19585.0	6.395407830264488e+17
19586.0	6.394366307685718e+17
19587.0	6.394109145120768e+17
19588.0	6.390931513846445e+17
19589.0	6.39234833785378e+17
19590.0	6.391132666374825e+17
19591.0	6.390657006436352e+17
19592.0	6.389787590830761e+17
19593.0	6.388772133055144e+17
19594.0	6.386714820651689e+17
19595.0	6.386788171339091e+17
19596.0	6.383993993822208e+17
19597.0	6.385033401772714e+17
19598.0	6.382550915568979e+17
19599.0	6.383280029608617e+17
19600.0	6.382370122891263e+17
19601.0	6.381061472780288e+17
19602.0	6.380177653934761e+17
19603.0	6.377133617534289e+17
19604.0	6.378202448527359e+17
19605.0	6.375966200823808e+17
19606.0	6.376558660943871e+17
19607.0	6.375591660661417e+17
19608.0	6.374552098220713e+17
19609.0	6.373360494357161e+17
19610.0	6.372669561765887e+17
19611.0	6.371628879446015e+17
19612.0	6.370704538730495e+17
19613.0	6.369648182995626e+17
19614.0	6.368481726081705e+17
19615.0	6.367687293446825e+17
19616.0	6.366497476356778e+17
19617.0	6.365660932210687e+17
19618.0	6.36167150667912e+17
19619.0	6.360056982754638e+17
19620.0	6.359138927902719e+17
19621.0	6.361565719341737e+17
19622.0	6.360582982729727e+17
19623.0	6.359568902083924e+17
19624.0	6.358485309237929e+17
19625.0	6.357506272701098e+17
19626.0	6.356411000815615e+17
19627.0	6.355426106234196e+17
19628.0	6.353803461438122e+17
19629.0	6.352827199433385e+17
19630.0	6.35053477531921e+17
19631.0	6.32815365040811e+17
19632.0	6.350133534916605e+17
19633.0	6.348887635088724e+17
19634.0	6.348102967492607e+17
19635.0	6.346834390461097e+17
19636.0	6.34593347772962e+17
19637.0	6.342821731281578e+17
19638.0	6.34381208195345e+17
19639.0	6.342725029505705e+17
19640.0	6.341166542880768e+17
19641.0	6.337048524182875e+17
19642.0	6.339564376074921e+17
19643.0	6.338464882622464e+17
19644.0	6.337140851299668e+17
19645.0	6.334976830909096e+17
19646.0	6.335340383393108e+17
19647.0	6.334272949802324e+17
19648.0	6.333172173591891e+17
19649.0	6.332077735673855e+17
19650.0	6.331036313059327e+17
19651.0	6.329927748026365e+17
19652.0	6.328827699527679e+17
19653.0	6.327777078105428e+17
19654.0	6.326647620545193e+17
19655.0	6.325532499815082e+17
19656.0	6.324495769228627e+17
19657.0	6.323407796830207e+17
19658.0	6.322349347438591e+17
19659.0	6.321254355173375e+17
19660.0	6.320186806239231e+17
19661.0	6.319070107052714e+17
19662.0	6.318001706674857e+17
19663.0	6.316641764420265e+17
19664.0	6.315691256840191e+17
19665.0	6.314718328608084e+17
