# Flux units: erg / (cm m2 s)
# Wavelength units: Angstrom
wave	flux
19000.0	4.7477388958760954e+17
19001.0	4.746758187210067e+17
19002.0	4.745988599534932e+17
19003.0	4.745109322421589e+17
19004.0	4.744234028498943e+17
19005.0	4.7433514728379725e+17
19006.0	4.7424862144866976e+17
19007.0	4.741599527436287e+17
19008.0	4.740664218615807e+17
19009.0	4.739700277379071e+17
19010.0	4.7384850721669114e+17
19011.0	4.738059824966314e+17
19012.0	4.7370799775307085e+17
19013.0	4.736349106776745e+17
19014.0	4.735421403627519e+17
19015.0	4.734556313048403e+17
19016.0	4.7336600175465805e+17
19017.0	4.7328489999346336e+17
19018.0	4.731967591415808e+17
19019.0	4.73109531459584e+17
19020.0	4.730208662497962e+17
19021.0	4.729353553663316e+17
19022.0	4.728474528208212e+17
19023.0	4.727570167758847e+17
19024.0	4.726712301169321e+17
19025.0	4.725853818017109e+17
19026.0	4.724953225450836e+17
19027.0	4.7240385421202765e+17
19028.0	4.723239369921876e+17
19029.0	4.7223496042523296e+17
19030.0	4.721504562446336e+17
19031.0	4.720632472971945e+17
19032.0	4.719751527224661e+17
19033.0	4.71878979498803e+17
19034.0	4.71800153636864e+17
19035.0	4.7170874640083616e+17
19036.0	4.709692994835798e+17
19037.0	4.715382587785215e+17
19038.0	4.7145013358537376e+17
19039.0	4.7136538040292685e+17
19040.0	4.7127821339852794e+17
19041.0	4.711897405674836e+17
19042.0	4.7109144195017376e+17
19043.0	4.7101676782004896e+17
19044.0	4.70928448430626e+17
19045.0	4.7084253950771194e+17
19046.0	4.707490997119657e+17
19047.0	4.706644669759487e+17
19048.0	4.705577940112725e+17
19049.0	4.7048112150500685e+17
19050.0	4.7040183028503885e+17
19051.0	4.702357247317332e+17
19052.0	4.7021017673673376e+17
19053.0	4.7014611915898874e+17
19054.0	4.7005856299308365e+17
19055.0	4.6994454601181856e+17
19056.0	4.698818383708159e+17
19057.0	4.6979738871616845e+17
19058.0	4.697070446662997e+17
19059.0	4.696223907490474e+17
19060.0	4.695348941422591e+17
19061.0	4.6945060477992954e+17
19062.0	4.6936314396453536e+17
19063.0	4.6927646056338765e+17
19064.0	4.69175901286127e+17
19065.0	4.690854335741951e+17
19066.0	4.690097507838633e+17
19067.0	4.6892767496546976e+17
19068.0	4.688424746003114e+17
19069.0	4.6875579867900576e+17
19070.0	4.6866604749400736e+17
19071.0	4.6858188046554445e+17
19072.0	4.684944320233471e+17
19073.0	4.684084398434985e+17
19074.0	4.6832231120896e+17
19075.0	4.6823561319765325e+17
19076.0	4.6814686144539296e+17
19077.0	4.6805999279581856e+17
19078.0	4.679718077639337e+17
19079.0	4.678886073827328e+17
19080.0	4.678004197643605e+17
19081.0	4.677115799317162e+17
19082.0	4.676246750713172e+17
19083.0	4.675326477773482e+17
19084.0	4.674340004036607e+17
19085.0	4.673684528693247e+17
19086.0	4.6724634514554874e+17
19087.0	4.6717644140707834e+17
19088.0	4.67099424268834e+17
19089.0	4.669989276964181e+17
19090.0	4.669343423354196e+17
19091.0	4.66846947021073e+17
19092.0	4.6675442060492794e+17
19093.0	4.666776769353044e+17
19094.0	4.665911433407147e+17
19095.0	4.665047181688831e+17
19096.0	4.664167843059029e+17
19097.0	4.6633166167517856e+17
19098.0	4.6624430599700474e+17
19099.0	4.6615775625434445e+17
19100.0	4.660706029513385e+17
19101.0	4.659856201307476e+17
19102.0	4.658876613918719e+17
19103.0	4.6581392224201376e+17
19104.0	4.657280234553344e+17
19105.0	4.6563886884017485e+17
19106.0	4.6555263129354234e+17
19107.0	4.654664456164693e+17
19108.0	4.6538203308141216e+17
19109.0	4.6525672580273466e+17
19110.0	4.652084011291989e+17
19111.0	4.651237472818517e+17
19112.0	4.65037508546833e+17
19113.0	4.6495194516466336e+17
19114.0	4.6486537745640096e+17
19115.0	4.647742759152298e+17
19116.0	4.6469181652773536e+17
19117.0	4.64605488943377e+17
19118.0	4.6450687190848845e+17
19119.0	4.635256358087328e+17
19120.0	4.6434407992524794e+17
19121.0	4.642599697995093e+17
19122.0	4.6417795102365e+17
19123.0	4.6409194052867405e+17
19124.0	4.64003710058496e+17
19125.0	4.6391950458224634e+17
19126.0	4.638335903465472e+17
19127.0	4.635474844975104e+17
19128.0	4.636534736508245e+17
19129.0	4.6356916911909536e+17
19130.0	4.6348792265441254e+17
19131.0	4.634041382163796e+17
19132.0	4.63318307377425e+17
19133.0	4.632213238142292e+17
19134.0	4.63142982324497e+17
19135.0	4.630607254519808e+17
19136.0	4.6297565727730336e+17
19137.0	4.628723694654804e+17
19138.0	4.628018112757759e+17
19139.0	4.6271824808727885e+17
19140.0	4.6263274160783354e+17
19141.0	4.6254691237669536e+17
19142.0	4.6245877096557216e+17
19143.0	4.623696213835776e+17
19144.0	4.622855401985364e+17
19145.0	4.6220421809657165e+17
19146.0	4.6205809092198406e+17
19147.0	4.620183120030378e+17
19148.0	4.619461292894891e+17
19149.0	4.6185976332724896e+17
19150.0	4.6177537393076896e+17
19151.0	4.6169008562503674e+17
19152.0	4.6160387876672845e+17
19153.0	4.6151572428335776e+17
19154.0	4.6141975259600205e+17
19155.0	4.6134856777727994e+17
19156.0	4.6126281635048096e+17
19157.0	4.611760496923989e+17
19158.0	4.610623145683626e+17
19159.0	4.6100468014776314e+17
19160.0	4.6091971634135034e+17
19161.0	4.6083479307987616e+17
19162.0	4.606870777320789e+17
19163.0	4.6066148345992525e+17
19164.0	4.605794126047915e+17
19165.0	4.604895803998207e+17
19166.0	4.603929864874666e+17
19167.0	4.603175073305941e+17
19168.0	4.6023646673633274e+17
19169.0	4.6015035089442125e+17
19170.0	4.600674148941823e+17
19171.0	4.599781213776555e+17
19172.0	4.598968928086698e+17
19173.0	4.5981158506932896e+17
19174.0	4.597199523195561e+17
19175.0	4.596407849713664e+17
19176.0	4.5955555566551034e+17
19177.0	4.5945451781816314e+17
19178.0	4.5938362219670176e+17
19179.0	4.5929471252889594e+17
19180.0	4.592136942343509e+17
19181.0	4.5911565251816096e+17
19182.0	4.590408546560681e+17
19183.0	4.5895958582176403e+17
19184.0	4.588730628527445e+17
19185.0	4.587887039348734e+17
19186.0	4.5870400402008736e+17
19187.0	4.586127697990998e+17
19188.0	4.5853349836226554e+17
19189.0	4.584487942531755e+17
19190.0	4.5836337886003194e+17
19191.0	4.582755095893332e+17
19192.0	4.581936098618025e+17
19193.0	4.581076089438207e+17
19194.0	4.580221027439957e+17
19195.0	4.579385439595178e+17
19196.0	4.5785188928935245e+17
19197.0	4.5776769213180576e+17
19198.0	4.5768321101987846e+17
19199.0	4.572327197715113e+17
19200.0	4.57250457832653e+17
19201.0	4.574284852057429e+17
19202.0	4.573439138463744e+17
19203.0	4.5725796032402765e+17
19204.0	4.57171342004497e+17
19205.0	4.570878028633428e+17
19206.0	4.570021581116757e+17
19207.0	4.569049416947028e+17
19208.0	4.568104229142527e+17
19209.0	4.567484177492651e+17
19210.0	4.56663457997346e+17
19211.0	4.5657983993337165e+17
19212.0	4.564950794807978e+17
19213.0	4.563999190417408e+17
19214.0	4.563097895305215e+17
19215.0	4.5623899988514125e+17
19216.0	4.561554759133866e+17
19217.0	4.5607022507677e+17
19218.0	4.558956965221716e+17
19219.0	4.558867624449364e+17
19220.0	4.5581378281362765e+17
19221.0	4.5569754138323616e+17
19222.0	4.5564413565992954e+17
19223.0	4.5555964462148256e+17
19224.0	4.554720936984574e+17
19225.0	4.553758322546003e+17
19226.0	4.553054292541439e+17
19227.0	4.5522055583498234e+17
19228.0	4.551379467108352e+17
19229.0	4.5505316654503245e+17
19230.0	4.549680034392745e+17
19231.0	4.5488246829875194e+17
19232.0	4.547976171094015e+17
19233.0	4.547070594995541e+17
19234.0	4.546268282661546e+17
19235.0	4.545417978402132e+17
19236.0	4.5445976123856205e+17
19237.0	4.543732660917587e+17
19238.0	4.542802762050218e+17
19239.0	4.5420542633355936e+17
19240.0	4.541181122489002e+17
19241.0	4.540330166714366e+17
19242.0	4.5394888620332365e+17
19243.0	4.5385134822304416e+17
19244.0	4.5378188097181005e+17
19245.0	4.536966500581376e+17
19246.0	4.536104666180266e+17
19247.0	4.535269853582677e+17
19248.0	4.534428650962942e+17
19249.0	4.533576142596778e+17
19250.0	4.532707730827946e+17
19251.0	4.531727991046144e+17
19252.0	4.5307848801211725e+17
19253.0	4.530161061287253e+17
19254.0	4.5293362129578656e+17
19255.0	4.5283288977244154e+17
19256.0	4.527585279082495e+17
19257.0	4.5267960215197005e+17
19258.0	4.525946902850217e+17
19259.0	4.525035486882474e+17
19260.0	4.524095462266196e+17
19261.0	4.5233846186147834e+17
19262.0	4.5224935422252365e+17
19263.0	4.521610411944618e+17
19264.0	4.520240169877502e+17
19265.0	4.519757773187753e+17
19266.0	4.5188426270856525e+17
19267.0	4.518305750581247e+17
19268.0	4.517448897615189e+17
19269.0	4.516601311264768e+17
19270.0	4.515747899026089e+17
19271.0	4.5145233258359475e+17
19272.0	4.5140160653120845e+17
19273.0	4.512150670278655e+17
19274.0	4.5115659325713056e+17
19275.0	4.511500855148544e+17
19276.0	4.5106281875592525e+17
19277.0	4.5097826606120954e+17
19278.0	4.5089312343763616e+17
19279.0	4.508065757222228e+17
19280.0	4.5071402980256416e+17
19281.0	4.506366660050943e+17
19282.0	4.5055346562389325e+17
19283.0	4.504620518866944e+17
19284.0	4.5037858174184096e+17
19285.0	4.5027880896648525e+17
19286.0	4.502079769586346e+17
19287.0	4.501260754135723e+17
19288.0	4.498256952994471e+17
19289.0	4.4955510949369126e+17
19290.0	4.4986952346938016e+17
19291.0	4.497583472902144e+17
19292.0	4.496978046790315e+17
19293.0	4.496115890126847e+17
19294.0	4.495255627191638e+17
19295.0	4.4944067468984314e+17
19296.0	4.4935289762392736e+17
19297.0	4.4926613138527565e+17
19298.0	4.491797183769258e+17
19299.0	4.4909521447594656e+17
19300.0	4.490093501524649e+17
19301.0	4.4892358446503245e+17
19302.0	4.4883544081694714e+17
19303.0	4.4874397528009376e+17
19304.0	4.486610329883989e+17
19305.0	4.4857630259500365e+17
19306.0	4.4849080674112845e+17
19307.0	4.4839974574489594e+17
19308.0	4.4831478641240736e+17
19309.0	4.482157818238292e+17
19310.0	4.481238470841684e+17
19311.0	4.4805202249427616e+17
19312.0	4.479689926115327e+17
19313.0	4.478826620911614e+17
19314.0	4.466883251492192e+17
19315.0	4.466572496906927e+17
19316.0	4.476172790398975e+17
19317.0	4.475320147116032e+17
19318.0	4.4744390727434234e+17
19319.0	4.473575352303615e+17
19320.0	4.472688547113642e+17
19321.0	4.471803514017109e+17
19322.0	4.4708406409297914e+17
19323.0	4.4699857599856634e+17
19324.0	4.469157491900415e+17
19325.0	4.4681392239411194e+17
19326.0	4.467382631617877e+17
19327.0	4.4664745871714976e+17
19328.0	4.4655723700114765e+17
19329.0	4.4647054521139194e+17
19330.0	4.463568939035307e+17
19331.0	4.4626502508434765e+17
19332.0	4.461789837612372e+17
19333.0	4.460887141602645e+17
19334.0	4.45998585418001e+17
19335.0	4.459034567857493e+17
19336.0	4.4581678785495034e+17
19337.0	4.457254306010453e+17
19338.0	4.4561221102687565e+17
19339.0	4.455424316495189e+17
19340.0	4.4543248524028576e+17
19341.0	4.453478260102485e+17
19342.0	4.452244103626751e+17
19343.0	4.451723438107307e+17
19344.0	4.450776436965375e+17
19345.0	4.447756338156881e+17
19346.0	4.447736747961001e+17
19347.0	4.4478810005613216e+17
19348.0	4.4470370961107616e+17
19349.0	4.446049285789012e+17
19350.0	4.4450914179044685e+17
19351.0	4.4441313815647565e+17
19352.0	4.443103558980948e+17
19353.0	4.4422370087840416e+17
19354.0	4.4412683461591034e+17
19355.0	4.4401893572607994e+17
19356.0	4.4393049036772685e+17
19357.0	4.438318127950507e+17
19358.0	4.437312382085803e+17
19359.0	4.4362465003874976e+17
19360.0	4.435249105382059e+17
19361.0	4.4342636333847885e+17
19362.0	4.433283500037461e+17
19363.0	4.4322535467472205e+17
19364.0	4.4312160143496525e+17
19365.0	4.4301765945152845e+17
19366.0	4.429125260760404e+17
19367.0	4.428066081559893e+17
19368.0	4.426998941570389e+17
19369.0	4.425857728075093e+17
19370.0	4.424720462817962e+17
19371.0	4.42368248582417e+17
19372.0	4.422624040626857e+17
19373.0	4.4214840854227616e+17
19374.0	4.420367263902378e+17
19375.0	4.419226136390314e+17
19376.0	4.4180730040811514e+17
19377.0	4.4168908143329274e+17
19378.0	4.41570944876544e+17
19379.0	4.414513292683946e+17
19380.0	4.4132971122961056e+17
19381.0	4.41206228193553e+17
19382.0	4.4107481659473914e+17
19383.0	4.4094299926691834e+17
19384.0	4.408249017171966e+17
19385.0	4.406953431618902e+17
19386.0	4.405631430339242e+17
19387.0	4.4042819395911674e+17
19388.0	4.4029093591995725e+17
19389.0	4.4015118716327245e+17
19390.0	4.40008932729378e+17
19391.0	4.392891566085455e+17
19392.0	4.396840859817299e+17
19393.0	4.395658529559893e+17
19394.0	4.3941099883287885e+17
19395.0	4.3925311481446394e+17
19396.0	4.3909363213707936e+17
19397.0	4.389308825862143e+17
19398.0	4.3876030660389536e+17
19399.0	4.3851221589906765e+17
19400.0	4.384036786361685e+17
19401.0	4.382363853258751e+17
19402.0	4.380537396046506e+17
19403.0	4.37863019778321e+17
19404.0	4.3767119146734925e+17
19405.0	4.3747110708838394e+17
19406.0	4.372683791095125e+17
19407.0	4.3705897100247034e+17
19408.0	4.367561007999659e+17
19409.0	4.3662048888531616e+17
19410.0	4.363982348135082e+17
19411.0	4.361664313600681e+17
19412.0	4.359276982872746e+17
19413.0	4.3568287746184525e+17
19414.0	4.3542824091648e+17
19415.0	4.35172678897937e+17
19416.0	4.3489195944400205e+17
19417.0	4.3463103186206714e+17
19418.0	4.343596874465279e+17
19419.0	4.3407541779387725e+17
19420.0	4.337855307098794e+17
19421.0	4.3348755323289594e+17
19422.0	4.331779092294315e+17
19423.0	4.3286866641114445e+17
19424.0	4.3251002825332045e+17
19425.0	4.321651174932479e+17
19426.0	4.3183126648367776e+17
19427.0	4.314877304067413e+17
19428.0	4.311386773520383e+17
19429.0	4.3074848572484256e+17
19430.0	4.302825411226283e+17
19431.0	4.29812185231087e+17
19432.0	4.293897704439806e+17
19433.0	4.2888634204596915e+17
19434.0	4.282479650624854e+17
19435.0	4.274271832506362e+17
19436.0	4.263236880826368e+17
19437.0	4.2470657606287354e+17
19438.0	4.209007684222967e+17
19439.0	4.194268813284693e+17
19440.0	4.1798252849616205e+17
19441.0	4.162570937521491e+17
19442.0	4.1428678260817914e+17
19443.0	4.1219624271872e+17
19444.0	4.0981266002083834e+17
19445.0	4.063358798004224e+17
19446.0	3.9818987390893734e+17
19447.0	3.908470510190588e+17
19448.0	3.835216851719512e+17
19449.0	3.677389283743047e+17
19450.0	3.1996861169882323e+17
19451.0	3.004776395571186e+17
19452.0	3.48450964041457e+17
19453.0	3.781655003835079e+17
19454.0	3.86992753169749e+17
19455.0	3.9366305737168205e+17
19456.0	4.0237619314250925e+17
19457.0	4.075157862394532e+17
19458.0	4.069173969813526e+17
19459.0	4.117741864047968e+17
19460.0	4.140072737002836e+17
19461.0	4.156916278930089e+17
19462.0	4.171655968456704e+17
19463.0	4.187023295731032e+17
19464.0	4.215790589618864e+17
19465.0	4.2352511884984346e+17
19466.0	4.2467487956773485e+17
19467.0	4.2544267718382906e+17
19468.0	4.259692624740353e+17
19469.0	4.263517181968383e+17
19470.0	4.2675013932810234e+17
19471.0	4.2703310217543674e+17
19472.0	4.2727805966527136e+17
19473.0	4.2756400144711674e+17
19474.0	4.277672181323091e+17
19475.0	4.2785809031495674e+17
19476.0	4.2812750877600416e+17
19477.0	4.28307441132066e+17
19478.0	4.285137899836755e+17
19479.0	4.2868642529935354e+17
19480.0	4.2883547268819616e+17
19481.0	4.2897560333626016e+17
19482.0	4.2911356825545376e+17
19483.0	4.292435138751146e+17
19484.0	4.293638276251647e+17
19485.0	4.2947288050783565e+17
19486.0	4.2957972089514656e+17
19487.0	4.2968660574207994e+17
19488.0	4.2978175891101005e+17
19489.0	4.298432448211625e+17
19490.0	4.297954121394857e+17
19491.0	4.3001922558361594e+17
19492.0	4.3009099152315725e+17
19493.0	4.3015324736771405e+17
19494.0	4.3020909732167674e+17
19495.0	4.302595013913259e+17
19496.0	4.302551609158313e+17
19497.0	4.303410485177001e+17
19498.0	4.302434795694761e+17
19499.0	4.295118855077888e+17
19500.0	4.3043349740912634e+17
19501.0	4.3045379091988474e+17
19502.0	4.3046887887994874e+17
19503.0	4.304813185564672e+17
19504.0	4.304892422258688e+17
19505.0	4.3049292838993914e+17
19506.0	4.3049420995952634e+17
19507.0	4.3048899560079354e+17
19508.0	4.304855596269568e+17
19509.0	4.304761423659007e+17
19510.0	4.304406331785215e+17
19511.0	4.2861360442245094e+17
19512.0	4.302506813292544e+17
19513.0	4.3012071159234515e+17
19514.0	4.3017626577797094e+17
19515.0	4.3031176913005216e+17
19516.0	4.303327558194516e+17
19517.0	4.3029921788504736e+17
19518.0	4.302747208428202e+17
19519.0	4.302403969657514e+17
19520.0	4.3020169234786976e+17
19521.0	4.3016970959148365e+17
19522.0	4.301273121685502e+17
19523.0	4.3009054189376845e+17
19524.0	4.3004819438305274e+17
19525.0	4.300048767298218e+17
19526.0	4.299617518747647e+17
19527.0	4.2991530184540154e+17
19528.0	4.298676476313599e+17
19529.0	4.2981918783133e+17
19530.0	4.297716874783402e+17
19531.0	4.297213268197375e+17
19532.0	4.29669927232034e+17
19533.0	4.296175575717206e+17
19534.0	4.295638316832085e+17
19535.0	4.2950859633459194e+17
19536.0	4.294506095924565e+17
19537.0	4.293990900476587e+17
19538.0	4.293221558867285e+17
19539.0	4.292276231252651e+17
19540.0	4.292240482500607e+17
19541.0	4.291673934790656e+17
19542.0	4.2910792530875725e+17
19543.0	4.290464352742057e+17
19544.0	4.289873339656874e+17
19545.0	4.28864229675281e+17
19546.0	4.287691630488234e+17
19547.0	4.288027010531327e+17
19548.0	4.2873903892834976e+17
19549.0	4.2866769472607565e+17
19550.0	4.28612811419375e+17
19551.0	4.285489103590741e+17
19552.0	4.2848420357297485e+17
19553.0	4.284160975131989e+17
19554.0	4.2834973558483616e+17
19555.0	4.282863455305728e+17
19556.0	4.282219478646783e+17
19557.0	4.2815515811730765e+17
19558.0	4.2808851894545056e+17
19559.0	4.280213644334421e+17
19560.0	4.27950950387985e+17
19561.0	4.27883613913088e+17
19562.0	4.2781792440156154e+17
19563.0	4.2775038072804685e+17
19564.0	4.2768188851268256e+17
19565.0	4.276131321959765e+17
19566.0	4.27540954026257e+17
19567.0	4.274746229260287e+17
19568.0	4.2740297820187296e+17
19569.0	4.273334408358569e+17
19570.0	4.272659039431338e+17
19571.0	4.2719487906720416e+17
19572.0	4.2712238415762765e+17
19573.0	4.2705202100305914e+17
19574.0	4.269761130485076e+17
19575.0	4.269135058610859e+17
19576.0	4.2684242387271674e+17
19577.0	4.26767998394914e+17
19578.0	4.2669531250469536e+17
19579.0	4.2662616471961594e+17
19580.0	4.265543324401663e+17
19581.0	4.264840400295253e+17
19582.0	4.264139994868393e+17
19583.0	4.263420643071317e+17
19584.0	4.2626842127674016e+17
19585.0	4.261868797427711e+17
19586.0	4.261110254054059e+17
19587.0	4.2605066825236474e+17
19588.0	4.259287649310038e+17
19589.0	4.259086739352234e+17
19590.0	4.2582509543751674e+17
19591.0	4.2576467516020045e+17
19592.0	4.2569234711401805e+17
19593.0	4.2561751394986656e+17
19594.0	4.255233305739263e+17
19595.0	4.254668758712319e+17
19596.0	4.2538107068743674e+17
19597.0	4.253239136485375e+17
19598.0	4.2519728810011296e+17
19599.0	4.251793597573802e+17
19600.0	4.251068207377066e+17
19601.0	4.250260320813054e+17
19602.0	4.249516452610047e+17
19603.0	4.248371466338302e+17
19604.0	4.2480505405658445e+17
19605.0	4.2470799939993594e+17
19606.0	4.24663667773713e+17
19607.0	4.245906485062314e+17
19608.0	4.24514545516544e+17
19609.0	4.24437244633634e+17
19610.0	4.243673876616533e+17
19611.0	4.24291913957376e+17
19612.0	4.24220296286481e+17
19613.0	4.2414510080436896e+17
19614.0	4.2406797775994874e+17
19615.0	4.239973342860629e+17
19616.0	4.2391752304230394e+17
19617.0	4.238462729322495e+17
19618.0	4.23705546273587e+17
19619.0	4.236184107264682e+17
19620.0	4.2354983749113165e+17
19621.0	4.235497897459712e+17
19622.0	4.2347699704081056e+17
19623.0	4.234024885157888e+17
19624.0	4.233269953779029e+17
19625.0	4.2325335633210016e+17
19626.0	4.231787818866004e+17
19627.0	4.231039931121663e+17
19628.0	4.2301996631326714e+17
19629.0	4.229412123137364e+17
19630.0	4.2283325358516896e+17
19631.0	4.223950601759403e+17
19632.0	4.227301883510783e+17
19633.0	4.226517803816276e+17
19634.0	4.225811027241642e+17
19635.0	4.2250245274337274e+17
19636.0	4.224290687112533e+17
19637.0	4.2232164084176205e+17
19638.0	4.2228027179226445e+17
19639.0	4.222054852547925e+17
19640.0	4.221073028896086e+17
19641.0	4.219302820096684e+17
19642.0	4.2198163951452154e+17
19643.0	4.2190638139746976e+17
19644.0	4.2182531032459936e+17
19645.0	4.217270388304553e+17
19646.0	4.2168117132001274e+17
19647.0	4.216081825311402e+17
19648.0	4.2153349672686925e+17
19649.0	4.2145775262979405e+17
19650.0	4.2138351400823456e+17
19651.0	4.2130818360934394e+17
19652.0	4.2123348703969286e+17
19653.0	4.2115865758050976e+17
19654.0	4.2108316038813005e+17
19655.0	4.210077093330943e+17
