# Flux units: erg / (cm m2 s)
# Wavelength units: Angstrom
wave	flux
19000.0	5.5103557377283405e+17
19001.0	5.509178894319615e+17
19002.0	5.508309718488404e+17
19003.0	5.5072723615525536e+17
19004.0	5.5062462152922445e+17
19005.0	5.5052203367683405e+17
19006.0	5.5042052816459085e+17
19007.0	5.503144185648469e+17
19008.0	5.502077757292543e+17
19009.0	5.501015594543786e+17
19010.0	5.4993646549729254e+17
19011.0	5.499035804063059e+17
19012.0	5.497128126950057e+17
19013.0	5.497056246366207e+17
19014.0	5.495964443170132e+17
19015.0	5.4949537200646816e+17
19016.0	5.493909434837674e+17
19017.0	5.492977078807209e+17
19018.0	5.491906849712809e+17
19019.0	5.490924849900202e+17
19020.0	5.4898926030247245e+17
19021.0	5.488898000027647e+17
19022.0	5.4878718223100576e+17
19023.0	5.486795316439721e+17
19024.0	5.4857730408229536e+17
19025.0	5.484745000135338e+17
19026.0	5.483673972026026e+17
19027.0	5.4820534649268896e+17
19028.0	5.4817604746171725e+17
19029.0	5.480709238030335e+17
19030.0	5.479731963800234e+17
19031.0	5.478724255700308e+17
19032.0	5.477693155267924e+17
19033.0	5.4765445765748045e+17
19034.0	5.475620400835241e+17
19035.0	5.4744201420253856e+17
19036.0	5.422073766390424e+17
19037.0	5.4724665253997235e+17
19038.0	5.47154503471377e+17
19039.0	5.4705720904034976e+17
19040.0	5.4695665241948154e+17
19041.0	5.468539371301545e+17
19042.0	5.46653648069154e+17
19043.0	5.4665307205140474e+17
19044.0	5.4654925813405005e+17
19045.0	5.4644661274978976e+17
19046.0	5.4633905317915296e+17
19047.0	5.462446242267134e+17
19048.0	5.460969638942036e+17
19049.0	5.458557140292947e+17
19050.0	5.459312535142399e+17
19051.0	5.450790077115037e+17
19052.0	5.456235172200448e+17
19053.0	5.4563604315941536e+17
19054.0	5.4553705157317965e+17
19055.0	5.4537468873714336e+17
19056.0	5.4532147714020685e+17
19057.0	5.452325718065151e+17
19058.0	5.450374206980094e+17
19059.0	5.4499536657885856e+17
19060.0	5.4492576888477005e+17
19061.0	5.4482890087464954e+17
19062.0	5.447269541216255e+17
19063.0	5.44626115294003e+17
19064.0	5.4450629654173005e+17
19065.0	5.4439982070934176e+17
19066.0	5.4428181809070074e+17
19067.0	5.4422022417722003e+17
19068.0	5.4412091655017805e+17
19069.0	5.440201105080318e+17
19070.0	5.4391467059882656e+17
19071.0	5.4381429810790394e+17
19072.0	5.436818870064467e+17
19073.0	5.436154711113726e+17
19074.0	5.4351531490672634e+17
19075.0	5.434143961776126e+17
19076.0	5.433104161658196e+17
19077.0	5.432101775430995e+17
19078.0	5.4310495189292365e+17
19079.0	5.430104645697535e+17
19080.0	5.429079708794878e+17
19081.0	5.428026019938304e+17
19082.0	5.4270201552349856e+17
19083.0	5.4259449880466765e+17
19084.0	5.424766510956543e+17
19085.0	5.4240332732170234e+17
19086.0	5.4220249300118176e+17
19087.0	5.420037447177557e+17
19088.0	5.42037647766323e+17
19089.0	5.419123620883113e+17
19090.0	5.4189574600349005e+17
19091.0	5.417888949207039e+17
19092.0	5.4159607500636154e+17
19093.0	5.4160057276825594e+17
19094.0	5.415007017762815e+17
19095.0	5.4140030146314234e+17
19096.0	5.412972587384832e+17
19097.0	5.411990568697855e+17
19098.0	5.4106027364188154e+17
19099.0	5.409523896418304e+17
19100.0	5.408882941755391e+17
19101.0	5.4079432561786874e+17
19102.0	5.406785672314879e+17
19103.0	5.405965186760703e+17
19104.0	5.4049661433937914e+17
19105.0	5.4031237806817286e+17
19106.0	5.4027124627647136e+17
19107.0	5.401704247154005e+17
19108.0	5.400618397073407e+17
19109.0	5.3966280725626835e+17
19110.0	5.398811314749438e+17
19111.0	5.397684036829183e+17
19112.0	5.3966593012531194e+17
19113.0	5.3959373692600314e+17
19114.0	5.394780093677567e+17
19115.0	5.393731158365524e+17
19116.0	5.3929116563756365e+17
19117.0	5.391901865104725e+17
19118.0	5.3906058678108154e+17
19119.0	5.377525342885186e+17
19120.0	5.3884932625967763e+17
19121.0	5.3876384214985376e+17
19122.0	5.3869421467620685e+17
19123.0	5.385944010063871e+17
19124.0	5.3847142030813856e+17
19125.0	5.3839254579227296e+17
19126.0	5.38292983501073e+17
19127.0	5.379249136817491e+17
19128.0	5.380594915606526e+17
19129.0	5.379837844433578e+17
19130.0	5.3789307674733216e+17
19131.0	5.377945015156734e+17
19132.0	5.376952851846485e+17
19133.0	5.3758281576174925e+17
19134.0	5.374802952279381e+17
19135.0	5.373947026953556e+17
19136.0	5.372970862815915e+17
19137.0	5.3717309223949645e+17
19138.0	5.370949832540158e+17
19139.0	5.369981397106688e+17
19140.0	5.368987674913451e+17
19141.0	5.3679919625229645e+17
19142.0	5.366946696527871e+17
19143.0	5.3659104161300474e+17
19144.0	5.364951954751487e+17
19145.0	5.364003308743338e+17
19146.0	5.3621170540380154e+17
19147.0	5.361873460745555e+17
19148.0	5.3607035330450765e+17
19149.0	5.3596605543437645e+17
19150.0	5.359025956148564e+17
19151.0	5.358035074198186e+17
19152.0	5.356994870728021e+17
19153.0	5.355419373404159e+17
19154.0	5.354797748890283e+17
19155.0	5.354049635352575e+17
19156.0	5.3530615971403085e+17
19157.0	5.3517675676740256e+17
19158.0	5.348507574949203e+17
19159.0	5.3500239633448954e+17
19160.0	5.349030883579219e+17
19161.0	5.348043419986602e+17
19162.0	5.3419823291433e+17
19163.0	5.3459221989730976e+17
19164.0	5.3451123844273485e+17
19165.0	5.343345886887934e+17
19166.0	5.3428166838626976e+17
19167.0	5.341669961848147e+17
19168.0	5.3411452467281914e+17
19169.0	5.340073035825151e+17
19170.0	5.33918369587746e+17
19171.0	5.337872905972394e+17
19172.0	5.337167779856382e+17
19173.0	5.336202323077802e+17
19174.0	5.3351454430549325e+17
19175.0	5.334244443641173e+17
19176.0	5.333253836417706e+17
19177.0	5.332045070860287e+17
19178.0	5.331129761879381e+17
19179.0	5.329826439932586e+17
19180.0	5.3292713964994554e+17
19181.0	5.328096428643668e+17
19182.0	5.327288716842324e+17
19183.0	5.326340833498453e+17
19184.0	5.325346787644756e+17
19185.0	5.3243494520586234e+17
19186.0	5.3233774332914336e+17
19187.0	5.322289472776873e+17
19188.0	5.32139292491776e+17
19189.0	5.32040430789154e+17
19190.0	5.319393818269013e+17
19191.0	5.3183396862143136e+17
19192.0	5.317450532913151e+17
19193.0	5.316362936603988e+17
19194.0	5.315320169015978e+17
19195.0	5.314470729482239e+17
19196.0	5.313437338260821e+17
19197.0	5.3124089221829965e+17
19198.0	5.3111737143350605e+17
19199.0	5.2800291210963546e+17
19200.0	5.288342138650635e+17
19201.0	5.3082565318628685e+17
19202.0	5.3075070915269965e+17
19203.0	5.3064805915470496e+17
19204.0	5.305558867378175e+17
19205.0	5.3046274292012365e+17
19206.0	5.3036414210321056e+17
19207.0	5.302525806772223e+17
19208.0	5.3013350326818106e+17
19209.0	5.300708187657557e+17
19210.0	5.2997246254667085e+17
19211.0	5.298761493730645e+17
19212.0	5.29777124512017e+17
19213.0	5.296412378005504e+17
19214.0	5.295295755015509e+17
19215.0	5.2947051683512314e+17
19216.0	5.2938483146861216e+17
19217.0	5.2928528686339405e+17
19218.0	5.2906610134439226e+17
19219.0	5.290694687413589e+17
19220.0	5.289872272479573e+17
19221.0	5.288465718225578e+17
19222.0	5.287948937330687e+17
19223.0	5.286953461219326e+17
19224.0	5.2859401229653325e+17
19225.0	5.2848044179892896e+17
19226.0	5.284007608582143e+17
19227.0	5.283032151184725e+17
19228.0	5.2820862594362016e+17
19229.0	5.28110497894673e+17
19230.0	5.28010197405969e+17
19231.0	5.279119074568874e+17
19232.0	5.278150484645206e+17
19233.0	5.277080529578666e+17
19234.0	5.276172023758847e+17
19235.0	5.275180353978367e+17
19236.0	5.274247462475092e+17
19237.0	5.2732413279382195e+17
19238.0	5.272108305219583e+17
19239.0	5.2713140774065485e+17
19240.0	5.2703226019621536e+17
19241.0	5.269324536567124e+17
19242.0	5.2683568707884365e+17
19243.0	5.2671754171405645e+17
19244.0	5.266424500409683e+17
19245.0	5.265438391577258e+17
19246.0	5.2644425603481594e+17
19247.0	5.2634778396699296e+17
19248.0	5.262502868811775e+17
19249.0	5.261489557820757e+17
19250.0	5.260396508217343e+17
19251.0	5.259286371718483e+17
19252.0	5.258213533067947e+17
19253.0	5.257587158504788e+17
19254.0	5.256643516301311e+17
19255.0	5.255411888990889e+17
19256.0	5.2546443376503456e+17
19257.0	5.253714575097856e+17
19258.0	5.2527402879112525e+17
19259.0	5.251661852661077e+17
19260.0	5.249633401962493e+17
19261.0	5.249789942475434e+17
19262.0	5.2487413895441056e+17
19263.0	5.2477526809422496e+17
19264.0	5.2460346961210016e+17
19265.0	5.245589854530217e+17
19266.0	5.244471391638868e+17
19267.0	5.243953601314815e+17
19268.0	5.2429684285112314e+17
19269.0	5.241996605478228e+17
19270.0	5.2410203742317216e+17
19271.0	5.23952176549069e+17
19272.0	5.2390202434737485e+17
19273.0	5.2373912380156576e+17
19274.0	5.2364035234638483e+17
19275.0	5.2361448963877536e+17
19276.0	5.235139962120873e+17
19277.0	5.2341724403466234e+17
19278.0	5.2331815751734605e+17
19279.0	5.232179173567147e+17
19280.0	5.2311219160569165e+17
19281.0	5.230259196657662e+17
19282.0	5.2292986891578003e+17
19283.0	5.2278923516095136e+17
19284.0	5.227199085587113e+17
19285.0	5.226123284359849e+17
19286.0	5.225335944992083e+17
19287.0	5.2243802882047994e+17
19288.0	5.209642857310878e+17
19289.0	5.187963322717465e+17
19290.0	5.2214415742730234e+17
19291.0	5.2201513965759136e+17
19292.0	5.2195402515305805e+17
19293.0	5.2185564027289594e+17
19294.0	5.217569099917993e+17
19295.0	5.2164941648145056e+17
19296.0	5.215076156615339e+17
19297.0	5.2143616569289376e+17
19298.0	5.213475873051989e+17
19299.0	5.2120881980593485e+17
19300.0	5.2115382451131725e+17
19301.0	5.210576044512598e+17
19302.0	5.209585723899902e+17
19303.0	5.2084986595682976e+17
19304.0	5.2075969694924794e+17
19305.0	5.206636472478378e+17
19306.0	5.205646460147028e+17
19307.0	5.204584158986239e+17
19308.0	5.203640514685609e+17
19309.0	5.201569256920404e+17
19310.0	5.2002253851415866e+17
19311.0	5.200581243174911e+17
19312.0	5.1997555720628896e+17
19313.0	5.198749150915241e+17
19314.0	5.113461333120361e+17
19315.0	5.119188790149233e+17
19316.0	5.1949818934722554e+17
19317.0	5.1946674101507405e+17
19318.0	5.193694962166442e+17
19319.0	5.192741912139093e+17
19320.0	5.1915806316953594e+17
19321.0	5.1904175267293856e+17
19322.0	5.189614132264959e+17
19323.0	5.1883184830982816e+17
19324.0	5.1877417187628365e+17
19325.0	5.1857229736837114e+17
19326.0	5.1857981474952525e+17
19327.0	5.184809343822506e+17
19328.0	5.183119624415915e+17
19329.0	5.1828674516746234e+17
19330.0	5.18181713224226e+17
19331.0	5.180815113715711e+17
19332.0	5.1798735560813216e+17
19333.0	5.178852761752915e+17
19334.0	5.177864760590336e+17
19335.0	5.1754196148770144e+17
19336.0	5.175855077305002e+17
19337.0	5.1748929864553805e+17
19338.0	5.17359335969041e+17
19339.0	5.172880321019903e+17
19340.0	5.1716049401282554e+17
19341.0	5.170282241895083e+17
19342.0	5.16907470037538e+17
19343.0	5.1688643756031994e+17
19344.0	5.1673151171461126e+17
19345.0	5.1631962707722176e+17
19346.0	5.1643122457422496e+17
19347.0	5.1637940828241914e+17
19348.0	5.163572662719828e+17
19349.0	5.1624942051000314e+17
19350.0	5.161223366639615e+17
19351.0	5.160448980680703e+17
19352.0	5.158634768738985e+17
19353.0	5.158461694279679e+17
19354.0	5.157439235511636e+17
19355.0	5.1562653372033696e+17
19356.0	5.155367475129002e+17
19357.0	5.1543331933170336e+17
19358.0	5.153271330461013e+17
19359.0	5.151994944334506e+17
19360.0	5.150576312582143e+17
19361.0	5.1500835510681594e+17
19362.0	5.1490962720249165e+17
19363.0	5.1478970548005536e+17
19364.0	5.146650708978345e+17
19365.0	5.145584866426879e+17
19366.0	5.144513355273556e+17
19367.0	5.1434317239637325e+17
19368.0	5.142359931792041e+17
19369.0	5.141179786067967e+17
19370.0	5.140088347077289e+17
19371.0	5.1390094329774074e+17
19372.0	5.137964134126932e+17
19373.0	5.1367705065117005e+17
19374.0	5.1352629247563085e+17
19375.0	5.13413765800482e+17
19376.0	5.133019427897342e+17
19377.0	5.1318658677691725e+17
19378.0	5.1307256161675936e+17
19379.0	5.1295754107835725e+17
19380.0	5.128340187556521e+17
19381.0	5.126675098501119e+17
19382.0	5.125393468795561e+17
19383.0	5.124142992282964e+17
19384.0	5.123084023496702e+17
19385.0	5.1218370163725645e+17
19386.0	5.119675530040659e+17
19387.0	5.118333879145812e+17
19388.0	5.1170759542483616e+17
19389.0	5.1156527730742605e+17
19390.0	5.113561315540992e+17
19391.0	5.0649733983982214e+17
19392.0	5.110268656877563e+17
19393.0	5.109102047570602e+17
19394.0	5.10771935051776e+17
19395.0	5.106072517869568e+17
19396.0	5.1048169005383674e+17
19397.0	5.103532736774143e+17
19398.0	5.1018059313315834e+17
19399.0	5.09894866449203e+17
19400.0	5.0981725742475936e+17
19401.0	5.096874014233941e+17
19402.0	5.095297795489791e+17
19403.0	5.093652939756885e+17
19404.0	5.092018485897898e+17
19405.0	5.090289557438464e+17
19406.0	5.0878351947421005e+17
19407.0	5.085551166925481e+17
19408.0	5.082717288923139e+17
19409.0	5.0820153029427194e+17
19410.0	5.079197010274985e+17
19411.0	5.076659584980308e+17
19412.0	5.0745297278948685e+17
19413.0	5.070792348576426e+17
19414.0	5.068127956107262e+17
19415.0	5.064612860919807e+17
19416.0	5.060392969568255e+17
19417.0	5.055432743714815e+17
19418.0	5.051326587906731e+17
19419.0	5.045276892288338e+17
19420.0	5.03758776487117e+17
19421.0	5.028335993574746e+17
19422.0	5.017989269159939e+17
19423.0	5.011158795463338e+17
19424.0	5.0066568700231674e+17
19425.0	5.0019144704546125e+17
19426.0	4.9963162839722656e+17
19427.0	4.9909305375894176e+17
19428.0	4.98532077342993e+17
19429.0	4.978644095773355e+17
19430.0	4.9713596173298374e+17
19431.0	4.9562437239002586e+17
19432.0	4.955606895034364e+17
19433.0	4.9445995991968403e+17
19434.0	4.92992514507844e+17
19435.0	4.9065506118478406e+17
19436.0	4.867243824032437e+17
19437.0	4.84618038096691e+17
19438.0	4.7494324209145306e+17
19439.0	4.80585593825963e+17
19440.0	4.7861561759716685e+17
19441.0	4.763708175679487e+17
19442.0	4.7399640466718726e+17
19443.0	4.7159169316290554e+17
19444.0	4.690015812583423e+17
19445.0	4.655902155429207e+17
19446.0	4.579501651875165e+17
19447.0	4.485696925816145e+17
19448.0	4.404572109930498e+17
19449.0	4.25195832397005e+17
19450.0	3.843816920449069e+17
19451.0	3.6253544568149485e+17
19452.0	4.092652279212704e+17
19453.0	4.346538620878846e+17
19454.0	4.44400663876949e+17
19455.0	4.5218003649822406e+17
19456.0	4.620430424582835e+17
19457.0	4.665315982049282e+17
19458.0	4.479872708990635e+17
19459.0	4.709250297932518e+17
19460.0	4.737091667755006e+17
19461.0	4.758644729402709e+17
19462.0	4.779139186469547e+17
19463.0	4.7979737589131936e+17
19464.0	4.8150443909447674e+17
19465.0	4.83233273251977e+17
19466.0	4.865115927085056e+17
19467.0	4.8922285065284205e+17
19468.0	4.908051852514645e+17
19469.0	4.91791982019652e+17
19470.0	4.9265511288012806e+17
19471.0	4.932659601298773e+17
19472.0	4.938186111320062e+17
19473.0	4.942496366155093e+17
19474.0	4.9464947052817043e+17
19475.0	4.949216633815038e+17
19476.0	4.9540941144391674e+17
19477.0	4.957461280718847e+17
19478.0	4.9602517064308045e+17
19479.0	4.9632126879225146e+17
19480.0	4.970930169533777e+17
19481.0	4.97869046520218e+17
19482.0	4.9847988013847866e+17
19483.0	4.989528801192619e+17
19484.0	4.993364174831615e+17
19485.0	4.996409638693549e+17
19486.0	4.99734843158255e+17
19487.0	5.000842352525314e+17
19488.0	5.001379482086058e+17
19489.0	5.002946866926934e+17
19490.0	5.001524448417105e+17
19491.0	5.004012788471125e+17
19492.0	5.0052728496674125e+17
19493.0	5.005615942336511e+17
19494.0	5.005618500861951e+17
19495.0	5.005564033630207e+17
19496.0	5.005292249721514e+17
19497.0	5.0061591613276154e+17
19498.0	5.001486596920666e+17
19499.0	4.9309718196605805e+17
19500.0	5.005473129081515e+17
19501.0	5.005265063641087e+17
19502.0	5.00492954308881e+17
19503.0	5.005067561555285e+17
19504.0	5.00483083154227e+17
19505.0	5.0043972740273485e+17
19506.0	5.0039822238788256e+17
19507.0	5.003476486586366e+17
19508.0	5.003023703080959e+17
19509.0	5.002585204675924e+17
19510.0	5.0019639856114336e+17
19511.0	4.85457774317831e+17
19512.0	4.990024017772518e+17
19513.0	4.98027284957317e+17
19514.0	4.98564606267663e+17
19515.0	4.999188100852396e+17
19516.0	4.999701827594921e+17
19517.0	4.999755728595626e+17
19518.0	4.9993719623625376e+17
19519.0	4.9986656436660896e+17
19520.0	4.99762150454067e+17
19521.0	4.9975201526797645e+17
19522.0	4.9969917262998176e+17
19523.0	4.996492576161791e+17
19524.0	4.995539455530326e+17
19525.0	4.9951925879876256e+17
19526.0	4.994496155265706e+17
19527.0	4.993749727838208e+17
19528.0	4.992964003976531e+17
19529.0	4.9922310626344954e+17
19530.0	4.9919175384104954e+17
19531.0	4.991156679081982e+17
19532.0	4.990390016234836e+17
19533.0	4.9896180168349005e+17
19534.0	4.988836129363283e+17
19535.0	4.9880308139076256e+17
19536.0	4.9872118124380154e+17
19537.0	4.9864715925804365e+17
19538.0	4.9850320578150406e+17
19539.0	4.983997066466647e+17
19540.0	4.9840384824224416e+17
19541.0	4.983272213839871e+17
19542.0	4.9826930804217165e+17
19543.0	4.981397704583851e+17
19544.0	4.981079855333375e+17
19545.0	4.9796167884253843e+17
19546.0	4.978112088855894e+17
19547.0	4.978709914888875e+17
19548.0	4.9778835160651085e+17
19549.0	4.976913214865406e+17
19550.0	4.9762194434293754e+17
19551.0	4.9753881477556896e+17
19552.0	4.974549199574356e+17
19553.0	4.973675735766356e+17
19554.0	4.9728055595936416e+17
19555.0	4.97194123866931e+17
19556.0	4.97113489281297e+17
19557.0	4.970321149602475e+17
19558.0	4.9694819931040416e+17
19559.0	4.968656103888213e+17
19560.0	4.967577523235498e+17
19561.0	4.9669145729433574e+17
19562.0	4.9658979267816083e+17
19563.0	4.965246664616619e+17
19564.0	4.9645362417937056e+17
19565.0	4.9637392639153485e+17
19566.0	4.962834299486208e+17
19567.0	4.9620185856518816e+17
19568.0	4.9611251122176e+17
19569.0	4.9602628814547616e+17
19570.0	4.959426110117204e+17
19571.0	4.958556475708757e+17
19572.0	4.9576537244740256e+17
19573.0	4.956740728651775e+17
19574.0	4.9558169234090656e+17
19575.0	4.955102358011903e+17
19576.0	4.954192549860693e+17
19577.0	4.9532318864725325e+17
19578.0	4.9524263829722445e+17
19579.0	4.951584296752469e+17
19580.0	4.950715448776021e+17
19581.0	4.9498551655683405e+17
19582.0	4.94901031739938e+17
19583.0	4.948137551243946e+17
19584.0	4.947241551440553e+17
19585.0	4.946226911554217e+17
19586.0	4.9453008253091834e+17
19587.0	4.944442790248447e+17
19588.0	4.9430466909962234e+17
19589.0	4.942855425840468e+17
19590.0	4.941808388450985e+17
19591.0	4.941121893433343e+17
19592.0	4.9402557766478496e+17
19593.0	4.9393032145578656e+17
19594.0	4.9380939149257363e+17
19595.0	4.9375812668183885e+17
19596.0	4.9360439488457376e+17
19597.0	4.935843129065472e+17
19598.0	4.934222201836883e+17
19599.0	4.934105207319209e+17
19600.0	4.933240181751807e+17
19601.0	4.932261387785557e+17
19602.0	4.931405399545172e+17
19603.0	4.9294699253814586e+17
19604.0	4.9296034804094285e+17
19605.0	4.928398851134805e+17
19606.0	4.927950538757461e+17
19607.0	4.9270834356114765e+17
19608.0	4.9261772932819616e+17
19609.0	4.925244007514111e+17
19610.0	4.9241763711986336e+17
19611.0	4.9231747322565965e+17
19612.0	4.9226809417400314e+17
19613.0	4.9217848391761914e+17
19614.0	4.9208627487047674e+17
19615.0	4.9200271909191674e+17
19616.0	4.918464313556992e+17
19617.0	4.9178799666189645e+17
19618.0	4.9164691761179283e+17
19619.0	4.9153168218521574e+17
19620.0	4.914424007622654e+17
19621.0	4.914217767403519e+17
19622.0	4.913866101577044e+17
19623.0	4.9129553350273696e+17
19624.0	4.912006534529024e+17
19625.0	4.911216487038974e+17
19626.0	4.9103215099467085e+17
19627.0	4.9094321909705376e+17
19628.0	4.907757816425132e+17
19629.0	4.906185306843817e+17
19630.0	4.9047181581789875e+17
19631.0	4.872028801378984e+17
19632.0	4.9048679304833696e+17
19633.0	4.9039844380945056e+17
19634.0	4.9032688220241914e+17
19635.0	4.902266993639423e+17
19636.0	4.9009203997573094e+17
19637.0	4.899606562690389e+17
19638.0	4.899683416320682e+17
19639.0	4.898859683676159e+17
19640.0	4.897854470488064e+17
19641.0	4.8951838292049965e+17
19642.0	4.8961832836136954e+17
19643.0	4.8952902582708896e+17
19644.0	4.8943838335249056e+17
19645.0	4.8931696726944416e+17
19646.0	4.892079522054143e+17
19647.0	4.891819198382079e+17
19648.0	4.8909526740500474e+17
19649.0	4.8900672592718496e+17
19650.0	4.889195520021845e+17
19651.0	4.888309048279038e+17
19652.0	4.8874262122987514e+17
19653.0	4.8865361103858336e+17
19654.0	4.885666340361556e+17
19655.0	4.884780594233343e+17
