# Flux units: erg / (cm m2 s)
# Wavelength units: Angstrom
wave	flux
19000.0	4.811771976089598e+17
19001.0	4.8108022145570125e+17
19002.0	4.8100937190167885e+17
19003.0	4.8092400691008845e+17
19004.0	4.808383463598762e+17
19005.0	4.8075217284628474e+17
19006.0	4.8066911863657805e+17
19007.0	4.8058535607883085e+17
19008.0	4.804964271871316e+17
19009.0	4.803933376959829e+17
19010.0	4.802988691772756e+17
19011.0	4.8024066440123725e+17
19012.0	4.8014564034696525e+17
19013.0	4.800816003153919e+17
19014.0	4.7999080370012154e+17
19015.0	4.7990552909578234e+17
19016.0	4.7982508143629645e+17
19017.0	4.797446748809898e+17
19018.0	4.796597955198975e+17
19019.0	4.7957700443286176e+17
19020.0	4.7949147984800416e+17
19021.0	4.794091850869417e+17
19022.0	4.793252801325738e+17
19023.0	4.7923381410638496e+17
19024.0	4.7914849776872096e+17
19025.0	4.7907089314829645e+17
19026.0	4.7898523252817914e+17
19027.0	4.789006137731755e+17
19028.0	4.7881809748295674e+17
19029.0	4.787330325239125e+17
19030.0	4.7865105499204256e+17
19031.0	4.7856802776569165e+17
19032.0	4.7848371470554445e+17
19033.0	4.78385611612706e+17
19034.0	4.7830528978234016e+17
19035.0	4.7817376675485e+17
19036.0	4.7775594934435834e+17
19037.0	4.780180153303039e+17
19038.0	4.779696498322089e+17
19039.0	4.778943717922132e+17
19040.0	4.7781208877520205e+17
19041.0	4.7772886155045536e+17
19042.0	4.774143822135292e+17
19043.0	4.7756451788445e+17
19044.0	4.7748042747194016e+17
19045.0	4.7739445885009914e+17
19046.0	4.773064838829396e+17
19047.0	4.7722097642482336e+17
19048.0	4.771012432363519e+17
19049.0	4.765855393688227e+17
19050.0	4.769622203738794e+17
19051.0	4.7683623962978976e+17
19052.0	4.767766452808361e+17
19053.0	4.7672226480127994e+17
19054.0	4.766425624696149e+17
19055.0	4.764652833603585e+17
19056.0	4.7645561472068256e+17
19057.0	4.763950379259221e+17
19058.0	4.760734768562171e+17
19059.0	4.761342670012414e+17
19060.0	4.761452451725311e+17
19061.0	4.760605319757824e+17
19062.0	4.759762322675029e+17
19063.0	4.758942020971177e+17
19064.0	4.7580368915660806e+17
19065.0	4.757117163186857e+17
19066.0	4.7555215227180384e+17
19067.0	4.7555770168552096e+17
19068.0	4.754802171620011e+17
19069.0	4.753963755416233e+17
19070.0	4.7530844265731405e+17
19071.0	4.7522781016883194e+17
19072.0	4.7505678455712403e+17
19073.0	4.750638843953152e+17
19074.0	4.749782878781439e+17
19075.0	4.7489758045143034e+17
19076.0	4.748124424415913e+17
19077.0	4.747283710432596e+17
19078.0	4.746430484840447e+17
19079.0	4.7456344129317536e+17
19080.0	4.744806364348415e+17
19081.0	4.743922340681045e+17
19082.0	4.7431430879313914e+17
19083.0	4.7422299851543885e+17
19084.0	4.7412655713594016e+17
19085.0	4.7406356547065165e+17
19086.0	4.738241543187113e+17
19087.0	4.7370077628006374e+17
19088.0	4.736900596236285e+17
19089.0	4.7371301148426234e+17
19090.0	4.7364757593784314e+17
19091.0	4.735530740045141e+17
19092.0	4.7329676847568256e+17
19093.0	4.7340329960297805e+17
19094.0	4.733208708339029e+17
19095.0	4.732372905186644e+17
19096.0	4.731549561214293e+17
19097.0	4.730722094241108e+17
19098.0	4.728948277641214e+17
19099.0	4.727910649473707e+17
19100.0	4.7282107666049696e+17
19101.0	4.7273748676826445e+17
19102.0	4.726482637160446e+17
19103.0	4.725738787831807e+17
19104.0	4.724942257345877e+17
19105.0	4.722013076368049e+17
19106.0	4.723259639595008e+17
19107.0	4.721930915545086e+17
19108.0	4.7207930113556474e+17
19109.0	4.720709397905407e+17
19110.0	4.7199192686264314e+17
19111.0	4.718527789400063e+17
19112.0	4.717597685011795e+17
19113.0	4.717489365712896e+17
19114.0	4.7162457657617043e+17
19115.0	4.715716434111145e+17
19116.0	4.714943950968149e+17
19117.0	4.714056323694591e+17
19118.0	4.7125192566811296e+17
19119.0	4.7000658564000294e+17
19120.0	4.7112475353197216e+17
19121.0	4.7107679474155514e+17
19122.0	4.710045749084159e+17
19123.0	4.709246115512319e+17
19124.0	4.7083815072781645e+17
19125.0	4.7075489568085325e+17
19126.0	4.706524022003029e+17
19127.0	4.7047069187877536e+17
19128.0	4.704828103415124e+17
19129.0	4.7041825881456614e+17
19130.0	4.703480913941845e+17
19131.0	4.7026877850364576e+17
19132.0	4.7018634484121594e+17
19133.0	4.7010110428064416e+17
19134.0	4.700226686287871e+17
19135.0	4.6994067704599885e+17
19136.0	4.6985657474962765e+17
19137.0	4.697664288806229e+17
19138.0	4.6969167086441805e+17
19139.0	4.696134253543423e+17
19140.0	4.6953207906522445e+17
19141.0	4.6944995347442336e+17
19142.0	4.6936442784098976e+17
19143.0	4.692816422065492e+17
19144.0	4.6919799736893434e+17
19145.0	4.6912073304637446e+17
19146.0	4.689655594571093e+17
19147.0	4.689520791038634e+17
19148.0	4.687996757125803e+17
19149.0	4.687026023912789e+17
19150.0	4.687130659913728e+17
19151.0	4.686301646640467e+17
19152.0	4.6854825368180045e+17
19153.0	4.682996797232465e+17
19154.0	4.6836564752684365e+17
19155.0	4.6830140512010234e+17
19156.0	4.682200549862058e+17
19157.0	4.6808696650465286e+17
19158.0	4.679373719688535e+17
19159.0	4.679704771209898e+17
19160.0	4.6789037500224845e+17
19161.0	4.6780641041885856e+17
19162.0	4.677159484391423e+17
19163.0	4.6764089766051834e+17
19164.0	4.675644848515753e+17
19165.0	4.673062594499921e+17
19166.0	4.6739163989060256e+17
19167.0	4.673204631808682e+17
19168.0	4.672406575295147e+17
19169.0	4.6715958764503034e+17
19170.0	4.670790745544021e+17
19171.0	4.669958745926315e+17
19172.0	4.6691555786533536e+17
19173.0	4.6683501674277536e+17
19174.0	4.667498486737578e+17
19175.0	4.6667089607393274e+17
19176.0	4.665907963319636e+17
19177.0	4.664913556056746e+17
19178.0	4.664262495917397e+17
19179.0	4.663456871481344e+17
19180.0	4.662628704758442e+17
19181.0	4.6617092224450554e+17
19182.0	4.660950291797334e+17
19183.0	4.6602059153844896e+17
19184.0	4.659406507606015e+17
19185.0	4.6585769148197536e+17
19186.0	4.6577749268452685e+17
19187.0	4.656904080282964e+17
19188.0	4.6561523128074234e+17
19189.0	4.6553358754556576e+17
19190.0	4.654524172075007e+17
19191.0	4.6536730736940365e+17
19192.0	4.652876933278378e+17
19193.0	4.651842490684758e+17
19194.0	4.6508727235597645e+17
19195.0	4.650368519984468e+17
19196.0	4.649468878127102e+17
19197.0	4.648514364986708e+17
19198.0	4.6473327009245856e+17
19199.0	4.645626179835221e+17
19200.0	4.6449263937672525e+17
19201.0	4.644946515940692e+17
19202.0	4.6444903958664525e+17
19203.0	4.6438084062303565e+17
19204.0	4.6430739794056525e+17
19205.0	4.642290100338687e+17
19206.0	4.6415012111755936e+17
19207.0	4.640512918508885e+17
19208.0	4.639741792922282e+17
19209.0	4.6391016197980166e+17
19210.0	4.638295540979029e+17
19211.0	4.6375188250842445e+17
19212.0	4.6367049154996896e+17
19213.0	4.6357874842009594e+17
19214.0	4.635020768225962e+17
19215.0	4.634272652591104e+17
19216.0	4.6334587912410445e+17
19217.0	4.63256047198754e+17
19218.0	4.6313974998411936e+17
19219.0	4.630750733271039e+17
19220.0	4.6301715495212365e+17
19221.0	4.6292755846703776e+17
19222.0	4.628549593989119e+17
19223.0	4.627797223931904e+17
19224.0	4.626957895467008e+17
19225.0	4.626164224098302e+17
19226.0	4.6254063986496845e+17
19227.0	4.6246138758212256e+17
19228.0	4.623841766670334e+17
19229.0	4.623010188580181e+17
19230.0	4.622220917735423e+17
19231.0	4.6214181202602656e+17
19232.0	4.620621048010068e+17
19233.0	4.6197530892260685e+17
19234.0	4.61899501281826e+17
19235.0	4.618169244538197e+17
19236.0	4.617406790675114e+17
19237.0	4.6165760661258234e+17
19238.0	4.6157014887301126e+17
19239.0	4.615001463586815e+17
19240.0	4.6141823474728954e+17
19241.0	4.6133808005993805e+17
19242.0	4.612561197946196e+17
19243.0	4.611625765393748e+17
19244.0	4.610985216180223e+17
19245.0	4.610178675288745e+17
19246.0	4.609381047293268e+17
19247.0	4.608576848920575e+17
19248.0	4.607781070613161e+17
19249.0	4.6069281449137485e+17
19250.0	4.6058282592938656e+17
19251.0	4.6049707534144826e+17
19252.0	4.604248320901119e+17
19253.0	4.60374552870912e+17
19254.0	4.6029823177741645e+17
19255.0	4.601955585010346e+17
19256.0	4.601359157777748e+17
19257.0	4.600570626528596e+17
19258.0	4.599765022365012e+17
19259.0	4.598882020010666e+17
19260.0	4.5979874476687354e+17
19261.0	4.5973385755579725e+17
19262.0	4.5964600778861216e+17
19263.0	4.595562024970921e+17
19264.0	4.594509086894761e+17
19265.0	4.5938794079191034e+17
19266.0	4.5929860057879885e+17
19267.0	4.59255288238353e+17
19268.0	4.591752435815764e+17
19269.0	4.59096113213167e+17
19270.0	4.5901004735337805e+17
19271.0	4.5891259976034976e+17
19272.0	4.588525357891583e+17
19273.0	4.5875769516578125e+17
19274.0	4.58652711526946e+17
19275.0	4.5861998414178976e+17
19276.0	4.5853783086858234e+17
19277.0	4.5845955026616314e+17
19278.0	4.583762367086591e+17
19279.0	4.582969144508415e+17
19280.0	4.5821556648400205e+17
19281.0	4.5813854214553594e+17
19282.0	4.5806071438813856e+17
19283.0	4.579800075905706e+17
19284.0	4.578956434298196e+17
19285.0	4.578131574784e+17
19286.0	4.577309580678485e+17
19287.0	4.5764434142603936e+17
19288.0	4.574030761820159e+17
19289.0	4.572449100267518e+17
19290.0	4.574045618743978e+17
19291.0	4.57312186593007e+17
19292.0	4.5726398907678714e+17
19293.0	4.571858771552938e+17
19294.0	4.57105876328994e+17
19295.0	4.5702817754644474e+17
19296.0	4.5684614265569306e+17
19297.0	4.568525249183744e+17
19298.0	4.567872091193344e+17
19299.0	4.565971540901889e+17
19300.0	4.5663004246671354e+17
19301.0	4.565521004145321e+17
19302.0	4.5647118935435936e+17
19303.0	4.563855437638314e+17
19304.0	4.5631251366106445e+17
19305.0	4.562318784462847e+17
19306.0	4.56153693753617e+17
19307.0	4.56068443546146e+17
19308.0	4.559895193976831e+17
19309.0	4.5590687888616083e+17
19310.0	4.5582412750520314e+17
19311.0	4.557437187129342e+17
19312.0	4.556605813161983e+17
19313.0	4.555487977319082e+17
19314.0	4.535251216891901e+17
19315.0	4.535887708116327e+17
19316.0	4.551821445387607e+17
19317.0	4.552643834456745e+17
19318.0	4.551972862558207e+17
19319.0	4.55121622339857e+17
19320.0	4.550065077791401e+17
19321.0	4.5487505598491296e+17
19322.0	4.5488570140808525e+17
19323.0	4.548075655091541e+17
19324.0	4.5472915677074765e+17
19325.0	4.546510974877695e+17
19326.0	4.545725511062868e+17
19327.0	4.544943415274153e+17
19328.0	4.5422654444448435e+17
19329.0	4.543376856711168e+17
19330.0	4.5425814544930125e+17
19331.0	4.54175253069824e+17
19332.0	4.5410212824569165e+17
19333.0	4.5402199494929056e+17
19334.0	4.5393932493783034e+17
19335.0	4.5347984921067565e+17
19336.0	4.5378343964508154e+17
19337.0	4.5370724011649696e+17
19338.0	4.5360462786723834e+17
19339.0	4.535465327023444e+17
19340.0	4.534376203987626e+17
19341.0	4.5323043492331546e+17
19342.0	4.53249809182447e+17
19343.0	4.5322253879650976e+17
19344.0	4.5298971312128026e+17
19345.0	4.528575765370198e+17
19346.0	4.528691717603327e+17
19347.0	4.5272086075146234e+17
19348.0	4.528344385191934e+17
19349.0	4.5275613149265914e+17
19350.0	4.5261213977804794e+17
19351.0	4.5259821825392634e+17
19352.0	4.523308322127868e+17
19353.0	4.52447629877794e+17
19354.0	4.523705099791017e+17
19355.0	4.522806514199211e+17
19356.0	4.522128109993983e+17
19357.0	4.521345846433108e+17
19358.0	4.520552795122345e+17
19359.0	4.519346133707432e+17
19360.0	4.51744599445777e+17
19361.0	4.5181783485972474e+17
19362.0	4.517411040526336e+17
19363.0	4.516633370427392e+17
19364.0	4.515850823750997e+17
19365.0	4.515053329274196e+17
19366.0	4.5142565792863565e+17
19367.0	4.5134851006791674e+17
19368.0	4.5127017710660256e+17
19369.0	4.511886264849749e+17
19370.0	4.51110954406161e+17
19371.0	4.510271171198975e+17
19372.0	4.509544289228117e+17
19373.0	4.5087453651927034e+17
19374.0	4.50796396286225e+17
19375.0	4.507198494692693e+17
19376.0	4.506414133979818e+17
19377.0	4.5056169198223354e+17
19378.0	4.5048334902449485e+17
19379.0	4.504048980634283e+17
19380.0	4.5032346544155296e+17
19381.0	4.502440943200938e+17
19382.0	4.501579207365973e+17
19383.0	4.500812351580842e+17
19384.0	4.500038220775424e+17
19385.0	4.499291245991253e+17
19386.0	4.4985118723058336e+17
19387.0	4.4977076893122554e+17
19388.0	4.496896861143039e+17
19389.0	4.496066315550719e+17
19390.0	4.4950426096762874e+17
19391.0	4.491084678474408e+17
19392.0	4.4928195048243194e+17
19393.0	4.4928254956885325e+17
19394.0	4.492121162295978e+17
19395.0	4.490788390742701e+17
19396.0	4.490436404751018e+17
19397.0	4.489749283383978e+17
19398.0	4.488401232680277e+17
19399.0	4.486990093352959e+17
19400.0	4.4866902712210765e+17
19401.0	4.486516111136085e+17
19402.0	4.4857562123031885e+17
19403.0	4.484940103505236e+17
19404.0	4.4841312976895994e+17
19405.0	4.483289518353066e+17
19406.0	4.482484682446166e+17
19407.0	4.480935645588137e+17
19408.0	4.4802881848606714e+17
19409.0	4.4798375397512525e+17
19410.0	4.4791843167491405e+17
19411.0	4.478370072319317e+17
19412.0	4.4775258225377274e+17
19413.0	4.4759982066892794e+17
19414.0	4.4758118097223674e+17
19415.0	4.4749489309395616e+17
19416.0	4.473909858533374e+17
19417.0	4.473201804793172e+17
19418.0	4.472324089359018e+17
19419.0	4.47142203298065e+17
19420.0	4.47051544465681e+17
19421.0	4.469574464438272e+17
19422.0	4.4685543411985056e+17
19423.0	4.467623743280468e+17
19424.0	4.466637510716074e+17
19425.0	4.465588062300842e+17
19426.0	4.464511420115625e+17
19427.0	4.4634028739570336e+17
19428.0	4.4621970870545056e+17
19429.0	4.4609267602991776e+17
19430.0	4.45933946859247e+17
19431.0	4.457709266359636e+17
19432.0	4.4566879407527245e+17
19433.0	4.4551746827059194e+17
19434.0	4.4534051694619296e+17
19435.0	4.451264590337365e+17
19436.0	4.4488909043793914e+17
19437.0	4.4462063911348896e+17
19438.0	4.436774522017109e+17
19439.0	4.438535497056255e+17
19440.0	4.436584856988329e+17
19441.0	4.4320598705657165e+17
19442.0	4.42635202330624e+17
19443.0	4.419093002889898e+17
19444.0	4.409683428595029e+17
19445.0	4.3975634300436486e+17
19446.0	4.3808189149347834e+17
19447.0	4.3577129450864614e+17
19448.0	4.322741411556013e+17
19449.0	4.264487692883286e+17
19450.0	4.133890065170427e+17
19451.0	4.020371523108873e+17
19452.0	4.215440861560831e+17
19453.0	4.295714135867394e+17
19454.0	4.33780700898918e+17
19455.0	4.3642271990196896e+17
19456.0	4.381977043359061e+17
19457.0	4.393352199929855e+17
19458.0	4.337248159225247e+17
19459.0	4.4017711376411437e+17
19460.0	4.4147601924860576e+17
19461.0	4.4189148777895245e+17
19462.0	4.421844146847742e+17
19463.0	4.42394404401971e+17
19464.0	4.425434650727765e+17
19465.0	4.4265033733679776e+17
19466.0	4.4272440287341216e+17
19467.0	4.427778775231146e+17
19468.0	4.4280399482497696e+17
19469.0	4.426664141739346e+17
19470.0	4.428080514859008e+17
19471.0	4.4280177415072416e+17
19472.0	4.4277820216224416e+17
19473.0	4.42749755134225e+17
19474.0	4.425711635573416e+17
19475.0	4.426006995664895e+17
19476.0	4.426144015187966e+17
19477.0	4.4258166749265914e+17
19478.0	4.425368339480575e+17
19479.0	4.42348882502178e+17
19480.0	4.4242233622964896e+17
19481.0	4.4235708110820685e+17
19482.0	4.42303950950673e+17
19483.0	4.422432834191359e+17
19484.0	4.421765355449003e+17
19485.0	4.421077400114517e+17
19486.0	4.419005980868611e+17
19487.0	4.419755402330111e+17
19488.0	4.4190405216610976e+17
19489.0	4.4178961778169165e+17
19490.0	4.41665439539746e+17
19491.0	4.41684905234705e+17
19492.0	4.416296779251711e+17
19493.0	4.415601228032683e+17
19494.0	4.4148680504115194e+17
19495.0	4.414101622445398e+17
19496.0	4.412947095530153e+17
19497.0	4.4123868931031034e+17
19498.0	4.40996214219298e+17
19499.0	4.4058542681183565e+17
19500.0	4.4100969359387296e+17
19501.0	4.4097166901247994e+17
19502.0	4.40905201946897e+17
19503.0	4.4083532638016845e+17
19504.0	4.407612521054208e+17
19505.0	4.4068465411795616e+17
19506.0	4.4061431969437005e+17
19507.0	4.405359865233408e+17
19508.0	4.4045867438571514e+17
19509.0	4.403674212903594e+17
19510.0	4.401828468184404e+17
19511.0	4.374205379728709e+17
19512.0	4.3987592827371514e+17
19513.0	4.398482966882985e+17
19514.0	4.39819292516898e+17
19515.0	4.398964814118912e+17
19516.0	4.398393892448938e+17
19517.0	4.39786386034961e+17
19518.0	4.396834143338495e+17
19519.0	4.396091681625428e+17
19520.0	4.3944026137340544e+17
19521.0	4.3950333405866656e+17
19522.0	4.394055912565417e+17
19523.0	4.393222917499562e+17
19524.0	4.391760863515992e+17
19525.0	4.392018763579392e+17
19526.0	4.391296620473002e+17
19527.0	4.390538494432597e+17
19528.0	4.389695454707711e+17
19529.0	4.3888958344178336e+17
19530.0	4.388313548281172e+17
19531.0	4.3875617535426554e+17
19532.0	4.386807047957162e+17
19533.0	4.386049351133867e+17
19534.0	4.385311998782121e+17
19535.0	4.3845441845985274e+17
19536.0	4.3837519323026765e+17
19537.0	4.383009007119017e+17
19538.0	4.3808066983253344e+17
19539.0	4.381168909331113e+17
19540.0	4.380728347328512e+17
19541.0	4.379754411764393e+17
19542.0	4.379164004756138e+17
19543.0	4.377179125885611e+17
19544.0	4.3776292697757e+17
19545.0	4.376432491539113e+17
19546.0	4.3755911029719034e+17
19547.0	4.3754686684419405e+17
19548.0	4.374795992956927e+17
19549.0	4.373945307015849e+17
19550.0	4.373307265297065e+17
19551.0	4.372579529086293e+17
19552.0	4.3718144740556794e+17
19553.0	4.371056489223508e+17
19554.0	4.3702851937675936e+17
19555.0	4.3694063500656634e+17
19556.0	4.3687215851984205e+17
19557.0	4.3680701007353165e+17
19558.0	4.3673350363764045e+17
19559.0	4.366590739655338e+17
19560.0	4.3653458038183226e+17
19561.0	4.3650683009761274e+17
19562.0	4.363879623338665e+17
19563.0	4.36360727110178e+17
19564.0	4.362827653447679e+17
19565.0	4.362097929835861e+17
19566.0	4.3613211419388576e+17
19567.0	4.360607140675583e+17
19568.0	4.3598399046068896e+17
19569.0	4.3590956631108256e+17
19570.0	4.3583595040385696e+17
19571.0	4.3576142838715725e+17
19572.0	4.3568359266058234e+17
19573.0	4.3559652610976403e+17
19574.0	4.355223636148223e+17
19575.0	4.3546357415280634e+17
19576.0	4.353808708665344e+17
19577.0	4.352889169728852e+17
19578.0	4.352365860399786e+17
19579.0	4.351619711893504e+17
19580.0	4.35086828904994e+17
19581.0	4.350130653582677e+17
19582.0	4.3494114793444685e+17
19583.0	4.348672049414143e+17
19584.0	4.3479102750283085e+17
19585.0	4.347039006239401e+17
19586.0	4.346260134472362e+17
19587.0	4.3456128925477536e+17
19588.0	4.3445985231940256e+17
19589.0	4.344087582867456e+17
19590.0	4.3432832286064634e+17
19591.0	4.342679018143744e+17
19592.0	4.3419484395929594e+17
19593.0	4.341072875137705e+17
19594.0	4.340063690642771e+17
19595.0	4.339697815213396e+17
19596.0	4.3389491004921165e+17
19597.0	4.338193379186004e+17
19598.0	4.336827780213417e+17
19599.0	4.3366874849389216e+17
19600.0	4.335976344890025e+17
19601.0	4.335176372977663e+17
19602.0	4.334363086247253e+17
19603.0	4.333479463135914e+17
19604.0	4.3329153760843085e+17
19605.0	4.3319955575275514e+17
19606.0	4.331510415665833e+17
19607.0	4.330802651332608e+17
19608.0	4.3300281136797e+17
19609.0	4.329274264431274e+17
19610.0	4.327942746974891e+17
19611.0	4.326871752420011e+17
19612.0	4.3270989473819296e+17
19613.0	4.326328603333973e+17
19614.0	4.325565913191764e+17
19615.0	4.3248528332772685e+17
19616.0	4.32344775332113e+17
19617.0	4.322309933017771e+17
19618.0	4.3219168554298016e+17
19619.0	4.320923395380565e+17
19620.0	4.320266178002942e+17
19621.0	4.318919794535081e+17
19622.0	4.31964890857472e+17
19623.0	4.3188677117651616e+17
19624.0	4.318000533820757e+17
19625.0	4.3174503278182394e+17
19626.0	4.316679694363306e+17
19627.0	4.315932626605397e+17
19628.0	4.315116494039723e+17
19629.0	4.3109215888561466e+17
19630.0	4.3130088744550394e+17
19631.0	4.3117192070649165e+17
19632.0	4.3119243651536205e+17
19633.0	4.3113697439470925e+17
19634.0	4.3107540683543885e+17
19635.0	4.309878731090601e+17
19636.0	4.307745987624958e+17
19637.0	4.306734608110933e+17
19638.0	4.307741413736447e+17
19639.0	4.3070747801463456e+17
19640.0	4.30595050115345e+17
19641.0	4.304148356923393e+17
19642.0	4.3047533740905805e+17
19643.0	4.304043254655657e+17
19644.0	4.3033161727563085e+17
19645.0	4.302518295199743e+17
19646.0	4.300292481526439e+17
19647.0	4.30119125656098e+17
19648.0	4.3005049265192954e+17
19649.0	4.2997589758443514e+17
19650.0	4.299033550695082e+17
19651.0	4.2982989379229e+17
19652.0	4.297562634846208e+17
19653.0	4.2968238564311034e+17
19654.0	4.2960930115420154e+17
19655.0	4.2953406058332166e+17
