# Flux units: erg / (cm m2 s)
# Wavelength units: Angstrom
wave	flux
19000.0	7.454388342401704e+17
19001.0	7.452865577964884e+17
19002.0	7.451576638985555e+17
19003.0	7.450164836259155e+17
19004.0	7.448757708783615e+17
19005.0	7.44735116291823e+17
19006.0	7.445946953280169e+17
19007.0	7.44433884594176e+17
19008.0	7.443051072978943e+17
19009.0	7.441666373844991e+17
19010.0	7.439784761535144e+17
19011.0	7.438877968389462e+17
19012.0	7.437226614980605e+17
19013.0	7.436092918377129e+17
19014.0	7.434612744301225e+17
19015.0	7.433239780829864e+17
19016.0	7.431824428324178e+17
19017.0	7.430252221431805e+17
19018.0	7.429037872556713e+17
19019.0	7.427646730971817e+17
19020.0	7.426170644944212e+17
19021.0	7.424803359162368e+17
19022.0	7.423437140131841e+17
19023.0	7.421982426879314e+17
19024.0	7.420603747969705e+17
19025.0	7.419198981887315e+17
19026.0	7.417772132794369e+17
19027.0	7.41625181783108e+17
19028.0	7.415002542986582e+17
19029.0	7.413579022772905e+17
19030.0	7.412205045678079e+17
19031.0	7.410806963918163e+17
19032.0	7.409399731585024e+17
19033.0	7.407890237926058e+17
19034.0	7.406566052812118e+17
19035.0	7.405139888788819e+17
19036.0	7.390390933345614e+17
19037.0	7.402361718833152e+17
19038.0	7.400941533091155e+17
19039.0	7.399562376030888e+17
19040.0	7.398164274697554e+17
19041.0	7.396749396148224e+17
19042.0	7.395246185556649e+17
19043.0	7.393952827179008e+17
19044.0	7.392532076604074e+17
19045.0	7.391136496047444e+17
19046.0	7.38966774306133e+17
19047.0	7.388327756606121e+17
19048.0	7.386687155994624e+17
19049.0	7.385447349092348e+17
19050.0	7.384071149016404e+17
19051.0	7.380799354219176e+17
19052.0	7.381099987948884e+17
19053.0	7.379869113516032e+17
19054.0	7.37851501462596e+17
19055.0	7.376813231702016e+17
19056.0	7.375679034578259e+17
19057.0	7.374296723401385e+17
19058.0	7.372843012587517e+17
19059.0	7.371503009355092e+17
19060.0	7.370076695734952e+17
19061.0	7.3687054169757e+17
19062.0	7.367299199664127e+17
19063.0	7.36590064534596e+17
19064.0	7.364344498443604e+17
19065.0	7.362881079214076e+17
19066.0	7.361621792565929e+17
19067.0	7.360281747390463e+17
19068.0	7.358876339579561e+17
19069.0	7.357471086957908e+17
19070.0	7.356033556370772e+17
19071.0	7.354656165112489e+17
19072.0	7.353269819015168e+17
19073.0	7.351860706235731e+17
19074.0	7.350473044525055e+17
19075.0	7.349073919781545e+17
19076.0	7.34764868968994e+17
19077.0	7.34626491470097e+17
19078.0	7.344795982757888e+17
19079.0	7.343474438657364e+17
19080.0	7.342060846361258e+17
19081.0	7.340625678565375e+17
19082.0	7.339210302291965e+17
19083.0	7.337738883126611e+17
19084.0	7.336186438396586e+17
19085.0	7.335075103025833e+17
19086.0	7.333206396589395e+17
19087.0	7.331899903049727e+17
19088.0	7.330797370124969e+17
19089.0	7.329068915621887e+17
19090.0	7.328065274598739e+17
19091.0	7.326673516451156e+17
19092.0	7.325155656553812e+17
19093.0	7.323917950997844e+17
19094.0	7.322508793479168e+17
19095.0	7.321108639733075e+17
19096.0	7.319689947163305e+17
19097.0	7.318329577788755e+17
19098.0	7.316935347798015e+17
19099.0	7.315534826351274e+17
19100.0	7.314126268618067e+17
19101.0	7.312749712026284e+17
19102.0	7.311260265742335e+17
19103.0	7.309960846595411e+17
19104.0	7.308576242532351e+17
19105.0	7.307177772100266e+17
19106.0	7.305716877841747e+17
19107.0	7.304371259834368e+17
19108.0	7.303000299842217e+17
19109.0	7.300164340766035e+17
19110.0	7.300197008801791e+17
19111.0	7.298818666834602e+17
19112.0	7.297431325289129e+17
19113.0	7.296037660131325e+17
19114.0	7.294641126069587e+17
19115.0	7.293177274826751e+17
19116.0	7.29183544287778e+17
19117.0	7.290443237337769e+17
19118.0	7.288916633714687e+17
19119.0	7.284975936907941e+17
19120.0	7.286181441394003e+17
19121.0	7.28483778072849e+17
19122.0	7.283517891979945e+17
19123.0	7.282109310479016e+17
19124.0	7.280664009244671e+17
19125.0	7.279326544964266e+17
19126.0	7.27791329799919e+17
19127.0	7.274632186254674e+17
19128.0	7.273936706338812e+17
19129.0	7.273679539579561e+17
19130.0	7.272377842925565e+17
19131.0	7.270968035289769e+17
19132.0	7.269615433766228e+17
19133.0	7.267400399454208e+17
19134.0	7.266262206556842e+17
19135.0	7.265445850994003e+17
19136.0	7.26406907629841e+17
19137.0	7.262492234700116e+17
19138.0	7.261127108984833e+17
19139.0	7.259901351602858e+17
19140.0	7.258518875450025e+17
19141.0	7.257132251130538e+17
19142.0	7.255710916149245e+17
19143.0	7.254291183392084e+17
19144.0	7.252921073445545e+17
19145.0	7.251571995137364e+17
19146.0	7.249473702286676e+17
19147.0	7.248707998537044e+17
19148.0	7.247417699205119e+17
19149.0	7.246026412217684e+17
19150.0	7.24463671906577e+17
19151.0	7.243261759105706e+17
19152.0	7.241843006417578e+17
19153.0	7.240473847179945e+17
19154.0	7.238964634539347e+17
19155.0	7.237724171927551e+17
19156.0	7.236339232320169e+17
19157.0	7.234935731519488e+17
19158.0	7.23256608118101e+17
19159.0	7.232161676176042e+17
19160.0	7.230746801821012e+17
19161.0	7.229295197945855e+17
19162.0	7.22579717217758e+17
19163.0	7.226621533268648e+17
19164.0	7.225269388924244e+17
19165.0	7.223832582553599e+17
19166.0	7.222311395175081e+17
19167.0	7.220873329115135e+17
19168.0	7.219514409571667e+17
19169.0	7.218187549889876e+17
19170.0	7.216928050730323e+17
19171.0	7.215430164108628e+17
19172.0	7.214155291426816e+17
19173.0	7.212777984054612e+17
19174.0	7.211333026753194e+17
19175.0	7.210018090079572e+17
19176.0	7.208629381190995e+17
19177.0	7.207078524704084e+17
19178.0	7.205834668900352e+17
19179.0	7.204326297916756e+17
19180.0	7.202821911521961e+17
19181.0	7.201607123643049e+17
19182.0	7.200221401098922e+17
19183.0	7.198929337363113e+17
19184.0	7.197400178010794e+17
19185.0	7.196177388797951e+17
19186.0	7.194816942527828e+17
19187.0	7.193334079903059e+17
19188.0	7.192039099727871e+17
19189.0	7.190619750050472e+17
19190.0	7.189228753868116e+17
19191.0	7.187849168988842e+17
19192.0	7.186505613180927e+17
19193.0	7.184920236173993e+17
19194.0	7.183647021640361e+17
19195.0	7.182363203906217e+17
19196.0	7.180981133202772e+17
19197.0	7.179604460568573e+17
19198.0	7.178204861868713e+17
19199.0	7.163658159958696e+17
19200.0	7.166722427584516e+17
19201.0	7.174069125731667e+17
19202.0	7.172715946792275e+17
19203.0	7.171313933571411e+17
19204.0	7.169929318323539e+17
19205.0	7.168569027242666e+17
19206.0	7.16717960672051e+17
19207.0	7.165711907902803e+17
19208.0	7.164207387290281e+17
19209.0	7.163035261075455e+17
19210.0	7.161662148007251e+17
19211.0	7.160292187657555e+17
19212.0	7.158917545066493e+17
19213.0	7.157333107583657e+17
19214.0	7.155877765185535e+17
19215.0	7.15472926548514e+17
19216.0	7.153352721476266e+17
19217.0	7.152009137706323e+17
19218.0	7.14969088996147e+17
19219.0	7.149057154394793e+17
19220.0	7.147834216983208e+17
19221.0	7.14609506980113e+17
19222.0	7.14511049888017e+17
19223.0	7.143701256077311e+17
19224.0	7.142218587788628e+17
19225.0	7.140769901750953e+17
19226.0	7.139548070237523e+17
19227.0	7.138163838069417e+17
19228.0	7.136820844298239e+17
19229.0	7.135437207721299e+17
19230.0	7.133985089344851e+17
19231.0	7.1326103516829e+17
19232.0	7.131214027336361e+17
19233.0	7.129814491551059e+17
19234.0	7.128486472843263e+17
19235.0	7.127091141148671e+17
19236.0	7.12575164682513e+17
19237.0	7.124344573875539e+17
19238.0	7.122859430947497e+17
19239.0	7.12160052318481e+17
19240.0	7.119865947794089e+17
19241.0	7.118696705862314e+17
19242.0	7.117405163618304e+17
19243.0	7.115830984004948e+17
19244.0	7.114666829763923e+17
19245.0	7.113275616875859e+17
19246.0	7.111874962609492e+17
19247.0	7.110491254729386e+17
19248.0	7.109122549874687e+17
19249.0	7.107726728844628e+17
19250.0	7.106319697838079e+17
19251.0	7.104814932557823e+17
19252.0	7.103176813576191e+17
19253.0	7.102148774286675e+17
19254.0	7.10073100026948e+17
19255.0	7.099154635423743e+17
19256.0	7.097932377489407e+17
19257.0	7.096602629330262e+17
19258.0	7.095211522697897e+17
19259.0	7.093729971492178e+17
19260.0	7.09223601353523e+17
19261.0	7.091016111401641e+17
19262.0	7.08956591821073e+17
19263.0	7.088182445211645e+17
19264.0	7.086251565208914e+17
19265.0	7.085238369561258e+17
19266.0	7.083897307966121e+17
19267.0	7.082651830364841e+17
19268.0	7.08124265746705e+17
19269.0	7.079846644897108e+17
19270.0	7.078444613500927e+17
19271.0	7.07667052916463e+17
19272.0	7.075597027814057e+17
19273.0	7.065240965480436e+17
19274.0	7.068248579244026e+17
19275.0	7.071426477555711e+17
19276.0	7.069996828065791e+17
19277.0	7.068590154973183e+17
19278.0	7.067184685645823e+17
19279.0	7.065695237963775e+17
19280.0	7.064266550367572e+17
19281.0	7.062944624585386e+17
19282.0	7.061550791655423e+17
19283.0	7.059920016900096e+17
19284.0	7.058137324453887e+17
19285.0	7.056915452395517e+17
19286.0	7.055723534658217e+17
19287.0	7.054344808213161e+17
19288.0	7.049519236295334e+17
19289.0	7.042598296354797e+17
19290.0	7.050073727478442e+17
19291.0	7.048327285003604e+17
19292.0	7.047217730813951e+17
19293.0	7.045776941252607e+17
19294.0	7.044339775569919e+17
19295.0	7.042919754803881e+17
19296.0	7.041475191767037e+17
19297.0	7.040010156332371e+17
19298.0	7.038565777844906e+17
19299.0	7.037162097388202e+17
19300.0	7.035714034903721e+17
19301.0	7.034255530699433e+17
19302.0	7.032798054099625e+17
19303.0	7.031249701612202e+17
19304.0	7.029831543816191e+17
19305.0	7.028427167105023e+17
19306.0	7.026967740153855e+17
19307.0	7.025447131589289e+17
19308.0	7.024012954348202e+17
19309.0	7.022128571001513e+17
19310.0	7.020364818634067e+17
19311.0	7.019449729155071e+17
19312.0	7.018020753549993e+17
19313.0	7.016421675149994e+17
19314.0	7.010120953932457e+17
19315.0	7.008885230185137e+17
19316.0	7.012079233925119e+17
19317.0	7.010599597419177e+17
19318.0	7.009093201253716e+17
19319.0	7.007608397365247e+17
19320.0	7.006067363938303e+17
19321.0	7.004590975221759e+17
19322.0	7.002887685843625e+17
19323.0	7.001329153780394e+17
19324.0	7.000007272737449e+17
19325.0	6.998146053133654e+17
19326.0	6.996949189612884e+17
19327.0	6.99529904136738e+17
19328.0	6.993734702989311e+17
19329.0	6.99218110063138e+17
19330.0	6.990573463055017e+17
19331.0	6.989002420781055e+17
19332.0	6.987472624593578e+17
19333.0	6.985876224955732e+17
19334.0	6.984267460509693e+17
19335.0	6.982719679845716e+17
19336.0	6.981108879764138e+17
19337.0	6.979497132468906e+17
19338.0	6.977641980624896e+17
19339.0	6.976256970413396e+17
19340.0	6.974563608253779e+17
19341.0	6.972971593760767e+17
19342.0	6.970840489568937e+17
19343.0	6.969657958683987e+17
19344.0	6.967975345127423e+17
19345.0	6.964089274935972e+17
19346.0	6.963785458428586e+17
19347.0	6.962620576475817e+17
19348.0	6.960981304060585e+17
19349.0	6.959204907264681e+17
19350.0	6.957470647844863e+17
19351.0	6.955703515567444e+17
19352.0	6.953891618881536e+17
19353.0	6.952199380096339e+17
19354.0	6.950396432657065e+17
19355.0	6.94846890250513e+17
19356.0	6.946745528702291e+17
19357.0	6.944889526812671e+17
19358.0	6.942787423436799e+17
19359.0	6.940403346090666e+17
19360.0	6.938924481336659e+17
19361.0	6.936995338474835e+17
19362.0	6.934943633156778e+17
19363.0	6.932947875659775e+17
19364.0	6.930949570123092e+17
19365.0	6.928931368905385e+17
19366.0	6.926708208828415e+17
19367.0	6.924509156212736e+17
19368.0	6.922414374693546e+17
19369.0	6.920082264773971e+17
19370.0	6.917047743152127e+17
19371.0	6.915882350193321e+17
19372.0	6.913464231875923e+17
19373.0	6.911053832475988e+17
19374.0	6.908785850668372e+17
19375.0	6.906461392557396e+17
19376.0	6.904082141457066e+17
19377.0	6.901207979961001e+17
19378.0	6.898595490605738e+17
19379.0	6.895974830047232e+17
19380.0	6.893358360996521e+17
19381.0	6.890553542530388e+17
19382.0	6.887810209764692e+17
19383.0	6.885067902506323e+17
19384.0	6.882430771615059e+17
19385.0	6.879595254338899e+17
19386.0	6.876700836451667e+17
19387.0	6.873401181689171e+17
19388.0	6.870292021728596e+17
19389.0	6.867169939816447e+17
19390.0	6.863953548978857e+17
19391.0	6.849289965797357e+17
19392.0	6.857155605605033e+17
19393.0	6.853278687384916e+17
19394.0	6.849686286980436e+17
19395.0	6.845971505173843e+17
19396.0	6.842152205505876e+17
19397.0	6.837645030195199e+17
19398.0	6.833330525831168e+17
19399.0	6.828403007160319e+17
19400.0	6.824139327275007e+17
19401.0	6.819443557182122e+17
19402.0	6.814609819653459e+17
19403.0	6.808879167963133e+17
19404.0	6.803782961375913e+17
19405.0	6.7973868435101e+17
19406.0	6.791567030703446e+17
19407.0	6.784863108246186e+17
19408.0	6.777042934693888e+17
19409.0	6.77018811376162e+17
19410.0	6.762351978785452e+17
19411.0	6.754732714491901e+17
19412.0	6.747703164447401e+17
19413.0	6.740365507122516e+17
19414.0	6.732482426699773e+17
19415.0	6.724162285120169e+17
19416.0	6.715495614338387e+17
19417.0	6.706611059949565e+17
19418.0	6.696822312184489e+17
19419.0	6.686930452348927e+17
19420.0	6.675948868293971e+17
19421.0	6.664706488707753e+17
19422.0	6.651959739503955e+17
19423.0	6.638891826151423e+17
19424.0	6.624524431436457e+17
19425.0	6.608818700025855e+17
19426.0	6.591589687579988e+17
19427.0	6.572167363821568e+17
19428.0	6.550918710777167e+17
19429.0	6.527535532386985e+17
19430.0	6.507015870349313e+17
19431.0	6.484727472411992e+17
19432.0	6.464248247659177e+17
19433.0	6.440301647713622e+17
19434.0	6.414144579654998e+17
19435.0	6.385364435817809e+17
19436.0	6.353237904982017e+17
19437.0	6.31806002008337e+17
19438.0	6.266186276099415e+17
19439.0	6.228480473694208e+17
19440.0	6.183556389448361e+17
19441.0	6.136160264213842e+17
19442.0	6.082866502959104e+17
19443.0	6.022159486943231e+17
19444.0	5.9501545825239e+17
19445.0	5.872290313710252e+17
19446.0	5.788034206618964e+17
19447.0	5.6879301693276115e+17
19448.0	5.5747869384813274e+17
19449.0	5.4310441278504954e+17
19450.0	5.153258110014766e+17
19451.0	5.0420767138338144e+17
19452.0	5.311542238467417e+17
19453.0	5.508199280366939e+17
19454.0	5.629094451128996e+17
19455.0	5.7332970238771174e+17
19456.0	5.822823825495383e+17
19457.0	5.899823698586278e+17
19458.0	5.969567341172061e+17
19459.0	6.037435943223299e+17
19460.0	6.091720445919228e+17
19461.0	6.13945174987025e+17
19462.0	6.182117391553879e+17
19463.0	6.227303303828819e+17
19464.0	6.269752743122259e+17
19465.0	6.305648009893207e+17
19466.0	6.336340255834107e+17
19467.0	6.364066276704255e+17
19468.0	6.388803308617728e+17
19469.0	6.410313856800083e+17
19470.0	6.431991101303466e+17
19471.0	6.450909244555264e+17
19472.0	6.468366607493801e+17
19473.0	6.487742886182908e+17
19474.0	6.508068287632728e+17
19475.0	6.524788570849275e+17
19476.0	6.54100184450116e+17
19477.0	6.554847339173206e+17
19478.0	6.567250869179731e+17
19479.0	6.578576676268714e+17
19480.0	6.588559796469759e+17
19481.0	6.597798167663956e+17
19482.0	6.606556431559338e+17
19483.0	6.614269103702015e+17
19484.0	6.621545886995796e+17
19485.0	6.628332476388691e+17
19486.0	6.634395971966294e+17
19487.0	6.640097543847935e+17
19488.0	6.645743485277524e+17
19489.0	6.65060975382801e+17
19490.0	6.653862585477801e+17
19491.0	6.659776098336765e+17
19492.0	6.664711170250068e+17
19493.0	6.670191226956457e+17
19494.0	6.674871552223914e+17
19495.0	6.678639136123561e+17
19496.0	6.682341123205801e+17
19497.0	6.685853689926995e+17
19498.0	6.688265518186496e+17
19499.0	6.673518380974065e+17
19500.0	6.69457573810449e+17
19501.0	6.696541562950995e+17
19502.0	6.698845935239167e+17
19503.0	6.700812623413248e+17
19504.0	6.702298241695743e+17
19505.0	6.704098357280767e+17
19506.0	6.705770480183977e+17
19507.0	6.706881503778131e+17
19508.0	6.707924423060137e+17
19509.0	6.708867771662336e+17
19510.0	6.709949481964883e+17
19511.0	6.697277176064675e+17
19512.0	6.708930954657784e+17
19513.0	6.70674365588001e+17
19514.0	6.708916282283343e+17
19515.0	6.712277319985837e+17
19516.0	6.713609908387839e+17
19517.0	6.71381233668369e+17
19518.0	6.714070545727487e+17
19519.0	6.7141918275229e+17
19520.0	6.714238687685289e+17
19521.0	6.714289255612415e+17
19522.0	6.714370009945427e+17
19523.0	6.71443275952947e+17
19524.0	6.714303544907091e+17
19525.0	6.714253780888234e+17
19526.0	6.714468485911891e+17
19527.0	6.714332438768297e+17
19528.0	6.714043400191999e+17
19529.0	6.713710345191423e+17
19530.0	6.713358333334867e+17
19531.0	6.713248538340009e+17
19532.0	6.712891614953471e+17
19533.0	6.71243201220881e+17
19534.0	6.711938087474516e+17
19535.0	6.711397016666111e+17
19536.0	6.710834037609812e+17
19537.0	6.710419765504681e+17
19538.0	6.709934854329684e+17
19539.0	6.708785867390977e+17
19540.0	6.708720885738153e+17
19541.0	6.708093041770495e+17
19542.0	6.707407586241193e+17
19543.0	6.706754353452372e+17
19544.0	6.706164495897939e+17
19545.0	6.704974133548371e+17
19546.0	6.70380682519074e+17
19547.0	6.704127497906857e+17
19548.0	6.703360480641023e+17
19549.0	6.702434547488084e+17
19550.0	6.701747814094164e+17
19551.0	6.700923360029353e+17
19552.0	6.700081199710207e+17
19553.0	6.699204225269759e+17
19554.0	6.698315629111978e+17
19555.0	6.697467944195412e+17
19556.0	6.696596455904598e+17
19557.0	6.695691274769748e+17
19558.0	6.69477979169314e+17
19559.0	6.693827793037994e+17
19560.0	6.693055810415274e+17
19561.0	6.692139896056489e+17
19562.0	6.691216767494825e+17
19563.0	6.690262539567104e+17
19564.0	6.689304882795859e+17
19565.0	6.688322938208255e+17
19566.0	6.687316307345407e+17
19567.0	6.686357592211455e+17
19568.0	6.685330036665001e+17
19569.0	6.684341632849235e+17
19570.0	6.683359749079039e+17
19571.0	6.682340978502313e+17
19572.0	6.681278171228842e+17
19573.0	6.680273205504681e+17
19574.0	6.679144196035924e+17
19575.0	6.678217944814931e+17
19576.0	6.677177436558676e+17
19577.0	6.676043299553279e+17
19578.0	6.675025179792724e+17
19579.0	6.673984500968104e+17
19580.0	6.672925297999871e+17
19581.0	6.671872136926548e+17
19582.0	6.67081943093521e+17
19583.0	6.669743367563945e+17
19584.0	6.668654812157268e+17
19585.0	6.667445261565951e+17
19586.0	6.66640698048512e+17
19587.0	6.665402105637546e+17
19588.0	6.663872785503574e+17
19589.0	6.663237674205183e+17
19590.0	6.662141239099391e+17
19591.0	6.661124183293951e+17
19592.0	6.66002564124945e+17
19593.0	6.658887558802089e+17
19594.0	6.65749392789777e+17
19595.0	6.656647003548329e+17
19596.0	6.652650479157249e+17
19597.0	6.654394153391446e+17
19598.0	6.653022431434067e+17
19599.0	6.652189544721065e+17
19600.0	6.651070797316095e+17
19601.0	6.649860802128553e+17
19602.0	6.648756764147711e+17
19603.0	6.647031564424531e+17
19604.0	6.64646041346594e+17
19605.0	6.645034550733482e+17
19606.0	6.644231797997568e+17
19607.0	6.643111558818473e+17
19608.0	6.641944606277631e+17
19609.0	6.640750587893076e+17
19610.0	6.639671268343808e+17
19611.0	6.638509662841514e+17
19612.0	6.637370276664659e+17
19613.0	6.63620019097873e+17
19614.0	6.635011627985577e+17
19615.0	6.633905298516649e+17
19616.0	6.632648989125289e+17
19617.0	6.63158591062016e+17
19618.0	6.629846576092499e+17
19619.0	6.628520020497748e+17
19620.0	6.627384588151465e+17
19621.0	6.626934802874365e+17
19622.0	6.62577811099921e+17
19623.0	6.624612309095764e+17
19624.0	6.623432881995773e+17
19625.0	6.622274373986985e+17
19626.0	6.621093606806868e+17
19627.0	6.619936604553215e+17
19628.0	6.618456954765311e+17
19629.0	6.61748887724578e+17
19630.0	6.616004820642474e+17
19631.0	6.601451407846056e+17
19632.0	6.614058793609898e+17
19633.0	6.612840847420073e+17
19634.0	6.611719625375743e+17
19635.0	6.610493352793427e+17
19636.0	6.609353111677609e+17
19637.0	6.607697191370751e+17
19638.0	6.607000139988991e+17
19639.0	6.605803333091327e+17
19640.0	6.604563717029887e+17
19641.0	6.602842006967638e+17
19642.0	6.602273516595882e+17
19643.0	6.601068237204137e+17
19644.0	6.599851080242516e+17
19645.0	6.598442709155839e+17
19646.0	6.59755707277858e+17
19647.0	6.596373022157481e+17
19648.0	6.595183476998143e+17
19649.0	6.593994984609108e+17
19650.0	6.592818520784895e+17
19651.0	6.591653960395433e+17
19652.0	6.59052874048034e+17
19653.0	6.589345841195689e+17
19654.0	6.588153364217855e+17
19655.0	6.58695963873553e+17
19656.0	6.58578222420241e+17
19657.0	6.584592186911401e+17
19658.0	6.583408583682729e+17
19659.0	6.582222711335593e+17
19660.0	6.581035264027306e+17
19661.0	6.579845705586004e+17
19662.0	6.578655804609875e+17
19663.0	6.577408181622099e+17
19664.0	6.576212238751059e+17
19665.0	6.575084711968767e+17
