# Flux units: erg / (cm m2 s)
# Wavelength units: Angstrom
wave	flux
19000.0	6.284671171515731e+17
19001.0	6.283427826718035e+17
19002.0	6.282370067289428e+17
19003.0	6.281217592087891e+17
19004.0	6.280066384964265e+17
19005.0	6.278909801441961e+17
19006.0	6.277764527860393e+17
19007.0	6.276608553910272e+17
19008.0	6.275411378612906e+17
19009.0	6.274150720427348e+17
19010.0	6.272838616307028e+17
19011.0	6.271970661018282e+17
19012.0	6.270761687842815e+17
19013.0	6.269700628895059e+17
19014.0	6.268503436121427e+17
19015.0	6.267366203020628e+17
19016.0	6.26622683222289e+17
19017.0	6.2651035563677e+17
19018.0	6.263949360103423e+17
19019.0	6.262806236102655e+17
19020.0	6.26164569805073e+17
19021.0	6.260513500910931e+17
19022.0	6.259359789787818e+17
19023.0	6.258179224633343e+17
19024.0	6.257049205036371e+17
19025.0	6.255913765000532e+17
19026.0	6.254752797032447e+17
19027.0	6.253596352621225e+17
19028.0	6.25246955774498e+17
19029.0	6.251309280438953e+17
19030.0	6.250188681248767e+17
19031.0	6.24904029479458e+17
19032.0	6.247886171231572e+17
19033.0	6.246653500937555e+17
19034.0	6.24556052193826e+17
19035.0	6.244253608269139e+17
19036.0	6.240958640641364e+17
19037.0	6.24202046714675e+17
19038.0	6.24096836583424e+17
19039.0	6.239860830502911e+17
19040.0	6.238720539055444e+17
19041.0	6.23756977512994e+17
19042.0	6.236292542453076e+17
19043.0	6.235287979382099e+17
19044.0	6.234132302528512e+17
19045.0	6.23299385168145e+17
19046.0	6.231805540346538e+17
19047.0	6.230653239208618e+17
19048.0	6.229412264192682e+17
19049.0	6.228231026551465e+17
19050.0	6.227202357417299e+17
19051.0	6.225756327772159e+17
19052.0	6.224822491152383e+17
19053.0	6.223829871362047e+17
19054.0	6.222698858414079e+17
19055.0	6.221306787091796e+17
19056.0	6.220384368066559e+17
19057.0	6.219268455312042e+17
19058.0	6.218065647064403e+17
19059.0	6.216960850613588e+17
19060.0	6.215836062012756e+17
19061.0	6.21470586905122e+17
19062.0	6.213560580090537e+17
19063.0	6.212415093997568e+17
19064.0	6.211191664454314e+17
19065.0	6.209981338615807e+17
19066.0	6.208920164324692e+17
19067.0	6.20784646164753e+17
19068.0	6.20671881323042e+17
19069.0	6.205578810490879e+17
19070.0	6.204414673027071e+17
19071.0	6.203293252452352e+17
19072.0	6.202138499743741e+17
19073.0	6.201017798492159e+17
19074.0	6.1998807660189e+17
19075.0	6.198740847864489e+17
19076.0	6.197590913712127e+17
19077.0	6.19644488515584e+17
19078.0	6.195297975795711e+17
19079.0	6.194184608284672e+17
19080.0	6.193035108242772e+17
19081.0	6.191863980272297e+17
19082.0	6.190747449556992e+17
19083.0	6.189535954206719e+17
19084.0	6.188286672371712e+17
19085.0	6.187343457288191e+17
19086.0	6.185845919492778e+17
19087.0	6.185003320169811e+17
19088.0	6.18383237325346e+17
19089.0	6.182623980290047e+17
19090.0	6.181637260487338e+17
19091.0	6.180511943404202e+17
19092.0	6.179306684284928e+17
19093.0	6.178265254679892e+17
19094.0	6.177132254330879e+17
19095.0	6.17599738192418e+17
19096.0	6.174853628078761e+17
19097.0	6.17372378673971e+17
19098.0	6.172569621233663e+17
19099.0	6.171425786298365e+17
19100.0	6.170310285284692e+17
19101.0	6.169176083267581e+17
19102.0	6.167973335837353e+17
19103.0	6.166917177933823e+17
19104.0	6.165788371189759e+17
19105.0	6.164600663834623e+17
19106.0	6.163513686884351e+17
19107.0	6.162356295259476e+17
19108.0	6.161215376763561e+17
19109.0	6.160024881594367e+17
19110.0	6.158948710569299e+17
19111.0	6.157835755498153e+17
19112.0	6.156706367143936e+17
19113.0	6.155591269482495e+17
19114.0	6.154448583786495e+17
19115.0	6.153287904526336e+17
19116.0	6.152169616397652e+17
19117.0	6.15102923477265e+17
19118.0	6.149718732876458e+17
19119.0	6.143778742075384e+17
19120.0	6.147560434914644e+17
19121.0	6.146510906807635e+17
19122.0	6.145409128158548e+17
19123.0	6.14428223611426e+17
19124.0	6.143132206191956e+17
19125.0	6.142003188334591e+17
19126.0	6.140770480990889e+17
19127.0	6.138537746715988e+17
19128.0	6.13848549757201e+17
19129.0	6.137410576449535e+17
19130.0	6.136365420205396e+17
19131.0	6.135254829323604e+17
19132.0	6.134126806914388e+17
19133.0	6.13296174600465e+17
19134.0	6.131870081919657e+17
19135.0	6.130745851161257e+17
19136.0	6.129613326865748e+17
19137.0	6.128397854616234e+17
19138.0	6.127345530306559e+17
19139.0	6.126242747820714e+17
19140.0	6.125120931583316e+17
19141.0	6.123995537604605e+17
19142.0	6.12284540981521e+17
19143.0	6.121706904442196e+17
19144.0	6.12057474924544e+17
19145.0	6.119491146612735e+17
19146.0	6.117787793620991e+17
19147.0	6.117186735177727e+17
19148.0	6.116097503090004e+17
19149.0	6.114965658970793e+17
19150.0	6.113867553832959e+17
19151.0	6.112739374836393e+17
19152.0	6.111618879804756e+17
19153.0	6.110428778201087e+17
19154.0	6.109292508392106e+17
19155.0	6.108233655648255e+17
19156.0	6.107116588062036e+17
19157.0	6.105967143944191e+17
19158.0	6.1047959991965e+17
19159.0	6.103726016866986e+17
19160.0	6.102612822720511e+17
19161.0	6.101479773437951e+17
19162.0	6.100229388500991e+17
19163.0	6.099203781208746e+17
19164.0	6.098133352185855e+17
19165.0	6.096967532107092e+17
19166.0	6.095808833257472e+17
19167.0	6.094760657813501e+17
19168.0	6.093656217878527e+17
19169.0	6.092538254109353e+17
19170.0	6.091421444472831e+17
19171.0	6.090298091722067e+17
19172.0	6.089182280329898e+17
19173.0	6.088062071909033e+17
19174.0	6.086907654744746e+17
19175.0	6.085818213640873e+17
19176.0	6.084701441054036e+17
19177.0	6.083446805889023e+17
19178.0	6.08246032236544e+17
19179.0	6.081338079707135e+17
19180.0	6.080217258917887e+17
19181.0	6.079016949077332e+17
19182.0	6.077966675083263e+17
19183.0	6.076875286424233e+17
19184.0	6.075756125880319e+17
19185.0	6.074631352658601e+17
19186.0	6.073521129477459e+17
19187.0	6.072343450703188e+17
19188.0	6.071283407476051e+17
19189.0	6.070169228367188e+17
19190.0	6.069050013297322e+17
19191.0	6.067903301069482e+17
19192.0	6.066812058512041e+17
19193.0	6.065679744630783e+17
19194.0	6.064544234689876e+17
19195.0	6.063434521815721e+17
19196.0	6.062280311570432e+17
19197.0	6.061114072061268e+17
19198.0	6.059800834779818e+17
19199.0	6.057719595270144e+17
19200.0	6.05675229090065e+17
19201.0	6.05648321651234e+17
19202.0	6.055548062881108e+17
19203.0	6.054483333218303e+17
19204.0	6.053383434316457e+17
19205.0	6.052281452942676e+17
19206.0	6.051179569435988e+17
19207.0	6.049944875390292e+17
19208.0	6.0488118960128e+17
19209.0	6.047840917433001e+17
19210.0	6.04673144922658e+17
19211.0	6.045632123546282e+17
19212.0	6.044516396040192e+17
19213.0	6.043312971928916e+17
19214.0	6.042214942288553e+17
19215.0	6.041163983923882e+17
19216.0	6.04005059334417e+17
19217.0	6.038880463618048e+17
19218.0	6.037329196089343e+17
19219.0	6.036498161860607e+17
19220.0	6.035560809015978e+17
19221.0	6.034307826406739e+17
19222.0	6.033327064612863e+17
19223.0	6.032248813213012e+17
19224.0	6.031106424613546e+17
19225.0	6.0299652104192e+17
19226.0	6.028915244007423e+17
19227.0	6.027810040709117e+17
19228.0	6.026724762451967e+17
19229.0	6.025612297415337e+17
19230.0	6.024499933741055e+17
19231.0	6.023376849425748e+17
19232.0	6.02227084361728e+17
19233.0	6.021105762435071e+17
19234.0	6.020042873372671e+17
19235.0	6.01891561153058e+17
19236.0	6.017831129492138e+17
19237.0	6.016710846971901e+17
19238.0	6.01553259008273e+17
19239.0	6.014500968857599e+17
19240.0	6.013389943166292e+17
19241.0	6.012260484207956e+17
19242.0	6.011154484690943e+17
19243.0	6.009910287051433e+17
19244.0	6.008949467075924e+17
19245.0	6.00783210938368e+17
19246.0	6.006712348355242e+17
19247.0	6.005592325182804e+17
19248.0	6.004488707331412e+17
19249.0	6.003376950433108e+17
19250.0	6.002239862734847e+17
19251.0	6.001064613860692e+17
19252.0	5.99976281444625e+17
19253.0	5.9989135210141e+17
19254.0	5.997824581828607e+17
19255.0	5.996528609700521e+17
19256.0	5.995588090156371e+17
19257.0	5.99449276654114e+17
19258.0	5.993381074654548e+17
19259.0	5.992196560562857e+17
19260.0	5.991088922471081e+17
19261.0	5.990029701327529e+17
19262.0	5.988870621495295e+17
19263.0	5.987708271504042e+17
19264.0	5.986305900369235e+17
19265.0	5.985411435681108e+17
19266.0	5.984283268568403e+17
19267.0	5.983372171367764e+17
19268.0	5.982257781844649e+17
19269.0	5.981146408026111e+17
19270.0	5.980001538495827e+17
19271.0	5.978696538827433e+17
19272.0	5.977774713995263e+17
19273.0	5.976463901021524e+17
19274.0	5.975194869607081e+17
19275.0	5.974478025304746e+17
19276.0	5.973351089220266e+17
19277.0	5.972243780381354e+17
19278.0	5.971133479605588e+17
19279.0	5.969995448188928e+17
19280.0	5.968853390939476e+17
19281.0	5.96777692561408e+17
19282.0	5.966681202141866e+17
19283.0	5.965555422986239e+17
19284.0	5.964409782403071e+17
19285.0	5.963246160838655e+17
19286.0	5.96216306012433e+17
19287.0	5.961062312574976e+17
19288.0	5.959106008798548e+17
19289.0	5.957367586532008e+17
19290.0	5.957709531359914e+17
19291.0	5.956398117202602e+17
19292.0	5.955525110573738e+17
19293.0	5.954409226480298e+17
19294.0	5.95326005219601e+17
19295.0	5.952150315554131e+17
19296.0	5.950999483820714e+17
19297.0	5.949891966664703e+17
19298.0	5.948766140672682e+17
19299.0	5.947641653362687e+17
19300.0	5.94654345175586e+17
19301.0	5.94542350897425e+17
19302.0	5.944287350314324e+17
19303.0	5.943113828794367e+17
19304.0	5.942036012204031e+17
19305.0	5.940910091141119e+17
19306.0	5.939790744649727e+17
19307.0	5.938629689300308e+17
19308.0	5.937512827934036e+17
19309.0	5.936363655746899e+17
19310.0	5.935205443436544e+17
19311.0	5.934095136369321e+17
19312.0	5.932988532872532e+17
19313.0	5.931838110782804e+17
19314.0	5.926769671187112e+17
19315.0	5.925960161427461e+17
19316.0	5.928368159588351e+17
19317.0	5.927283835535359e+17
19318.0	5.926155722948607e+17
19319.0	5.925039714424147e+17
19320.0	5.923890656881321e+17
19321.0	5.922731826610175e+17
19322.0	5.921575062732799e+17
19323.0	5.920451879851348e+17
19324.0	5.919316688677546e+17
19325.0	5.918164806970025e+17
19326.0	5.917031529097898e+17
19327.0	5.915881419483817e+17
19328.0	5.914692643280212e+17
19329.0	5.913590061421908e+17
19330.0	5.912405736772948e+17
19331.0	5.911173469132116e+17
19332.0	5.910063641613652e+17
19333.0	5.90889326092834e+17
19334.0	5.907742213887316e+17
19335.0	5.906484414818986e+17
19336.0	5.905407883083776e+17
19337.0	5.904235311573674e+17
19338.0	5.902875091096916e+17
19339.0	5.901882916601855e+17
19340.0	5.900590393589759e+17
19341.0	5.899393307770879e+17
19342.0	5.898053242322943e+17
19343.0	5.897065696242346e+17
19344.0	5.895792686530559e+17
19345.0	5.893311245407571e+17
19346.0	5.892560678202025e+17
19347.0	5.892181356533076e+17
19348.0	5.891112405303295e+17
19349.0	5.889870971710121e+17
19350.0	5.888648033599487e+17
19351.0	5.887437011506515e+17
19352.0	5.886149692926633e+17
19353.0	5.88503474835729e+17
19354.0	5.883810550557354e+17
19355.0	5.882486679317162e+17
19356.0	5.881337286929066e+17
19357.0	5.880093935839914e+17
19358.0	5.878840456904704e+17
19359.0	5.877548344235347e+17
19360.0	5.876250621684393e+17
19361.0	5.875032126739798e+17
19362.0	5.873779441227092e+17
19363.0	5.8724994528925e+17
19364.0	5.871209759637503e+17
19365.0	5.86991186092578e+17
19366.0	5.868573862570665e+17
19367.0	5.867240663198378e+17
19368.0	5.865914634687827e+17
19369.0	5.864546688303101e+17
19370.0	5.863209412067328e+17
19371.0	5.86182645916194e+17
19372.0	5.86051132395793e+17
19373.0	5.859112257934676e+17
19374.0	5.857728116643156e+17
19375.0	5.856324178236756e+17
19376.0	5.854860835902804e+17
19377.0	5.853382919760553e+17
19378.0	5.851935917735936e+17
19379.0	5.850474454450176e+17
19380.0	5.848995805003775e+17
19381.0	5.847495890436095e+17
19382.0	5.845912323970388e+17
19383.0	5.844351912159913e+17
19384.0	5.842767773171712e+17
19385.0	5.841195364952745e+17
19386.0	5.839608917000191e+17
19387.0	5.837996189635924e+17
19388.0	5.836355006715222e+17
19389.0	5.834534737499476e+17
19390.0	5.832735037150548e+17
19391.0	5.829043976230227e+17
19392.0	5.829018582515711e+17
19393.0	5.827444320414378e+17
19394.0	5.825438852404566e+17
19395.0	5.823551583376724e+17
19396.0	5.821641163887955e+17
19397.0	5.819622062992042e+17
19398.0	5.817249807990783e+17
19399.0	5.814747993036116e+17
19400.0	5.812963778057556e+17
19401.0	5.810672626215594e+17
19402.0	5.808430891663359e+17
19403.0	5.80617358086417e+17
19404.0	5.803719937490941e+17
19405.0	5.801233880536406e+17
19406.0	5.798747256651773e+17
19407.0	5.796174626466474e+17
19408.0	5.793060966716758e+17
19409.0	5.790763832399188e+17
19410.0	5.7880177817245e+17
19411.0	5.784897800459604e+17
19412.0	5.781843370573824e+17
19413.0	5.778619186719402e+17
19414.0	5.775253839369556e+17
19415.0	5.771504650289151e+17
19416.0	5.767704466860713e+17
19417.0	5.7640091913639245e+17
19418.0	5.7598693825576954e+17
19419.0	5.755508673041749e+17
19420.0	5.7512494719740576e+17
19421.0	5.746493443713706e+17
19422.0	5.741221820148393e+17
19423.0	5.736116741909161e+17
19424.0	5.7301864623199565e+17
19425.0	5.724056918338218e+17
19426.0	5.717802751098879e+17
19427.0	5.710635061652139e+17
19428.0	5.7031124376180045e+17
19429.0	5.695452636774399e+17
19430.0	5.686822325015894e+17
19431.0	5.6778613755740154e+17
19432.0	5.668359398664873e+17
19433.0	5.6577226115645434e+17
19434.0	5.6461573362810874e+17
19435.0	5.633294479654911e+17
19436.0	5.619633487522475e+17
19437.0	5.60420011254306e+17
19438.0	5.583655944585215e+17
19439.0	5.5678986609841485e+17
19440.0	5.547415931890347e+17
19441.0	5.522982644482047e+17
19442.0	5.495269790231212e+17
19443.0	5.462961472667647e+17
19444.0	5.425500893042003e+17
19445.0	5.3800073327629664e+17
19446.0	5.3243732666176845e+17
19447.0	5.254317801297233e+17
19448.0	5.161044944442712e+17
19449.0	5.0256560129747616e+17
19450.0	4.7797174271999904e+17
19451.0	4.590070631060843e+17
19452.0	4.926783022082733e+17
19453.0	5.099214296055813e+17
19454.0	5.207149928688294e+17
19455.0	5.2851731686140576e+17
19456.0	5.344816578341548e+17
19457.0	5.392924400768338e+17
19458.0	5.4208465773527194e+17
19459.0	5.463881296816812e+17
19460.0	5.492353661228372e+17
19461.0	5.516232898554537e+17
19462.0	5.5369277447864326e+17
19463.0	5.554505688372564e+17
19464.0	5.570323949464235e+17
19465.0	5.5845670480773114e+17
19466.0	5.596842685366271e+17
19467.0	5.6078822920246605e+17
19468.0	5.617796931824298e+17
19469.0	5.626763979085141e+17
19470.0	5.634949473719637e+17
19471.0	5.6421726482158925e+17
19472.0	5.648656158599849e+17
19473.0	5.6544732346231456e+17
19474.0	5.6599078698134176e+17
19475.0	5.6647087575531494e+17
19476.0	5.6697210319230285e+17
19477.0	5.673731362564779e+17
19478.0	5.6779292939386874e+17
19479.0	5.681159494522196e+17
19480.0	5.6841472370715296e+17
19481.0	5.6871802354619725e+17
19482.0	5.689490818815317e+17
19483.0	5.691607268808022e+17
19484.0	5.693868566992213e+17
19485.0	5.6956441724627616e+17
19486.0	5.6972095216680934e+17
19487.0	5.698886048590505e+17
19488.0	5.700287129976831e+17
19489.0	5.7011664483341645e+17
19490.0	5.7015388179442336e+17
19491.0	5.7033493633652045e+17
19492.0	5.7043104007454714e+17
19493.0	5.7049740221262496e+17
19494.0	5.7055247677958816e+17
19495.0	5.705973721901738e+17
19496.0	5.706015769100287e+17
19497.0	5.706618656260096e+17
19498.0	5.706322248990719e+17
19499.0	5.7040867178141e+17
19500.0	5.7073102424637434e+17
19501.0	5.70768272462097e+17
19502.0	5.7078318111566496e+17
19503.0	5.7078062580585805e+17
19504.0	5.707804797042687e+17
19505.0	5.7079387861811194e+17
19506.0	5.7077749769393485e+17
19507.0	5.707540913105577e+17
19508.0	5.707326277986986e+17
19509.0	5.707173171210922e+17
19510.0	5.7066038510660256e+17
19511.0	5.700039087226875e+17
19512.0	5.705199995147604e+17
19513.0	5.704488692918953e+17
19514.0	5.7044341124410003e+17
19515.0	5.704565129215999e+17
19516.0	5.704332600497492e+17
19517.0	5.703803100375722e+17
19518.0	5.703306363360596e+17
19519.0	5.702844061581311e+17
19520.0	5.7022271500670285e+17
19521.0	5.7016760639597216e+17
19522.0	5.7010152968028154e+17
19523.0	5.700410991269204e+17
19524.0	5.6997348177346554e+17
19525.0	5.69908735840529e+17
19526.0	5.698437815904938e+17
19527.0	5.6977815010017274e+17
19528.0	5.697064347718996e+17
19529.0	5.6963397558381216e+17
19530.0	5.695623407861758e+17
19531.0	5.6948758479721805e+17
19532.0	5.694117297608021e+17
19533.0	5.6933482132493645e+17
19534.0	5.6925673848395085e+17
19535.0	5.6917629250218656e+17
19536.0	5.6909433601174176e+17
19537.0	5.690195893201577e+17
19538.0	5.689196610060287e+17
19539.0	5.6882182543988045e+17
19540.0	5.687707431512745e+17
19541.0	5.6869039419774285e+17
19542.0	5.686063850848255e+17
19543.0	5.6851809778182816e+17
19544.0	5.684333578114388e+17
19545.0	5.6830279171440646e+17
19546.0	5.682007944899241e+17
19547.0	5.681739667428692e+17
19548.0	5.680897234479786e+17
19549.0	5.679933500162048e+17
19550.0	5.6791433436200954e+17
19551.0	5.6782577219229005e+17
19552.0	5.677364131048106e+17
19553.0	5.6764487032285856e+17
19554.0	5.6755429097253536e+17
19555.0	5.6746593103817363e+17
19556.0	5.67378044850449e+17
19557.0	5.672870346751999e+17
19558.0	5.67195453235746e+17
19559.0	5.671039384158206e+17
19560.0	5.6700823656202234e+17
19561.0	5.669170494570496e+17
19562.0	5.6682806855598074e+17
19563.0	5.6673783880089594e+17
19564.0	5.66644696101683e+17
19565.0	5.665521921250643e+17
19566.0	5.664608988342953e+17
19567.0	5.663690416193534e+17
19568.0	5.662733301885611e+17
19569.0	5.661795539397289e+17
19570.0	5.6608696027490976e+17
19571.0	5.6599211986124794e+17
19572.0	5.6589376154501114e+17
19573.0	5.6580134802554874e+17
19574.0	5.657029546169684e+17
19575.0	5.6561679753106765e+17
19576.0	5.655207781684564e+17
19577.0	5.654233784603987e+17
19578.0	5.6532688765801805e+17
19579.0	5.6523068584318285e+17
19580.0	5.6513479126111565e+17
19581.0	5.650401907616426e+17
19582.0	5.6494485583953914e+17
19583.0	5.648483505668094e+17
19584.0	5.647515703574526e+17
19585.0	5.6464396758548474e+17
19586.0	5.645445958554965e+17
19587.0	5.6445729645090125e+17
19588.0	5.6433148599555405e+17
19589.0	5.6426125503146656e+17
19590.0	5.641634858751315e+17
19591.0	5.64074683511603e+17
19592.0	5.6397819145093114e+17
19593.0	5.6387861839435085e+17
19594.0	5.6375938789321363e+17
19595.0	5.636834181425834e+17
19596.0	5.635848878598825e+17
19597.0	5.634879711259305e+17
19598.0	5.6335634198254925e+17
19599.0	5.632921620709375e+17
19600.0	5.63195761725713e+17
19601.0	5.630919473889279e+17
19602.0	5.6298994666919245e+17
19603.0	5.6287405651176096e+17
19604.0	5.6279691319487136e+17
19605.0	5.626814847604054e+17
19606.0	5.626068044087294e+17
19607.0	5.62509831541009e+17
19608.0	5.624101148295166e+17
19609.0	5.623091303896404e+17
19610.0	5.6221270278144e+17
19611.0	5.621127904056659e+17
19612.0	5.6201769938234016e+17
19613.0	5.6191805390411085e+17
19614.0	5.6181651798316365e+17
19615.0	5.617210277320021e+17
19616.0	5.61618454979106e+17
19617.0	5.6151828360506016e+17
19618.0	5.613753999556607e+17
19619.0	5.612630644009641e+17
19620.0	5.611799376997034e+17
19621.0	5.611232330164906e+17
19622.0	5.610311400117588e+17
19623.0	5.609329675031892e+17
19624.0	5.6083335446091085e+17
19625.0	5.6073523682781856e+17
19626.0	5.606354825773056e+17
19627.0	5.605356528293204e+17
19628.0	5.604324959496873e+17
19629.0	5.603142044833108e+17
19630.0	5.601899061444606e+17
19631.0	5.6002135650030925e+17
19632.0	5.600263428986196e+17
19633.0	5.599357402699092e+17
19634.0	5.5984282972542285e+17
19635.0	5.5974102383110816e+17
19636.0	5.5964176891248634e+17
19637.0	5.5951115989374285e+17
19638.0	5.594473513178453e+17
19639.0	5.593478471177556e+17
19640.0	5.592332702668115e+17
19641.0	5.590699136603478e+17
19642.0	5.5904959540319565e+17
19643.0	5.589508442204842e+17
19644.0	5.5884519725247136e+17
19645.0	5.5873610235685536e+17
19646.0	5.5865049437525325e+17
19647.0	5.585565834892628e+17
19648.0	5.584577535235411e+17
19649.0	5.583581616624981e+17
19650.0	5.5825965444846925e+17
19651.0	5.5815993885545805e+17
19652.0	5.580607063763625e+17
19653.0	5.579622206930943e+17
19654.0	5.57862390525679e+17
19655.0	5.57763026555153e+17
19656.0	5.5766448110305274e+17
19657.0	5.575657966097749e+17
19658.0	5.57466677097267e+17
19659.0	5.5736748229700256e+17
19660.0	5.572684464608596e+17
19661.0	5.571692848655017e+17
19662.0	5.5706984022452896e+17
