# Flux units: erg / (cm m2 s)
# Wavelength units: Angstrom
wave	flux
19000.0	7.224679957790719e+17
19001.0	7.223302749683711e+17
19002.0	7.221960081670143e+17
19003.0	7.220599659167743e+17
19004.0	7.219239390456489e+17
19005.0	7.217879432123732e+17
19006.0	7.216519117275135e+17
19007.0	7.215115381593427e+17
19008.0	7.213787249639424e+17
19009.0	7.212428994194089e+17
19010.0	7.210998687596543e+17
19011.0	7.209712372853417e+17
19012.0	7.208298798732628e+17
19013.0	7.206998185607168e+17
19014.0	7.205626583886506e+17
19015.0	7.204272992507219e+17
19016.0	7.202907598356479e+17
19017.0	7.201536434241535e+17
19018.0	7.200191518081024e+17
19019.0	7.198837744948564e+17
19020.0	7.19746730365201e+17
19021.0	7.196111336898557e+17
19022.0	7.194756915047081e+17
19023.0	7.193395959868074e+17
19024.0	7.192033209526953e+17
19025.0	7.190672947806205e+17
19026.0	7.189306773514922e+17
19027.0	7.187913260750164e+17
19028.0	7.186597899053736e+17
19029.0	7.185239656191316e+17
19030.0	7.183878993215488e+17
19031.0	7.182520498694825e+17
19032.0	7.181161398796287e+17
19033.0	7.179785613956435e+17
19034.0	7.178440296540842e+17
19035.0	7.177072314504531e+17
19036.0	7.172493773111293e+17
19037.0	7.174361835023017e+17
19038.0	7.173000759607293e+17
19039.0	7.171644843185492e+17
19040.0	7.170286187883178e+17
19041.0	7.168927673789097e+17
19042.0	7.167555146525356e+17
19043.0	7.166211204841471e+17
19044.0	7.164852637619539e+17
19045.0	7.163496016554666e+17
19046.0	7.162128062480383e+17
19047.0	7.16077804884241e+17
19048.0	7.159386276713812e+17
19049.0	7.158052553752573e+17
19050.0	7.156698211592874e+17
19051.0	7.154879866164563e+17
19052.0	7.153937320771583e+17
19053.0	7.152624347032233e+17
19054.0	7.151277932107092e+17
19055.0	7.149876756348927e+17
19056.0	7.148562222328489e+17
19057.0	7.147209050379603e+17
19058.0	7.145849574391807e+17
19059.0	7.144495386023251e+17
19060.0	7.143135078165161e+17
19061.0	7.141783435739135e+17
19062.0	7.140426884579327e+17
19063.0	7.139071629459455e+17
19064.0	7.137696879214591e+17
19065.0	7.136329752816297e+17
19066.0	7.13497874932258e+17
19067.0	7.133578918537898e+17
19068.0	7.132224194696531e+17
19069.0	7.130869630238719e+17
19070.0	7.129514387701756e+17
19071.0	7.128161591842132e+17
19072.0	7.126806791105193e+17
19073.0	7.12545160868659e+17
19074.0	7.12409855697442e+17
19075.0	7.12274496000273e+17
19076.0	7.121387512659968e+17
19077.0	7.120036219759274e+17
19078.0	7.118677406471508e+17
19079.0	7.117331598322345e+17
19080.0	7.115977812606975e+17
19081.0	7.114618603656531e+17
19082.0	7.113265052822186e+17
19083.0	7.111904767333716e+17
19084.0	7.110525238378493e+17
19085.0	7.109216657473533e+17
19086.0	7.107797236492969e+17
19087.0	7.106416424080726e+17
19088.0	7.105146653070676e+17
19089.0	7.103728978318675e+17
19090.0	7.102455713453398e+17
19091.0	7.101101758567764e+17
19092.0	7.099724581218985e+17
19093.0	7.098405541117952e+17
19094.0	7.097045150771884e+17
19095.0	7.095692280812883e+17
19096.0	7.094348290195453e+17
19097.0	7.093003772493824e+17
19098.0	7.09165510103313e+17
19099.0	7.090305087395156e+17
19100.0	7.0889533107514e+17
19101.0	7.087606256893951e+17
19102.0	7.086242908165459e+17
19103.0	7.084909091531433e+17
19104.0	7.083560302630228e+17
19105.0	7.082211572449279e+17
19106.0	7.080845809199785e+17
19107.0	7.079512358868308e+17
19108.0	7.078166761832447e+17
19109.0	7.076489915443881e+17
19110.0	7.075467212707156e+17
19111.0	7.074124207751168e+17
19112.0	7.072777018277888e+17
19113.0	7.07143004131601e+17
19114.0	7.070082967885139e+17
19115.0	7.068727593926655e+17
19116.0	7.067387290102442e+17
19117.0	7.066040761931091e+17
19118.0	7.064679341184339e+17
19119.0	7.06291735601698e+17
19120.0	7.061992319046995e+17
19121.0	7.060654224222888e+17
19122.0	7.059326226486612e+17
19123.0	7.057979262107647e+17
19124.0	7.056618565577385e+17
19125.0	7.055286861474474e+17
19126.0	7.053938803780266e+17
19127.0	7.052313615837865e+17
19128.0	7.051012897854804e+17
19129.0	7.049896779579391e+17
19130.0	7.048567185211391e+17
19131.0	7.047222118055933e+17
19132.0	7.045879617814527e+17
19133.0	7.044422056629587e+17
19134.0	7.043077601842516e+17
19135.0	7.041849547380052e+17
19136.0	7.040507024769024e+17
19137.0	7.039135971104083e+17
19138.0	7.037766813264552e+17
19139.0	7.036450289745919e+17
19140.0	7.035108618578601e+17
19141.0	7.033766379083092e+17
19142.0	7.032421590149801e+17
19143.0	7.031073000478036e+17
19144.0	7.029740531613695e+17
19145.0	7.028397168743764e+17
19146.0	7.026949837466282e+17
19147.0	7.025701100191743e+17
19148.0	7.024372594944681e+17
19149.0	7.023032184165716e+17
19150.0	7.021690145996797e+17
19151.0	7.020352084028074e+17
19152.0	7.019006731659945e+17
19153.0	7.017668908067497e+17
19154.0	7.016308612792319e+17
19155.0	7.014990330462207e+17
19156.0	7.013649656840192e+17
19157.0	7.012305353048064e+17
19158.0	7.010742588932095e+17
19159.0	7.009626323156991e+17
19160.0	7.008287036451497e+17
19161.0	7.006930765611007e+17
19162.0	7.0051083859613e+17
19163.0	7.004271753035775e+17
19164.0	7.002939077951487e+17
19165.0	7.001591831855103e+17
19166.0	7.000233893079721e+17
19167.0	6.998875123133097e+17
19168.0	6.997562876406442e+17
19169.0	6.996227063982761e+17
19170.0	6.994907641501012e+17
19171.0	6.993542564020223e+17
19172.0	6.992232288616447e+17
19173.0	6.990893312289449e+17
19174.0	6.989546991736148e+17
19175.0	6.988218904521385e+17
19176.0	6.986881297634644e+17
19177.0	6.9855177342976e+17
19178.0	6.98419708358383e+17
19179.0	6.98282994180642e+17
19180.0	6.981485652694355e+17
19181.0	6.980176070049791e+17
19182.0	6.978844898623487e+17
19183.0	6.977515658674173e+17
19184.0	6.976165821196969e+17
19185.0	6.97484497265186e+17
19186.0	6.973509699895295e+17
19187.0	6.972157217210367e+17
19188.0	6.970700974434986e+17
19189.0	6.969355528394067e+17
19190.0	6.968016087897428e+17
19191.0	6.966689981792255e+17
19192.0	6.965353513659049e+17
19193.0	6.963988896153599e+17
19194.0	6.962670601240575e+17
19195.0	6.961344171474943e+17
19196.0	6.960009267118079e+17
19197.0	6.958671624579753e+17
19198.0	6.957330463020372e+17
19199.0	6.952983706555732e+17
19200.0	6.952660266997078e+17
19201.0	6.953323455665491e+17
19202.0	6.951993385943039e+17
19203.0	6.950651458224125e+17
19204.0	6.949318986563583e+17
19205.0	6.947987401998336e+17
19206.0	6.946649514792276e+17
19207.0	6.945304092519081e+17
19208.0	6.943945958009514e+17
19209.0	6.942644660513449e+17
19210.0	6.941307090676393e+17
19211.0	6.939970101051391e+17
19212.0	6.938634756991657e+17
19213.0	6.937260259104084e+17
19214.0	6.935909344389802e+17
19215.0	6.934612896907263e+17
19216.0	6.93328342557218e+17
19217.0	6.931951311126527e+17
19218.0	6.930475292207786e+17
19219.0	6.929250419823955e+17
19220.0	6.927939816565417e+17
19221.0	6.926550555426815e+17
19222.0	6.925267783472467e+17
19223.0	6.923930180780032e+17
19224.0	6.922584525023914e+17
19225.0	6.921229398529364e+17
19226.0	6.919919629238272e+17
19227.0	6.918578021684564e+17
19228.0	6.917242783181481e+17
19229.0	6.915904560431104e+17
19230.0	6.914555826055849e+17
19231.0	6.913224963609939e+17
19232.0	6.91188145393937e+17
19233.0	6.910537438855167e+17
19234.0	6.909206522582355e+17
19235.0	6.907869028941824e+17
19236.0	6.906531704471551e+17
19237.0	6.905189032263677e+17
19238.0	6.903716824569171e+17
19239.0	6.902327419426132e+17
19240.0	6.900945308177748e+17
19241.0	6.899630927249407e+17
19242.0	6.898302728885587e+17
19243.0	6.896931744426665e+17
19244.0	6.895620667910826e+17
19245.0	6.894278857632425e+17
19246.0	6.892933578664617e+17
19247.0	6.891592428989098e+17
19248.0	6.890249997953705e+17
19249.0	6.888905985665704e+17
19250.0	6.887562057263786e+17
19251.0	6.886197534130175e+17
19252.0	6.884817496266067e+17
19253.0	6.883525973595476e+17
19254.0	6.882174334664703e+17
19255.0	6.880801512401577e+17
19256.0	6.879475360159062e+17
19257.0	6.878140735422464e+17
19258.0	6.876792728758953e+17
19259.0	6.87543091864098e+17
19260.0	6.874049345661609e+17
19261.0	6.872744954167296e+17
19262.0	6.871389027259731e+17
19263.0	6.870035828746922e+17
19264.0	6.868605576675327e+17
19265.0	6.867307046021801e+17
19266.0	6.865960764615338e+17
19267.0	6.864630801148585e+17
19268.0	6.863275838231891e+17
19269.0	6.861920035056298e+17
19270.0	6.860563273482239e+17
19271.0	6.859151513397929e+17
19272.0	6.857841458894164e+17
19273.0	6.855387720450044e+17
19274.0	6.854558475091967e+17
19275.0	6.853766757569875e+17
19276.0	6.852402632895146e+17
19277.0	6.851042846528852e+17
19278.0	6.849677217497087e+17
19279.0	6.848306882456234e+17
19280.0	6.846931981216425e+17
19281.0	6.845578757537791e+17
19282.0	6.8442135738013e+17
19283.0	6.842797374046207e+17
19284.0	6.841377926501716e+17
19285.0	6.840058420832938e+17
19286.0	6.838949971143337e+17
19287.0	6.837574205876906e+17
19288.0	6.835369312692904e+17
19289.0	6.832603622189734e+17
19290.0	6.833226414118227e+17
19291.0	6.831575337533439e+17
19292.0	6.830238556225535e+17
19293.0	6.828852156301311e+17
19294.0	6.827466863673343e+17
19295.0	6.82607835750946e+17
19296.0	6.824687972297386e+17
19297.0	6.823294778998783e+17
19298.0	6.821909497555625e+17
19299.0	6.820520261582847e+17
19300.0	6.819121368225108e+17
19301.0	6.817728668456276e+17
19302.0	6.816336040689663e+17
19303.0	6.814916359662249e+17
19304.0	6.813513817959081e+17
19305.0	6.812114962350079e+17
19306.0	6.810700642342227e+17
19307.0	6.809273846377129e+17
19308.0	6.80785964171264e+17
19309.0	6.806344780043604e+17
19310.0	6.8048773461661e+17
19311.0	6.803576198266879e+17
19312.0	6.802152505387689e+17
19313.0	6.800702484862291e+17
19314.0	6.7978538792605e+17
19315.0	6.796494928958806e+17
19316.0	6.796387557572607e+17
19317.0	6.794957362124116e+17
19318.0	6.793445096729258e+17
19319.0	6.791967304318975e+17
19320.0	6.790503471251455e+17
19321.0	6.789041343168511e+17
19322.0	6.78754582073617e+17
19323.0	6.786065478888105e+17
19324.0	6.784639329544874e+17
19325.0	6.783072831100244e+17
19326.0	6.781692226306047e+17
19327.0	6.780217438415529e+17
19328.0	6.778720650002432e+17
19329.0	6.777115416461311e+17
19330.0	6.775580005498879e+17
19331.0	6.774062283314518e+17
19332.0	6.77254768239138e+17
19333.0	6.770919069799764e+17
19334.0	6.769298549418665e+17
19335.0	6.767406086444372e+17
19336.0	6.765780509130751e+17
19337.0	6.764222129460564e+17
19338.0	6.762621933278548e+17
19339.0	6.761084936869203e+17
19340.0	6.759494776258559e+17
19341.0	6.758219798020095e+17
19342.0	6.756614241517568e+17
19343.0	6.755070548202836e+17
19344.0	6.753451913860436e+17
19345.0	6.751494813865299e+17
19346.0	6.750064037505705e+17
19347.0	6.748461234563754e+17
19348.0	6.74671992312081e+17
19349.0	6.745042823675903e+17
19350.0	6.743359634800639e+17
19351.0	6.741659918270463e+17
19352.0	6.739948438814719e+17
19353.0	6.738183804245332e+17
19354.0	6.735944141679274e+17
19355.0	6.734174559229268e+17
19356.0	6.732417498174804e+17
19357.0	6.730630064067923e+17
19358.0	6.728782111047679e+17
19359.0	6.726753043087359e+17
19360.0	6.724936362098687e+17
19361.0	6.723338346954751e+17
19362.0	6.721495329232212e+17
19363.0	6.719677114526378e+17
19364.0	6.717541088318804e+17
19365.0	6.714952514185897e+17
19366.0	6.712876509167615e+17
19367.0	6.710737070893738e+17
19368.0	6.70871650968098e+17
19369.0	6.706647279861759e+17
19370.0	6.704257051568809e+17
19371.0	6.702437078051498e+17
19372.0	6.699881650105001e+17
19373.0	6.697058848560468e+17
19374.0	6.694809531405651e+17
19375.0	6.692567162115412e+17
19376.0	6.69033135481378e+17
19377.0	6.687563351151955e+17
19378.0	6.68469673730594e+17
19379.0	6.682813775828308e+17
19380.0	6.680192697237503e+17
19381.0	6.677209067203242e+17
19382.0	6.673471360030038e+17
19383.0	6.670781045364052e+17
19384.0	6.66907009229346e+17
19385.0	6.665809868881919e+17
19386.0	6.662023214181033e+17
19387.0	6.658925314528595e+17
19388.0	6.65586068619264e+17
19389.0	6.652453766299647e+17
19390.0	6.649260900614141e+17
19391.0	6.643985712589476e+17
19392.0	6.643838250647551e+17
19393.0	6.640582463411539e+17
19394.0	6.637620546590036e+17
19395.0	6.634216067781972e+17
19396.0	6.630700527998291e+17
19397.0	6.626020558547625e+17
19398.0	6.62224578421282e+17
19399.0	6.617196205703165e+17
19400.0	6.613121757435219e+17
19401.0	6.607869107503103e+17
19402.0	6.602858552797865e+17
19403.0	6.59788991107345e+17
19404.0	6.593226181967872e+17
19405.0	6.587227286361428e+17
19406.0	6.581980230931796e+17
19407.0	6.575672828187987e+17
19408.0	6.568107721446742e+17
19409.0	6.561493009039359e+17
19410.0	6.553318904037375e+17
19411.0	6.545905813553151e+17
19412.0	6.537163125904726e+17
19413.0	6.52920171126238e+17
19414.0	6.520353432010751e+17
19415.0	6.510162223300609e+17
19416.0	6.499398975138474e+17
19417.0	6.48729963353429e+17
19418.0	6.476738977245865e+17
19419.0	6.467931317731325e+17
19420.0	6.458889754465618e+17
19421.0	6.449351871518035e+17
19422.0	6.439892375917906e+17
19423.0	6.431163282707799e+17
19424.0	6.42082924396544e+17
19425.0	6.406375886989996e+17
19426.0	6.390121177109843e+17
19427.0	6.37167727682082e+17
19428.0	6.351651085833554e+17
19429.0	6.330741192742227e+17
19430.0	6.311638429510316e+17
19431.0	6.291502111479126e+17
19432.0	6.269295378038784e+17
19433.0	6.243678739060052e+17
19434.0	6.214181933372759e+17
19435.0	6.179762581362001e+17
19436.0	6.14313649836305e+17
19437.0	6.112695880602963e+17
19438.0	6.075149663076353e+17
19439.0	6.040549898671443e+17
19440.0	5.99772673081344e+17
19441.0	5.946920950999717e+17
19442.0	5.892707014672392e+17
19443.0	5.825803123512662e+17
19444.0	5.748828098177706e+17
19445.0	5.676568841377113e+17
19446.0	5.588426741689002e+17
19447.0	5.475083923488766e+17
19448.0	5.3527592542317254e+17
19449.0	5.1888112949439136e+17
19450.0	4.908451025824393e+17
19451.0	4.809118793596929e+17
19452.0	5.062228292840111e+17
19453.0	5.2772531216930195e+17
19454.0	5.41269759203737e+17
19455.0	5.527362779916974e+17
19456.0	5.628052660114775e+17
19457.0	5.7012440142970854e+17
19458.0	5.772372953705133e+17
19459.0	5.846287892436316e+17
19460.0	5.902732004513107e+17
19461.0	5.9523860032826e+17
19462.0	5.997548271566849e+17
19463.0	6.034416508512936e+17
19464.0	6.068396744856914e+17
19465.0	6.098102316433408e+17
19466.0	6.128461099128147e+17
19467.0	6.163062175651154e+17
19468.0	6.192137808205146e+17
19469.0	6.216595602232658e+17
19470.0	6.238808037829289e+17
19471.0	6.257237047640064e+17
19472.0	6.273608956859731e+17
19473.0	6.29157618708207e+17
19474.0	6.309251936245079e+17
19475.0	6.326365926894248e+17
19476.0	6.341140457106088e+17
19477.0	6.35385011048721e+17
19478.0	6.363537916734124e+17
19479.0	6.370585486906707e+17
19480.0	6.377460868317183e+17
19481.0	6.384003287001768e+17
19482.0	6.39090272204663e+17
19483.0	6.397365509073578e+17
19484.0	6.404926831853568e+17
19485.0	6.413238000418812e+17
19486.0	6.422386524028923e+17
19487.0	6.429806404392274e+17
19488.0	6.436788599346518e+17
19489.0	6.443186320135507e+17
19490.0	6.448502436877654e+17
19491.0	6.454040031046312e+17
19492.0	6.459382877388799e+17
19493.0	6.463884251977044e+17
19494.0	6.469024735035392e+17
19495.0	6.473059073174185e+17
19496.0	6.476017029873663e+17
19497.0	6.479587362646698e+17
19498.0	6.481774497846614e+17
19499.0	6.480077215410856e+17
19500.0	6.486493009455785e+17
19501.0	6.489362005666474e+17
19502.0	6.49170830631458e+17
19503.0	6.493423951413247e+17
19504.0	6.495462203501225e+17
19505.0	6.496778578122067e+17
19506.0	6.498754501454504e+17
19507.0	6.499637829566463e+17
19508.0	6.500351196091732e+17
19509.0	6.500781367405226e+17
19510.0	6.501531023048703e+17
19511.0	6.498036760969212e+17
19512.0	6.501400489317714e+17
19513.0	6.501263206951592e+17
19514.0	6.502445368038739e+17
19515.0	6.503646098008746e+17
19516.0	6.504315367718911e+17
19517.0	6.505632523179347e+17
19518.0	6.506214438819156e+17
19519.0	6.505516429038932e+17
19520.0	6.50552461771844e+17
19521.0	6.506674739915433e+17
19522.0	6.50700291903761e+17
19523.0	6.507059638610601e+17
19524.0	6.50683380539938e+17
19525.0	6.506705271652351e+17
19526.0	6.507189604013396e+17
19527.0	6.506775986219689e+17
19528.0	6.506449106632701e+17
19529.0	6.50612061573393e+17
19530.0	6.505804278530047e+17
19531.0	6.506425997415764e+17
19532.0	6.505955504859817e+17
19533.0	6.505277560629929e+17
19534.0	6.504795769318057e+17
19535.0	6.50458422120721e+17
19536.0	6.504043617364649e+17
19537.0	6.503628739881642e+17
19538.0	6.50312593650483e+17
19539.0	6.502787205911892e+17
19540.0	6.502582787418794e+17
19541.0	6.502043687234217e+17
19542.0	6.501379094872063e+17
19543.0	6.500647190222166e+17
19544.0	6.499746476720127e+17
19545.0	6.498827294998527e+17
19546.0	6.498290690424831e+17
19547.0	6.497695661293568e+17
19548.0	6.496935274523305e+17
19549.0	6.496142969099604e+17
19550.0	6.49537246077474e+17
19551.0	6.494570679020202e+17
19552.0	6.494261390344191e+17
19553.0	6.493436500770815e+17
19554.0	6.492577825379667e+17
19555.0	6.491734880725674e+17
19556.0	6.490872430460927e+17
19557.0	6.489999933439999e+17
19558.0	6.489118590631935e+17
19559.0	6.488338772350292e+17
19560.0	6.487462168406697e+17
19561.0	6.486558307778559e+17
19562.0	6.485638124317353e+17
19563.0	6.484711312457727e+17
19564.0	6.483777957483859e+17
19565.0	6.48283631526434e+17
19566.0	6.481883957996202e+17
19567.0	6.480930283716607e+17
19568.0	6.479964945077588e+17
19569.0	6.478748874440701e+17
19570.0	6.47769397203217e+17
19571.0	6.47671157166353e+17
19572.0	6.475718145867775e+17
19573.0	6.474727626724691e+17
19574.0	6.473714224158036e+17
19575.0	6.472776762960553e+17
19576.0	6.47209863348224e+17
19577.0	6.471070195733844e+17
19578.0	6.470052240250198e+17
19579.0	6.469031241798995e+17
19580.0	6.468003439487658e+17
19581.0	6.466971949684052e+17
19582.0	6.466046353473535e+17
19583.0	6.465106198134783e+17
19584.0	6.464114396233727e+17
19585.0	6.463046146850815e+17
19586.0	6.461984472039423e+17
19587.0	6.460934016991231e+17
19588.0	6.459817149333503e+17
19589.0	6.458823199249748e+17
19590.0	6.457758438828714e+17
19591.0	6.456703396610047e+17
19592.0	6.455631618419369e+17
19593.0	6.454555474657279e+17
19594.0	6.453436687406419e+17
19595.0	6.452396969077417e+17
19596.0	6.450716029048148e+17
19597.0	6.450226038571008e+17
19598.0	6.449099301016916e+17
19599.0	6.44801918734609e+17
19600.0	6.446927413510141e+17
19601.0	6.445823664936276e+17
19602.0	6.444729771578708e+17
19603.0	6.443526673225044e+17
19604.0	6.442526765132457e+17
19605.0	6.441384750525098e+17
19606.0	6.440330883410602e+17
19607.0	6.439227616482643e+17
19608.0	6.438119825997823e+17
19609.0	6.437005121202857e+17
19610.0	6.435899962643796e+17
19611.0	6.434786519635284e+17
19612.0	6.433673456211283e+17
19613.0	6.432557676975444e+17
19614.0	6.431433532200275e+17
19615.0	6.43032203534882e+17
19616.0	6.429178563919872e+17
19617.0	6.428098009148073e+17
19618.0	6.426947195589971e+17
19619.0	6.425798140843348e+17
19620.0	6.424663952807252e+17
19621.0	6.4236451018397e+17
19622.0	6.422518084665344e+17
19623.0	6.421389919649791e+17
19624.0	6.420260710252543e+17
19625.0	6.419129852493823e+17
19626.0	6.417999038775295e+17
19627.0	6.416866740273152e+17
19628.0	6.415664489168895e+17
19629.0	6.414584072110079e+17
19630.0	6.413365060567039e+17
19631.0	6.409114794764969e+17
19632.0	6.411190125898409e+17
19633.0	6.410056441178793e+17
19634.0	6.408917372370943e+17
19635.0	6.407771456361812e+17
19636.0	6.406639377361578e+17
19637.0	6.405429055018324e+17
19638.0	6.404357103463082e+17
19639.0	6.403214263975935e+17
19640.0	6.402062991141546e+17
19641.0	6.400832577383082e+17
19642.0	6.39978898002193e+17
19643.0	6.398643235979263e+17
19644.0	6.397492117635071e+17
19645.0	6.396311272161279e+17
19646.0	6.395210383403689e+17
19647.0	6.39406442615057e+17
19648.0	6.392918171101865e+17
19649.0	6.391770826233171e+17
19650.0	6.390624114704383e+17
19651.0	6.389476396542633e+17
19652.0	6.388328309282134e+17
19653.0	6.387179528563369e+17
19654.0	6.386031047737344e+17
19655.0	6.38488100732928e+17
19656.0	6.383731017951914e+17
19657.0	6.382582253311316e+17
19658.0	6.38143208497698e+17
19659.0	6.380281281904639e+17
19660.0	6.379127955958441e+17
19661.0	6.377967163452073e+17
19662.0	6.376815755700906e+17
19663.0	6.375656066296489e+17
19664.0	6.374499935759017e+17
19665.0	6.373360093102079e+17
