# Flux units: erg / (cm m2 s)
# Wavelength units: Angstrom
wave	flux
19000.0	7.297389520661161e+17
19001.0	7.295980844089343e+17
19002.0	7.294722024407037e+17
19003.0	7.293374897848319e+17
19004.0	7.292029386096639e+17
19005.0	7.290728652734463e+17
19006.0	7.289473431764991e+17
19007.0	7.288038902901416e+17
19008.0	7.286756347652777e+17
19009.0	7.285363268299434e+17
19010.0	7.283818276847615e+17
19011.0	7.282679874235049e+17
19012.0	7.28062364046677e+17
19013.0	7.280079442105684e+17
19014.0	7.278874180889257e+17
19015.0	7.277550317338624e+17
19016.0	7.276207952713042e+17
19017.0	7.274886191906815e+17
19018.0	7.273514565020329e+17
19019.0	7.272198855196671e+17
19020.0	7.270846666113024e+17
19021.0	7.269518246150144e+17
19022.0	7.268174999322623e+17
19023.0	7.266794438568617e+17
19024.0	7.265460942099795e+17
19025.0	7.264026741790036e+17
19026.0	7.262620485331625e+17
19027.0	7.260637218471935e+17
19028.0	7.260050305318911e+17
19029.0	7.258716051079165e+17
19030.0	7.257388000215039e+17
19031.0	7.256030487161513e+17
19032.0	7.254660602309289e+17
19033.0	7.253193682234025e+17
19034.0	7.251745705033727e+17
19035.0	7.249101920578216e+17
19036.0	7.19929328411169e+17
19037.0	7.246780594214228e+17
19038.0	7.246367399346175e+17
19039.0	7.245175850707624e+17
19040.0	7.243872765739007e+17
19041.0	7.242537390221993e+17
19042.0	7.241014558676308e+17
19043.0	7.239862793011197e+17
19044.0	7.238503676335442e+17
19045.0	7.237127367207593e+17
19046.0	7.235778199420927e+17
19047.0	7.234428299029161e+17
19048.0	7.23293992788514e+17
19049.0	7.231401356514644e+17
19050.0	7.230146454312275e+17
19051.0	7.22138679720891e+17
19052.0	7.225134694443689e+17
19053.0	7.226180978955604e+17
19054.0	7.224961882128383e+17
19055.0	7.223413877768191e+17
19056.0	7.222265435389951e+17
19057.0	7.220945399840765e+17
19058.0	7.219445924975956e+17
19059.0	7.218206650750292e+17
19060.0	7.216882022438228e+17
19061.0	7.215551730417663e+17
19062.0	7.214196374634493e+17
19063.0	7.212843195695101e+17
19064.0	7.211413230234281e+17
19065.0	7.210003955275092e+17
19066.0	7.208696119558143e+17
19067.0	7.207435089477632e+17
19068.0	7.206082044755968e+17
19069.0	7.204728874205181e+17
19070.0	7.203358477647871e+17
19071.0	7.201982606125738e+17
19072.0	7.200615257429331e+17
19073.0	7.199310859643562e+17
19074.0	7.197959487051092e+17
19075.0	7.196604712878079e+17
19076.0	7.195238071620948e+17
19077.0	7.193882961903615e+17
19078.0	7.192522932267689e+17
19079.0	7.191182650813097e+17
19080.0	7.189815517424297e+17
19081.0	7.188435780151977e+17
19082.0	7.187083785404415e+17
19083.0	7.185655938067113e+17
19084.0	7.184192019715412e+17
19085.0	7.182980160858793e+17
19086.0	7.181084503222952e+17
19087.0	7.17924529672465e+17
19088.0	7.178372213200211e+17
19089.0	7.17686621479458e+17
19090.0	7.176021117064531e+17
19091.0	7.17476073710114e+17
19092.0	7.173160085837139e+17
19093.0	7.172141012571476e+17
19094.0	7.170832816144383e+17
19095.0	7.169491690236585e+17
19096.0	7.168133845833044e+17
19097.0	7.166788960430762e+17
19098.0	7.165384029372415e+17
19099.0	7.164019879531859e+17
19100.0	7.162631079766698e+17
19101.0	7.161331934647636e+17
19102.0	7.159949046054911e+17
19103.0	7.158653466094249e+17
19104.0	7.157286921306111e+17
19105.0	7.155774767060308e+17
19106.0	7.154367550106281e+17
19107.0	7.153072102965247e+17
19108.0	7.151526457202004e+17
19109.0	7.147183234438483e+17
19110.0	7.148290009202687e+17
19111.0	7.1476248079674e+17
19112.0	7.146368822236499e+17
19113.0	7.145082160764244e+17
19114.0	7.143702670955859e+17
19115.0	7.14222674710801e+17
19116.0	7.140999851671551e+17
19117.0	7.139612524107092e+17
19118.0	7.138068300212905e+17
19119.0	7.134277337262758e+17
19120.0	7.135112297360041e+17
19121.0	7.133877473290921e+17
19122.0	7.132890250171732e+17
19123.0	7.131546385383423e+17
19124.0	7.129844739473407e+17
19125.0	7.12881217872418e+17
19126.0	7.127435445971625e+17
19127.0	7.124991436215636e+17
19128.0	7.124134580453373e+17
19129.0	7.123341532637865e+17
19130.0	7.122045924715177e+17
19131.0	7.120683349136723e+17
19132.0	7.119343053701119e+17
19133.0	7.117871001195862e+17
19134.0	7.116348408725504e+17
19135.0	7.115262367804074e+17
19136.0	7.113913816580093e+17
19137.0	7.112462179150505e+17
19138.0	7.111184630502739e+17
19139.0	7.109846579019775e+17
19140.0	7.10849296666897e+17
19141.0	7.107136074372436e+17
19142.0	7.105740890876585e+17
19143.0	7.104386597650432e+17
19144.0	7.103029699761492e+17
19145.0	7.101699691555497e+17
19146.0	7.099873966948352e+17
19147.0	7.098929474000211e+17
19148.0	7.09756131160883e+17
19149.0	7.096198687096832e+17
19150.0	7.094899568541693e+17
19151.0	7.093541090798249e+17
19152.0	7.09211324485905e+17
19153.0	7.090708555672233e+17
19154.0	7.089346354784938e+17
19155.0	7.088017300084051e+17
19156.0	7.086593240203263e+17
19157.0	7.084801285335722e+17
19158.0	7.082116291843411e+17
19159.0	7.082225040359424e+17
19160.0	7.081015191972522e+17
19161.0	7.079343062777855e+17
19162.0	7.073260069279062e+17
19163.0	7.075785777086463e+17
19164.0	7.075525261874516e+17
19165.0	7.074125309455016e+17
19166.0	7.072772573713747e+17
19167.0	7.071123801199956e+17
19168.0	7.070150047389011e+17
19169.0	7.068847186116607e+17
19170.0	7.067523423229267e+17
19171.0	7.065999021615786e+17
19172.0	7.064752344443561e+17
19173.0	7.063471837413375e+17
19174.0	7.062114662700372e+17
19175.0	7.060788873964202e+17
19176.0	7.059419416930985e+17
19177.0	7.057910256020136e+17
19178.0	7.05644698079505e+17
19179.0	7.054911998350676e+17
19180.0	7.053806793654271e+17
19181.0	7.052430867606186e+17
19182.0	7.051125061932372e+17
19183.0	7.04979335643136e+17
19184.0	7.048418341945343e+17
19185.0	7.047060342352553e+17
19186.0	7.0456921044637e+17
19187.0	7.044244388708352e+17
19188.0	7.042925878487721e+17
19189.0	7.041532516717908e+17
19190.0	7.04010962285363e+17
19191.0	7.038696282215763e+17
19192.0	7.037365909105322e+17
19193.0	7.035919688619348e+17
19194.0	7.034443915067391e+17
19195.0	7.0329417362746e+17
19196.0	7.03122459730466e+17
19197.0	7.029046335154857e+17
19198.0	7.024649672065021e+17
19199.0	6.993019302226596e+17
19200.0	6.997040790416047e+17
19201.0	7.020984926907049e+17
19202.0	7.02230224314914e+17
19203.0	7.021568719497897e+17
19204.0	7.020599591305215e+17
19205.0	7.019417309981353e+17
19206.0	7.018141885748564e+17
19207.0	7.016744239497215e+17
19208.0	7.015366410633215e+17
19209.0	7.014142050653524e+17
19210.0	7.012787944073897e+17
19211.0	7.011424624705535e+17
19212.0	7.010024203922089e+17
19213.0	7.008345302324563e+17
19214.0	7.006817255860905e+17
19215.0	7.005757189565097e+17
19216.0	7.004549951433385e+17
19217.0	7.003176778945876e+17
19218.0	7.001310858226344e+17
19219.0	7.000307003293696e+17
19220.0	6.999046170345471e+17
19221.0	6.997519429708457e+17
19222.0	6.996304170669395e+17
19223.0	6.994936863216978e+17
19224.0	6.993532455747583e+17
19225.0	6.99210690269457e+17
19226.0	6.990788725921108e+17
19227.0	6.989404805529599e+17
19228.0	6.988042565495465e+17
19229.0	6.986655072255997e+17
19230.0	6.985244406885033e+17
19231.0	6.983853192598867e+17
19232.0	6.982476501090303e+17
19233.0	6.981034786684927e+17
19234.0	6.979693836238847e+17
19235.0	6.978290178151766e+17
19236.0	6.976919024522579e+17
19237.0	6.975511407711572e+17
19238.0	6.974014672426323e+17
19239.0	6.972726067593215e+17
19240.0	6.971328872229546e+17
19241.0	6.9699179656861e+17
19242.0	6.96852536168721e+17
19243.0	6.967007492702207e+17
19244.0	6.965735742679721e+17
19245.0	6.964203443890857e+17
19246.0	6.962764873116329e+17
19247.0	6.961367465940308e+17
19248.0	6.9599486817949e+17
19249.0	6.958528087807316e+17
19250.0	6.957104602546175e+17
19251.0	6.955632589187754e+17
19252.0	6.954084019295572e+17
19253.0	6.952883621374634e+17
19254.0	6.951479318762836e+17
19255.0	6.949914642743295e+17
19256.0	6.948613544476671e+17
19257.0	6.947224149819391e+17
19258.0	6.945799139229696e+17
19259.0	6.944294795476991e+17
19260.0	6.94195700577075e+17
19261.0	6.94149273616384e+17
19262.0	6.940040073226922e+17
19263.0	6.938590867095551e+17
19264.0	6.936872600556884e+17
19265.0	6.935649072447487e+17
19266.0	6.934222847606783e+17
19267.0	6.932908799426559e+17
19268.0	6.931466958493012e+17
19269.0	6.930020575827284e+17
19270.0	6.92855703216674e+17
19271.0	6.926908717531135e+17
19272.0	6.925635596670291e+17
19273.0	6.92382514352401e+17
19274.0	6.922327887446013e+17
19275.0	6.921290808732329e+17
19276.0	6.919817000211796e+17
19277.0	6.918255587360765e+17
19278.0	6.91664857403665e+17
19279.0	6.915127109834068e+17
19280.0	6.913644257695059e+17
19281.0	6.91218440921634e+17
19282.0	6.910657131009364e+17
19283.0	6.908916841578493e+17
19284.0	6.907421849725609e+17
19285.0	6.906108999718227e+17
19286.0	6.90462552961843e+17
19287.0	6.902902029287423e+17
19288.0	6.88619997521509e+17
19289.0	6.868042378816127e+17
19290.0	6.8983150622365e+17
19291.0	6.896952337760255e+17
19292.0	6.895715123636905e+17
19293.0	6.894225459249151e+17
19294.0	6.892713535690067e+17
19295.0	6.8910666233501e+17
19296.0	6.889118741736106e+17
19297.0	6.887564495552511e+17
19298.0	6.886055305281535e+17
19299.0	6.884465074066772e+17
19300.0	6.882981787118249e+17
19301.0	6.881426869846015e+17
19302.0	6.87985758708258e+17
19303.0	6.878231016417961e+17
19304.0	6.876706568667135e+17
19305.0	6.875125125218303e+17
19306.0	6.873511003947007e+17
19307.0	6.871853456949247e+17
19308.0	6.870181814293844e+17
19309.0	6.867511285557929e+17
19310.0	6.865052203570515e+17
19311.0	6.864629756766889e+17
19312.0	6.863309158481919e+17
19313.0	6.861551499040084e+17
19314.0	6.819235318377119e+17
19315.0	6.820926719000632e+17
19316.0	6.856360294962516e+17
19317.0	6.855129379285674e+17
19318.0	6.853540314087423e+17
19319.0	6.851912362797737e+17
19320.0	6.850075946909695e+17
19321.0	6.847838928852308e+17
19322.0	6.845979295394474e+17
19323.0	6.844061811299668e+17
19324.0	6.842544956637183e+17
19325.0	6.840300852303187e+17
19326.0	6.83915777024546e+17
19327.0	6.837570419119444e+17
19328.0	6.835745998940842e+17
19329.0	6.833304679830867e+17
19330.0	6.831404522405887e+17
19331.0	6.82932204417843e+17
19332.0	6.827550439374847e+17
19333.0	6.825729824129023e+17
19334.0	6.823940808070484e+17
19335.0	6.82175028387294e+17
19336.0	6.819221359034368e+17
19337.0	6.817391862349823e+17
19338.0	6.815372953692841e+17
19339.0	6.813628293797203e+17
19340.0	6.811683016146943e+17
19341.0	6.809542940338858e+17
19342.0	6.806957515429204e+17
19343.0	6.805318068251306e+17
19344.0	6.803255705905834e+17
19345.0	6.80009376482372e+17
19346.0	6.79868101628177e+17
19347.0	6.797192508822867e+17
19348.0	6.794603917213693e+17
19349.0	6.792519652212735e+17
19350.0	6.79043024499507e+17
19351.0	6.788383821004799e+17
19352.0	6.786145569822035e+17
19353.0	6.784173425557504e+17
19354.0	6.782020729088681e+17
19355.0	6.779769107163817e+17
19356.0	6.777631992534355e+17
19357.0	6.775398897549311e+17
19358.0	6.773112786561706e+17
19359.0	6.769890391577939e+17
19360.0	6.767264460177408e+17
19361.0	6.764989029984937e+17
19362.0	6.762635215241215e+17
19363.0	6.760215497495892e+17
19364.0	6.757758395219967e+17
19365.0	6.755261763725994e+17
19366.0	6.752712716014932e+17
19367.0	6.748652320063487e+17
19368.0	6.745780187212457e+17
19369.0	6.743021399135572e+17
19370.0	6.740288624831145e+17
19371.0	6.737533702504445e+17
19372.0	6.73475994984994e+17
19373.0	6.73055526774374e+17
19374.0	6.726759367398739e+17
19375.0	6.723597371091625e+17
19376.0	6.720626739904511e+17
19377.0	6.71760248873506e+17
19378.0	6.71302452056337e+17
19379.0	6.708550031463763e+17
19380.0	6.705406987119274e+17
19381.0	6.702221259440127e+17
19382.0	6.69798819028446e+17
19383.0	6.692037623545855e+17
19384.0	6.688646540645716e+17
19385.0	6.685109828015444e+17
19386.0	6.679514246894932e+17
19387.0	6.673065080870228e+17
19388.0	6.669104540811261e+17
19389.0	6.664850556059644e+17
19390.0	6.655702862921727e+17
19391.0	6.612484978900945e+17
19392.0	6.645324716878502e+17
19393.0	6.638028128081236e+17
19394.0	6.633441037298345e+17
19395.0	6.627925593948159e+17
19396.0	6.621016976872787e+17
19397.0	6.616714280872618e+17
19398.0	6.612154683053396e+17
19399.0	6.606454257614847e+17
19400.0	6.601078626495146e+17
19401.0	6.596292476840617e+17
19402.0	6.591274730302121e+17
19403.0	6.584818890440704e+17
19404.0	6.578358003433471e+17
19405.0	6.572819204800511e+17
19406.0	6.566239853172054e+17
19407.0	6.557787587521193e+17
19408.0	6.551157086355456e+17
19409.0	6.54312841884467e+17
19410.0	6.534291884343295e+17
19411.0	6.527002733445115e+17
19412.0	6.515133337567231e+17
19413.0	6.507679479846228e+17
19414.0	6.49452572237277e+17
19415.0	6.486044815917056e+17
19416.0	6.470562197012483e+17
19417.0	6.460880533323779e+17
19418.0	6.444049234569898e+17
19419.0	6.432089993904136e+17
19420.0	6.415178043577683e+17
19421.0	6.402303128327507e+17
19422.0	6.388782637689514e+17
19423.0	6.377284288118783e+17
19424.0	6.365310623940608e+17
19425.0	6.352709349976745e+17
19426.0	6.339597018944851e+17
19427.0	6.325954310482602e+17
19428.0	6.311382697203027e+17
19429.0	6.296471045406717e+17
19430.0	6.279134553221805e+17
19431.0	6.256926623006725e+17
19432.0	6.244184339338579e+17
19433.0	6.224577997482666e+17
19434.0	6.201802322083839e+17
19435.0	6.176641228559699e+17
19436.0	6.148981847490556e+17
19437.0	6.122565366622889e+17
19438.0	6.042826195686748e+17
19439.0	6.053068181340161e+17
19440.0	6.018508104138751e+17
19441.0	5.976571986837501e+17
19442.0	5.929338583121921e+17
19443.0	5.875197336879103e+17
19444.0	5.813549647527933e+17
19445.0	5.742087983071234e+17
19446.0	5.6579718210300576e+17
19447.0	5.556659276830032e+17
19448.0	5.429750197649413e+17
19449.0	5.261325650012842e+17
19450.0	5.01092452960391e+17
19451.0	4.856573482500107e+17
19452.0	5.1523427150506694e+17
19453.0	5.351210386543964e+17
19454.0	5.4932801878753216e+17
19455.0	5.603528229082452e+17
19456.0	5.693149173951149e+17
19457.0	5.767715400013137e+17
19458.0	5.766759913794326e+17
19459.0	5.88496557729384e+17
19460.0	5.935460585745064e+17
19461.0	5.977832275924308e+17
19462.0	6.015586813345792e+17
19463.0	6.050486779467089e+17
19464.0	6.080981068939263e+17
19465.0	6.107857469221546e+17
19466.0	6.133017978339327e+17
19467.0	6.15526363701794e+17
19468.0	6.176553575295658e+17
19469.0	6.194988338992467e+17
19470.0	6.211776609779712e+17
19471.0	6.227981656304298e+17
19472.0	6.242072622617939e+17
19473.0	6.25477997891857e+17
19474.0	6.267150142537728e+17
19475.0	6.278386041225213e+17
19476.0	6.289693077405695e+17
19477.0	6.300168339062783e+17
19478.0	6.309998594359295e+17
19479.0	6.319305245327359e+17
19480.0	6.328564722958333e+17
19481.0	6.341185328469332e+17
19482.0	6.352048493341345e+17
19483.0	6.365421525532671e+17
19484.0	6.37697773902234e+17
19485.0	6.387079637718356e+17
19486.0	6.397779440741037e+17
19487.0	6.406062764021075e+17
19488.0	6.415101735206912e+17
19489.0	6.422155512949417e+17
19490.0	6.428889563092311e+17
19491.0	6.4365640300189e+17
19492.0	6.441348770387282e+17
19493.0	6.449003563231913e+17
19494.0	6.452835953322665e+17
19495.0	6.457350983166633e+17
19496.0	6.462663528458921e+17
19497.0	6.465651901551956e+17
19498.0	6.461057386151936e+17
19499.0	6.413186381119462e+17
19500.0	6.475899095831891e+17
19501.0	6.479009528064682e+17
19502.0	6.48158626796885e+17
19503.0	6.48532199612962e+17
19504.0	6.487404879107412e+17
19505.0	6.489379082076159e+17
19506.0	6.492315701652134e+17
19507.0	6.496221234812244e+17
19508.0	6.498899096589654e+17
19509.0	6.503358662355622e+17
19510.0	6.507003356643327e+17
19511.0	6.433235435257806e+17
19512.0	6.500980930991429e+17
19513.0	6.498391297796754e+17
19514.0	6.503898102278811e+17
19515.0	6.519282780689755e+17
19516.0	6.525165934477311e+17
19517.0	6.526296558054057e+17
19518.0	6.52732068405794e+17
19519.0	6.529027233808387e+17
19520.0	6.532279066514771e+17
19521.0	6.533064260496042e+17
19522.0	6.533670026346495e+17
19523.0	6.534283958506835e+17
19524.0	6.537446710487721e+17
19525.0	6.538117597102079e+17
19526.0	6.538597415692969e+17
19527.0	6.539047682615978e+17
19528.0	6.539622876883625e+17
19529.0	6.541786328246954e+17
19530.0	6.542389833367551e+17
19531.0	6.542654002517332e+17
19532.0	6.542878135637332e+17
19533.0	6.543062931079167e+17
19534.0	6.543207486368425e+17
19535.0	6.544088569828694e+17
19536.0	6.544891683973802e+17
19537.0	6.5449049980928e+17
19538.0	6.544678607039146e+17
19539.0	6.544442810258772e+17
19540.0	6.544616016838655e+17
19541.0	6.544461096725162e+17
19542.0	6.54428227117602e+17
19543.0	6.544451409281023e+17
19544.0	6.544868633477119e+17
19545.0	6.544261371658239e+17
19546.0	6.543752527085568e+17
19547.0	6.54396344954607e+17
19548.0	6.543617291539795e+17
19549.0	6.543163966969172e+17
19550.0	6.542834259722239e+17
19551.0	6.542409652153002e+17
19552.0	6.541961883637076e+17
19553.0	6.541478334212777e+17
19554.0	6.540983019066708e+17
19555.0	6.541041152819197e+17
19556.0	6.540624907993087e+17
19557.0	6.540083945537533e+17
19558.0	6.539524800774143e+17
19559.0	6.538957291869523e+17
19560.0	6.538389004222463e+17
19561.0	6.538367928543914e+17
19562.0	6.537742234157055e+17
19563.0	6.537141560191657e+17
19564.0	6.53649518928418e+17
19565.0	6.535835077137748e+17
19566.0	6.535201671522986e+17
19567.0	6.535401246294015e+17
19568.0	6.534685788209151e+17
19569.0	6.533986526429183e+17
19570.0	6.533277015867392e+17
19571.0	6.532542811340797e+17
19572.0	6.531775809454077e+17
19573.0	6.531352648220671e+17
19574.0	6.531302236181844e+17
19575.0	6.530606153684308e+17
19576.0	6.529814858388819e+17
19577.0	6.528996726538239e+17
19578.0	6.528196350574591e+17
19579.0	6.527383605608447e+17
19580.0	6.526561574453247e+17
19581.0	6.525740967264256e+17
19582.0	6.525260457312255e+17
19583.0	6.524630507104937e+17
19584.0	6.523748282793983e+17
19585.0	6.522813292041556e+17
19586.0	6.521874051760128e+17
19587.0	6.520994577514495e+17
19588.0	6.519962661289983e+17
19589.0	6.519353220530176e+17
19590.0	6.518404513005568e+17
19591.0	6.517577375285248e+17
19592.0	6.516675753017343e+17
19593.0	6.51597774463522e+17
19594.0	6.515058329430697e+17
19595.0	6.514310715714217e+17
19596.0	6.512088015612588e+17
19597.0	6.512431919180458e+17
19598.0	6.511276309435731e+17
19599.0	6.510548673189203e+17
19600.0	6.509599158261076e+17
19601.0	6.508584003174399e+17
19602.0	6.507585642779988e+17
19603.0	6.505943920192169e+17
19604.0	6.505501688157523e+17
19605.0	6.504514621625684e+17
19606.0	6.503749331014995e+17
19607.0	6.502771972898815e+17
19608.0	6.502002508955647e+17
19609.0	6.501046975201279e+17
19610.0	6.500042430305622e+17
19611.0	6.499020227390122e+17
19612.0	6.498070877437951e+17
19613.0	6.497166960186708e+17
19614.0	6.4961658238621e+17
19615.0	6.49514704839202e+17
19616.0	6.493731224027135e+17
19617.0	6.493134767434409e+17
19618.0	6.491894787167572e+17
19619.0	6.490752574728874e+17
19620.0	6.489774453249364e+17
19621.0	6.489090396520447e+17
19622.0	6.488136952927572e+17
19623.0	6.487079915618303e+17
19624.0	6.48599988932881e+17
19625.0	6.48494744268527e+17
19626.0	6.483842540677802e+17
19627.0	6.482740776009727e+17
19628.0	6.48084035084834e+17
19629.0	6.479618562676052e+17
19630.0	6.470602474214737e+17
19631.0	6.443466951229444e+17
19632.0	6.475753949145769e+17
19633.0	6.47610414277154e+17
19634.0	6.475419148615679e+17
19635.0	6.474423508227412e+17
19636.0	6.473350837349034e+17
19637.0	6.472032536144554e+17
19638.0	6.471332504709801e+17
19639.0	6.470261860379306e+17
19640.0	6.469123642316116e+17
19641.0	6.467614308040704e+17
19642.0	6.467030623103657e+17
19643.0	6.46593588109858e+17
19644.0	6.464822507995135e+17
19645.0	6.463620224035498e+17
19646.0	6.462607736526164e+17
19647.0	6.461610349210282e+17
19648.0	6.460520299233279e+17
19649.0	6.459424197574655e+17
19650.0	6.458329456268628e+17
19651.0	6.457226594790057e+17
19652.0	6.456130787431763e+17
19653.0	6.455010077092521e+17
19654.0	6.453922677915647e+17
19655.0	6.452823066323625e+17
19656.0	6.451717252754089e+17
19657.0	6.450615671237289e+17
19658.0	6.449505301255508e+17
19659.0	6.448398978777087e+17
19660.0	6.447290039052969e+17
19661.0	6.446178177297065e+17
19662.0	6.445061223656105e+17
19663.0	6.443879145056938e+17
19664.0	6.442811508042409e+17
19665.0	6.441837726968489e+17
