# Flux units: erg / (cm m2 s)
# Wavelength units: Angstrom
wave	flux
19000.0	7.91076568126805e+17
19001.0	7.909287040909312e+17
19002.0	7.907877765950121e+17
19003.0	7.906431425926484e+17
19004.0	7.904984497302186e+17
19005.0	7.903538113937407e+17
19006.0	7.902089679557972e+17
19007.0	7.900553189960362e+17
19008.0	7.899168613859327e+17
19009.0	7.897711824426323e+17
19010.0	7.896134580174847e+17
19011.0	7.894817772841641e+17
19012.0	7.893209536877906e+17
19013.0	7.891928006437548e+17
19014.0	7.890453907111935e+17
19015.0	7.889008547157332e+17
19016.0	7.887541355850412e+17
19017.0	7.886088223850496e+17
19018.0	7.884636236895572e+17
19019.0	7.883187051735722e+17
19020.0	7.881712906272765e+17
19021.0	7.880264027297106e+17
19022.0	7.878808949140136e+17
19023.0	7.877347688579071e+17
19024.0	7.875876474934612e+17
19025.0	7.874412591535446e+17
19026.0	7.872935293353983e+17
19027.0	7.871339816463016e+17
19028.0	7.870033546619562e+17
19029.0	7.868569235401385e+17
19030.0	7.867104374729386e+17
19031.0	7.865638682187091e+17
19032.0	7.864172410830845e+17
19033.0	7.862673524566696e+17
19034.0	7.861236655281494e+17
19035.0	7.85974224154351e+17
19036.0	7.848136887588178e+17
19037.0	7.856823475721555e+17
19038.0	7.85535447527151e+17
19039.0	7.853895423710548e+17
19040.0	7.852425970275667e+17
19041.0	7.850955536771753e+17
19042.0	7.849456242262012e+17
19043.0	7.848014443271508e+17
19044.0	7.84654198112256e+17
19045.0	7.84507065143569e+17
19046.0	7.843580770342228e+17
19047.0	7.842120200443219e+17
19048.0	7.840583134827859e+17
19049.0	7.839154416473427e+17
19050.0	7.837687137086121e+17
19051.0	7.834636667322364e+17
19052.0	7.834478635734355e+17
19053.0	7.83325702512094e+17
19054.0	7.831804434186239e+17
19055.0	7.830238655763796e+17
19056.0	7.828853422555133e+17
19057.0	7.827375126129322e+17
19058.0	7.825879382796968e+17
19059.0	7.824422859003219e+17
19060.0	7.822937704890365e+17
19061.0	7.821468559037779e+17
19062.0	7.819989121761279e+17
19063.0	7.818511559338664e+17
19064.0	7.816993098257748e+17
19065.0	7.815489933803519e+17
19066.0	7.814053093878441e+17
19067.0	7.81259586544162e+17
19068.0	7.811116630889812e+17
19069.0	7.809637203400019e+17
19070.0	7.808153409639764e+17
19071.0	7.806676639940605e+17
19072.0	7.805196032453288e+17
19073.0	7.803713231344982e+17
19074.0	7.802233903120381e+17
19075.0	7.800752247057064e+17
19076.0	7.799263270535165e+17
19077.0	7.797784679109972e+17
19078.0	7.796296558226089e+17
19079.0	7.794824276432211e+17
19080.0	7.79333876720162e+17
19081.0	7.7918437914269e+17
19082.0	7.790359470582442e+17
19083.0	7.788853790943914e+17
19084.0	7.787317677435562e+17
19085.0	7.785921824249172e+17
19086.0	7.784281088021844e+17
19087.0	7.782653031175506e+17
19088.0	7.781404638532948e+17
19089.0	7.779758644046504e+17
19090.0	7.778479495970815e+17
19091.0	7.777000265613311e+17
19092.0	7.775439911824041e+17
19093.0	7.774043039421778e+17
19094.0	7.772546893436242e+17
19095.0	7.771058622955519e+17
19096.0	7.769582079748778e+17
19097.0	7.768102189487444e+17
19098.0	7.766617500942335e+17
19099.0	7.765130836880042e+17
19100.0	7.763627882141011e+17
19101.0	7.762156743994024e+17
19102.0	7.760640512884735e+17
19103.0	7.759182830064979e+17
19104.0	7.757694869962751e+17
19105.0	7.756204783348394e+17
19106.0	7.754662625847976e+17
19107.0	7.753221181975212e+17
19108.0	7.751734154406569e+17
19109.0	7.749247034195964e+17
19110.0	7.748713457210706e+17
19111.0	7.747273516296872e+17
19112.0	7.745786915149139e+17
19113.0	7.744298212655101e+17
19114.0	7.742808868432552e+17
19115.0	7.741289775409833e+17
19116.0	7.739828721767764e+17
19117.0	7.738328065507325e+17
19118.0	7.736768472285181e+17
19119.0	7.734472791293948e+17
19120.0	7.733778738839551e+17
19121.0	7.732311576892758e+17
19122.0	7.730885436637181e+17
19123.0	7.72939298443537e+17
19124.0	7.727842868942164e+17
19125.0	7.726401707485868e+17
19126.0	7.724912873570303e+17
19127.0	7.722845649327444e+17
19128.0	7.721413286122834e+17
19129.0	7.720410021188947e+17
19130.0	7.718945163313151e+17
19131.0	7.717444182693203e+17
19132.0	7.715959744408233e+17
19133.0	7.714311342391293e+17
19134.0	7.71274186039842e+17
19135.0	7.711476905847468e+17
19136.0	7.70998553018368e+17
19137.0	7.708434524099923e+17
19138.0	7.706970725984938e+17
19139.0	7.705498849640448e+17
19140.0	7.704006126206977e+17
19141.0	7.702510886191103e+17
19142.0	7.701006415910227e+17
19143.0	7.699501418545151e+17
19144.0	7.698019208833706e+17
19145.0	7.696521762613928e+17
19146.0	7.69481096752879e+17
19147.0	7.693500141273087e+17
19148.0	7.692027507157672e+17
19149.0	7.690531082949972e+17
19150.0	7.689034050568191e+17
19151.0	7.68753918104917e+17
19152.0	7.686027050571092e+17
19153.0	7.684533966427476e+17
19154.0	7.682997008465919e+17
19155.0	7.681539697541117e+17
19156.0	7.680034131148799e+17
19157.0	7.678493209569961e+17
19158.0	7.676381845869908e+17
19159.0	7.675508120616957e+17
19160.0	7.674014330432169e+17
19161.0	7.672470739877887e+17
19162.0	7.669475911750999e+17
19163.0	7.669454986368339e+17
19164.0	7.668020664423766e+17
19165.0	7.66649465918805e+17
19166.0	7.664949922190675e+17
19167.0	7.663365431579987e+17
19168.0	7.661983873979732e+17
19169.0	7.660470676750333e+17
19170.0	7.658995895151272e+17
19171.0	7.657415018632531e+17
19172.0	7.655980460408832e+17
19173.0	7.654478727610367e+17
19174.0	7.652957390635007e+17
19175.0	7.651468983140352e+17
19176.0	7.649960027750399e+17
19177.0	7.648396500271101e+17
19178.0	7.646896706639187e+17
19179.0	7.645319884614314e+17
19180.0	7.643879440383999e+17
19181.0	7.642373636314451e+17
19182.0	7.640888582864893e+17
19183.0	7.639383044434602e+17
19184.0	7.637851193737216e+17
19185.0	7.636361066577919e+17
19186.0	7.634849598799871e+17
19187.0	7.633311393731926e+17
19188.0	7.631814281658368e+17
19189.0	7.630280301652649e+17
19190.0	7.628756411744255e+17
19191.0	7.627252720205825e+17
19192.0	7.62574707831603e+17
19193.0	7.62420125359582e+17
19194.0	7.622696527462399e+17
19195.0	7.621182842295636e+17
19196.0	7.619652219131219e+17
19197.0	7.618105868724905e+17
19198.0	7.616474147454975e+17
19199.0	7.605853885912403e+17
19200.0	7.606947426249388e+17
19201.0	7.611923176620032e+17
19202.0	7.610496769327103e+17
19203.0	7.608974253752319e+17
19204.0	7.607470209892352e+17
19205.0	7.605956103897087e+17
19206.0	7.60442616160802e+17
19207.0	7.602880436153002e+17
19208.0	7.601309556058794e+17
19209.0	7.599844474486783e+17
19210.0	7.598312804144468e+17
19211.0	7.596779402952701e+17
19212.0	7.595244477830483e+17
19213.0	7.593613540895402e+17
19214.0	7.59202836381696e+17
19215.0	7.590597791580157e+17
19216.0	7.589096981528575e+17
19217.0	7.587561122474664e+17
19218.0	7.585741711693139e+17
19219.0	7.584421007851519e+17
19220.0	7.582926040465407e+17
19221.0	7.581279534273875e+17
19222.0	7.57984635457809e+17
19223.0	7.578301863646548e+17
19224.0	7.576741199478781e+17
19225.0	7.57515664036113e+17
19226.0	7.573657053648211e+17
19227.0	7.572106402682195e+17
19228.0	7.570553834919251e+17
19229.0	7.568999348961279e+17
19230.0	7.567421939733844e+17
19231.0	7.565873076939433e+17
19232.0	7.564321957609471e+17
19233.0	7.56274229883699e+17
19234.0	7.56119830003712e+17
19235.0	7.5596351682205e+17
19236.0	7.558078252362409e+17
19237.0	7.556506253787135e+17
19238.0	7.554898114292394e+17
19239.0	7.553373776991574e+17
19240.0	7.551766400860157e+17
19241.0	7.550216279774548e+17
19242.0	7.548652651631956e+17
19243.0	7.54701498144085e+17
19244.0	7.545497264149844e+17
19245.0	7.543915947229183e+17
19246.0	7.542327206390442e+17
19247.0	7.540746752098303e+17
19248.0	7.53916013916979e+17
19249.0	7.537570028191743e+17
19250.0	7.535976561770493e+17
19251.0	7.53433966752563e+17
19252.0	7.532683961827327e+17
19253.0	7.531186352029696e+17
19254.0	7.529582919942144e+17
19255.0	7.527917869334527e+17
19256.0	7.526350796270249e+17
19257.0	7.524037854319955e+17
19258.0	7.522323389218816e+17
19259.0	7.520683185668096e+17
19260.0	7.518933043817128e+17
19261.0	7.517473193940306e+17
19262.0	7.515840407317161e+17
19263.0	7.514205589252778e+17
19264.0	7.512429255371433e+17
19265.0	7.510903136889514e+17
19266.0	7.509283657394858e+17
19267.0	7.507693512862376e+17
19268.0	7.506052548744532e+17
19269.0	7.504408141103101e+17
19270.0	7.50275961884945e+17
19271.0	7.501000828343635e+17
19272.0	7.499442272512681e+17
19273.0	7.49679013999411e+17
19274.0	7.495535440516436e+17
19275.0	7.494471418292905e+17
19276.0	7.492803823140863e+17
19277.0	7.491131231174653e+17
19278.0	7.489454507819007e+17
19279.0	7.48775772730163e+17
19280.0	7.486061533986815e+17
19281.0	7.484395707432957e+17
19282.0	7.482696573911039e+17
19283.0	7.480874617186986e+17
19284.0	7.479099628279123e+17
19285.0	7.477527509467133e+17
19286.0	7.475866447642621e+17
19287.0	7.474158570394963e+17
19288.0	7.469643994933926e+17
19289.0	7.46424279114273e+17
19290.0	7.468973197099007e+17
19291.0	7.467142948235944e+17
19292.0	7.46549263082018e+17
19293.0	7.46373937959185e+17
19294.0	7.46198554116096e+17
19295.0	7.460222782843561e+17
19296.0	7.457851925943636e+17
19297.0	7.455508067778557e+17
19298.0	7.453725558483625e+17
19299.0	7.451935695175676e+17
19300.0	7.450138194040148e+17
19301.0	7.448332388182697e+17
19302.0	7.446517849784319e+17
19303.0	7.4446769501853e+17
19304.0	7.442862650862249e+17
19305.0	7.441043474961748e+17
19306.0	7.439198625726463e+17
19307.0	7.437321411843412e+17
19308.0	7.435460154490881e+17
19309.0	7.433148252727977e+17
19310.0	7.431143716552701e+17
19311.0	7.429638180918611e+17
19312.0	7.427798111791786e+17
19313.0	7.425884329170262e+17
19314.0	7.419167875530752e+17
19315.0	7.417489355614895e+17
19316.0	7.419435522457599e+17
19317.0	7.416608073624234e+17
19318.0	7.414652712867156e+17
19319.0	7.412685353604435e+17
19320.0	7.410703593897983e+17
19321.0	7.408713391057578e+17
19322.0	7.406652649810602e+17
19323.0	7.404556104586582e+17
19324.0	7.402651130003456e+17
19325.0	7.400371664191487e+17
19326.0	7.398557436171603e+17
19327.0	7.396499749776042e+17
19328.0	7.394425793675264e+17
19329.0	7.3912261045562e+17
19330.0	7.388176206615891e+17
19331.0	7.386043232463529e+17
19332.0	7.383910553310547e+17
19333.0	7.381748828602365e+17
19334.0	7.379566695809023e+17
19335.0	7.377372268112553e+17
19336.0	7.375156164253012e+17
19337.0	7.37291774669619e+17
19338.0	7.369432178010793e+17
19339.0	7.36583380771362e+17
19340.0	7.363514269521236e+17
19341.0	7.36119785328913e+17
19342.0	7.358724985323517e+17
19343.0	7.356486530017961e+17
19344.0	7.354094835815763e+17
19345.0	7.349720007573505e+17
19346.0	7.345856719443286e+17
19347.0	7.343672802672639e+17
19348.0	7.341190180154026e+17
19349.0	7.338646495559679e+17
19350.0	7.336082723045375e+17
19351.0	7.330400741359611e+17
19352.0	7.32709043306496e+17
19353.0	7.324445089726461e+17
19354.0	7.321742280228863e+17
19355.0	7.317673816533674e+17
19356.0	7.311797357554345e+17
19357.0	7.308966458206889e+17
19358.0	7.306088758815402e+17
19359.0	7.301893232874833e+17
19360.0	7.297510292848639e+17
19361.0	7.294248755920896e+17
19362.0	7.291222206272851e+17
19363.0	7.288144049908394e+17
19364.0	7.285020982334803e+17
19365.0	7.2818519717533e+17
19366.0	7.278636060464468e+17
19367.0	7.275374850692436e+17
19368.0	7.27206287306479e+17
19369.0	7.268671178495314e+17
19370.0	7.265175016396118e+17
19371.0	7.261786998833151e+17
19372.0	7.258271315045033e+17
19373.0	7.254678686750036e+17
19374.0	7.251024181286228e+17
19375.0	7.247304718636372e+17
19376.0	7.242935548510207e+17
19377.0	7.238933957399891e+17
19378.0	7.235004600593066e+17
19379.0	7.231001165387092e+17
19380.0	7.226914643815081e+17
19381.0	7.222732131401727e+17
19382.0	7.218447094819498e+17
19383.0	7.214100933246975e+17
19384.0	7.209263622870356e+17
19385.0	7.204083812619603e+17
19386.0	7.19949703361331e+17
19387.0	7.194819468896938e+17
19388.0	7.19005271929651e+17
19389.0	7.18519070167313e+17
19390.0	7.178811918865748e+17
19391.0	7.165751236493299e+17
19392.0	7.168141626266963e+17
19393.0	7.162950115306153e+17
19394.0	7.15563942665694e+17
19395.0	7.149601706475519e+17
19396.0	7.143779254752595e+17
19397.0	7.135704602989911e+17
19398.0	7.128811132944383e+17
19399.0	7.121599768210089e+17
19400.0	7.112379066220544e+17
19401.0	7.10535095202611e+17
19402.0	7.094363096088573e+17
19403.0	7.085758443683844e+17
19404.0	7.074477625398611e+17
19405.0	7.062220872264358e+17
19406.0	7.049921014267905e+17
19407.0	7.035725423138141e+17
19408.0	7.019508263463596e+17
19409.0	7.006161895860906e+17
19410.0	6.996116349736275e+17
19411.0	6.985829408833535e+17
19412.0	6.975294729267881e+17
19413.0	6.96448375202338e+17
19414.0	6.953388849758207e+17
19415.0	6.941791753688403e+17
19416.0	6.929838921919145e+17
19417.0	6.917716879343615e+17
19418.0	6.905109128675328e+17
19419.0	6.891726263637332e+17
19420.0	6.877548355693225e+17
19421.0	6.863468849616212e+17
19422.0	6.848185261621247e+17
19423.0	6.83231515264068e+17
19424.0	6.815443055192744e+17
19425.0	6.797689801583273e+17
19426.0	6.778018966710953e+17
19427.0	6.756284704839e+17
19428.0	6.732533753795923e+17
19429.0	6.706151434835282e+17
19430.0	6.677169448506711e+17
19431.0	6.642323162486107e+17
19432.0	6.605614160893262e+17
19433.0	6.574882010344106e+17
19434.0	6.54499723223586e+17
19435.0	6.51282534839091e+17
19436.0	6.47805705265698e+17
19437.0	6.44128447799842e+17
19438.0	6.39457667719714e+17
19439.0	6.355165078618115e+17
19440.0	6.303314510959958e+17
19441.0	6.24373838975249e+17
19442.0	6.17682469860147e+17
19443.0	6.107245422400852e+17
19444.0	6.033362811267749e+17
19445.0	5.948475876660567e+17
19446.0	5.850184582605484e+17
19447.0	5.736918249635834e+17
19448.0	5.607011679644336e+17
19449.0	5.454391206565205e+17
19450.0	5.2577684433141274e+17
19451.0	5.177741266299572e+17
19452.0	5.35977648910063e+17
19453.0	5.532989746315269e+17
19454.0	5.670243828847951e+17
19455.0	5.789132267017556e+17
19456.0	5.892178663789912e+17
19457.0	5.981443999487313e+17
19458.0	6.053840598073349e+17
19459.0	6.125726141688489e+17
19460.0	6.192743013416957e+17
19461.0	6.253297918104916e+17
19462.0	6.306677060709038e+17
19463.0	6.352603402556753e+17
19464.0	6.392806569760082e+17
19465.0	6.429005982291286e+17
19466.0	6.462160357381459e+17
19467.0	6.492798445770068e+17
19468.0	6.52129023749871e+17
19469.0	6.547824030952101e+17
19470.0	6.580614315289263e+17
19471.0	6.614390091197093e+17
19472.0	6.642436488385873e+17
19473.0	6.66796029832943e+17
19474.0	6.690083955889494e+17
19475.0	6.709703806899542e+17
19476.0	6.72762695778304e+17
19477.0	6.743544757398185e+17
19478.0	6.758759300158803e+17
19479.0	6.771809068253183e+17
19480.0	6.785298269383338e+17
19481.0	6.797004566953983e+17
19482.0	6.808375652253695e+17
19483.0	6.819661859520511e+17
19484.0	6.829938318158505e+17
19485.0	6.839661905313791e+17
19486.0	6.848815360726356e+17
19487.0	6.858059892654077e+17
19488.0	6.866609334736212e+17
19489.0	6.874829742058153e+17
19490.0	6.882490281099261e+17
19491.0	6.890486075752447e+17
19492.0	6.897950921850879e+17
19493.0	6.906982757826557e+17
19494.0	6.91890820009165e+17
19495.0	6.930634555523076e+17
19496.0	6.941730047787005e+17
19497.0	6.951936924319745e+17
19498.0	6.958353104240644e+17
19499.0	6.955716852755108e+17
19500.0	6.973824805371901e+17
19501.0	6.980208661189972e+17
19502.0	6.985238346115757e+17
19503.0	6.99123602886929e+17
19504.0	6.994734585916074e+17
19505.0	7.000110206550012e+17
19506.0	7.003952253326676e+17
19507.0	7.006943124826794e+17
19508.0	7.01108424155682e+17
19509.0	7.014516309797545e+17
19510.0	7.0169749618688e+17
19511.0	7.008823427814735e+17
19512.0	7.020650081637714e+17
19513.0	7.021973994820942e+17
19514.0	7.024927274172411e+17
19515.0	7.029198935818239e+17
19516.0	7.031324764274687e+17
19517.0	7.033097777665363e+17
19518.0	7.03578879767347e+17
19519.0	7.03750113136913e+17
19520.0	7.039027732895059e+17
19521.0	7.040488817295359e+17
19522.0	7.041858876910249e+17
19523.0	7.043135491626323e+17
19524.0	7.044335532332372e+17
19525.0	7.04545588126242e+17
19526.0	7.046739901721258e+17
19527.0	7.048185022600531e+17
19528.0	7.049104035151871e+17
19529.0	7.049959491414698e+17
19530.0	7.050753643730259e+17
19531.0	7.051488538918911e+17
19532.0	7.052166381786452e+17
19533.0	7.052788954912083e+17
19534.0	7.053357870306644e+17
19535.0	7.053875041970858e+17
19536.0	7.054330667816275e+17
19537.0	7.054766924365823e+17
19538.0	7.055112135158441e+17
19539.0	7.05531135201553e+17
19540.0	7.055751133178536e+17
19541.0	7.056014912957097e+17
19542.0	7.056228498101587e+17
19543.0	7.058577260806141e+17
19544.0	7.059278418411519e+17
19545.0	7.059213718476114e+17
19546.0	7.059129724742313e+17
19547.0	7.062830575867215e+17
19548.0	7.063457724978516e+17
19549.0	7.063341131715923e+17
19550.0	7.063259962146816e+17
19551.0	7.063651297700517e+17
19552.0	7.066390671742292e+17
19553.0	7.066160653314729e+17
19554.0	7.065906590340436e+17
19555.0	7.065641110470655e+17
19556.0	7.065337918215508e+17
19557.0	7.066053843965268e+17
19558.0	7.067510760625492e+17
19559.0	7.067120756064255e+17
19560.0	7.066703001987752e+17
19561.0	7.066280961332564e+17
19562.0	7.065827536098644e+17
19563.0	7.065353192472573e+17
19564.0	7.06489581061188e+17
19565.0	7.066665415431508e+17
19566.0	7.066116966842365e+17
19567.0	7.065561320827561e+17
19568.0	7.064972592939007e+17
19569.0	7.064384915024553e+17
19570.0	7.063775611278676e+17
19571.0	7.063146317479935e+17
19572.0	7.062494008137044e+17
19573.0	7.061839115102889e+17
19574.0	7.061680520080041e+17
19575.0	7.062311277690879e+17
19576.0	7.061605918790995e+17
19577.0	7.060881885451604e+17
19578.0	7.060141782335487e+17
19579.0	7.059401981209258e+17
19580.0	7.058646321419603e+17
19581.0	7.057881084635817e+17
19582.0	7.057106817515519e+17
19583.0	7.0563158570653e+17
19584.0	7.055511993537876e+17
19585.0	7.054663141905747e+17
19586.0	7.053822541867689e+17
19587.0	7.052992800882688e+17
19588.0	7.052278935934294e+17
19589.0	7.052728707929428e+17
19590.0	7.051852412966228e+17
19591.0	7.051004865762644e+17
19592.0	7.050122858157395e+17
19593.0	7.049225749659647e+17
19594.0	7.04824529195281e+17
19595.0	7.047419886480042e+17
19596.0	7.045297694485162e+17
19597.0	7.04555093397777e+17
19598.0	7.044569433287338e+17
19599.0	7.043716082565119e+17
19600.0	7.042769517630804e+17
19601.0	7.04179216790323e+17
19602.0	7.040837292654591e+17
19603.0	7.039617194786815e+17
19604.0	7.038875924256083e+17
19605.0	7.037830158439763e+17
19606.0	7.036944927511891e+17
19607.0	7.036032908263423e+17
19608.0	7.035093335932925e+17
19609.0	7.034081443315711e+17
19610.0	7.033079617028096e+17
19611.0	7.032062013166932e+17
19612.0	7.03169518702865e+17
19613.0	7.031026446499839e+17
19614.0	7.029977986542249e+17
19615.0	7.028952387638612e+17
19616.0	7.027836831399935e+17
19617.0	7.026863346024447e+17
19618.0	7.025630847696895e+17
19619.0	7.024531259872595e+17
19620.0	7.023477601075199e+17
19621.0	7.022626212588202e+17
19622.0	7.021556350495402e+17
19623.0	7.020482183648596e+17
19624.0	7.019403753291775e+17
19625.0	7.018320684034729e+17
19626.0	7.017234112533844e+17
19627.0	7.016140270206975e+17
19628.0	7.014829427873108e+17
19629.0	7.013905402429437e+17
19630.0	7.012174787160745e+17
19631.0	7.001956975378432e+17
19632.0	7.010605837844479e+17
19633.0	7.009520452632575e+17
19634.0	7.008419425462954e+17
19635.0	7.007290794180607e+17
19636.0	7.00618830389794e+17
19637.0	7.004922962072916e+17
19638.0	7.003940122700457e+17
19639.0	7.00281030652723e+17
19640.0	7.001659398597289e+17
19641.0	7.000359181833558e+17
19642.0	6.999416781144063e+17
19643.0	6.998276317031081e+17
19644.0	6.997115798552575e+17
19645.0	6.995905357370708e+17
19646.0	6.994848964586153e+17
19647.0	6.993701098924713e+17
19648.0	6.992550790081193e+17
19649.0	6.991397272595114e+17
19650.0	6.990243427254271e+17
19651.0	6.989086473934166e+17
19652.0	6.987927468900351e+17
19653.0	6.986765632012287e+17
19654.0	6.985603121938431e+17
19655.0	6.98443636023842e+17
19656.0	6.98326858211874e+17
19657.0	6.982101970015572e+17
19658.0	6.980931206250495e+17
19659.0	6.979758103461887e+17
19660.0	6.978584296030207e+17
19661.0	6.977408196411391e+17
19662.0	6.976230307222867e+17
19663.0	6.975031362628266e+17
19664.0	6.973833377830227e+17
19665.0	6.972687266086912e+17
19666.0	6.971498366151338e+17
