# Flux units: erg / (cm m2 s)
# Wavelength units: Angstrom
wave	flux
19000.0	7.468207582827859e+17
19001.0	7.466798725900969e+17
19002.0	7.465493648637951e+17
19003.0	7.464133961536851e+17
19004.0	7.462773834033833e+17
19005.0	7.46141487674163e+17
19006.0	7.460053616776531e+17
19007.0	7.458603395623594e+17
19008.0	7.457296671397204e+17
19009.0	7.455920762126333e+17
19010.0	7.454367868605782e+17
19011.0	7.453207458480127e+17
19012.0	7.451603198716586e+17
19013.0	7.450502353300136e+17
19014.0	7.44909634011136e+17
19015.0	7.447742269183315e+17
19016.0	7.44636778737391e+17
19017.0	7.445015903076351e+17
19018.0	7.4436345621818e+17
19019.0	7.442283950156458e+17
19020.0	7.440895943114753e+17
19021.0	7.439538676127059e+17
19022.0	7.438170462005929e+17
19023.0	7.436773302992893e+17
19024.0	7.435406493963603e+17
19025.0	7.43402245333538e+17
19026.0	7.432634056223402e+17
19027.0	7.431052867928063e+17
19028.0	7.429920421227177e+17
19029.0	7.428543919161344e+17
19030.0	7.427166888613204e+17
19031.0	7.425788801100458e+17
19032.0	7.424410003352233e+17
19033.0	7.422982765587113e+17
19034.0	7.421647402653011e+17
19035.0	7.420217821670057e+17
19036.0	7.403253658550267e+17
19037.0	7.417486023939412e+17
19038.0	7.416112611677526e+17
19039.0	7.414747323782484e+17
19040.0	7.413366270896809e+17
19041.0	7.411983868843348e+17
19042.0	7.410558731026432e+17
19043.0	7.409219123456681e+17
19044.0	7.4078330304157e+17
19045.0	7.406442076176383e+17
19046.0	7.405040731247956e+17
19047.0	7.40367325672243e+17
19048.0	7.40219251082308e+17
19049.0	7.40087536095505e+17
19050.0	7.399497663512575e+17
19051.0	7.395681347392849e+17
19052.0	7.396305322814122e+17
19053.0	7.395339573133311e+17
19054.0	7.393976291513684e+17
19055.0	7.392454820320599e+17
19056.0	7.391190422213972e+17
19057.0	7.389806633243986e+17
19058.0	7.388397408616449e+17
19059.0	7.387035423036756e+17
19060.0	7.385634715642536e+17
19061.0	7.384257418057044e+17
19062.0	7.382865096474623e+17
19063.0	7.381475832539817e+17
19064.0	7.380026334205267e+17
19065.0	7.378600965701632e+17
19066.0	7.377272070384297e+17
19067.0	7.375912653116756e+17
19068.0	7.374521887621119e+17
19069.0	7.373130404899496e+17
19070.0	7.371725668177236e+17
19071.0	7.370338376963412e+17
19072.0	7.368950880228692e+17
19073.0	7.367558048339284e+17
19074.0	7.366167798743037e+17
19075.0	7.364774403418794e+17
19076.0	7.363369992454143e+17
19077.0	7.361980309088938e+17
19078.0	7.360579217216851e+17
19079.0	7.359198477505876e+17
19080.0	7.357799937168723e+17
19081.0	7.356387777926483e+17
19082.0	7.354990309933055e+17
19083.0	7.353555200857428e+17
19084.0	7.352092845583017e+17
19085.0	7.350971160068096e+17
19086.0	7.34942565970739e+17
19087.0	7.347804385050624e+17
19088.0	7.346765263011837e+17
19089.0	7.345120428949503e+17
19090.0	7.344029784080383e+17
19091.0	7.342645400917332e+17
19092.0	7.341134769203884e+17
19093.0	7.339868992569343e+17
19094.0	7.338465105892691e+17
19095.0	7.337065305866239e+17
19096.0	7.335669343627945e+17
19097.0	7.334278867539284e+17
19098.0	7.332881907056637e+17
19099.0	7.331482505489064e+17
19100.0	7.330058370110803e+17
19101.0	7.328673424911017e+17
19102.0	7.327236113825791e+17
19103.0	7.32588358640162e+17
19104.0	7.32448270005043e+17
19105.0	7.323078856714921e+17
19106.0	7.321596523970557e+17
19107.0	7.320266368963923e+17
19108.0	7.318866676591274e+17
19109.0	7.316051085055314e+17
19110.0	7.315998853387603e+17
19111.0	7.314671049987412e+17
19112.0	7.313272915099647e+17
19113.0	7.311871876355411e+17
19114.0	7.310469776452264e+17
19115.0	7.309021852379817e+17
19116.0	7.307651879447208e+17
19117.0	7.30624588583185e+17
19118.0	7.304738966077439e+17
19119.0	7.301837549294929e+17
19120.0	7.301914881075881e+17
19121.0	7.300547444299092e+17
19122.0	7.299244859850752e+17
19123.0	7.297840177654441e+17
19124.0	7.296348369977343e+17
19125.0	7.295019765465088e+17
19126.0	7.293620394655743e+17
19127.0	7.291342434598911e+17
19128.0	7.290284744376319e+17
19129.0	7.289366611230719e+17
19130.0	7.288001148573012e+17
19131.0	7.286581882781693e+17
19132.0	7.285191331195561e+17
19133.0	7.28362970513408e+17
19134.0	7.282144854409216e+17
19135.0	7.280969228746751e+17
19136.0	7.279566762541055e+17
19137.0	7.278076147444394e+17
19138.0	7.276728340010322e+17
19139.0	7.275342255357952e+17
19140.0	7.273936530178047e+17
19141.0	7.272528426827775e+17
19142.0	7.271106852771156e+17
19143.0	7.269684540517033e+17
19144.0	7.268287926763519e+17
19145.0	7.266887998111743e+17
19146.0	7.265164415991807e+17
19147.0	7.264024618074111e+17
19148.0	7.262652845785087e+17
19149.0	7.2612442027677e+17
19150.0	7.259834938993321e+17
19151.0	7.25842796810513e+17
19152.0	7.256997331555667e+17
19153.0	7.25559366857523e+17
19154.0	7.254125550327123e+17
19155.0	7.252776428677802e+17
19156.0	7.25135595352883e+17
19157.0	7.249887494144e+17
19158.0	7.247607245395283e+17
19159.0	7.247082434505386e+17
19160.0	7.245679094486356e+17
19161.0	7.244224624503466e+17
19162.0	7.240675959504897e+17
19163.0	7.241350987994451e+17
19164.0	7.240039310295037e+17
19165.0	7.238589258312361e+17
19166.0	7.237108621464916e+17
19167.0	7.235585785724927e+17
19168.0	7.23435287286033e+17
19169.0	7.232916704023892e+17
19170.0	7.231538932482047e+17
19171.0	7.230007196428969e+17
19172.0	7.228687693556393e+17
19173.0	7.227281167264425e+17
19174.0	7.22584210575633e+17
19175.0	7.224450744669526e+17
19176.0	7.223029167816704e+17
19177.0	7.221525990779561e+17
19178.0	7.220118603257172e+17
19179.0	7.218595938085545e+17
19180.0	7.217302927835136e+17
19181.0	7.215859863562921e+17
19182.0	7.214479483163987e+17
19183.0	7.213063400849407e+17
19184.0	7.211620386908841e+17
19185.0	7.210214123459923e+17
19186.0	7.208790151659519e+17
19187.0	7.207329517447849e+17
19188.0	7.205928519248553e+17
19189.0	7.204482289674921e+17
19190.0	7.203042281652223e+17
19191.0	7.201612274248361e+17
19192.0	7.200210859414868e+17
19193.0	7.198758954947926e+17
19194.0	7.19732899647761e+17
19195.0	7.195902993235968e+17
19196.0	7.194452461704531e+17
19197.0	7.192981928935423e+17
19198.0	7.191389455166122e+17
19199.0	7.177049863793317e+17
19200.0	7.179309733817006e+17
19201.0	7.187108253575849e+17
19202.0	7.185812191270228e+17
19203.0	7.184376830536361e+17
19204.0	7.182971182252032e+17
19205.0	7.18155057148723e+17
19206.0	7.180106592856745e+17
19207.0	7.178622969664851e+17
19208.0	7.177132655159977e+17
19209.0	7.175791313944573e+17
19210.0	7.174347182921044e+17
19211.0	7.172901277706921e+17
19212.0	7.171452969156607e+17
19213.0	7.169867079046484e+17
19214.0	7.168351977603072e+17
19215.0	7.167051955874474e+17
19216.0	7.165655792309587e+17
19217.0	7.164206576391508e+17
19218.0	7.162332682999123e+17
19219.0	7.161214263448916e+17
19220.0	7.159827079888893e+17
19221.0	7.158222133657599e+17
19222.0	7.156927796609024e+17
19223.0	7.155472363334313e+17
19224.0	7.153995621597183e+17
19225.0	7.152478614541651e+17
19226.0	7.151081661049514e+17
19227.0	7.14961606218001e+17
19228.0	7.148163578899113e+17
19229.0	7.146697074059945e+17
19230.0	7.145207408274089e+17
19231.0	7.143746951621289e+17
19232.0	7.142283187060736e+17
19233.0	7.140779874407764e+17
19234.0	7.139331997870761e+17
19235.0	7.137856993973587e+17
19236.0	7.136392000481961e+17
19237.0	7.134905204998141e+17
19238.0	7.133367018105513e+17
19239.0	7.131952097613139e+17
19240.0	7.130438296403965e+17
19241.0	7.128961344951636e+17
19242.0	7.12748692546082e+17
19243.0	7.125916770981204e+17
19244.0	7.124517702161748e+17
19245.0	7.123024933989033e+17
19246.0	7.121522179178493e+17
19247.0	7.120032862917972e+17
19248.0	7.118534819708927e+17
19249.0	7.117033190369961e+17
19250.0	7.115527482769407e+17
19251.0	7.113959338759508e+17
19252.0	7.112368113494697e+17
19253.0	7.111003032518655e+17
19254.0	7.109491719929855e+17
19255.0	7.10788431164211e+17
19256.0	7.106430343577599e+17
19257.0	7.104944480627369e+17
19258.0	7.103423792371027e+17
19259.0	7.101861056217087e+17
19260.0	7.100107647003305e+17
19261.0	7.098842345723219e+17
19262.0	7.097284265246719e+17
19263.0	7.095743459710291e+17
19264.0	7.093971577383594e+17
19265.0	7.092599553436329e+17
19266.0	7.091070550671359e+17
19267.0	7.089604613461331e+17
19268.0	7.088054295243434e+17
19269.0	7.086500754401962e+17
19270.0	7.084942197172905e+17
19271.0	7.083218605266259e+17
19272.0	7.081802665558016e+17
19273.0	7.079325483051688e+17
19274.0	7.078084701672787e+17
19275.0	7.077115367260159e+17
19276.0	7.075530439043753e+17
19277.0	7.073953047991636e+17
19278.0	7.072378276981416e+17
19279.0	7.070775186030591e+17
19280.0	7.069159798778538e+17
19281.0	7.067591549911039e+17
19282.0	7.065994159019347e+17
19283.0	7.064214385808723e+17
19284.0	7.0625856089402e+17
19285.0	7.061075115638783e+17
19286.0	7.059538072393044e+17
19287.0	7.057931455430655e+17
19288.0	7.051948803664547e+17
19289.0	7.044725378908145e+17
19290.0	7.053036603397459e+17
19291.0	7.051264909814441e+17
19292.0	7.049757286815059e+17
19293.0	7.048102120783871e+17
19294.0	7.046449119013545e+17
19295.0	7.044786478732627e+17
19296.0	7.043117969222313e+17
19297.0	7.041435446542335e+17
19298.0	7.039753971040253e+17
19299.0	7.038077084106751e+17
19300.0	7.036383449317375e+17
19301.0	7.034681706239316e+17
19302.0	7.032970902765568e+17
19303.0	7.03122758504721e+17
19304.0	7.029527191835987e+17
19305.0	7.027810996584447e+17
19306.0	7.026084105857705e+17
19307.0	7.024304931034452e+17
19308.0	7.022565992868521e+17
19309.0	7.020398541537277e+17
19310.0	7.018458027917311e+17
19311.0	7.016795291866452e+17
19312.0	7.015093016111785e+17
19313.0	7.013312054515027e+17
19314.0	7.002056031556952e+17
19315.0	7.000799952852319e+17
19316.0	7.007870273628842e+17
19317.0	7.006108145156095e+17
19318.0	7.004276533843284e+17
19319.0	7.002452402372607e+17
19320.0	7.000606811444563e+17
19321.0	6.998752999680681e+17
19322.0	6.996810235117565e+17
19323.0	6.994818039982762e+17
19324.0	6.993101616141652e+17
19325.0	6.990848828200276e+17
19326.0	6.989307342487551e+17
19327.0	6.987403494075049e+17
19328.0	6.98548540809762e+17
19329.0	6.983546777720148e+17
19330.0	6.981575408702803e+17
19331.0	6.979607398623913e+17
19332.0	6.977651137489578e+17
19333.0	6.975655867230889e+17
19334.0	6.973657779798016e+17
19335.0	6.971642948004522e+17
19336.0	6.969610919564627e+17
19337.0	6.967562782201172e+17
19338.0	6.965388561263274e+17
19339.0	6.96341043032883e+17
19340.0	6.961281902837759e+17
19341.0	6.959185610670079e+17
19342.0	6.956862385684477e+17
19343.0	6.954927021271722e+17
19344.0	6.9526504879773e+17
19345.0	6.948887008903165e+17
19346.0	6.947206760235005e+17
19347.0	6.945387879333887e+17
19348.0	6.943203980738559e+17
19349.0	6.940954775431849e+17
19350.0	6.938701189174612e+17
19351.0	6.936437236695039e+17
19352.0	6.934127752948393e+17
19353.0	6.931863166429865e+17
19354.0	6.929543257041578e+17
19355.0	6.927161549477203e+17
19356.0	6.924844249645055e+17
19357.0	6.922466847533737e+17
19358.0	6.920059913327956e+17
19359.0	6.917556907890003e+17
19360.0	6.913967967786323e+17
19361.0	6.911473036383572e+17
19362.0	6.90896259584273e+17
19363.0	6.906405281857535e+17
19364.0	6.903819806616233e+17
19365.0	6.901206199478953e+17
19366.0	6.898562686954153e+17
19367.0	6.895888896447828e+17
19368.0	6.893183376031743e+17
19369.0	6.88877219156241e+17
19370.0	6.885824249462783e+17
19371.0	6.883074769245523e+17
19372.0	6.880242929674921e+17
19373.0	6.877336286789631e+17
19374.0	6.874408253652991e+17
19375.0	6.870056703098881e+17
19376.0	6.866041324612265e+17
19377.0	6.862894364185939e+17
19378.0	6.859721824796672e+17
19379.0	6.856527739966803e+17
19380.0	6.85062070870562e+17
19381.0	6.846896456160596e+17
19382.0	6.843450255212543e+17
19383.0	6.839264738978476e+17
19384.0	6.832669051934036e+17
19385.0	6.829007672705023e+17
19386.0	6.824563363020804e+17
19387.0	6.816826602291199e+17
19388.0	6.812872085951827e+17
19389.0	6.805656038976165e+17
19390.0	6.799091828785151e+17
19391.0	6.781165623749274e+17
19392.0	6.78355886495061e+17
19393.0	6.775657090514941e+17
19394.0	6.766771017788074e+17
19395.0	6.758337732760916e+17
19396.0	6.752142704508927e+17
19397.0	6.74675811295778e+17
19398.0	6.741186936395092e+17
19399.0	6.735188332991828e+17
19400.0	6.72952773246976e+17
19401.0	6.723470439568723e+17
19402.0	6.71713947042884e+17
19403.0	6.710561392470697e+17
19404.0	6.704079419299156e+17
19405.0	6.697457784193023e+17
19406.0	6.690724405837824e+17
19407.0	6.683849999603028e+17
19408.0	6.676535338248874e+17
19409.0	6.669691242151936e+17
19410.0	6.661729559074131e+17
19411.0	6.653867874495145e+17
19412.0	6.645925383853395e+17
19413.0	6.637766323819859e+17
19414.0	6.628556882138452e+17
19415.0	6.61954113830912e+17
19416.0	6.610523970513578e+17
19417.0	6.59977020776994e+17
19418.0	6.590178222495062e+17
19419.0	6.578294157038931e+17
19420.0	6.56690031764002e+17
19421.0	6.553522181679785e+17
19422.0	6.538503003308035e+17
19423.0	6.521895131632983e+17
19424.0	6.502162827837441e+17
19425.0	6.47946046397918e+17
19426.0	6.453807367411039e+17
19427.0	6.423709608837121e+17
19428.0	6.402552355269289e+17
19429.0	6.383502548620627e+17
19430.0	6.363497664697686e+17
19431.0	6.341153474128557e+17
19432.0	6.32095554876211e+17
19433.0	6.29791333163554e+17
19434.0	6.272909384002217e+17
19435.0	6.245894080954368e+17
19436.0	6.216077031768061e+17
19437.0	6.184514031539539e+17
19438.0	6.133645719546542e+17
19439.0	6.10105006419695e+17
19440.0	6.04588959928594e+17
19441.0	5.983657151954935e+17
19442.0	5.929996240901464e+17
19443.0	5.870798183770793e+17
19444.0	5.800601967394812e+17
19445.0	5.7178475399741485e+17
19446.0	5.6160213613062816e+17
19447.0	5.493949797324113e+17
19448.0	5.347396440905053e+17
19449.0	5.157929788724564e+17
19450.0	4.900897745622342e+17
19451.0	4.8076416436142176e+17
19452.0	5.0339267414589536e+17
19453.0	5.2592920347279443e+17
19454.0	5.421008945151993e+17
19455.0	5.5520199005525357e+17
19456.0	5.66094487792299e+17
19457.0	5.750357219781284e+17
19458.0	5.812757147069114e+17
19459.0	5.885545524406958e+17
19460.0	5.938535284604924e+17
19461.0	5.994250379810124e+17
19462.0	6.052591964957357e+17
19463.0	6.09989835655304e+17
19464.0	6.138560244263596e+17
19465.0	6.170858127097856e+17
19466.0	6.199158318126418e+17
19467.0	6.224889841188863e+17
19468.0	6.248296771922604e+17
19469.0	6.269514364747773e+17
19470.0	6.289886158695082e+17
19471.0	6.308754833626452e+17
19472.0	6.326506132690259e+17
19473.0	6.343405377770836e+17
19474.0	6.360386703283544e+17
19475.0	6.38377474147396e+17
19476.0	6.409927957763404e+17
19477.0	6.431796298252279e+17
19478.0	6.449823956511409e+17
19479.0	6.465195410980868e+17
19480.0	6.478549572998486e+17
19481.0	6.489555670663169e+17
19482.0	6.499702920970239e+17
19483.0	6.509069816823808e+17
19484.0	6.516878040804009e+17
19485.0	6.524837901456726e+17
19486.0	6.531930323419135e+17
19487.0	6.538177709167956e+17
19488.0	6.54510610448384e+17
19489.0	6.551012446481066e+17
19490.0	6.556008370055848e+17
19491.0	6.561836197478399e+17
19492.0	6.567349722633556e+17
19493.0	6.572260766777343e+17
19494.0	6.57678079762978e+17
19495.0	6.581159285402282e+17
19496.0	6.585248172561748e+17
19497.0	6.589491789692927e+17
19498.0	6.592014649567914e+17
19499.0	6.578551724354209e+17
19500.0	6.601350368460799e+17
19501.0	6.604932571813204e+17
19502.0	6.608359757185023e+17
19503.0	6.611598533023059e+17
19504.0	6.614641772505769e+17
19505.0	6.617546097339049e+17
19506.0	6.620303104234836e+17
19507.0	6.625906065932289e+17
19508.0	6.629792610080086e+17
19509.0	6.638754697576447e+17
19510.0	6.641511912090284e+17
19511.0	6.629448563905868e+17
19512.0	6.647325541793787e+17
19513.0	6.651325467765414e+17
19514.0	6.654600760612174e+17
19515.0	6.660852397987155e+17
19516.0	6.665620210144595e+17
19517.0	6.66671097455138e+17
19518.0	6.668654303248379e+17
19519.0	6.672290429971114e+17
19520.0	6.673136876868948e+17
19521.0	6.673932691526996e+17
19522.0	6.67597770203682e+17
19523.0	6.678156240311635e+17
19524.0	6.678731634507775e+17
19525.0	6.679251720514217e+17
19526.0	6.679784046897833e+17
19527.0	6.681642535310676e+17
19528.0	6.682808846123007e+17
19529.0	6.683135290900477e+17
19530.0	6.683421908664319e+17
19531.0	6.68366692102963e+17
19532.0	6.683874664906751e+17
19533.0	6.684251446225578e+17
19534.0	6.685799260443988e+17
19535.0	6.685888175494484e+17
19536.0	6.685935955607551e+17
19537.0	6.685987302976169e+17
19538.0	6.685937840947199e+17
19539.0	6.68570698575599e+17
19540.0	6.685891614124714e+17
19541.0	6.685824234728105e+17
19542.0	6.68570127171584e+17
19543.0	6.686229417776467e+17
19544.0	6.686471782137855e+17
19545.0	6.686032879681535e+17
19546.0	6.68560863002624e+17
19547.0	6.68577948639778e+17
19548.0	6.68550917399074e+17
19549.0	6.685171557684564e+17
19550.0	6.684914927796223e+17
19551.0	6.684591363806548e+17
19552.0	6.684248518601386e+17
19553.0	6.683877775682217e+17
19554.0	6.683496651860649e+17
19555.0	6.683116633238186e+17
19556.0	6.682717760520191e+17
19557.0	6.682293445853183e+17
19558.0	6.681856787349504e+17
19559.0	6.681612648797523e+17
19560.0	6.681631687442431e+17
19561.0	6.68115333615889e+17
19562.0	6.68066300244787e+17
19563.0	6.68014995448354e+17
19564.0	6.679623734307497e+17
19565.0	6.67907602321681e+17
19566.0	6.678499565065556e+17
19567.0	6.677928192507903e+17
19568.0	6.677319965300052e+17
19569.0	6.67672319762978e+17
19570.0	6.676106884502868e+17
19571.0	6.67547130274338e+17
19572.0	6.674812394362196e+17
19573.0	6.674159131514196e+17
19574.0	6.673453110613334e+17
19575.0	6.672820037746687e+17
19576.0	6.672128265595562e+17
19577.0	6.671419237378729e+17
19578.0	6.670691018123945e+17
19579.0	6.669973813111465e+17
19580.0	6.669239900788052e+17
19581.0	6.668499601238697e+17
19582.0	6.667753693904895e+17
19583.0	6.666990195660116e+17
19584.0	6.666214133377705e+17
19585.0	6.66537840082944e+17
19586.0	6.664563216176468e+17
19587.0	6.663769597935615e+17
19588.0	6.662806513035946e+17
19589.0	6.662206528334505e+17
19590.0	6.661351708906836e+17
19591.0	6.660563536969727e+17
19592.0	6.659724373480788e+17
19593.0	6.658866771831466e+17
19594.0	6.657895355645951e+17
19595.0	6.657145264493908e+17
19596.0	6.655102242783232e+17
19597.0	6.655390652213929e+17
19598.0	6.654399805915135e+17
19599.0	6.653667580400979e+17
19600.0	6.652852725000874e+17
19601.0	6.652234857884329e+17
19602.0	6.651337495631188e+17
19603.0	6.650055180156927e+17
19604.0	6.649481351135232e+17
19605.0	6.648461399162879e+17
19606.0	6.647684278517759e+17
19607.0	6.646752705424042e+17
19608.0	6.645808320129706e+17
19609.0	6.644841283496617e+17
19610.0	6.643919048321705e+17
19611.0	6.642961604760916e+17
19612.0	6.642005018935295e+17
19613.0	6.641040466728276e+17
19614.0	6.640049118511101e+17
19615.0	6.639093210065577e+17
19616.0	6.638002047898963e+17
19617.0	6.637135517275476e+17
19618.0	6.635871186277716e+17
19619.0	6.634815621868201e+17
19620.0	6.633834879647741e+17
19621.0	6.633162116781395e+17
19622.0	6.632159292948479e+17
19623.0	6.631152002880852e+17
19624.0	6.630140675795625e+17
19625.0	6.629124681848147e+17
19626.0	6.628105218512212e+17
19627.0	6.627076401878355e+17
19628.0	6.625738363677354e+17
19629.0	6.624953365430271e+17
19630.0	6.62295088865826e+17
19631.0	6.608970417788244e+17
19632.0	6.621862930939903e+17
19633.0	6.620851898854057e+17
19634.0	6.619840657752064e+17
19635.0	6.618777194769065e+17
19636.0	6.617752151610708e+17
19637.0	6.616496327360511e+17
19638.0	6.615643887501311e+17
19639.0	6.614582363684863e+17
19640.0	6.613482806618793e+17
19641.0	6.612138546866858e+17
19642.0	6.611405606922921e+17
19643.0	6.61033659347763e+17
19644.0	6.60923589136657e+17
19645.0	6.608061092681044e+17
19646.0	6.607122794719914e+17
19647.0	6.606046513943892e+17
19648.0	6.604967743848447e+17
19649.0	6.603885433061373e+17
19650.0	6.602803759808511e+17
19651.0	6.601718619963391e+17
19652.0	6.600631427006464e+17
19653.0	6.599541262385151e+17
19654.0	6.59845109776384e+17
19655.0	6.59735563154227e+17
19656.0	6.596259603283967e+17
19657.0	6.595166368432127e+17
19658.0	6.594067887205034e+17
19659.0	6.592966805509459e+17
19660.0	6.591865662996479e+17
19661.0	6.590762050737491e+17
19662.0	6.589656470650879e+17
19663.0	6.588520427334314e+17
19664.0	6.587389404599636e+17
19665.0	6.586331176108031e+17
