# Flux units: erg / (cm m2 s)
# Wavelength units: Angstrom
wave	flux
19000.0	6.695960000331773e+17
19001.0	6.694682740391935e+17
19002.0	6.693439823413247e+17
19003.0	6.692179497975807e+17
19004.0	6.690919071875072e+17
19005.0	6.689659753070591e+17
19006.0	6.688399905783807e+17
19007.0	6.687126907256832e+17
19008.0	6.685869046672041e+17
19009.0	6.684617016169812e+17
19010.0	6.683275052100266e+17
19011.0	6.682096997935785e+17
19012.0	6.680811326319273e+17
19013.0	6.679583678005247e+17
19014.0	6.678311824523263e+17
19015.0	6.677057631158271e+17
19016.0	6.675796794015743e+17
19017.0	6.674528524566527e+17
19018.0	6.67328481067008e+17
19019.0	6.672030962636116e+17
19020.0	6.670760827420671e+17
19021.0	6.669508905970346e+17
19022.0	6.668256645480447e+17
19023.0	6.666990825504767e+17
19024.0	6.665735480803327e+17
19025.0	6.664482442969087e+17
19026.0	6.663219909230591e+17
19027.0	6.661950731714559e+17
19028.0	6.660711178567679e+17
19029.0	6.659454013538304e+17
19030.0	6.658197188247551e+17
19031.0	6.6569404153856e+17
19032.0	6.655683780935679e+17
19033.0	6.654411782750205e+17
19034.0	6.653170811928575e+17
19035.0	6.651908370464765e+17
19036.0	6.649342968463357e+17
19037.0	6.649402987555498e+17
19038.0	6.648143061275988e+17
19039.0	6.646891964006399e+17
19040.0	6.645636650762237e+17
19041.0	6.644381490610175e+17
19042.0	6.643112331968511e+17
19043.0	6.641871762401962e+17
19044.0	6.640616659572052e+17
19045.0	6.639362590638077e+17
19046.0	6.638099629779625e+17
19047.0	6.636853937569791e+17
19048.0	6.635563708142932e+17
19049.0	6.634335310446591e+17
19050.0	6.633085424631808e+17
19051.0	6.631633123803133e+17
19052.0	6.630575467834026e+17
19053.0	6.629333015724031e+17
19054.0	6.628080327415124e+17
19055.0	6.626783427646804e+17
19056.0	6.625571208080041e+17
19057.0	6.624321281720319e+17
19058.0	6.623068527001599e+17
19059.0	6.62181881525043e+17
19060.0	6.620562749128703e+17
19061.0	6.619315550464682e+17
19062.0	6.61806343397922e+17
19063.0	6.616812760334335e+17
19064.0	6.615542125297661e+17
19065.0	6.614279699212969e+17
19066.0	6.613049514743123e+17
19067.0	6.611810295742463e+17
19068.0	6.610559997487785e+17
19069.0	6.609310257075539e+17
19070.0	6.608058688645802e+17
19071.0	6.606810937032703e+17
19072.0	6.605561581098324e+17
19073.0	6.6043114422272e+17
19074.0	6.603063427071997e+17
19075.0	6.601814650650621e+17
19076.0	6.600562074888873e+17
19077.0	6.599316171565737e+17
19078.0	6.598062320036521e+17
19079.0	6.596821625339903e+17
19080.0	6.595573452898303e+17
19081.0	6.594318290649088e+17
19082.0	6.593068048318464e+17
19083.0	6.591812303060991e+17
19084.0	6.590542357987327e+17
19085.0	6.589338108996265e+17
19086.0	6.588024310377129e+17
19087.0	6.586807045761705e+17
19088.0	6.585587403674964e+17
19089.0	6.584302315066707e+17
19090.0	6.583103440377171e+17
19091.0	6.581858015903743e+17
19092.0	6.580598687312553e+17
19093.0	6.579371807954259e+17
19094.0	6.578120553398271e+17
19095.0	6.57687421456657e+17
19096.0	6.575633064088916e+17
19097.0	6.57439329423633e+17
19098.0	6.573149715955711e+17
19099.0	6.571905489655123e+17
19100.0	6.570662267890346e+17
19101.0	6.569418953151827e+17
19102.0	6.568160157237247e+17
19103.0	6.566932879420074e+17
19104.0	6.565690131611647e+17
19105.0	6.564447566255444e+17
19106.0	6.563198274633727e+17
19107.0	6.561960573971113e+17
19108.0	6.560721185101139e+17
19109.0	6.559350158699178e+17
19110.0	6.558237451791017e+17
19111.0	6.556996856359594e+17
19112.0	6.555755824720553e+17
19113.0	6.554514993709055e+17
19114.0	6.553274370315603e+17
19115.0	6.552027946898772e+17
19116.0	6.550789664626004e+17
19117.0	6.549551189415252e+17
19118.0	6.548293704919721e+17
19119.0	6.546576902892201e+17
19120.0	6.545824509766314e+17
19121.0	6.54458908381457e+17
19122.0	6.543356911943679e+17
19123.0	6.542116586345812e+17
19124.0	6.54087253131264e+17
19125.0	6.539640200058196e+17
19126.0	6.538399421475497e+17
19127.0	6.536875743379455e+17
19128.0	6.535839725824682e+17
19129.0	6.534673932309843e+17
19130.0	6.533452515333459e+17
19131.0	6.532215306802516e+17
19132.0	6.530978144408916e+17
19133.0	6.529649037978282e+17
19134.0	6.528461038419968e+17
19135.0	6.527269100410196e+17
19136.0	6.52603350458914e+17
19137.0	6.524769850272426e+17
19138.0	6.523549284040703e+17
19139.0	6.52232640045602e+17
19140.0	6.521091373662207e+17
19141.0	6.519856372034217e+17
19142.0	6.518617243211092e+17
19143.0	6.517376998703104e+17
19144.0	6.516151998393001e+17
19145.0	6.51491827393058e+17
19146.0	6.513585017236138e+17
19147.0	6.512435575914495e+17
19148.0	6.511215956197375e+17
19149.0	6.509982746236244e+17
19150.0	6.508747996965546e+17
19151.0	6.5075170784925e+17
19152.0	6.506281544886953e+17
19153.0	6.505047626088447e+17
19154.0	6.503797114623316e+17
19155.0	6.502586802765823e+17
19156.0	6.501354200279721e+17
19157.0	6.500121295104682e+17
19158.0	6.498801367908351e+17
19159.0	6.497655795832148e+17
19160.0	6.49642376307234e+17
19161.0	6.495186720915455e+17
19162.0	6.493765452343978e+17
19163.0	6.492734480536915e+17
19164.0	6.491504816160765e+17
19165.0	6.490270810679978e+17
19166.0	6.489022485845332e+17
19167.0	6.48779534504209e+17
19168.0	6.486562187509759e+17
19169.0	6.485340530758998e+17
19170.0	6.484124764908202e+17
19171.0	6.482884586110973e+17
19172.0	6.481666488227156e+17
19173.0	6.480437197144063e+17
19174.0	6.479199160937129e+17
19175.0	6.47798020252194e+17
19176.0	6.476751668510719e+17
19177.0	6.475497597479593e+17
19178.0	6.474292858454015e+17
19179.0	6.47305078383138e+17
19180.0	6.471819532610218e+17
19181.0	6.470592814732628e+17
19182.0	6.469371871712596e+17
19183.0	6.468154586125652e+17
19184.0	6.466909990726313e+17
19185.0	6.465700816923305e+17
19186.0	6.464475113368233e+17
19187.0	6.463237149163519e+17
19188.0	6.462021449023487e+17
19189.0	6.460791951720447e+17
19190.0	6.459563995824127e+17
19191.0	6.458340729159679e+17
19192.0	6.457116179038207e+17
19193.0	6.455878883125929e+17
19194.0	6.454659993217706e+17
19195.0	6.453437861112489e+17
19196.0	6.45221217083938e+17
19197.0	6.450986637852671e+17
19198.0	6.44976167738846e+17
19199.0	6.447318449870164e+17
19200.0	6.446551174654634e+17
19201.0	6.446087038566397e+17
19202.0	6.444863595042132e+17
19203.0	6.443639240654847e+17
19204.0	6.442410306087594e+17
19205.0	6.441190425624575e+17
19206.0	6.439964013232127e+17
19207.0	6.438730787192831e+17
19208.0	6.437479703904255e+17
19209.0	6.436293743476735e+17
19210.0	6.435069600202751e+17
19211.0	6.433844959903743e+17
19212.0	6.432622099387732e+17
19213.0	6.431375597677225e+17
19214.0	6.430092800557055e+17
19215.0	6.428863561203711e+17
19216.0	6.42763958779904e+17
19217.0	6.426420879643988e+17
19218.0	6.425058406825981e+17
19219.0	6.423946579323561e+17
19220.0	6.422747055215956e+17
19221.0	6.421472313256618e+17
19222.0	6.420305291509759e+17
19223.0	6.419081573957631e+17
19224.0	6.417846772957181e+17
19225.0	6.416609600077823e+17
19226.0	6.415409989287935e+17
19227.0	6.414186372399103e+17
19228.0	6.412967794966527e+17
19229.0	6.411744860351146e+17
19230.0	6.410521097360724e+17
19231.0	6.409299173572608e+17
19232.0	6.408068796164777e+17
19233.0	6.406840617271295e+17
19234.0	6.405625889510739e+17
19235.0	6.40440348897007e+17
19236.0	6.403184492806143e+17
19237.0	6.401958859156138e+17
19238.0	6.400721649926143e+17
19239.0	6.399515951103999e+17
19240.0	6.398249514565631e+17
19241.0	6.397054359524692e+17
19242.0	6.395843159173802e+17
19243.0	6.394592144392191e+17
19244.0	6.393399292723197e+17
19245.0	6.392176353214463e+17
19246.0	6.390950135857151e+17
19247.0	6.389728412696575e+17
19248.0	6.388505571054932e+17
19249.0	6.387281448053417e+17
19250.0	6.386056615515476e+17
19251.0	6.384819160918697e+17
19252.0	6.383550335025151e+17
19253.0	6.382383055328596e+17
19254.0	6.381153709719551e+17
19255.0	6.379898965502633e+17
19256.0	6.378707928569172e+17
19257.0	6.377485344178176e+17
19258.0	6.376259809094313e+17
19259.0	6.375021662437375e+17
19260.0	6.373791113762131e+17
19261.0	6.372583839279785e+17
19262.0	6.371348698540714e+17
19263.0	6.370122265875796e+17
19264.0	6.368817292771328e+17
19265.0	6.367643841855485e+17
19266.0	6.366423246263635e+17
19267.0	6.365221810252457e+17
19268.0	6.363993700564991e+17
19269.0	6.362765268615165e+17
19270.0	6.361536314474495e+17
19271.0	6.360252145816916e+17
19272.0	6.359071506563071e+17
19273.0	6.356687053826729e+17
19274.0	6.356057662160895e+17
19275.0	6.355355421726035e+17
19276.0	6.353904638536361e+17
19277.0	6.35267651137263e+17
19278.0	6.351444347191296e+17
19279.0	6.350209471392425e+17
19280.0	6.348964932616191e+17
19281.0	6.347744332830036e+17
19282.0	6.346510170761897e+17
19283.0	6.34525248004642e+17
19284.0	6.34398290546961e+17
19285.0	6.342734581334015e+17
19286.0	6.341527253723817e+17
19287.0	6.340294973500073e+17
19288.0	6.338768785812138e+17
19289.0	6.336889367123282e+17
19290.0	6.33657768419874e+17
19291.0	6.335291029017939e+17
19292.0	6.334095374854825e+17
19293.0	6.332851444951721e+17
19294.0	6.331609582840492e+17
19295.0	6.330365297819647e+17
19296.0	6.329119986592425e+17
19297.0	6.327873414976852e+17
19298.0	6.326623156568063e+17
19299.0	6.325377953693695e+17
19300.0	6.324128252428287e+17
19301.0	6.322876104485546e+17
19302.0	6.321624169054208e+17
19303.0	6.32035510198818e+17
19304.0	6.319107067958612e+17
19305.0	6.317858204854953e+17
19306.0	6.316604482650111e+17
19307.0	6.315334606782463e+17
19308.0	6.314081367621631e+17
19309.0	6.312711327580157e+17
19310.0	6.311413186996906e+17
19311.0	6.310198923405993e+17
19312.0	6.308937056561833e+17
19313.0	6.307657609991508e+17
19314.0	6.305739529606482e+17
19315.0	6.304527239435606e+17
19316.0	6.303854896698708e+17
19317.0	6.302581745778687e+17
19318.0	6.301300076227241e+17
19319.0	6.300023230125396e+17
19320.0	6.298736711259475e+17
19321.0	6.297455466730836e+17
19322.0	6.296144776790015e+17
19323.0	6.294857830105087e+17
19324.0	6.293584812703744e+17
19325.0	6.292255897812991e+17
19326.0	6.290990910406655e+17
19327.0	6.2896869474304e+17
19328.0	6.288385420645716e+17
19329.0	6.287077830295551e+17
19330.0	6.285759651424938e+17
19331.0	6.284444857357654e+17
19332.0	6.283134309324116e+17
19333.0	6.2818127722141e+17
19334.0	6.280482371840682e+17
19335.0	6.279157572261204e+17
19336.0	6.277823306137597e+17
19337.0	6.276303932795562e+17
19338.0	6.274787499660628e+17
19339.0	6.273365245427711e+17
19340.0	6.271996767764479e+17
19341.0	6.270649153967444e+17
19342.0	6.269220451691176e+17
19343.0	6.26792121569553e+17
19344.0	6.266548309546324e+17
19345.0	6.26480115823411e+17
19346.0	6.263693051079338e+17
19347.0	6.262379910266879e+17
19348.0	6.260993637569876e+17
19349.0	6.259583496486912e+17
19350.0	6.258170143965183e+17
19351.0	6.256675707158527e+17
19352.0	6.255079487875754e+17
19353.0	6.253655367876607e+17
19354.0	6.252156668958036e+17
19355.0	6.250600431878144e+17
19356.0	6.249151206872404e+17
19357.0	6.247677466159786e+17
19358.0	6.246041284946601e+17
19359.0	6.244232410256724e+17
19360.0	6.242781213229055e+17
19361.0	6.241261861557588e+17
19362.0	6.239740944012628e+17
19363.0	6.238197781976403e+17
19364.0	6.236603329194665e+17
19365.0	6.234988262806868e+17
19366.0	6.233403567374335e+17
19367.0	6.231803176856234e+17
19368.0	6.230186392900948e+17
19369.0	6.228531660980223e+17
19370.0	6.226369957243562e+17
19371.0	6.224710539586218e+17
19372.0	6.223028923574954e+17
19373.0	6.221313126782291e+17
19374.0	6.219582153599657e+17
19375.0	6.21782390485811e+17
19376.0	6.216042003038207e+17
19377.0	6.214118344927914e+17
19378.0	6.21177751085602e+17
19379.0	6.209913625772032e+17
19380.0	6.208019568263168e+17
19381.0	6.206093669695487e+17
19382.0	6.204118294418772e+17
19383.0	6.201579294162943e+17
19384.0	6.19936078696721e+17
19385.0	6.197287929075028e+17
19386.0	6.195174742250835e+17
19387.0	6.192553698612563e+17
19388.0	6.189591644777129e+17
19389.0	6.187296484578644e+17
19390.0	6.184848746086399e+17
19391.0	6.18043437953843e+17
19392.0	6.179171952055636e+17
19393.0	6.176466814020265e+17
19394.0	6.173543789581652e+17
19395.0	6.170927144370175e+17
19396.0	6.168233762269865e+17
19397.0	6.165443691675647e+17
19398.0	6.16255422865954e+17
19399.0	6.159104110930601e+17
19400.0	6.156006170733225e+17
19401.0	6.152867233311402e+17
19402.0	6.149611429997225e+17
19403.0	6.146239118005588e+17
19404.0	6.142743954849791e+17
19405.0	6.13858935902481e+17
19406.0	6.134595299486378e+17
19407.0	6.130670343203497e+17
19408.0	6.126462502087337e+17
19409.0	6.121562268063062e+17
19410.0	6.116900201999017e+17
19411.0	6.112240807706623e+17
19412.0	6.106243453506902e+17
19413.0	6.100884663216809e+17
19414.0	6.094431667093501e+17
19415.0	6.088380780991828e+17
19416.0	6.080712537713324e+17
19417.0	6.073487915483135e+17
19418.0	6.065298385928192e+17
19419.0	6.056069640661673e+17
19420.0	6.045699012908372e+17
19421.0	6.034169291341825e+17
19422.0	6.022422227932502e+17
19423.0	6.012431860673193e+17
19424.0	6.002514590345898e+17
19425.0	5.992296916975615e+17
19426.0	5.981424850392404e+17
19427.0	5.969366353619625e+17
19428.0	5.956765884962131e+17
19429.0	5.943102810357759e+17
19430.0	5.928419475499692e+17
19431.0	5.911852388537687e+17
19432.0	5.894248534638588e+17
19433.0	5.87391301582848e+17
19434.0	5.850809245892605e+17
19435.0	5.823007425560573e+17
19436.0	5.789307253380438e+17
19437.0	5.753471837929471e+17
19438.0	5.722883584862889e+17
19439.0	5.69216992210671e+17
19440.0	5.656407358920021e+17
19441.0	5.61562156094805e+17
19442.0	5.5675414167333555e+17
19443.0	5.506889728480597e+17
19444.0	5.4337263433154496e+17
19445.0	5.364884125865303e+17
19446.0	5.2817596454884704e+17
19447.0	5.173830334371153e+17
19448.0	5.049012507901959e+17
19449.0	4.876282878405293e+17
19450.0	4.56144601621025e+17
19451.0	4.459784990359543e+17
19452.0	4.7329756259723994e+17
19453.0	4.972042635269467e+17
19454.0	5.110202588200952e+17
19455.0	5.2256340887033146e+17
19456.0	5.3176109049227974e+17
19457.0	5.3899479122356883e+17
19458.0	5.4566456288870374e+17
19459.0	5.5245913313334605e+17
19460.0	5.575668435080532e+17
19461.0	5.6173382357483514e+17
19462.0	5.6532522916031155e+17
19463.0	5.6849222654580026e+17
19464.0	5.712936361612628e+17
19465.0	5.74217933221615e+17
19466.0	5.776622862991352e+17
19467.0	5.804608294573395e+17
19468.0	5.827553057745581e+17
19469.0	5.846557016457215e+17
19470.0	5.863420184231936e+17
19471.0	5.878158268039167e+17
19472.0	5.890985153615187e+17
19473.0	5.903289003190954e+17
19474.0	5.913756940894208e+17
19475.0	5.923937637979476e+17
19476.0	5.933024959004671e+17
19477.0	5.941248324709034e+17
19478.0	5.948871279291049e+17
19479.0	5.956351896671572e+17
19480.0	5.96483677093888e+17
19481.0	5.974599826494804e+17
19482.0	5.982984819004756e+17
19483.0	5.990209272763731e+17
19484.0	5.996395246212435e+17
19485.0	6.002437025082025e+17
19486.0	6.006987519164416e+17
19487.0	6.011359890243583e+17
19488.0	6.015530226592425e+17
19489.0	6.018897380988244e+17
19490.0	6.02201653248e+17
19491.0	6.025281022197759e+17
19492.0	6.027512354177023e+17
19493.0	6.030093299570007e+17
19494.0	6.032311253117609e+17
19495.0	6.033978481967103e+17
19496.0	6.035441423045971e+17
19497.0	6.037258666770431e+17
19498.0	6.038777915681449e+17
19499.0	6.037976635845286e+17
19500.0	6.040910245309098e+17
19501.0	6.041783885277865e+17
19502.0	6.042551345042772e+17
19503.0	6.043383411769343e+17
19504.0	6.044324415056553e+17
19505.0	6.044816478218922e+17
19506.0	6.045250399240192e+17
19507.0	6.045597661746516e+17
19508.0	6.04586153799407e+17
19509.0	6.04649950421538e+17
19510.0	6.046722506970452e+17
19511.0	6.045197798473725e+17
19512.0	6.047502225287848e+17
19513.0	6.047201458738515e+17
19514.0	6.047335679262719e+17
19515.0	6.047853943543124e+17
19516.0	6.048550906145449e+17
19517.0	6.048315973391699e+17
19518.0	6.04806186218291e+17
19519.0	6.047758526622377e+17
19520.0	6.048062094966783e+17
19521.0	6.047744459625812e+17
19522.0	6.047334732049065e+17
19523.0	6.046903463925076e+17
19524.0	6.046438743430484e+17
19525.0	6.045947217139027e+17
19526.0	6.046004382007295e+17
19527.0	6.045461873251668e+17
19528.0	6.044896679602857e+17
19529.0	6.044308250208938e+17
19530.0	6.0436986738333e+17
19531.0	6.043068992061439e+17
19532.0	6.042420294713343e+17
19533.0	6.04175358632482e+17
19534.0	6.041328937511593e+17
19535.0	6.040836177395711e+17
19536.0	6.04011266974242e+17
19537.0	6.039388333714089e+17
19538.0	6.038637566580052e+17
19539.0	6.03778416902144e+17
19540.0	6.037107498461865e+17
19541.0	6.036403404144639e+17
19542.0	6.035607880291668e+17
19543.0	6.034801115703978e+17
19544.0	6.033983573852159e+17
19545.0	6.033099049664512e+17
19546.0	6.032153083117568e+17
19547.0	6.031468978853203e+17
19548.0	6.03090337206545e+17
19549.0	6.030100172636159e+17
19550.0	6.029245333635072e+17
19551.0	6.028364778657108e+17
19552.0	6.02747605946641e+17
19553.0	6.026683545026559e+17
19554.0	6.025798878931625e+17
19555.0	6.024897104270676e+17
19556.0	6.023982081900543e+17
19557.0	6.023060115161087e+17
19558.0	6.022133448703999e+17
19559.0	6.021197229719551e+17
19560.0	6.020257962874196e+17
19561.0	6.019316917643946e+17
19562.0	6.018371506143232e+17
19563.0	6.017417742385151e+17
19564.0	6.016460889522175e+17
19565.0	6.01551650422784e+17
19566.0	6.014737676500991e+17
19567.0	6.013769828270079e+17
19568.0	6.012790977680724e+17
19569.0	6.011816438136831e+17
19570.0	6.010835896543913e+17
19571.0	6.00985027285265e+17
19572.0	6.008855941786281e+17
19573.0	6.007867132521129e+17
19574.0	6.006856648491005e+17
19575.0	6.005951884689407e+17
19576.0	6.004980110589951e+17
19577.0	6.003965043583658e+17
19578.0	6.00314953736738e+17
19579.0	6.002236660383743e+17
19580.0	6.00122639655458e+17
19581.0	6.000213017755647e+17
19582.0	5.999200003861162e+17
19583.0	5.99818165690914e+17
19584.0	5.997161066703529e+17
19585.0	5.996118945038335e+17
19586.0	5.99508749717777e+17
19587.0	5.994076298717865e+17
19588.0	5.992976602540713e+17
19589.0	5.992022073322153e+17
19590.0	5.990983404268201e+17
19591.0	5.989963645233834e+17
19592.0	5.98892827709713e+17
19593.0	5.98788815192064e+17
19594.0	5.986811253183828e+17
19595.0	5.985810531396266e+17
19596.0	5.984534144570708e+17
19597.0	5.983727398158336e+17
19598.0	5.982641450909695e+17
19599.0	5.981642818584575e+17
19600.0	5.980596792721407e+17
19601.0	5.979537955356672e+17
19602.0	5.978494282498047e+17
19603.0	5.977366882942975e+17
19604.0	5.976393131928233e+17
19605.0	5.975297674095274e+17
19606.0	5.974295969442473e+17
19607.0	5.973244385427455e+17
19608.0	5.972189410317652e+17
19609.0	5.971127101467305e+17
19610.0	5.970079149020499e+17
19611.0	5.969021432233983e+17
19612.0	5.967964898241193e+17
19613.0	5.966906086741332e+17
19614.0	5.965840331571199e+17
19615.0	5.964787926870697e+17
19616.0	5.963717585928191e+17
19617.0	5.962666578629972e+17
19618.0	5.961521000262313e+17
19619.0	5.960424215631188e+17
19620.0	5.959371309711359e+17
19621.0	5.958416632294057e+17
19622.0	5.957352756172116e+17
19623.0	5.956288325702996e+17
19624.0	5.955223431763283e+17
19625.0	5.954157808014676e+17
19626.0	5.953092178673664e+17
19627.0	5.952025932769961e+17
19628.0	5.950931997469354e+17
19629.0	5.949877079681705e+17
19630.0	5.948809595759273e+17
19631.0	5.946464508663123e+17
19632.0	5.946687832981503e+17
19633.0	5.945616042207913e+17
19634.0	5.944551044109652e+17
19635.0	5.943474750750719e+17
19636.0	5.9424124684643e+17
19637.0	5.941274421668522e+17
19638.0	5.940271260893183e+17
19639.0	5.93920037888546e+17
19640.0	5.938120625924777e+17
19641.0	5.93695039553536e+17
19642.0	5.935989884540244e+17
19643.0	5.934915944185856e+17
19644.0	5.933836547041961e+17
19645.0	5.93273040282146e+17
19646.0	5.93170364768802e+17
19647.0	5.930631654888788e+17
19648.0	5.929559469151574e+17
19649.0	5.928486664055466e+17
19650.0	5.927414614633129e+17
19651.0	5.92634201575697e+17
19652.0	5.925269256099156e+17
19653.0	5.9241960322717e+17
19654.0	5.923123351606612e+17
19655.0	5.922049604889258e+17
19656.0	5.920975842093737e+17
19657.0	5.919903801060008e+17
19658.0	5.918830491249321e+17
19659.0	5.917808265265151e+17
19660.0	5.916764642039124e+17
19661.0	5.915691057501524e+17
19662.0	5.914617420535124e+17
19663.0	5.91353648128546e+17
19664.0	5.912465009978025e+17
19665.0	5.911396223025151e+17
