# Flux units: erg / (cm m2 s)
# Wavelength units: Angstrom
wave	flux
19000.0	8.739156461092863e+17
19001.0	8.738011918019241e+17
19002.0	8.73660301914931e+17
19003.0	8.735150168167766e+17
19004.0	8.733694644016466e+17
19005.0	8.732236216008701e+17
19006.0	8.730773547559594e+17
19007.0	8.729280495572307e+17
19008.0	8.727819755104937e+17
19009.0	8.726314852810752e+17
19010.0	8.724760282966697e+17
19011.0	8.72339031003409e+17
19012.0	8.721821594200745e+17
19013.0	8.720446536373588e+17
19014.0	8.718928746381311e+17
19015.0	8.717450366069417e+17
19016.0	8.715961362983592e+17
19017.0	8.7144738614586e+17
19018.0	8.7129731394874e+17
19019.0	8.711479419207679e+17
19020.0	8.709963589353471e+17
19021.0	8.708468672299008e+17
19022.0	8.706960509632511e+17
19023.0	8.705428758200319e+17
19024.0	8.703922625576957e+17
19025.0	8.702404263761236e+17
19026.0	8.700868074755412e+17
19027.0	8.699282531374419e+17
19028.0	8.697842134679552e+17
19029.0	8.696319827421866e+17
19030.0	8.694790238852436e+17
19031.0	8.69325673979358e+17
19032.0	8.691718903824381e+17
19033.0	8.690138663441748e+17
19034.0	8.68860911821346e+17
19035.0	8.686839686758399e+17
19036.0	8.679709368560296e+17
19037.0	8.683825708837546e+17
19038.0	8.682425879450964e+17
19039.0	8.680909993672703e+17
19040.0	8.679365971105107e+17
19041.0	8.67781561374037e+17
19042.0	8.676228849816915e+17
19043.0	8.6747046229661e+17
19044.0	8.673144273371135e+17
19045.0	8.671581797264042e+17
19046.0	8.670002401334611e+17
19047.0	8.66843452576017e+17
19048.0	8.666824413544447e+17
19049.0	8.665275173262676e+17
19050.0	8.66368327131682e+17
19051.0	8.661292639671636e+17
19052.0	8.660239768704338e+17
19053.0	8.658982025560063e+17
19054.0	8.657430056184489e+17
19055.0	8.655752843493375e+17
19056.0	8.654265706872831e+17
19057.0	8.652687067316221e+17
19058.0	8.651100072706047e+17
19059.0	8.64951607562513e+17
19060.0	8.648431775339859e+17
19061.0	8.647162967621631e+17
19062.0	8.645565843767295e+17
19063.0	8.64396746162176e+17
19064.0	8.642335132177747e+17
19065.0	8.640696553220778e+17
19066.0	8.639139704471552e+17
19067.0	8.637564066638506e+17
19068.0	8.635958791853395e+17
19069.0	8.634351663185919e+17
19070.0	8.632740487015081e+17
19071.0	8.631132237070335e+17
19072.0	8.629520199669075e+17
19073.0	8.627905394027178e+17
19074.0	8.626291251085311e+17
19075.0	8.624674113410386e+17
19076.0	8.623050471768063e+17
19077.0	8.621430191161343e+17
19078.0	8.619807217811455e+17
19079.0	8.618191625038506e+17
19080.0	8.616565059966291e+17
19081.0	8.614921868673021e+17
19082.0	8.613300982688426e+17
19083.0	8.611634842959871e+17
19084.0	8.609942732100946e+17
19085.0	8.608409958656681e+17
19086.0	8.606597411154601e+17
19087.0	8.605070021798569e+17
19088.0	8.603432561322666e+17
19089.0	8.601747632510292e+17
19090.0	8.600202168500221e+17
19091.0	8.598572320686079e+17
19092.0	8.596914218642089e+17
19093.0	8.59530631402837e+17
19094.0	8.593663526786387e+17
19095.0	8.59201936241459e+17
19096.0	8.590373612595881e+17
19097.0	8.588728634529107e+17
19098.0	8.58708050654003e+17
19099.0	8.585428779838122e+17
19100.0	8.58376343003682e+17
19101.0	8.582116995148458e+17
19102.0	8.58043672900403e+17
19103.0	8.578804066811903e+17
19104.0	8.577142880556374e+17
19105.0	8.575476732439209e+17
19106.0	8.573800463466493e+17
19107.0	8.572130857844735e+17
19108.0	8.570429744611327e+17
19109.0	8.568441430605824e+17
19110.0	8.56701689397248e+17
19111.0	8.565461029486591e+17
19112.0	8.56381084069615e+17
19113.0	8.562145946675882e+17
19114.0	8.560474274660352e+17
19115.0	8.558783472424276e+17
19116.0	8.557114522512041e+17
19117.0	8.555435598544893e+17
19118.0	8.553718759467689e+17
19119.0	8.55132182098739e+17
19120.0	8.550349255562578e+17
19121.0	8.548681120743424e+17
19122.0	8.54704100946739e+17
19123.0	8.545356719587325e+17
19124.0	8.54362132910353e+17
19125.0	8.541972205666303e+17
19126.0	8.54025654379042e+17
19127.0	8.538080619965096e+17
19128.0	8.53672551863637e+17
19129.0	8.535167022923773e+17
19130.0	8.533509454954492e+17
19131.0	8.531814044576425e+17
19132.0	8.530111352886612e+17
19133.0	8.528361075419816e+17
19134.0	8.526638622965757e+17
19135.0	8.52500594958882e+17
19136.0	8.523297197129728e+17
19137.0	8.521548141603497e+17
19138.0	8.519874084427092e+17
19139.0	8.518171680746153e+17
19140.0	8.516460647983785e+17
19141.0	8.514746461104809e+17
19142.0	8.513020247758164e+17
19143.0	8.511297936512339e+17
19144.0	8.509586958275923e+17
19145.0	8.50786964803857e+17
19146.0	8.505911811244031e+17
19147.0	8.50439934661973e+17
19148.0	8.502692629796182e+17
19149.0	8.500964466098173e+17
19150.0	8.499234691787434e+17
19151.0	8.497502669329747e+17
19152.0	8.495765998185128e+17
19153.0	8.494018535096319e+17
19154.0	8.492254023559849e+17
19155.0	8.490540166632788e+17
19156.0	8.48878810379059e+17
19157.0	8.486998401264298e+17
19158.0	8.48515177783842e+17
19159.0	8.48351100665856e+17
19160.0	8.48178151895859e+17
19161.0	8.47996504838417e+17
19162.0	8.477723040503124e+17
19163.0	8.47636208951842e+17
19164.0	8.474775701684221e+17
19165.0	8.473040256674473e+17
19166.0	8.471252907152722e+17
19167.0	8.469480475372201e+17
19168.0	8.467754403233791e+17
19169.0	8.466002253709312e+17
19170.0	8.464118671474685e+17
19171.0	8.462128046407679e+17
19172.0	8.460365243351037e+17
19173.0	8.458593984577535e+17
19174.0	8.456804757405693e+17
19175.0	8.454851162450601e+17
19176.0	8.453054240129024e+17
19177.0	8.451208131204433e+17
19178.0	8.449465446825983e+17
19179.0	8.447670472059561e+17
19180.0	8.44589309239842e+17
19181.0	8.444075180381523e+17
19182.0	8.442298990504617e+17
19183.0	8.440506107297791e+17
19184.0	8.438698585970003e+17
19185.0	8.436893122647379e+17
19186.0	8.435083842508114e+17
19187.0	8.433241448338772e+17
19188.0	8.431451141832703e+17
19189.0	8.429624458128041e+17
19190.0	8.427793247371264e+17
19191.0	8.425967596863489e+17
19192.0	8.424134031704061e+17
19193.0	8.422285596338856e+17
19194.0	8.420428220115626e+17
19195.0	8.418548123347626e+17
19196.0	8.41662147539763e+17
19197.0	8.414593983796564e+17
19198.0	8.412194411293354e+17
19199.0	8.407284293391698e+17
19200.0	8.405898596013396e+17
19201.0	8.406719937205587e+17
19202.0	8.405370066173948e+17
19203.0	8.403673116486313e+17
19204.0	8.401901566907731e+17
19205.0	8.400085943582719e+17
19206.0	8.398240867855017e+17
19207.0	8.396356952872275e+17
19208.0	8.39440047223603e+17
19209.0	8.392185194654378e+17
19210.0	8.39030828835362e+17
19211.0	8.388424190219603e+17
19212.0	8.386531626582015e+17
19213.0	8.384591449205416e+17
19214.0	8.382684378868396e+17
19215.0	8.38083040981811e+17
19216.0	8.378945864291668e+17
19217.0	8.377031697192276e+17
19218.0	8.374914885091327e+17
19219.0	8.373138918910633e+17
19220.0	8.371300639353514e+17
19221.0	8.369314216979113e+17
19222.0	8.367454319979176e+17
19223.0	8.365543072115369e+17
19224.0	8.363594753594708e+17
19225.0	8.36163610030899e+17
19226.0	8.359730120491007e+17
19227.0	8.357774801676969e+17
19228.0	8.355833693164882e+17
19229.0	8.353876102436182e+17
19230.0	8.351907185688575e+17
19231.0	8.349948146526889e+17
19232.0	8.347972836261888e+17
19233.0	8.345856955296426e+17
19234.0	8.343390053029203e+17
19235.0	8.341398043841875e+17
19236.0	8.339411748694698e+17
19237.0	8.337404897263616e+17
19238.0	8.335363414862505e+17
19239.0	8.333386449245523e+17
19240.0	8.331360116670461e+17
19241.0	8.329328272779945e+17
19242.0	8.327301826958676e+17
19243.0	8.325197765541885e+17
19244.0	8.323225350744744e+17
19245.0	8.321172759030441e+17
19246.0	8.319110080015017e+17
19247.0	8.316827479659858e+17
19248.0	8.314541031729833e+17
19249.0	8.312460872253437e+17
19250.0	8.31037197464371e+17
19251.0	8.30823618191906e+17
19252.0	8.306017878846122e+17
19253.0	8.303273428298409e+17
19254.0	8.301161081733119e+17
19255.0	8.2989597865629e+17
19256.0	8.296898719558313e+17
19257.0	8.294770705869482e+17
19258.0	8.2926229286202e+17
19259.0	8.290432962265085e+17
19260.0	8.288205357623977e+17
19261.0	8.286125782553939e+17
19262.0	8.283903100627624e+17
19263.0	8.281661225566207e+17
19264.0	8.279329005196627e+17
19265.0	8.277185054550697e+17
19266.0	8.274965927996072e+17
19267.0	8.272760760085161e+17
19268.0	8.270479785721855e+17
19269.0	8.267275010310143e+17
19270.0	8.264993103413245e+17
19271.0	8.262627478208511e+17
19272.0	8.260406975922175e+17
19273.0	8.257804632588288e+17
19274.0	8.255523128344575e+17
19275.0	8.253494399423827e+17
19276.0	8.25116703605828e+17
19277.0	8.248840628994045e+17
19278.0	8.246494367492778e+17
19279.0	8.244134319314259e+17
19280.0	8.241301259900242e+17
19281.0	8.23863348961826e+17
19282.0	8.235166737978708e+17
19283.0	8.232694236315648e+17
19284.0	8.230246837562024e+17
19285.0	8.22787257488725e+17
19286.0	8.225452068612778e+17
19287.0	8.22299483002197e+17
19288.0	8.218738696388604e+17
19289.0	8.214611516631717e+17
19290.0	8.21561907932911e+17
19291.0	8.213091984605184e+17
19292.0	8.210717740105728e+17
19293.0	8.20813875065651e+17
19294.0	8.20506014410342e+17
19295.0	8.202542613790719e+17
19296.0	8.200012503362217e+17
19297.0	8.197469889713492e+17
19298.0	8.194915878742697e+17
19299.0	8.192349434456745e+17
19300.0	8.189769769724585e+17
19301.0	8.186363167200595e+17
19302.0	8.183329759865513e+17
19303.0	8.180612565303293e+17
19304.0	8.177911674000723e+17
19305.0	8.175174616612861e+17
19306.0	8.172422661057192e+17
19307.0	8.169617755209727e+17
19308.0	8.166810367732392e+17
19309.0	8.16388814021154e+17
19310.0	8.160979022686889e+17
19311.0	8.158251238905172e+17
19312.0	8.155417792217085e+17
19313.0	8.152518051758079e+17
19314.0	8.147053853715114e+17
19315.0	8.144303743653206e+17
19316.0	8.143673425046186e+17
19317.0	8.139789063334568e+17
19318.0	8.136096230320809e+17
19319.0	8.133015979600553e+17
19320.0	8.129782530528596e+17
19321.0	8.126682594541565e+17
19322.0	8.123523134390271e+17
19323.0	8.120366085963773e+17
19324.0	8.117208068653053e+17
19325.0	8.113971877904384e+17
19326.0	8.110765240221697e+17
19327.0	8.107504949002237e+17
19328.0	8.1042088132608e+17
19329.0	8.100874366746624e+17
19330.0	8.095728849125375e+17
19331.0	8.092026855751679e+17
19332.0	8.088614226012841e+17
19333.0	8.085135200441683e+17
19334.0	8.081611431433559e+17
19335.0	8.078050204494505e+17
19336.0	8.074447458140157e+17
19337.0	8.070805866938365e+17
19338.0	8.067055818025641e+17
19339.0	8.063406700844374e+17
19340.0	8.0596255651485e+17
19341.0	8.054708402214231e+17
19342.0	8.049301659145556e+17
19343.0	8.045141313628842e+17
19344.0	8.040992928869033e+17
19345.0	8.036511868693162e+17
19346.0	8.032644369481727e+17
19347.0	8.02882285801745e+17
19348.0	8.024707162264915e+17
19349.0	8.020512958928212e+17
19350.0	8.016280140032681e+17
19351.0	8.011174511640573e+17
19352.0	8.004783524806653e+17
19353.0	8.000468261273599e+17
19354.0	7.996081929453567e+17
19355.0	7.991618978884266e+17
19356.0	7.987163238323539e+17
19357.0	7.98262808281088e+17
19358.0	7.977583703840083e+17
19359.0	7.972428955953833e+17
19360.0	7.967716551950333e+17
19361.0	7.961754536159913e+17
19362.0	7.955057085513727e+17
19363.0	7.950174745089364e+17
19364.0	7.945134434593449e+17
19365.0	7.940010738537811e+17
19366.0	7.934805085782016e+17
19367.0	7.92951690310451e+17
19368.0	7.924128961702569e+17
19369.0	7.918218368079185e+17
19370.0	7.91172712899106e+17
19371.0	7.905591814346072e+17
19372.0	7.897180284474708e+17
19373.0	7.891411621904381e+17
19374.0	7.88555352978227e+17
19375.0	7.879582468276221e+17
19376.0	7.873497467103914e+17
19377.0	7.867269324122792e+17
19378.0	7.860921320516268e+17
19379.0	7.853305026489002e+17
19380.0	7.845979112516266e+17
19381.0	7.839201389882025e+17
19382.0	7.832239870050301e+17
19383.0	7.82517249856853e+17
19384.0	7.8174490750266e+17
19385.0	7.807900776923135e+17
19386.0	7.80052829499119e+17
19387.0	7.793019800169128e+17
19388.0	7.784444362489855e+17
19389.0	7.77552426766609e+17
19390.0	7.767611464308051e+17
19391.0	7.756077852524539e+17
19392.0	7.751227606914387e+17
19393.0	7.74322119787588e+17
19394.0	7.734598413494953e+17
19395.0	7.725689009952083e+17
19396.0	7.716409060622333e+17
19397.0	7.70697070641152e+17
19398.0	7.696240000456019e+17
19399.0	7.685140334160552e+17
19400.0	7.675155146167636e+17
19401.0	7.66479778779409e+17
19402.0	7.654126552875005e+17
19403.0	7.643195645799084e+17
19404.0	7.632000293448361e+17
19405.0	7.620543673707176e+17
19406.0	7.608779643639126e+17
19407.0	7.596680608918186e+17
19408.0	7.584086616965117e+17
19409.0	7.571400361508864e+17
19410.0	7.55818632839168e+17
19411.0	7.544734566318079e+17
19412.0	7.530956304242004e+17
19413.0	7.51704318410752e+17
19414.0	7.502087053814441e+17
19415.0	7.486676171489279e+17
19416.0	7.470605130880339e+17
19417.0	7.454030329195177e+17
19418.0	7.4369958164125e+17
19419.0	7.419441261663572e+17
19420.0	7.401391275726164e+17
19421.0	7.382804192384343e+17
19422.0	7.36328525353233e+17
19423.0	7.34282837603123e+17
19424.0	7.322075098251263e+17
19425.0	7.30028431184145e+17
19426.0	7.27768287552034e+17
19427.0	7.25419691081728e+17
19428.0	7.229706344595455e+17
19429.0	7.203882895671293e+17
19430.0	7.176953090015232e+17
19431.0	7.14876946428723e+17
19432.0	7.120106781933565e+17
19433.0	7.0895055929344e+17
19434.0	7.057309157730985e+17
19435.0	7.023605061080402e+17
19436.0	6.988042976537258e+17
19437.0	6.950631782045012e+17
19438.0	6.908449929560061e+17
19439.0	6.869308679738711e+17
19440.0	6.82511773466624e+17
19441.0	6.778178033592998e+17
19442.0	6.728054125275821e+17
19443.0	6.674608205157716e+17
19444.0	6.617332577206268e+17
19445.0	6.555894470934528e+17
19446.0	6.489639879704575e+17
19447.0	6.41794830657126e+17
19448.0	6.340024112338264e+17
19449.0	6.25511421321762e+17
19450.0	6.160007596168527e+17
19451.0	6.106823529944404e+17
19452.0	6.208495286921897e+17
19453.0	6.295140572332033e+17
19454.0	6.37408946648951e+17
19455.0	6.446395654755668e+17
19456.0	6.512829620289537e+17
19457.0	6.574120014359208e+17
19458.0	6.629144526498476e+17
19459.0	6.683575035013804e+17
19460.0	6.73292403028787e+17
19461.0	6.778739283197951e+17
19462.0	6.821883882242049e+17
19463.0	6.862216247989586e+17
19464.0	6.900080016272042e+17
19465.0	6.935900437086208e+17
19466.0	6.969683443974141e+17
19467.0	7.001478113787903e+17
19468.0	7.031615041568768e+17
19469.0	7.06032371446579e+17
19470.0	7.087322225617577e+17
19471.0	7.113063317984599e+17
19472.0	7.137575824610642e+17
19473.0	7.16108737876241e+17
19474.0	7.183460737220608e+17
19475.0	7.204422450937853e+17
19476.0	7.22474528547362e+17
19477.0	7.244133746518697e+17
19478.0	7.262538778891603e+17
19479.0	7.280206133854207e+17
19480.0	7.297395388492458e+17
19481.0	7.313500486849875e+17
19482.0	7.328907313283071e+17
19483.0	7.34381009342737e+17
19484.0	7.358218766385151e+17
19485.0	7.372115412691625e+17
19486.0	7.385513792460116e+17
19487.0	7.398288564507987e+17
19488.0	7.410530476796585e+17
19489.0	7.422235279097856e+17
19490.0	7.432586799000232e+17
19491.0	7.443592272412671e+17
19492.0	7.453921565300054e+17
19493.0	7.46403013014323e+17
19494.0	7.473666605099688e+17
19495.0	7.482980408055123e+17
19496.0	7.491848392845993e+17
19497.0	7.500493808293203e+17
19498.0	7.508026009321472e+17
19499.0	7.511617358353746e+17
19500.0	7.524684297229654e+17
19501.0	7.53230507077359e+17
19502.0	7.53954689314543e+17
19503.0	7.54709627544098e+17
19504.0	7.555388926154067e+17
19505.0	7.561935777518931e+17
19506.0	7.568300542962344e+17
19507.0	7.574360051154943e+17
19508.0	7.5801436370589e+17
19509.0	7.58556059185971e+17
19510.0	7.590678085937833e+17
19511.0	7.590849913989798e+17
19512.0	7.599535108216146e+17
19513.0	7.604373651718143e+17
19514.0	7.61081610126404e+17
19515.0	7.616581692205738e+17
19516.0	7.621136937036458e+17
19517.0	7.627770948834642e+17
19518.0	7.632371430632105e+17
19519.0	7.636462459682815e+17
19520.0	7.640418850177021e+17
19521.0	7.644234000280233e+17
19522.0	7.648074962130259e+17
19523.0	7.65314519479091e+17
19524.0	7.656511034272425e+17
19525.0	7.659751501813076e+17
19526.0	7.662862804363945e+17
19527.0	7.665841213188778e+17
19528.0	7.668711048260266e+17
19529.0	7.67147627459379e+17
19530.0	7.676567150220627e+17
19531.0	7.679856287066793e+17
19532.0	7.682849859698687e+17
19533.0	7.686122068333908e+17
19534.0	7.688491071351464e+17
19535.0	7.690772237254656e+17
19536.0	7.692946782552063e+17
19537.0	7.695061810675711e+17
19538.0	7.69704192062259e+17
19539.0	7.698880454634152e+17
19540.0	7.70239296053794e+17
19541.0	7.705440146161661e+17
19542.0	7.707112835994966e+17
19543.0	7.708882145815212e+17
19544.0	7.711156802158591e+17
19545.0	7.712520020863658e+17
19546.0	7.713893700162902e+17
19547.0	7.715501622951935e+17
19548.0	7.716853592533676e+17
19549.0	7.718116730950996e+17
19550.0	7.721098735692454e+17
19551.0	7.723342919019177e+17
19552.0	7.72452723527953e+17
19553.0	7.725658686532266e+17
19554.0	7.72674797384499e+17
19555.0	7.727802544903508e+17
19556.0	7.728802678090409e+17
19557.0	7.729756813743444e+17
19558.0	7.730668100386815e+17
19559.0	7.731937031137961e+17
19560.0	7.734007444449961e+17
19561.0	7.735938330045096e+17
19562.0	7.736662637412351e+17
19563.0	7.737329424094547e+17
19564.0	7.737953386932906e+17
19565.0	7.738536072227498e+17
19566.0	7.739077080121343e+17
19567.0	7.739586970473811e+17
19568.0	7.740043137384445e+17
19569.0	7.7404818126493e+17
19570.0	7.740863055309484e+17
19571.0	7.741304641421311e+17
19572.0	7.743391099344211e+17
19573.0	7.743677982747305e+17
19574.0	7.743893198077951e+17
19575.0	7.744143771391315e+17
19576.0	7.744325801388713e+17
19577.0	7.744474592925011e+17
19578.0	7.744587359584253e+17
19579.0	7.744679377021608e+17
19580.0	7.744743424043689e+17
19581.0	7.74478355374626e+17
19582.0	7.744795090878465e+17
19583.0	7.744940991141204e+17
19584.0	7.745358950738602e+17
19585.0	7.746250862493696e+17
19586.0	7.74614403916322e+17
19587.0	7.746064119496703e+17
19588.0	7.745816230537897e+17
19589.0	7.745764636404394e+17
19590.0	7.74557168304128e+17
19591.0	7.745397050398036e+17
19592.0	7.745177254887421e+17
19593.0	7.744927073042432e+17
19594.0	7.744585124020224e+17
19595.0	7.744377599645012e+17
19596.0	7.743730390575786e+17
19597.0	7.743749866127357e+17
19598.0	7.743338954358783e+17
19599.0	7.743051781548713e+17
19600.0	7.74283446067746e+17
19601.0	7.743238240731136e+17
19602.0	7.742752661962751e+17
19603.0	7.742136220909565e+17
19604.0	7.741744026921641e+17
19605.0	7.741175043020115e+17
19606.0	7.740761504219135e+17
19607.0	7.740796460946774e+17
19608.0	7.740250127684948e+17
19609.0	7.739680423761236e+17
19610.0	7.739124425424893e+17
19611.0	7.73854353109811e+17
19612.0	7.737953413496832e+17
19613.0	7.73735006146833e+17
19614.0	7.736718169997311e+17
19615.0	7.736104498582867e+17
19616.0	7.735430627721216e+17
19617.0	7.73481630339345e+17
19618.0	7.734415213286739e+17
19619.0	7.73426621343334e+17
19620.0	7.733632455497046e+17
19621.0	7.733214993623722e+17
19622.0	7.733088875096745e+17
19623.0	7.732384034892457e+17
19624.0	7.731666565638825e+17
19625.0	7.730936087052284e+17
19626.0	7.730190128687786e+17
19627.0	7.729413119890772e+17
19628.0	7.728541153449299e+17
19629.0	7.727687070121981e+17
19630.0	7.725692031249064e+17
19631.0	7.722675322836306e+17
19632.0	7.726028373884927e+17
19633.0	7.725531683007145e+17
19634.0	7.724809256086182e+17
19635.0	7.724007594568361e+17
19636.0	7.72321831883025e+17
19637.0	7.72222933270528e+17
19638.0	7.721561146523645e+17
19639.0	7.720705172963327e+17
19640.0	7.719799968060756e+17
19641.0	7.718793981023572e+17
19642.0	7.718072300688723e+17
19643.0	7.717183245254656e+17
19644.0	7.716282003969363e+17
19645.0	7.715322965174952e+17
19646.0	7.714651479474173e+17
19647.0	7.714217188655103e+17
19648.0	7.713282613837824e+17
19649.0	7.712339552545449e+17
19650.0	7.711390353588224e+17
19651.0	7.710433139316054e+17
19652.0	7.709468772357459e+17
19653.0	7.708496954916863e+17
19654.0	7.707519311588009e+17
19655.0	7.706886079337812e+17
19656.0	7.705899693681321e+17
19657.0	7.704903837286399e+17
19658.0	7.703899771240445e+17
19659.0	7.702889164876458e+17
19660.0	7.701873152054611e+17
19661.0	7.700850545786879e+17
19662.0	7.69982072951057e+17
19663.0	7.6987705079453e+17
19664.0	7.697735831868755e+17
19665.0	7.697654604977491e+17
19666.0	7.696972615341395e+17
19667.0	7.695919081674067e+17
