# Flux units: erg / (cm m2 s)
# Wavelength units: Angstrom
wave	flux
19000.0	5.5674704281381536e+17
19001.0	5.566390818482857e+17
19002.0	5.5653952892436474e+17
19003.0	5.564357041018196e+17
19004.0	5.563318397130069e+17
19005.0	5.5622789437412685e+17
19006.0	5.561243915343188e+17
19007.0	5.560198272559785e+17
19008.0	5.559140797644798e+17
19009.0	5.558125204952404e+17
19010.0	5.556866586596692e+17
19011.0	5.556047433433087e+17
19012.0	5.5549709093874336e+17
19013.0	5.5539818652412576e+17
19014.0	5.5529224190033914e+17
19015.0	5.551894285342036e+17
19016.0	5.550852263641087e+17
19017.0	5.5498290715688954e+17
19018.0	5.548797669146623e+17
19019.0	5.547764010188798e+17
19020.0	5.5467162646609914e+17
19021.0	5.545690356776958e+17
19022.0	5.5446588522932896e+17
19023.0	5.5436094388305914e+17
19024.0	5.542581762348372e+17
19025.0	5.5415572211083936e+17
19026.0	5.540510687734441e+17
19027.0	5.5394728344726176e+17
19028.0	5.5384535235297274e+17
19029.0	5.537411711543977e+17
19030.0	5.536388979447124e+17
19031.0	5.535356992618494e+17
19032.0	5.53432182091503e+17
19033.0	5.5332526648634003e+17
19034.0	5.532249318839636e+17
19035.0	5.531209360736255e+17
19036.0	5.5287555740576403e+17
19037.0	5.5291536540521805e+17
19038.0	5.528115033931774e+17
19039.0	5.5270911987329696e+17
19040.0	5.5260605974227616e+17
19041.0	5.5250250782911136e+17
19042.0	5.5239571875211936e+17
19043.0	5.5229649745783456e+17
19044.0	5.521928104880809e+17
19045.0	5.5209019726015136e+17
19046.0	5.519847169458175e+17
19047.0	5.51883916775697e+17
19048.0	5.517709399119189e+17
19049.0	5.51676888027409e+17
19050.0	5.515766916273492e+17
19051.0	5.5144944720936954e+17
19052.0	5.513714732105728e+17
19053.0	5.5126953911036576e+17
19054.0	5.511667976066388e+17
19055.0	5.5105300991399245e+17
19056.0	5.5095954558156794e+17
19057.0	5.508575714257579e+17
19058.0	5.5075471751468365e+17
19059.0	5.50652268843281e+17
19060.0	5.506088268988415e+17
19061.0	5.505764282073087e+17
19062.0	5.504733245254315e+17
19063.0	5.5037059497547085e+17
19064.0	5.502621387325439e+17
19065.0	5.5015752349341005e+17
19066.0	5.5005958118222496e+17
19067.0	5.499587811519145e+17
19068.0	5.4985654394333856e+17
19069.0	5.497538566859434e+17
19070.0	5.496498348010154e+17
19071.0	5.4954818640281594e+17
19072.0	5.4944569369122125e+17
19073.0	5.493427801511253e+17
19074.0	5.4924035175219194e+17
19075.0	5.491377050397353e+17
19076.0	5.490340730153642e+17
19077.0	5.4893203559546874e+17
19078.0	5.488279339488596e+17
19079.0	5.487272383567189e+17
19080.0	5.4862422275522554e+17
19081.0	5.485202294614698e+17
19082.0	5.4841749816388256e+17
19083.0	5.483130725771945e+17
19084.0	5.482050814126761e+17
19085.0	5.481116827910143e+17
19086.0	5.479942133383167e+17
19087.0	5.4790363168112634e+17
19088.0	5.4780206276498765e+17
19089.0	5.4769278031407776e+17
19090.0	5.475962988789758e+17
19091.0	5.4749279575954765e+17
19092.0	5.473882674823166e+17
19093.0	5.4728902214068896e+17
19094.0	5.4718649531542176e+17
19095.0	5.470841693274111e+17
19096.0	5.469813607847251e+17
19097.0	5.4687997795587405e+17
19098.0	5.4677791788673696e+17
19099.0	5.466753977024511e+17
19100.0	5.4657298992551245e+17
19101.0	5.464713448827562e+17
19102.0	5.463645098082302e+17
19103.0	5.4626688857101645e+17
19104.0	5.461649991401471e+17
19105.0	5.460629895424681e+17
19106.0	5.459601463268692e+17
19107.0	5.4585806060257274e+17
19108.0	5.457568349203113e+17
19109.0	5.456430466684244e+17
19110.0	5.455528884262228e+17
19111.0	5.454509276222804e+17
19112.0	5.4534899582894074e+17
19113.0	5.4524698483316045e+17
19114.0	5.4514527729527456e+17
19115.0	5.450411816605013e+17
19116.0	5.4494051962279245e+17
19117.0	5.4483892477187405e+17
19118.0	5.4473420803058336e+17
19119.0	5.444420288293543e+17
19120.0	5.4453249765976723e+17
19121.0	5.444316656129364e+17
19122.0	5.4433072052961274e+17
19123.0	5.442289003047593e+17
19124.0	5.441265680951977e+17
19125.0	5.440255719112702e+17
19126.0	5.4392367227426125e+17
19127.0	5.4374752758442643e+17
19128.0	5.4371452728989005e+17
19129.0	5.43615296418611e+17
19130.0	5.435169434151593e+17
19131.0	5.434157989625856e+17
19132.0	5.433141876839764e+17
19133.0	5.4320612507648e+17
19134.0	5.4311770537328634e+17
19135.0	5.430195704037375e+17
19136.0	5.429183550674262e+17
19137.0	5.4278456522833914e+17
19138.0	5.4268664172161683e+17
19139.0	5.4258611355211085e+17
19140.0	5.424847275076266e+17
19141.0	5.4238336201523194e+17
19142.0	5.422809238994943e+17
19143.0	5.4217795310714874e+17
19144.0	5.4207798585589766e+17
19145.0	5.4197817456285e+17
19146.0	5.4185137851596794e+17
19147.0	5.417715500755626e+17
19148.0	5.4167418126554445e+17
19149.0	5.415726272391849e+17
19150.0	5.414714014171135e+17
19151.0	5.413704400459092e+17
19152.0	5.4126910538164896e+17
19153.0	5.4116730493992954e+17
19154.0	5.410617153639764e+17
19155.0	5.4096606663802874e+17
19156.0	5.4086485689412256e+17
19157.0	5.4076375627202554e+17
19158.0	5.406546947910313e+17
19159.0	5.405608464700757e+17
19160.0	5.404599869505535e+17
19161.0	5.4035910995476474e+17
19162.0	5.402400764461055e+17
19163.0	5.401578024468478e+17
19164.0	5.400568500933972e+17
19165.0	5.399550901267113e+17
19166.0	5.398497175360854e+17
19167.0	5.3975237885515085e+17
19168.0	5.396505986159955e+17
19169.0	5.39550657159714e+17
19170.0	5.394514459317588e+17
19171.0	5.393494805140821e+17
19172.0	5.3924985579765754e+17
19173.0	5.391490245197824e+17
19174.0	5.390456810635264e+17
19175.0	5.389474234105856e+17
19176.0	5.3884657717302605e+17
19177.0	5.3873967373134496e+17
19178.0	5.386451456535209e+17
19179.0	5.3854284574010016e+17
19180.0	5.3844276398434976e+17
19181.0	5.383378129911806e+17
19182.0	5.382415053400747e+17
19183.0	5.381419070477652e+17
19184.0	5.380390532065962e+17
19185.0	5.379402273652735e+17
19186.0	5.378400809473364e+17
19187.0	5.3773658656604154e+17
19188.0	5.376389119213568e+17
19189.0	5.3753835830640634e+17
19190.0	5.37437631746321e+17
19191.0	5.373344279603883e+17
19192.0	5.3723542162418336e+17
19193.0	5.371344586451626e+17
19194.0	5.370337849333077e+17
19195.0	5.369339941224447e+17
19196.0	5.368327291535358e+17
19197.0	5.3673279196146336e+17
19198.0	5.366327488632149e+17
19199.0	5.364216587703636e+17
19200.0	5.363644073596245e+17
19201.0	5.363316997576019e+17
19202.0	5.3623142492405754e+17
19203.0	5.361307987476479e+17
19204.0	5.3602964534722554e+17
19205.0	5.3593005062007456e+17
19206.0	5.358298680612179e+17
19207.0	5.3572626378915834e+17
19208.0	5.3561932364731725e+17
19209.0	5.355289466022571e+17
19210.0	5.354286823243775e+17
19211.0	5.3532899881779194e+17
19212.0	5.352286870044671e+17
19213.0	5.351241649487871e+17
19214.0	5.3502367396877645e+17
19215.0	5.349279213638996e+17
19216.0	5.3482773915456845e+17
19217.0	5.347277680585386e+17
19218.0	5.345929144740521e+17
19219.0	5.3452131812420256e+17
19220.0	5.344266328997887e+17
19221.0	5.343130280787967e+17
19222.0	5.3422747623096314e+17
19223.0	5.341257790390271e+17
19224.0	5.3402430987741856e+17
19225.0	5.339200974312788e+17
19226.0	5.3381199553713466e+17
19227.0	5.334762116524713e+17
19228.0	5.333774336262142e+17
19229.0	5.3327745588920314e+17
19230.0	5.3317710912334483e+17
19231.0	5.3307694397085e+17
19232.0	5.329769087718741e+17
19233.0	5.328746595396266e+17
19234.0	5.3277663858524154e+17
19235.0	5.326764140134399e+17
19236.0	5.3257802801479686e+17
19237.0	5.324775387824126e+17
19238.0	5.323826162302975e+17
19239.0	5.3229958369116154e+17
19240.0	5.321945618841598e+17
19241.0	5.320975942593193e+17
19242.0	5.3199867726178976e+17
19243.0	5.3189228957969056e+17
19244.0	5.3179954240334496e+17
19245.0	5.3169947057411405e+17
19246.0	5.3159910514360314e+17
19247.0	5.314996937774421e+17
19248.0	5.313994306879487e+17
19249.0	5.3129844345186976e+17
19250.0	5.311997867109034e+17
19251.0	5.310976729546751e+17
19252.0	5.309875526915413e+17
19253.0	5.3090024636634445e+17
19254.0	5.3080070190093645e+17
19255.0	5.306928472610132e+17
19256.0	5.306012232493738e+17
19257.0	5.305019681210367e+17
19258.0	5.3040202219083085e+17
19259.0	5.30299015537186e+17
19260.0	5.3019946764642976e+17
19261.0	5.301020133425151e+17
19262.0	5.3000014327534925e+17
19263.0	5.299005988099413e+17
19264.0	5.297802015233364e+17
19265.0	5.296942270294696e+17
19266.0	5.2959413828321274e+17
19267.0	5.295031042004308e+17
19268.0	5.2940290115938976e+17
19269.0	5.2930263813980154e+17
19270.0	5.2920235121268045e+17
19271.0	5.2908790151905286e+17
19272.0	5.290008938283007e+17
19273.0	5.287576793513981e+17
19274.0	5.2872828601849165e+17
19275.0	5.2870233544021325e+17
19276.0	5.286015110829396e+17
19277.0	5.285020723139924e+17
19278.0	5.284021598683136e+17
19279.0	5.283011350932138e+17
19280.0	5.281982576241322e+17
19281.0	5.2810154144781645e+17
19282.0	5.280020937310207e+17
19283.0	5.279002124091392e+17
19284.0	5.277988938230442e+17
19285.0	5.27692809249314e+17
19286.0	5.275993766537898e+17
19287.0	5.2750051648907936e+17
19288.0	5.2737004091910816e+17
19289.0	5.2730284781950266e+17
19290.0	5.2733650654986234e+17
19291.0	5.272251969219242e+17
19292.0	5.271356346204159e+17
19293.0	5.2703476077035514e+17
19294.0	5.269340813262847e+17
19295.0	5.268340201226239e+17
19296.0	5.267330911174656e+17
19297.0	5.2663213946306554e+17
19298.0	5.265306922516479e+17
19299.0	5.264312929091583e+17
19300.0	5.2633030811975686e+17
19301.0	5.2622920421212154e+17
19302.0	5.261283444129791e+17
19303.0	5.260237349060607e+17
19304.0	5.2592456778820256e+17
19305.0	5.258246034729641e+17
19306.0	5.257237487069866e+17
19307.0	5.2562059825861965e+17
19308.0	5.2552052272442016e+17
19309.0	5.254160989552638e+17
19310.0	5.253049736669865e+17
19311.0	5.250776066686975e+17
19312.0	5.2497696595203405e+17
19313.0	5.248748329719125e+17
19314.0	5.2464579013945984e+17
19315.0	5.245576203468802e+17
19316.0	5.2457013041780045e+17
19317.0	5.244676365877247e+17
19318.0	5.2436526481189536e+17
19319.0	5.2426378865978016e+17
19320.0	5.24161018494976e+17
19321.0	5.240591096304981e+17
19322.0	5.239526259687423e+17
19323.0	5.2385188885299194e+17
19324.0	5.237509736890366e+17
19325.0	5.236446642307071e+17
19326.0	5.235288928419839e+17
19327.0	5.2340968568913914e+17
19328.0	5.2331233302719136e+17
19329.0	5.232108173787135e+17
19330.0	5.2310512168686925e+17
19331.0	5.2300101955092474e+17
19332.0	5.228986867821225e+17
19333.0	5.22793757319714e+17
19334.0	5.2268930747596794e+17
19335.0	5.22594926268689e+17
19336.0	5.2263456796398925e+17
19337.0	5.225292836634624e+17
19338.0	5.224124641880746e+17
19339.0	5.222743246460245e+17
19340.0	5.221586953043967e+17
19341.0	5.2205712072594765e+17
19342.0	5.2193427997764256e+17
19343.0	5.2184444434732365e+17
19344.0	5.217372528268628e+17
19345.0	5.21531990299989e+17
19346.0	5.215009727927637e+17
19347.0	5.214122204113578e+17
19348.0	5.213069263241214e+17
19349.0	5.211968687658324e+17
19350.0	5.210885107395241e+17
19351.0	5.209784909299711e+17
19352.0	5.208675483036329e+17
19353.0	5.2076063046150816e+17
19354.0	5.2065009796819616e+17
19355.0	5.205634275693909e+17
19356.0	5.2052295952629754e+17
19357.0	5.2042906066397856e+17
19358.0	5.2031591553870496e+17
19359.0	5.2019375475698336e+17
19360.0	5.200525872769706e+17
19361.0	5.199422256316415e+17
19362.0	5.198313746508458e+17
19363.0	5.1971602129442125e+17
19364.0	5.1959342164869114e+17
19365.0	5.194715100086271e+17
19366.0	5.1935407536865274e+17
19367.0	5.1923590973139616e+17
19368.0	5.1911694368112634e+17
19369.0	5.189916729627988e+17
19370.0	5.188534586922324e+17
19371.0	5.187460906614783e+17
19372.0	5.1862576978111136e+17
19373.0	5.1850095155828045e+17
19374.0	5.1835634188287994e+17
19375.0	5.18233976279313e+17
19376.0	5.181128055630506e+17
19377.0	5.1793072250770765e+17
19378.0	5.178103940775936e+17
19379.0	5.1770208470521165e+17
19380.0	5.175430804581034e+17
19381.0	5.173390335803391e+17
19382.0	5.171975940997119e+17
19383.0	5.170089363330389e+17
19384.0	5.1686789062765216e+17
19385.0	5.1672527527389856e+17
19386.0	5.1658552903379616e+17
19387.0	5.164424330128041e+17
19388.0	5.162907121046868e+17
19389.0	5.161229050620585e+17
19390.0	5.1590477245317114e+17
19391.0	5.156045420057939e+17
19392.0	5.15577810587921e+17
19393.0	5.15391580484403e+17
19394.0	5.152164088730964e+17
19395.0	5.1506718637206176e+17
19396.0	5.1491208114995194e+17
19397.0	5.1468541550919686e+17
19398.0	5.144729346550441e+17
19399.0	5.142543640909139e+17
19400.0	5.141380318538411e+17
19401.0	5.139439744800083e+17
19402.0	5.1361259307663334e+17
19403.0	5.133428320807594e+17
19404.0	5.1313952235192314e+17
19405.0	5.1286895255442765e+17
19406.0	5.12629658493474e+17
19407.0	5.1239103251524256e+17
19408.0	5.1212847866183686e+17
19409.0	5.119010275677525e+17
19410.0	5.115411573331283e+17
19411.0	5.111388784907604e+17
19412.0	5.1071943187278496e+17
19413.0	5.1033892440418976e+17
19414.0	5.099104877849258e+17
19415.0	5.092632339065513e+17
19416.0	5.0898405683800723e+17
19417.0	5.08591597490449e+17
19418.0	5.079515584441002e+17
19419.0	5.075094345525927e+17
19420.0	5.0680890651224723e+17
19421.0	5.0623871500069555e+17
19422.0	5.0551376772246176e+17
19423.0	5.0463595043662496e+17
19424.0	5.0364497984662234e+17
19425.0	5.0237798315895514e+17
19426.0	5.009595515447977e+17
19427.0	4.9968734511213274e+17
19428.0	4.9903957030120083e+17
19429.0	4.985212916902566e+17
19430.0	4.981325745706324e+17
19431.0	4.975211754902869e+17
19432.0	4.9642820907390304e+17
19433.0	4.952180757539501e+17
19434.0	4.938334447075329e+17
19435.0	4.923156317164885e+17
19436.0	4.9009990296753517e+17
19437.0	4.8808050686252365e+17
19438.0	4.8599509471941946e+17
19439.0	4.839524532923048e+17
19440.0	4.812030462656503e+17
19441.0	4.77095116966024e+17
19442.0	4.7112561581097043e+17
19443.0	4.6819968716636224e+17
19444.0	4.65058910332518e+17
19445.0	4.5836800126266086e+17
19446.0	4.5220913455213184e+17
19447.0	4.4157216087517875e+17
19448.0	4.305785007898623e+17
19449.0	4.1192104464656915e+17
19450.0	3.6815747524416806e+17
19451.0	3.552225711008418e+17
19452.0	3.9240229153232435e+17
19453.0	4.230785945042956e+17
19454.0	4.357798600463691e+17
19455.0	4.4721440118101395e+17
19456.0	4.548227671348571e+17
19457.0	4.6080642071046835e+17
19458.0	4.657910497935364e+17
19459.0	4.678751805068634e+17
19460.0	4.727484869596475e+17
19461.0	4.777738800638638e+17
19462.0	4.808488171601918e+17
19463.0	4.830865464317267e+17
19464.0	4.849664150295892e+17
19465.0	4.8655957463750016e+17
19466.0	4.88693146338372e+17
19467.0	4.9037752401919974e+17
19468.0	4.915406589744469e+17
19469.0	4.9260562016283283e+17
19470.0	4.9365805240593043e+17
19471.0	4.9435879267805843e+17
19472.0	4.945819485951315e+17
19473.0	4.948121129844737e+17
19474.0	4.952179216132779e+17
19475.0	4.9587689416731264e+17
19476.0	4.9728896882442176e+17
19477.0	4.984198638425426e+17
19478.0	4.992209040441345e+17
19479.0	4.999983784088918e+17
19480.0	5.0049301302913683e+17
19481.0	5.0111238254537376e+17
19482.0	5.01459662807586e+17
19483.0	5.018617336823808e+17
19484.0	5.0216597052893856e+17
19485.0	5.025394684766889e+17
19486.0	5.02687548379409e+17
19487.0	5.028903550014807e+17
19488.0	5.032481004716032e+17
19489.0	5.035290102770345e+17
19490.0	5.036380103114751e+17
19491.0	5.0383737201186125e+17
19492.0	5.041408638102185e+17
19493.0	5.041950025580543e+17
19494.0	5.043091821385045e+17
19495.0	5.043179366296234e+17
19496.0	5.04347157926161e+17
19497.0	5.044221966811134e+17
19498.0	5.044873289094483e+17
19499.0	5.042647239841105e+17
19500.0	5.045453103387989e+17
19501.0	5.0470391249196365e+17
19502.0	5.047067857300138e+17
19503.0	5.046637623072085e+17
19504.0	5.04657187386163e+17
19505.0	5.0465623730640205e+17
19506.0	5.047112499374762e+17
19507.0	5.0468079984967674e+17
19508.0	5.04629932658961e+17
19509.0	5.0460480213701965e+17
19510.0	5.045972086292478e+17
19511.0	5.043172298893991e+17
19512.0	5.0451525451557523e+17
19513.0	5.044489899649704e+17
19514.0	5.0450515896565766e+17
19515.0	5.0448735861910195e+17
19516.0	5.0446492251805e+17
19517.0	5.044150518240596e+17
19518.0	5.043637620572159e+17
19519.0	5.0431166257998496e+17
19520.0	5.042580472113834e+17
19521.0	5.042450195633492e+17
19522.0	5.042016849231871e+17
19523.0	5.041458585272319e+17
19524.0	5.0408695728701434e+17
19525.0	5.0402548976189434e+17
19526.0	5.039646257971198e+17
19527.0	5.0396148097788576e+17
19528.0	5.038963204379988e+17
19529.0	5.038674792153087e+17
19530.0	5.038183783159124e+17
19531.0	5.0377778870790816e+17
19532.0	5.0372229289301325e+17
19533.0	5.0365299061773645e+17
19534.0	5.035827580458324e+17
19535.0	5.0351095205068794e+17
19536.0	5.0343836703348045e+17
19537.0	5.033526217583274e+17
19538.0	5.0326711933337594e+17
19539.0	5.031674145057452e+17
19540.0	5.031185909896534e+17
19541.0	5.030446180772522e+17
19542.0	5.029686767779839e+17
19543.0	5.028925825963348e+17
19544.0	5.0281586947522554e+17
19545.0	5.027241914968744e+17
19546.0	5.026169476175187e+17
19547.0	5.025826198956713e+17
19548.0	5.0250342304754336e+17
19549.0	5.024198842559145e+17
19550.0	5.0234861638997325e+17
19551.0	5.0229860490717856e+17
19552.0	5.022182281314303e+17
19553.0	5.0213679054629536e+17
19554.0	5.020209054220287e+17
19555.0	5.018895294747988e+17
19556.0	5.018086623150079e+17
19557.0	5.01726506595123e+17
19558.0	5.0162120775434234e+17
19559.0	5.015384734302208e+17
19560.0	5.0145518629683194e+17
19561.0	5.013722470809598e+17
19562.0	5.0129009115135994e+17
19563.0	5.0120693963380045e+17
19564.0	5.0112338944764576e+17
19565.0	5.010391243423743e+17
19566.0	5.009535357943807e+17
19567.0	5.0087059657850874e+17
19568.0	5.00785072902417e+17
19569.0	5.0070049965561165e+17
19570.0	5.0061680868065274e+17
19571.0	5.005317623163562e+17
19572.0	5.004451495193257e+17
19573.0	5.0036080835734176e+17
19574.0	5.002717031650645e+17
19575.0	5.001903595323391e+17
19576.0	5.001044105538217e+17
19577.0	5.000160209098068e+17
19578.0	4.999311030310228e+17
19579.0	4.998453347571028e+17
19580.0	4.9975935005709645e+17
19581.0	4.996731989830314e+17
19582.0	4.9958754849914874e+17
19583.0	4.9950096450300576e+17
19584.0	4.9941429578192205e+17
19585.0	4.993226400333823e+17
19586.0	4.9923464094897485e+17
19587.0	4.9915267005808634e+17
19588.0	4.990462103038635e+17
19589.0	4.989784789352447e+17
19590.0	4.988163416129536e+17
19591.0	4.986653080813566e+17
19592.0	4.985783253467136e+17
19593.0	4.984902258786304e+17
19594.0	4.983928892948479e+17
19595.0	4.9831543140515834e+17
19596.0	4.9821381851873274e+17
19597.0	4.981404517531647e+17
19598.0	4.9803789465900365e+17
19599.0	4.979674686597802e+17
19600.0	4.978822877282303e+17
19601.0	4.977915914966357e+17
19602.0	4.9770493277197645e+17
19603.0	4.976002832094549e+17
19604.0	4.975290070248106e+17
19605.0	4.9742947269563725e+17
19606.0	4.9735405813104634e+17
19607.0	4.9726646379697485e+17
19608.0	4.971775746113535e+17
19609.0	4.9708769137568416e+17
19610.0	4.9700169493162656e+17
19611.0	4.96912961774114e+17
19612.0	4.9682514737889274e+17
19613.0	4.967362501541887e+17
19614.0	4.9664672546160634e+17
19615.0	4.96560045765427e+17
19616.0	4.964704954875904e+17
19617.0	4.9638291024117754e+17
19618.0	4.962766148337664e+17
19619.0	4.9618018666632525e+17
19620.0	4.961251000057854e+17
19621.0	4.960678742502058e+17
19622.0	4.959794924355583e+17
19623.0	4.958908864353619e+17
19624.0	4.958018459052715e+17
19625.0	4.957135924363264e+17
19626.0	4.956247873465002e+17
19627.0	4.9553627585795405e+17
19628.0	4.954448518447103e+17
19629.0	4.953551880410451e+17
19630.0	4.952697579678378e+17
19631.0	4.9506074824977043e+17
19632.0	4.950925672884906e+17
19633.0	4.9500235200375443e+17
19634.0	4.949151450835625e+17
19635.0	4.948247760775849e+17
19636.0	4.947372015266474e+17
19637.0	4.9463355747860474e+17
19638.0	4.9455968313234765e+17
19639.0	4.9447084728429216e+17
19640.0	4.943802004755796e+17
19641.0	4.942555666623148e+17
19642.0	4.9420439797104634e+17
19643.0	4.941151800218964e+17
19644.0	4.9402454936125434e+17
19645.0	4.9392650421971616e+17
19646.0	4.9384946876634445e+17
19647.0	4.93760632918289e+17
19648.0	4.936716402032639e+17
19649.0	4.9358266531403085e+17
19650.0	4.9349414403877536e+17
19651.0	4.934049493680128e+17
19652.0	4.933161255436287e+17
19653.0	4.932274838918485e+17
19654.0	4.9313828125190816e+17
19655.0	4.930493339052713e+17
