# Flux units: erg / (cm m2 s)
# Wavelength units: Angstrom
wave	flux
19000.0	5.604966690805077e+17
19001.0	5.6038653826170874e+17
19002.0	5.6029595995996154e+17
19003.0	5.6019542291251194e+17
19004.0	5.600955443707902e+17
19005.0	5.5999306032742394e+17
19006.0	5.5989258577510394e+17
19007.0	5.5979236630637216e+17
19008.0	5.596882318742868e+17
19009.0	5.595769845317631e+17
19010.0	5.594732454827349e+17
19011.0	5.5938485604843514e+17
19012.0	5.5927839440677536e+17
19013.0	5.5919037078568954e+17
19014.0	5.5908667326027085e+17
19015.0	5.589869861186218e+17
19016.0	5.588900343622315e+17
19017.0	5.5879100782346234e+17
19018.0	5.5869026812122445e+17
19019.0	5.585904637487785e+17
19020.0	5.584897341827753e+17
19021.0	5.5839104409709216e+17
19022.0	5.5829037821460474e+17
19023.0	5.5818628467698336e+17
19024.0	5.580859192464724e+17
19025.0	5.5798827452115616e+17
19026.0	5.5788687169945594e+17
19027.0	5.5778638428460365e+17
19028.0	5.5768810328337043e+17
19029.0	5.575873409318911e+17
19030.0	5.5748931158889805e+17
19031.0	5.573889985172821e+17
19032.0	5.572863498474837e+17
19033.0	5.5717424029586765e+17
19034.0	5.5706830748603725e+17
19035.0	5.56900727984401e+17
19036.0	5.5656191937740794e+17
19037.0	5.5671622306802336e+17
19038.0	5.5667025461466445e+17
19039.0	5.5658351333212154e+17
19040.0	5.5648803412596045e+17
19041.0	5.5638951544750074e+17
19042.0	5.562129890060968e+17
19043.0	5.561928451620862e+17
19044.0	5.5609219773453645e+17
19045.0	5.5599167005436576e+17
19046.0	5.558896011072853e+17
19047.0	5.5578823477602976e+17
19048.0	5.556741450235903e+17
19049.0	5.554349746946045e+17
19050.0	5.554756556685311e+17
19051.0	5.55345722422067e+17
19052.0	5.5526211764005536e+17
19053.0	5.5518664386587296e+17
19054.0	5.5509416155982496e+17
19055.0	5.549540184686592e+17
19056.0	5.5488995005562874e+17
19057.0	5.547996915695615e+17
19058.0	5.546253210703187e+17
19059.0	5.545734056531284e+17
19060.0	5.5450232855811405e+17
19061.0	5.544033106875732e+17
19062.0	5.5430393972654074e+17
19063.0	5.5420386789730976e+17
19064.0	5.5410037715107834e+17
19065.0	5.5399390907815245e+17
19066.0	5.538747255532202e+17
19067.0	5.53806990619443e+17
19068.0	5.537091805686442e+17
19069.0	5.536101812229462e+17
19070.0	5.535091024112297e+17
19071.0	5.534110197306708e+17
19072.0	5.532851095207935e+17
19073.0	5.532138427733332e+17
19074.0	5.5311464713420794e+17
19075.0	5.5301555656239776e+17
19076.0	5.5291589451666765e+17
19077.0	5.5281597277361485e+17
19078.0	5.527157429589332e+17
19079.0	5.526188456585898e+17
19080.0	5.525191546721621e+17
19081.0	5.5241659247493114e+17
19082.0	5.523212785942528e+17
19083.0	5.522153655675562e+17
19084.0	5.521047230436692e+17
19085.0	5.520230338701993e+17
19086.0	5.518541465146708e+17
19087.0	5.5176107204280294e+17
19088.0	5.516820027015167e+17
19089.0	5.516123947313834e+17
19090.0	5.5152738506724685e+17
19091.0	5.514257530967382e+17
19092.0	5.512701707026433e+17
19093.0	5.51235147075857e+17
19094.0	5.5113669837236896e+17
19095.0	5.510380615543466e+17
19096.0	5.509394780039849e+17
19097.0	5.5084101594862925e+17
19098.0	5.507114059431935e+17
19099.0	5.5060609416997536e+17
19100.0	5.5054269446881274e+17
19101.0	5.504440936518996e+17
19102.0	5.503427424201386e+17
19103.0	5.502484277624831e+17
19104.0	5.5015077401941325e+17
19105.0	5.499838672841386e+17
19106.0	5.499522291597311e+17
19107.0	5.498360044366505e+17
19108.0	5.4972693477676365e+17
19109.0	5.4965141745172474e+17
19110.0	5.495550647817555e+17
19111.0	5.4943984676154003e+17
19112.0	5.4933831084059296e+17
19113.0	5.4926366565116576e+17
19114.0	5.491512148929193e+17
19115.0	5.4906058374294176e+17
19116.0	5.489637619400703e+17
19117.0	5.488591280362836e+17
19118.0	5.487035016719018e+17
19119.0	5.481372291781969e+17
19120.0	5.485353873965056e+17
19121.0	5.484673996161023e+17
19122.0	5.483762666176511e+17
19123.0	5.482798160805887e+17
19124.0	5.481767913215317e+17
19125.0	5.4807886851386016e+17
19126.0	5.4796548864737274e+17
19127.0	5.478274307544404e+17
19128.0	5.4776694665379834e+17
19129.0	5.4768011141884576e+17
19130.0	5.475930779331242e+17
19131.0	5.4749815796749645e+17
19132.0	5.474010934542335e+17
19133.0	5.473004219094356e+17
19134.0	5.4720539834449914e+17
19135.0	5.471078475016874e+17
19136.0	5.470093179879423e+17
19137.0	5.469085001318399e+17
19138.0	5.4681280352092154e+17
19139.0	5.4671706888164685e+17
19140.0	5.466200677023743e+17
19141.0	5.465225153915562e+17
19142.0	5.4642237337763834e+17
19143.0	5.463250422464511e+17
19144.0	5.462254883438591e+17
19145.0	5.461307674678613e+17
19146.0	5.459777563918336e+17
19147.0	5.4593327419009696e+17
19148.0	5.458141928663722e+17
19149.0	5.457123231487317e+17
19150.0	5.456435857063935e+17
19151.0	5.4554542613026125e+17
19152.0	5.454469832288938e+17
19153.0	5.4529638331842534e+17
19154.0	5.45245175410415e+17
19155.0	5.4515309771489274e+17
19156.0	5.450560466234025e+17
19157.0	5.449415421941077e+17
19158.0	5.448226120750421e+17
19159.0	5.447614484272467e+17
19160.0	5.4466293611014816e+17
19161.0	5.4456374501485216e+17
19162.0	5.4446089145330336e+17
19163.0	5.4436725976814925e+17
19164.0	5.4427393251956045e+17
19165.0	5.441221591127379e+17
19166.0	5.4407694353694714e+17
19167.0	5.439837172312747e+17
19168.0	5.43888764969506e+17
19169.0	5.4379217818746874e+17
19170.0	5.436955997940394e+17
19171.0	5.435979629679957e+17
19172.0	5.4350105860724045e+17
19173.0	5.4340420695490554e+17
19174.0	5.433056295561898e+17
19175.0	5.432095354650624e+17
19176.0	5.4311297105264634e+17
19177.0	5.4300293034147834e+17
19178.0	5.4291877016371194e+17
19179.0	5.428214679033172e+17
19180.0	5.4272351091206816e+17
19181.0	5.426216884502526e+17
19182.0	5.4252759846748154e+17
19183.0	5.424340904443902e+17
19184.0	5.423373563723775e+17
19185.0	5.422396643213312e+17
19186.0	5.421432431443968e+17
19187.0	5.420407502230867e+17
19188.0	5.4194836913957536e+17
19189.0	5.4185070365245434e+17
19190.0	5.417529416264362e+17
19191.0	5.416519917196628e+17
19192.0	5.4155557187092474e+17
19193.0	5.4144846661331616e+17
19194.0	5.4134210500580685e+17
19195.0	5.41250762571776e+17
19196.0	5.411423289780906e+17
19197.0	5.4102830556555936e+17
19198.0	5.4090151469165216e+17
19199.0	5.407506678065834e+17
19200.0	5.406620691464191e+17
19201.0	5.4061401514530125e+17
19202.0	5.40547061190929e+17
19203.0	5.4046669175521274e+17
19204.0	5.403815181636947e+17
19205.0	5.402907610447871e+17
19206.0	5.4019883413449376e+17
19207.0	5.400929318032724e+17
19208.0	5.400026951974911e+17
19209.0	5.399148159303679e+17
19210.0	5.3982085597102074e+17
19211.0	5.397266488273579e+17
19212.0	5.396301617998505e+17
19213.0	5.3952562841954976e+17
19214.0	5.3943409940889594e+17
19215.0	5.3934050239665485e+17
19216.0	5.392431558863529e+17
19217.0	5.391407072149504e+17
19218.0	5.390315650635092e+17
19219.0	5.389345492740777e+17
19220.0	5.3885387582122656e+17
19221.0	5.387568502450858e+17
19222.0	5.3866525461490336e+17
19223.0	5.385711924543487e+17
19224.0	5.3847329166677325e+17
19225.0	5.383795994438315e+17
19226.0	5.3828470331583136e+17
19227.0	5.381899815310676e+17
19228.0	5.380966686130174e+17
19229.0	5.3800083400949754e+17
19230.0	5.379045270574419e+17
19231.0	5.3780783590714016e+17
19232.0	5.3771284456843936e+17
19233.0	5.376124894139733e+17
19234.0	5.375210142302207e+17
19235.0	5.3742238125697696e+17
19236.0	5.3732958018382496e+17
19237.0	5.372332166785705e+17
19238.0	5.3713180791493965e+17
19239.0	5.3704232810141005e+17
19240.0	5.3694652243858765e+17
19241.0	5.368494838601044e+17
19242.0	5.367542640716458e+17
19243.0	5.366452387315711e+17
19244.0	5.3656372369162234e+17
19245.0	5.3646739269222394e+17
19246.0	5.363718374293502e+17
19247.0	5.3627564036805965e+17
19248.0	5.3618082232401914e+17
19249.0	5.360830900775594e+17
19250.0	5.3597688701474125e+17
19251.0	5.358759648602793e+17
19252.0	5.3577102351400954e+17
19253.0	5.357010038030335e+17
19254.0	5.3560717771188896e+17
19255.0	5.354939120702804e+17
19256.0	5.3541511976277325e+17
19257.0	5.3532011339448314e+17
19258.0	5.352244766223017e+17
19259.0	5.351199864433322e+17
19260.0	5.350197543217834e+17
19261.0	5.349338753182378e+17
19262.0	5.3483273659787936e+17
19263.0	5.3473249734601376e+17
19264.0	5.346255109270185e+17
19265.0	5.345370034230613e+17
19266.0	5.344404189478911e+17
19267.0	5.3436271198644896e+17
19268.0	5.342681110675455e+17
19269.0	5.3417250078938445e+17
19270.0	5.3407346187741856e+17
19271.0	5.339713739860651e+17
19272.0	5.3388402739554976e+17
19273.0	5.3377665803659936e+17
19274.0	5.3366236395165e+17
19275.0	5.3360271941085856e+17
19276.0	5.335060972568575e+17
19277.0	5.3341132807645856e+17
19278.0	5.333143860368725e+17
19279.0	5.332186716700671e+17
19280.0	5.331229603091796e+17
19281.0	5.330286157321557e+17
19282.0	5.329347589526868e+17
19283.0	5.3283829212774394e+17
19284.0	5.327397815582719e+17
19285.0	5.326412382732287e+17
19286.0	5.3253980399424845e+17
19287.0	5.3242760552338765e+17
19288.0	5.3218363523290445e+17
19289.0	5.3203984959842976e+17
19290.0	5.3213750781542394e+17
19291.0	5.320460951967062e+17
19292.0	5.3198015332788896e+17
19293.0	5.318881705634474e+17
19294.0	5.3179289715780256e+17
19295.0	5.317004691679913e+17
19296.0	5.315713624790357e+17
19297.0	5.315037637902335e+17
19298.0	5.314134235851434e+17
19299.0	5.312829597592234e+17
19300.0	5.3122511674190496e+17
19301.0	5.311310340991658e+17
19302.0	5.3103464717571405e+17
19303.0	5.309355551358975e+17
19304.0	5.3084476383341216e+17
19305.0	5.307482812099241e+17
19306.0	5.306531051121322e+17
19307.0	5.3055403760899405e+17
19308.0	5.304587623159125e+17
19309.0	5.3036110088328525e+17
19310.0	5.302623593474729e+17
19311.0	5.301639437789865e+17
19312.0	5.3006128630114976e+17
19313.0	5.2992195124264954e+17
19314.0	5.2856209699853664e+17
19315.0	5.2853669349731046e+17
19316.0	5.2959504614031366e+17
19317.0	5.295862538305535e+17
19318.0	5.295035035680766e+17
19319.0	5.294148046640468e+17
19320.0	5.2930865479898445e+17
19321.0	5.291971108492628e+17
19322.0	5.2913230521739936e+17
19323.0	5.290377321207123e+17
19324.0	5.289432894668798e+17
19325.0	5.2884914887284045e+17
19326.0	5.287552516183381e+17
19327.0	5.286604196631892e+17
19328.0	5.28505539465489e+17
19329.0	5.284717160387926e+17
19330.0	5.283763095339007e+17
19331.0	5.282781540821674e+17
19332.0	5.281874105947477e+17
19333.0	5.280910754709504e+17
19334.0	5.279964600816981e+17
19335.0	5.2777896710417075e+17
19336.0	5.2780576423280634e+17
19337.0	5.2771117072383994e+17
19338.0	5.275978753026729e+17
19339.0	5.2751880582157645e+17
19340.0	5.274099875403094e+17
19341.0	5.272710464667648e+17
19342.0	5.272048012798635e+17
19343.0	5.2712606971985914e+17
19344.0	5.269725965014357e+17
19345.0	5.2683978715081376e+17
19346.0	5.2677481891976525e+17
19347.0	5.2667733854126074e+17
19348.0	5.26653180678417e+17
19349.0	5.2655945154559994e+17
19350.0	5.264436528239957e+17
19351.0	5.2636982838995616e+17
19352.0	5.262123535958014e+17
19353.0	5.2618383086059514e+17
19354.0	5.260882091180032e+17
19355.0	5.2598322841518074e+17
19356.0	5.258959778043221e+17
19357.0	5.257999181064873e+17
19358.0	5.257032161209002e+17
19359.0	5.2559204888958285e+17
19360.0	5.254602559586302e+17
19361.0	5.254135498670079e+17
19362.0	5.2531800851524256e+17
19363.0	5.252215723087188e+17
19364.0	5.2512474358524576e+17
19365.0	5.2502745887102285e+17
19366.0	5.2493002337157114e+17
19367.0	5.2483262981515936e+17
19368.0	5.2473506345342285e+17
19369.0	5.2463564824248314e+17
19370.0	5.245377435402239e+17
19371.0	5.244365248484692e+17
19372.0	5.24342948598033e+17
19373.0	5.242433751919273e+17
19374.0	5.2414550124789754e+17
19375.0	5.240469490849108e+17
19376.0	5.239479365271551e+17
19377.0	5.238472191945386e+17
19378.0	5.2374733652841805e+17
19379.0	5.236466309398526e+17
19380.0	5.2354669172053325e+17
19381.0	5.234460373723817e+17
19382.0	5.233378023789909e+17
19383.0	5.232387009019902e+17
19384.0	5.231393974692522e+17
19385.0	5.2303725798795936e+17
19386.0	5.229345487803732e+17
19387.0	5.228297019457535e+17
19388.0	5.227226682010283e+17
19389.0	5.2260965806243834e+17
19390.0	5.2246798153373005e+17
19391.0	5.22124652655411e+17
19392.0	5.2218648501507405e+17
19393.0	5.221710616505002e+17
19394.0	5.220761949525333e+17
19395.0	5.2195354721211725e+17
19396.0	5.218602650522964e+17
19397.0	5.217540288544766e+17
19398.0	5.216189076733952e+17
19399.0	5.21484252689203e+17
19400.0	5.213832288228693e+17
19401.0	5.2129509062737914e+17
19402.0	5.2118360924269216e+17
19403.0	5.210651388892501e+17
19404.0	5.209460241509034e+17
19405.0	5.2082120599797766e+17
19406.0	5.2069534898585594e+17
19407.0	5.205390904000511e+17
19408.0	5.2041005746094074e+17
19409.0	5.202894408122366e+17
19410.0	5.201630020501502e+17
19411.0	5.2002562370437114e+17
19412.0	5.1988129406866765e+17
19413.0	5.19711363240209e+17
19414.0	5.195825902780415e+17
19415.0	5.1943046454968314e+17
19416.0	5.1926083885684045e+17
19417.0	5.1910828461042336e+17
19418.0	5.189336150573055e+17
19419.0	5.1875264279347194e+17
19420.0	5.1856348094136314e+17
19421.0	5.1836668601521485e+17
19422.0	5.181562881223338e+17
19423.0	5.179427260465151e+17
19424.0	5.177166064342357e+17
19425.0	5.1747745267275085e+17
19426.0	5.1722325939541325e+17
19427.0	5.169464152686591e+17
19428.0	5.166543461679102e+17
19429.0	5.1634411363368954e+17
19430.0	5.1598237616482976e+17
19431.0	5.155984746654379e+17
19432.0	5.1523009271999136e+17
19433.0	5.1480882982857376e+17
19434.0	5.143307378229247e+17
19435.0	5.1380417140708685e+17
19436.0	5.132099285680128e+17
19437.0	5.125079569181353e+17
19438.0	5.113244942685526e+17
19439.0	5.1082981889365325e+17
19440.0	5.101557041332223e+17
19441.0	5.0914711795575443e+17
19442.0	5.079552220288341e+17
19443.0	5.065681566782804e+17
19444.0	5.049623093007699e+17
19445.0	5.029984010414762e+17
19446.0	5.0061522819700045e+17
19447.0	4.97620440475238e+17
19448.0	4.936137265119233e+17
19449.0	4.878232904007681e+17
19450.0	4.7691718522306477e+17
19451.0	4.6719485216467674e+17
19452.0	4.8346528998577485e+17
19453.0	4.907627477729281e+17
19454.0	4.9528692672211603e+17
19455.0	4.985077803690666e+17
19456.0	5.00963546829073e+17
19457.0	5.0280429494381216e+17
19458.0	5.006458754869959e+17
19459.0	5.050078415465139e+17
19460.0	5.068869708982953e+17
19461.0	5.078901756439209e+17
19462.0	5.086706374716074e+17
19463.0	5.0934099287736314e+17
19464.0	5.099198791112021e+17
19465.0	5.1042183174335136e+17
19466.0	5.1084627713283405e+17
19467.0	5.1119455570930336e+17
19468.0	5.115036106227711e+17
19469.0	5.117219957287594e+17
19470.0	5.119913623901525e+17
19471.0	5.121933634961406e+17
19472.0	5.123612911250089e+17
19473.0	5.124967985315839e+17
19474.0	5.125586015311188e+17
19475.0	5.12665776553984e+17
19476.0	5.1277329292328934e+17
19477.0	5.1284408920965114e+17
19478.0	5.1289718133882874e+17
19479.0	5.128930266010964e+17
19480.0	5.129604323519145e+17
19481.0	5.1297725724317e+17
19482.0	5.129891602584915e+17
19483.0	5.129898546255188e+17
19484.0	5.1298434771408205e+17
19485.0	5.1296776944790176e+17
19486.0	5.129012827389953e+17
19487.0	5.129146644561918e+17
19488.0	5.128759850041343e+17
19489.0	5.128138126262271e+17
19490.0	5.127577291194367e+17
19491.0	5.127531997604522e+17
19492.0	5.127209273873749e+17
19493.0	5.1267473579704314e+17
19494.0	5.1262207617051296e+17
19495.0	5.12558490591778e+17
19496.0	5.124777410822143e+17
19497.0	5.1240089688910496e+17
19498.0	5.1215720055657805e+17
19499.0	5.118748876865536e+17
19500.0	5.121833608500564e+17
19501.0	5.1217062079146656e+17
19502.0	5.121172663784787e+17
19503.0	5.120549887235412e+17
19504.0	5.1198571706668365e+17
19505.0	5.1191323921394336e+17
19506.0	5.1184000925259085e+17
19507.0	5.117608498036736e+17
19508.0	5.116800472361642e+17
19509.0	5.115828311687167e+17
19510.0	5.1138836743673165e+17
19511.0	5.09618451749273e+17
19512.0	5.1106262268859725e+17
19513.0	5.1108605913115296e+17
19514.0	5.110521353207807e+17
19515.0	5.1110688902348794e+17
19516.0	5.110523173535743e+17
19517.0	5.1098729725296634e+17
19518.0	5.109010401329151e+17
19519.0	5.108217438797823e+17
19520.0	5.107093705064446e+17
19521.0	5.1067572058412365e+17
19522.0	5.105839541758633e+17
19523.0	5.104989845673301e+17
19524.0	5.1039370208433485e+17
19525.0	5.103443200267604e+17
19526.0	5.1026298436321274e+17
19527.0	5.1017896546358605e+17
19528.0	5.1009118637042336e+17
19529.0	5.100045455414612e+17
19530.0	5.099269602148352e+17
19531.0	5.0984219004545696e+17
19532.0	5.097572330897407e+17
19533.0	5.096745118378666e+17
19534.0	5.0958913034868045e+17
19535.0	5.095012967295658e+17
19536.0	5.0941278649931085e+17
19537.0	5.0932691259883514e+17
19538.0	5.0918815209007795e+17
19539.0	5.091385912852479e+17
19540.0	5.090654211626325e+17
19541.0	5.089736931322539e+17
19542.0	5.0889311768630605e+17
19543.0	5.087631362752511e+17
19544.0	5.0871298001906336e+17
19545.0	5.086029548967251e+17
19546.0	5.0851350870753274e+17
19547.0	5.0845550204245325e+17
19548.0	5.083757447654058e+17
19549.0	5.082822995869694e+17
19550.0	5.082052464476159e+17
19551.0	5.0811878660287136e+17
19552.0	5.0803186349725005e+17
19553.0	5.079439167018325e+17
19554.0	5.078566152699903e+17
19555.0	5.077641944804009e+17
19556.0	5.076801526519125e+17
19557.0	5.0759588691749536e+17
19558.0	5.0750903078092794e+17
19559.0	5.074218677611179e+17
19560.0	5.0731559038921376e+17
19561.0	5.07244069327121e+17
19562.0	5.071420992258047e+17
19563.0	5.0707141688470176e+17
19564.0	5.0698354230121805e+17
19565.0	5.0689587351825056e+17
19566.0	5.0680667702995616e+17
19567.0	5.067204983433898e+17
19568.0	5.0663098434628256e+17
19569.0	5.065439769351509e+17
19570.0	5.064570521518079e+17
19571.0	5.0636929151358285e+17
19572.0	5.0627897647431674e+17
19573.0	5.061880083819177e+17
19574.0	5.060957367697406e+17
19575.0	5.0601845168537594e+17
19576.0	5.059270775144446e+17
19577.0	5.058318222142122e+17
19578.0	5.05753096945664e+17
19579.0	5.056637844149589e+17
19580.0	5.055763042358613e+17
19581.0	5.0549026542933325e+17
19582.0	5.05403003773474e+17
19583.0	5.0531499350425594e+17
19584.0	5.052265030571349e+17
19585.0	5.0512786910522016e+17
19586.0	5.0503706494020256e+17
19587.0	5.0495672493451936e+17
19588.0	5.0485817913289363e+17
19589.0	5.047782591867562e+17
19590.0	5.046886314541055e+17
19591.0	5.0460896812946765e+17
19592.0	5.045227477794815e+17
19593.0	5.0442893357219834e+17
19594.0	5.043202966945791e+17
19595.0	5.042572432332115e+17
19596.0	5.0416850727949645e+17
19597.0	5.0407900460701e+17
19598.0	5.0396297904346445e+17
19599.0	5.039016141389823e+17
19600.0	5.038174043286187e+17
19601.0	5.0372481709506554e+17
19602.0	5.0363329633320954e+17
19603.0	5.035400743616511e+17
19604.0	5.0345786041084576e+17
19605.0	5.033594495959039e+17
19606.0	5.0328994424640845e+17
19607.0	5.0320420169755296e+17
19608.0	5.031154063944362e+17
19609.0	5.030261258103467e+17
19610.0	5.0291989415635616e+17
19611.0	5.0282142056666445e+17
19612.0	5.027654352764927e+17
19613.0	5.026762777952255e+17
19614.0	5.025853198390613e+17
19615.0	5.0249908005546656e+17
19616.0	5.023867020683946e+17
19617.0	5.0228216638122656e+17
19618.0	5.021957058374313e+17
19619.0	5.020947165042004e+17
19620.0	5.020169835380734e+17
19621.0	5.0191793323158176e+17
19622.0	5.018819823839914e+17
19623.0	5.0179341280433485e+17
19624.0	5.0170023934689274e+17
19625.0	5.0161961426834765e+17
19626.0	5.0152927084762445e+17
19627.0	5.0143723775153485e+17
19628.0	5.013399145196203e+17
19629.0	5.0112214919195296e+17
19630.0	5.0110912084486816e+17
19631.0	5.0099001701171194e+17
19632.0	5.009616823211349e+17
19633.0	5.008953524791977e+17
19634.0	5.0082302002899616e+17
19635.0	5.0073318069370874e+17
19636.0	5.006053806003539e+17
19637.0	5.0049191558949536e+17
19638.0	5.0047950806930765e+17
19639.0	5.0039352343920634e+17
19640.0	5.0027922488033274e+17
19641.0	5.001536750310741e+17
19642.0	5.001255127263914e+17
19643.0	5.0004110976832845e+17
19644.0	4.999526279894356e+17
19645.0	4.998644094031188e+17
19646.0	4.997309172897108e+17
19647.0	4.9969834893858125e+17
19648.0	4.996124323960149e+17
19649.0	4.99525431066624e+17
19650.0	4.994386858693973e+17
19651.0	4.9935095186500256e+17
19652.0	4.9926366056939514e+17
19653.0	4.9917683875621536e+17
19654.0	4.9908914977068365e+17
