# Flux units: erg / (cm m2 s)
# Wavelength units: Angstrom
wave	flux
19000.0	7.946558627293866e+17
19001.0	7.945095895930195e+17
19002.0	7.943741331472383e+17
19003.0	7.942328935951017e+17
19004.0	7.940907575803901e+17
19005.0	7.93950241825314e+17
19006.0	7.938103019481768e+17
19007.0	7.93672989802496e+17
19008.0	7.935606235594748e+17
19009.0	7.934171573911552e+17
19010.0	7.93261928297267e+17
19011.0	7.931345910453587e+17
19012.0	7.929619095923369e+17
19013.0	7.928538057408511e+17
19014.0	7.927082076078079e+17
19015.0	7.925670298517503e+17
19016.0	7.924244407123965e+17
19017.0	7.922829605470207e+17
19018.0	7.921405442129919e+17
19019.0	7.920003480638802e+17
19020.0	7.91856322794837e+17
19021.0	7.917147130254676e+17
19022.0	7.915713480796841e+17
19023.0	7.914251361801555e+17
19024.0	7.912821476032511e+17
19025.0	7.911344920242858e+17
19026.0	7.909876522374483e+17
19027.0	7.908173537083391e+17
19028.0	7.90705227379507e+17
19029.0	7.905622137765885e+17
19030.0	7.904188226863101e+17
19031.0	7.902739487697578e+17
19032.0	7.901283881058301e+17
19033.0	7.899762918774099e+17
19034.0	7.89827722219793e+17
19035.0	7.896161286706515e+17
19036.0	7.874043839512572e+17
19037.0	7.893834885234688e+17
19038.0	7.892859603298986e+17
19039.0	7.891494846682451e+17
19040.0	7.890067150340093e+17
19041.0	7.8886253639325e+17
19042.0	7.887112379214506e+17
19043.0	7.885727742995114e+17
19044.0	7.884272418772308e+17
19045.0	7.882801688870911e+17
19046.0	7.881338194143914e+17
19047.0	7.879880248481108e+17
19048.0	7.878350047543293e+17
19049.0	7.876880229203967e+17
19050.0	7.875382226539858e+17
19051.0	7.870767721786024e+17
19052.0	7.871399569915901e+17
19053.0	7.871053067277654e+17
19054.0	7.869667161582249e+17
19055.0	7.868074591343956e+17
19056.0	7.866751527507284e+17
19057.0	7.865299786618195e+17
19058.0	7.86380052985719e+17
19059.0	7.862371273233748e+17
19060.0	7.860907874975744e+17
19061.0	7.859451636394666e+17
19062.0	7.857983669141503e+17
19063.0	7.856516356199761e+17
19064.0	7.855001057624063e+17
19065.0	7.853482772703913e+17
19066.0	7.852071861966164e+17
19067.0	7.850647707014484e+17
19068.0	7.849178664621394e+17
19069.0	7.847708900808019e+17
19070.0	7.846226726049106e+17
19071.0	7.844753118855165e+17
19072.0	7.843285211720361e+17
19073.0	7.841822146210472e+17
19074.0	7.840351406522365e+17
19075.0	7.83887783567906e+17
19076.0	7.837395954521428e+17
19077.0	7.835921068064767e+17
19078.0	7.834443123960488e+17
19079.0	7.832977976677715e+17
19080.0	7.831498841391101e+17
19081.0	7.829997648259753e+17
19082.0	7.828525855801343e+17
19083.0	7.826990163121491e+17
19084.0	7.825433956100777e+17
19085.0	7.824074157151572e+17
19086.0	7.822280205795327e+17
19087.0	7.820752307530409e+17
19088.0	7.81940320825071e+17
19089.0	7.817838095324502e+17
19090.0	7.816587802662227e+17
19091.0	7.815155117894313e+17
19092.0	7.813602860509866e+17
19093.0	7.81224065962257e+17
19094.0	7.810780042188115e+17
19095.0	7.809305646465025e+17
19096.0	7.807822430120617e+17
19097.0	7.80634633989871e+17
19098.0	7.804857197002752e+17
19099.0	7.803372521040553e+17
19100.0	7.801856865949011e+17
19101.0	7.800393765486591e+17
19102.0	7.798884687063721e+17
19103.0	7.797437919221074e+17
19104.0	7.795945666947753e+17
19105.0	7.794420350975999e+17
19106.0	7.792893016145919e+17
19107.0	7.791412313587708e+17
19108.0	7.789817408520191e+17
19109.0	7.787049243377664e+17
19110.0	7.786572135705257e+17
19111.0	7.785443413546323e+17
19112.0	7.784014762300756e+17
19113.0	7.782549212364799e+17
19114.0	7.781061730413225e+17
19115.0	7.779509061986986e+17
19116.0	7.778066979181908e+17
19117.0	7.776563399491581e+17
19118.0	7.774983489060863e+17
19119.0	7.77215584589141e+17
19120.0	7.771897478163113e+17
19121.0	7.770460782242476e+17
19122.0	7.769130067995305e+17
19123.0	7.767642436446888e+17
19124.0	7.765984648975699e+17
19125.0	7.764640065563306e+17
19126.0	7.763120307044348e+17
19127.0	7.760887371442857e+17
19128.0	7.759750104088573e+17
19129.0	7.758615391065428e+17
19130.0	7.757164438705491e+17
19131.0	7.755664007539369e+17
19132.0	7.754175572082688e+17
19133.0	7.752596079684264e+17
19134.0	7.751000499333802e+17
19135.0	7.749674637896361e+17
19136.0	7.748176636630356e+17
19137.0	7.74661199066999e+17
19138.0	7.745164458065917e+17
19139.0	7.743675673083901e+17
19140.0	7.742175820731732e+17
19141.0	7.740673195944617e+17
19142.0	7.739146579738624e+17
19143.0	7.737641158748841e+17
19144.0	7.736100509799764e+17
19145.0	7.734616446205951e+17
19146.0	7.732774086989139e+17
19147.0	7.731570306362025e+17
19148.0	7.730079745791314e+17
19149.0	7.728571584522921e+17
19150.0	7.727075532210173e+17
19151.0	7.725566299996157e+17
19152.0	7.724024224983721e+17
19153.0	7.722509257758034e+17
19154.0	7.720960864725673e+17
19155.0	7.719471019982848e+17
19156.0	7.717921922307412e+17
19157.0	7.716218717514409e+17
19158.0	7.71421354660113e+17
19159.0	7.713232880577194e+17
19160.0	7.711789698864467e+17
19161.0	7.709999042833066e+17
19162.0	7.706330315882496e+17
19163.0	7.706338487784786e+17
19164.0	7.70535725413171e+17
19165.0	7.703873144400554e+17
19166.0	7.702323655256748e+17
19167.0	7.700694472938836e+17
19168.0	7.699336536260608e+17
19169.0	7.697854336335872e+17
19170.0	7.696349403283455e+17
19171.0	7.694774811230207e+17
19172.0	7.69328839463185e+17
19173.0	7.691798340173821e+17
19174.0	7.690268032980306e+17
19175.0	7.688766888782505e+17
19176.0	7.68723804819729e+17
19177.0	7.685613682338472e+17
19178.0	7.684098494212777e+17
19179.0	7.682533563039743e+17
19180.0	7.681092925871444e+17
19181.0	7.679541213746518e+17
19182.0	7.678046205815464e+17
19183.0	7.676532176715773e+17
19184.0	7.674990100305236e+17
19185.0	7.67346118841685e+17
19186.0	7.671923715954004e+17
19187.0	7.670331860145491e+17
19188.0	7.668830527204009e+17
19189.0	7.667270801162237e+17
19190.0	7.665702005637117e+17
19191.0	7.664134567668393e+17
19192.0	7.662603926328658e+17
19193.0	7.661016605960874e+17
19194.0	7.659405157160275e+17
19195.0	7.657758610423807e+17
19196.0	7.655991046832127e+17
19197.0	7.653939449167872e+17
19198.0	7.650697319284735e+17
19199.0	7.63642575532851e+17
19200.0	7.63698420453649e+17
19201.0	7.6461675394717e+17
19202.0	7.645881219503444e+17
19203.0	7.644744877692244e+17
19204.0	7.64343016890914e+17
19205.0	7.642000611693906e+17
19206.0	7.640501777159508e+17
19207.0	7.638926270747987e+17
19208.0	7.637365584210602e+17
19209.0	7.635900962613928e+17
19210.0	7.634357362272936e+17
19211.0	7.632796222750719e+17
19212.0	7.631218353547944e+17
19213.0	7.62951306138965e+17
19214.0	7.627886062906024e+17
19215.0	7.626456558818642e+17
19216.0	7.624955567013887e+17
19217.0	7.62337991659793e+17
19218.0	7.621476821062994e+17
19219.0	7.620134856294399e+17
19220.0	7.618652446654463e+17
19221.0	7.616970546129577e+17
19222.0	7.615496368510291e+17
19223.0	7.613935423324157e+17
19224.0	7.61232152924433e+17
19225.0	7.610708457248084e+17
19226.0	7.609161716771498e+17
19227.0	7.607570299966803e+17
19228.0	7.60584041660416e+17
19229.0	7.603908346817194e+17
19230.0	7.602295277617151e+17
19231.0	7.600692929058132e+17
19232.0	7.599100775454034e+17
19233.0	7.597460002876072e+17
19234.0	7.595888063021055e+17
19235.0	7.594274307353258e+17
19236.0	7.592674286632957e+17
19237.0	7.591051667002708e+17
19238.0	7.589375469333161e+17
19239.0	7.587820524797952e+17
19240.0	7.586195065623891e+17
19241.0	7.584561813433002e+17
19242.0	7.582939884464809e+17
19243.0	7.581220203047594e+17
19244.0	7.579684302050644e+17
19245.0	7.578046596907008e+17
19246.0	7.576202821413545e+17
19247.0	7.573944350889302e+17
19248.0	7.572263364722688e+17
19249.0	7.570605229124268e+17
19250.0	7.568953200432467e+17
19251.0	7.567254827477676e+17
19252.0	7.565480457928701e+17
19253.0	7.563980521690451e+17
19254.0	7.562327749208745e+17
19255.0	7.560548849811455e+17
19256.0	7.558966907939496e+17
19257.0	7.557314979910995e+17
19258.0	7.555635994427391e+17
19259.0	7.553900657071444e+17
19260.0	7.551850706370557e+17
19261.0	7.550181514586793e+17
19262.0	7.548466850955263e+17
19263.0	7.546751707774973e+17
19264.0	7.544863360811007e+17
19265.0	7.543301636882432e+17
19266.0	7.541612463434409e+17
19267.0	7.539973902652756e+17
19268.0	7.538257471821139e+17
19269.0	7.536535314366463e+17
19270.0	7.534797352774314e+17
19271.0	7.532938135251625e+17
19272.0	7.531322578829311e+17
19273.0	7.529265525773651e+17
19274.0	7.527517739723433e+17
19275.0	7.52611887223057e+17
19276.0	7.524361987336874e+17
19277.0	7.522607154855935e+17
19278.0	7.520852118252202e+17
19279.0	7.519051195962708e+17
19280.0	7.516930122448893e+17
19281.0	7.515105047958868e+17
19282.0	7.513302832425641e+17
19283.0	7.511415521454762e+17
19284.0	7.509541067423743e+17
19285.0	7.507842119849299e+17
19286.0	7.506036413257046e+17
19287.0	7.504109140355753e+17
19288.0	7.49558400915865e+17
19289.0	7.486863185717912e+17
19290.0	7.498565855914666e+17
19291.0	7.496744970136234e+17
19292.0	7.495071988099753e+17
19293.0	7.493220107812863e+17
19294.0	7.491355732694356e+17
19295.0	7.489477939997352e+17
19296.0	7.487579382699347e+17
19297.0	7.485676845006845e+17
19298.0	7.48377313850163e+17
19299.0	7.481853708948819e+17
19300.0	7.479504417761961e+17
19301.0	7.477385167372287e+17
19302.0	7.475430614717782e+17
19303.0	7.473441819765417e+17
19304.0	7.471495648728404e+17
19305.0	7.469514097339049e+17
19306.0	7.467513675775999e+17
19307.0	7.465478786820777e+17
19308.0	7.463420289526441e+17
19309.0	7.460945276873385e+17
19310.0	7.458670707212287e+17
19311.0	7.457173009334271e+17
19312.0	7.455258640908287e+17
19313.0	7.453102988154195e+17
19314.0	7.43709337033113e+17
19315.0	7.435674846931644e+17
19316.0	7.44573489066803e+17
19317.0	7.443749537841148e+17
19318.0	7.441639689682944e+17
19319.0	7.439509612396543e+17
19320.0	7.437339609530368e+17
19321.0	7.435141735514111e+17
19322.0	7.43284948686165e+17
19323.0	7.430565622622889e+17
19324.0	7.428420854087679e+17
19325.0	7.425207898385068e+17
19326.0	7.422785265598463e+17
19327.0	7.420581663561046e+17
19328.0	7.41830842768862e+17
19329.0	7.416037217665023e+17
19330.0	7.413712127612244e+17
19331.0	7.411370847546025e+17
19332.0	7.409047871422461e+17
19333.0	7.406670386124116e+17
19334.0	7.402881648951296e+17
19335.0	7.400333623252306e+17
19336.0	7.397939494955689e+17
19337.0	7.395493044114774e+17
19338.0	7.392886721784489e+17
19339.0	7.390481252089855e+17
19340.0	7.387916082872319e+17
19341.0	7.384588007505917e+17
19342.0	7.380709870141437e+17
19343.0	7.378080858024617e+17
19344.0	7.375233683379539e+17
19345.0	7.371808860798972e+17
19346.0	7.36945477132834e+17
19347.0	7.367138306162687e+17
19348.0	7.362693592427178e+17
19349.0	7.359364580332884e+17
19350.0	7.356566632835753e+17
19351.0	7.353729204355071e+17
19352.0	7.350816818069501e+17
19353.0	7.347944659353597e+17
19354.0	7.342344613396476e+17
19355.0	7.339325839988051e+17
19356.0	7.336370618673833e+17
19357.0	7.333327799320575e+17
19358.0	7.330145466231464e+17
19359.0	7.325363749956266e+17
19360.0	7.321587274132138e+17
19361.0	7.318354896005802e+17
19362.0	7.315075801721513e+17
19363.0	7.311740554095274e+17
19364.0	7.308361415873875e+17
19365.0	7.304942072452436e+17
19366.0	7.30148201911637e+17
19367.0	7.297976969286995e+17
19368.0	7.294421085891241e+17
19369.0	7.289909874262015e+17
19370.0	7.285933267222527e+17
19371.0	7.282246996896425e+17
19372.0	7.278528971494739e+17
19373.0	7.274725017387008e+17
19374.0	7.270892028908884e+17
19375.0	7.266999368067752e+17
19376.0	7.2630604412573e+17
19377.0	7.257551881459028e+17
19378.0	7.25318325379618e+17
19379.0	7.248868799763795e+17
19380.0	7.244459133632511e+17
19381.0	7.239958367218345e+17
19382.0	7.235321460686845e+17
19383.0	7.229521838560595e+17
19384.0	7.223503609309866e+17
19385.0	7.218603603875156e+17
19386.0	7.213618666580649e+17
19387.0	7.208514057404415e+17
19388.0	7.203281330416297e+17
19389.0	7.1950916414778e+17
19390.0	7.189322896419497e+17
19391.0	7.168016655581165e+17
19392.0	7.177036577636348e+17
19393.0	7.172276046790655e+17
19394.0	7.163151955001341e+17
19395.0	7.156577159785129e+17
19396.0	7.150214818649428e+17
19397.0	7.143489603108863e+17
19398.0	7.135196851732479e+17
19399.0	7.125249158021117e+17
19400.0	7.118343376295251e+17
19401.0	7.111125446077096e+17
19402.0	7.103681405124607e+17
19403.0	7.092939336799572e+17
19404.0	7.08399032504593e+17
19405.0	7.075859181600768e+17
19406.0	7.067207613109587e+17
19407.0	7.05846377552281e+17
19408.0	7.045411989269162e+17
19409.0	7.036647582815572e+17
19410.0	7.027369529311231e+17
19411.0	7.017106906983081e+17
19412.0	7.006556368754004e+17
19413.0	6.992925019865082e+17
19414.0	6.981273850129065e+17
19415.0	6.970229180246697e+17
19416.0	6.957604269981695e+17
19417.0	6.944658180887892e+17
19418.0	6.932158702682111e+17
19419.0	6.91902488912418e+17
19420.0	6.905395141061289e+17
19421.0	6.889616263086081e+17
19422.0	6.874763994245801e+17
19423.0	6.859427929216338e+17
19424.0	6.843045535634772e+17
19425.0	6.825660527935487e+17
19426.0	6.805849585134249e+17
19427.0	6.786112901087231e+17
19428.0	6.765752019320831e+17
19429.0	6.744398735867901e+17
19430.0	6.721238481240064e+17
19431.0	6.695950758182913e+17
19432.0	6.672961398374397e+17
19433.0	6.646604521362772e+17
19434.0	6.617456934824617e+17
19435.0	6.58602853610291e+17
19436.0	6.552689740961108e+17
19437.0	6.518234821252436e+17
19438.0	6.463901740127572e+17
19439.0	6.437867372937217e+17
19440.0	6.394657850261503e+17
19441.0	6.345900565725181e+17
19442.0	6.292672706772992e+17
19443.0	6.233826016275114e+17
19444.0	6.168547631125841e+17
19445.0	6.095502009434115e+17
19446.0	6.012736997687295e+17
19447.0	5.917821171138555e+17
19448.0	5.806770175868932e+17
19449.0	5.672932335768916e+17
19450.0	5.5005225939544646e+17
19451.0	5.402070157535916e+17
19452.0	5.5938580004645536e+17
19453.0	5.741274309765807e+17
19454.0	5.860126619598843e+17
19455.0	5.960056365383679e+17
19456.0	6.046053260328961e+17
19457.0	6.121209893399206e+17
19458.0	6.172564963459096e+17
19459.0	6.24670996465801e+17
19460.0	6.30072200746325e+17
19461.0	6.349195778719744e+17
19462.0	6.393478383315628e+17
19463.0	6.433457497789778e+17
19464.0	6.470604218346153e+17
19465.0	6.504779909955584e+17
19466.0	6.53599184344405e+17
19467.0	6.565340794322943e+17
19468.0	6.592997104462508e+17
19469.0	6.617825850425343e+17
19470.0	6.641228108005375e+17
19471.0	6.662945910030336e+17
19472.0	6.683434927084883e+17
19473.0	6.702726169056595e+17
19474.0	6.720856287171924e+17
19475.0	6.737928479484584e+17
19476.0	6.755655301988353e+17
19477.0	6.771318847788372e+17
19478.0	6.785559889794387e+17
19479.0	6.798762866027177e+17
19480.0	6.810986556162045e+17
19481.0	6.82401914298914e+17
19482.0	6.835772627178835e+17
19483.0	6.846494648128852e+17
19484.0	6.856702633355946e+17
19485.0	6.86645951210018e+17
19486.0	6.877226171629568e+17
19487.0	6.885856880448852e+17
19488.0	6.893942968680447e+17
19489.0	6.905398251137706e+17
19490.0	6.913017023998633e+17
19491.0	6.921672498085887e+17
19492.0	6.928446367552852e+17
19493.0	6.934877219848191e+17
19494.0	6.943440029876223e+17
19495.0	6.951187517538304e+17
19496.0	6.956677075042301e+17
19497.0	6.962516724110676e+17
19498.0	6.964320777448104e+17
19499.0	6.952655268085748e+17
19500.0	6.981397879892649e+17
19501.0	6.986319061669204e+17
19502.0	6.990819813403306e+17
19503.0	6.99619308942131e+17
19504.0	7.003196230030676e+17
19505.0	7.00751309508881e+17
19506.0	7.011246115127296e+17
19507.0	7.014777846322516e+17
19508.0	7.020553043618474e+17
19509.0	7.024694248428884e+17
19510.0	7.027451158855679e+17
19511.0	7.004810180733594e+17
19512.0	7.028413806848677e+17
19513.0	7.030279846406817e+17
19514.0	7.035565353817423e+17
19515.0	7.04337556939298e+17
19516.0	7.046080383767892e+17
19517.0	7.048284122819241e+17
19518.0	7.050668798552748e+17
19519.0	7.05467067207953e+17
19520.0	7.056542862584489e+17
19521.0	7.058357389798058e+17
19522.0	7.060041750981289e+17
19523.0	7.061660425169577e+17
19524.0	7.063145979139411e+17
19525.0	7.065557203419135e+17
19526.0	7.067306895081471e+17
19527.0	7.068470799062356e+17
19528.0	7.069578931382953e+17
19529.0	7.070646202793981e+17
19530.0	7.071663584357033e+17
19531.0	7.07262958150178e+17
19532.0	7.073547446211923e+17
19533.0	7.07526051041553e+17
19534.0	7.076353870397439e+17
19535.0	7.077116853441875e+17
19536.0	7.077825465723561e+17
19537.0	7.078519662182399e+17
19538.0	7.07907718165299e+17
19539.0	7.079548741659306e+17
19540.0	7.080288862950739e+17
19541.0	7.080816552531284e+17
19542.0	7.081331997540351e+17
19543.0	7.083297874815658e+17
19544.0	7.084157911258451e+17
19545.0	7.084236259459071e+17
19546.0	7.084372539386538e+17
19547.0	7.084945718990164e+17
19548.0	7.08680803610351e+17
19549.0	7.087757509088595e+17
19550.0	7.087937648852991e+17
19551.0	7.088030610008745e+17
19552.0	7.088088091546964e+17
19553.0	7.088103500021759e+17
19554.0	7.089951831927466e+17
19555.0	7.090196777882964e+17
19556.0	7.090145186545663e+17
19557.0	7.090053752116563e+17
19558.0	7.08993606553873e+17
19559.0	7.089967255781377e+17
19560.0	7.090271043627689e+17
19561.0	7.091509142050131e+17
19562.0	7.091302688620543e+17
19563.0	7.091066480798377e+17
19564.0	7.090800858322259e+17
19565.0	7.090508938958164e+17
19566.0	7.090171476443135e+17
19567.0	7.08982598603025e+17
19568.0	7.090277298733056e+17
19569.0	7.090467036463101e+17
19570.0	7.09006512567091e+17
19571.0	7.089640739001684e+17
19572.0	7.089183281643519e+17
19573.0	7.088736859499177e+17
19574.0	7.088217432697514e+17
19575.0	7.087781089465683e+17
19576.0	7.087275548606463e+17
19577.0	7.087512856734378e+17
19578.0	7.087267793338368e+17
19579.0	7.086719959913811e+17
19580.0	7.08615720874803e+17
19581.0	7.085584812081151e+17
19582.0	7.084998536462335e+17
19583.0	7.08439159410961e+17
19584.0	7.083759581003773e+17
19585.0	7.083071662019926e+17
19586.0	7.082390744727551e+17
19587.0	7.081762787513683e+17
19588.0	7.081480956848808e+17
19589.0	7.08123566416418e+17
19590.0	7.080556786701654e+17
19591.0	7.079988596921684e+17
19592.0	7.0792739042973e+17
19593.0	7.078535155941373e+17
19594.0	7.077671773842089e+17
19595.0	7.077037557328553e+17
19596.0	7.075422547563862e+17
19597.0	7.075484269543423e+17
19598.0	7.074569818996735e+17
19599.0	7.073910970733908e+17
19600.0	7.073101878307497e+17
19601.0	7.072245935505407e+17
19602.0	7.071494895042559e+17
19603.0	7.070763244847101e+17
19604.0	7.070182627344383e+17
19605.0	7.069289103578454e+17
19606.0	7.068580796082858e+17
19607.0	7.067713488115028e+17
19608.0	7.066829598665385e+17
19609.0	7.065920044269568e+17
19610.0	7.065041143245481e+17
19611.0	7.06413344133393e+17
19612.0	7.063233809263274e+17
19613.0	7.062308261986304e+17
19614.0	7.061364013705897e+17
19615.0	7.060439260550483e+17
19616.0	7.059346978504701e+17
19617.0	7.058546227150847e+17
19618.0	7.057337047056383e+17
19619.0	7.056305786541395e+17
19620.0	7.055386792165373e+17
19621.0	7.054679845022377e+17
19622.0	7.053719469643091e+17
19623.0	7.052772594330281e+17
19624.0	7.052066295906304e+17
19625.0	7.051054557080233e+17
19626.0	7.050022144529748e+17
19627.0	7.048914746212351e+17
19628.0	7.04748493733888e+17
19629.0	7.046325087851859e+17
19630.0	7.041256516135593e+17
19631.0	7.02909616348638e+17
19632.0	7.042802749101398e+17
19633.0	7.042593900724224e+17
19634.0	7.041780744017236e+17
19635.0	7.040788779936425e+17
19636.0	7.039792629940223e+17
19637.0	7.038544124051455e+17
19638.0	7.037737201478313e+17
19639.0	7.036687741179219e+17
19640.0	7.036094174461952e+17
19641.0	7.034999295442943e+17
19642.0	7.034234982105087e+17
19643.0	7.033163524778665e+17
19644.0	7.032058171883519e+17
19645.0	7.030910565569876e+17
19646.0	7.029931106806442e+17
19647.0	7.028868667932671e+17
19648.0	7.027785259636052e+17
19649.0	7.026696727997098e+17
19650.0	7.02560687235618e+17
19651.0	7.024512847577087e+17
19652.0	7.023415562425684e+17
19653.0	7.022463909800617e+17
19654.0	7.021732298751999e+17
19655.0	7.020624999000745e+17
19656.0	7.019516353576959e+17
19657.0	7.018555532203348e+17
19658.0	7.017479802978301e+17
19659.0	7.016362915048106e+17
19660.0	7.015244376659284e+17
19661.0	7.014121310519296e+17
19662.0	7.012992744248659e+17
19663.0	7.011827846916778e+17
19664.0	7.010685166114132e+17
19665.0	7.009601455827625e+17
