# Flux units: erg / (cm m2 s)
# Wavelength units: Angstrom
wave	flux
19000.0	6.438075473330175e+17
19001.0	6.436803970072575e+17
19002.0	6.435712854742355e+17
19003.0	6.434526765689514e+17
19004.0	6.433347160331603e+17
19005.0	6.432158475703636e+17
19006.0	6.430980916467028e+17
19007.0	6.429791809612457e+17
19008.0	6.428569218930004e+17
19009.0	6.427282281332733e+17
19010.0	6.425932473215657e+17
19011.0	6.425019869560831e+17
19012.0	6.423693715920212e+17
19013.0	6.422699031833257e+17
19014.0	6.42147300741393e+17
19015.0	6.420305818593961e+17
19016.0	6.419132673163263e+17
19017.0	6.417977792528383e+17
19018.0	6.416790932422655e+17
19019.0	6.415617138272937e+17
19020.0	6.414425435843241e+17
19021.0	6.413261640215209e+17
19022.0	6.412076267689302e+17
19023.0	6.410863571369983e+17
19024.0	6.409697129835177e+17
19025.0	6.408519512577363e+17
19026.0	6.407309770446164e+17
19027.0	6.406048585176404e+17
19028.0	6.404983526260736e+17
19029.0	6.403797947514879e+17
19030.0	6.402644241285119e+17
19031.0	6.401461053292544e+17
19032.0	6.400269441739434e+17
19033.0	6.398992604026198e+17
19034.0	6.397821952808276e+17
19035.0	6.396142773687636e+17
19036.0	6.386323163534675e+17
19037.0	6.393937261843796e+17
19038.0	6.393109127976276e+17
19039.0	6.392007607276884e+17
19040.0	6.390848191201279e+17
19041.0	6.389671294664703e+17
19042.0	6.388276178976767e+17
19043.0	6.387330403270655e+17
19044.0	6.386143291506687e+17
19045.0	6.384966258655231e+17
19046.0	6.383760064206166e+17
19047.0	6.38257158160384e+17
19048.0	6.381272885275306e+17
19049.0	6.379879454998527e+17
19050.0	6.378959893692415e+17
19051.0	6.37658063909683e+17
19052.0	6.376130636414975e+17
19053.0	6.375510564492628e+17
19054.0	6.37437636317457e+17
19055.0	6.372941344276479e+17
19056.0	6.372001040039936e+17
19057.0	6.370862284406783e+17
19058.0	6.369531612102655e+17
19059.0	6.3684567643805e+17
19060.0	6.367334462302889e+17
19061.0	6.366172893151231e+17
19062.0	6.364995430383615e+17
19063.0	6.363818307354623e+17
19064.0	6.362561152811008e+17
19065.0	6.361321575197353e+17
19066.0	6.360193498961236e+17
19067.0	6.359119546023936e+17
19068.0	6.357959043623593e+17
19069.0	6.356786535028052e+17
19070.0	6.355590138473129e+17
19071.0	6.354429429852841e+17
19072.0	6.353212309940906e+17
19073.0	6.352094994890751e+17
19074.0	6.350925459357695e+17
19075.0	6.349752878759935e+17
19076.0	6.348569851549012e+17
19077.0	6.347392333556394e+17
19078.0	6.346212064100351e+17
19079.0	6.345065342085801e+17
19080.0	6.343882673487871e+17
19081.0	6.342679878522195e+17
19082.0	6.341527232752297e+17
19083.0	6.340282442317823e+17
19084.0	6.339000110765395e+17
19085.0	6.338018743593641e+17
19086.0	6.336406362259455e+17
19087.0	6.335430789518676e+17
19088.0	6.334293814367572e+17
19089.0	6.333106575376383e+17
19090.0	6.332120688143017e+17
19091.0	6.330968184280404e+17
19092.0	6.32965562437905e+17
19093.0	6.328674282373119e+17
19094.0	6.327515851259903e+17
19095.0	6.326350763786239e+17
19096.0	6.325175125540863e+17
19097.0	6.324013427763882e+17
19098.0	6.322785482353321e+17
19099.0	6.321605935016618e+17
19100.0	6.320488913567743e+17
19101.0	6.319328973903188e+17
19102.0	6.318099591244457e+17
19103.0	6.317008227052201e+17
19104.0	6.315843914126675e+17
19105.0	6.314528123912191e+17
19106.0	6.313481557682857e+17
19107.0	6.312274511091028e+17
19108.0	6.311050813112319e+17
19109.0	6.309589373594282e+17
19110.0	6.308678837731327e+17
19111.0	6.307607058142548e+17
19112.0	6.306460083071657e+17
19113.0	6.305348945532244e+17
19114.0	6.304155014529024e+17
19115.0	6.302963442821801e+17
19116.0	6.301831753192788e+17
19117.0	6.300656799318015e+17
19118.0	6.299332506550272e+17
19119.0	6.293798690750458e+17
19120.0	6.297046753476607e+17
19121.0	6.295959524868095e+17
19122.0	6.294872886258346e+17
19123.0	6.29371550442018e+17
19124.0	6.292485226277546e+17
19125.0	6.29137229357602e+17
19126.0	6.290122504929279e+17
19127.0	6.287833803259903e+17
19128.0	6.287743679550803e+17
19129.0	6.286651089922729e+17
19130.0	6.285568269527721e+17
19131.0	6.284423492971177e+17
19132.0	6.283261771426472e+17
19133.0	6.282058182339241e+17
19134.0	6.280920417959935e+17
19135.0	6.27977964626466e+17
19136.0	6.278615672378708e+17
19137.0	6.277360355639295e+17
19138.0	6.276271038966442e+17
19139.0	6.275133514361514e+17
19140.0	6.273977991998121e+17
19141.0	6.272819158231721e+17
19142.0	6.271636291802451e+17
19143.0	6.270463358184106e+17
19144.0	6.269299205341183e+17
19145.0	6.268180940980224e+17
19146.0	6.266462221456724e+17
19147.0	6.265807993219753e+17
19148.0	6.264652701543082e+17
19149.0	6.263482058014719e+17
19150.0	6.262387295737171e+17
19151.0	6.261225402226003e+17
19152.0	6.260057761120255e+17
19153.0	6.258783429503658e+17
19154.0	6.257663512586921e+17
19155.0	6.256575555567615e+17
19156.0	6.255409358001492e+17
19157.0	6.254153644201302e+17
19158.0	6.252827194163199e+17
19159.0	6.251875853314729e+17
19160.0	6.250746961286484e+17
19161.0	6.249529710652073e+17
19162.0	6.247823712452608e+17
19163.0	6.247080125967018e+17
19164.0	6.246132209068714e+17
19165.0	6.244880953813674e+17
19166.0	6.243759404613631e+17
19167.0	6.242646118891519e+17
19168.0	6.241539590193151e+17
19169.0	6.240399124682067e+17
19170.0	6.239251296070313e+17
19171.0	6.238081074069503e+17
19172.0	6.236936624668671e+17
19173.0	6.235795910295551e+17
19174.0	6.234612728594431e+17
19175.0	6.233491080828244e+17
19176.0	6.232337898886484e+17
19177.0	6.231029559154004e+17
19178.0	6.229980531567274e+17
19179.0	6.228815678974633e+17
19180.0	6.227686509423274e+17
19181.0	6.226461532181843e+17
19182.0	6.225379424119465e+17
19183.0	6.224251984019455e+17
19184.0	6.223097962517844e+17
19185.0	6.221938481430527e+17
19186.0	6.220792835254953e+17
19187.0	6.219579510489087e+17
19188.0	6.218482478394025e+17
19189.0	6.217328569439572e+17
19190.0	6.216166407492948e+17
19191.0	6.214980468036948e+17
19192.0	6.213851587892564e+17
19193.0	6.212663560372223e+17
19194.0	6.211469260270249e+17
19195.0	6.210306377602388e+17
19196.0	6.209050684773716e+17
19197.0	6.207690113373524e+17
19198.0	6.205797871998292e+17
19199.0	6.200584784139603e+17
19200.0	6.200014497207638e+17
19201.0	6.202452151194963e+17
19202.0	6.201970578685952e+17
19203.0	6.201001732909738e+17
19204.0	6.19994812654114e+17
19205.0	6.198844984044202e+17
19206.0	6.197726793083562e+17
19207.0	6.196476183751337e+17
19208.0	6.195304639845715e+17
19209.0	6.194302695418537e+17
19210.0	6.193160833204223e+17
19211.0	6.192027291789993e+17
19212.0	6.190873150051668e+17
19213.0	6.189617806049279e+17
19214.0	6.188468828198228e+17
19215.0	6.187404271200937e+17
19216.0	6.186276728340479e+17
19217.0	6.185083404113238e+17
19218.0	6.183475116419753e+17
19219.0	6.182637951516672e+17
19220.0	6.181655468660052e+17
19221.0	6.180363375564116e+17
19222.0	6.179356048446803e+17
19223.0	6.178239639366314e+17
19224.0	6.177063005672788e+17
19225.0	6.175881479323647e+17
19226.0	6.174799529246719e+17
19227.0	6.173657570563412e+17
19228.0	6.172536382073513e+17
19229.0	6.171388168284841e+17
19230.0	6.170239997837312e+17
19231.0	6.16908159119087e+17
19232.0	6.167939491299328e+17
19233.0	6.16673917936162e+17
19234.0	6.165639155329705e+17
19235.0	6.16447666692642e+17
19236.0	6.163355390356137e+17
19237.0	6.16219811197747e+17
19238.0	6.160980732018687e+17
19239.0	6.159914834941267e+17
19240.0	6.158767755012777e+17
19241.0	6.157602513048916e+17
19242.0	6.156460282434899e+17
19243.0	6.155181359453524e+17
19244.0	6.154181374465363e+17
19245.0	6.153027313117866e+17
19246.0	6.151875596386303e+17
19247.0	6.15073546641954e+17
19248.0	6.149590142506326e+17
19249.0	6.148431275185491e+17
19250.0	6.147251686604799e+17
19251.0	6.146037098654377e+17
19252.0	6.144707670660436e+17
19253.0	6.143794832823636e+17
19254.0	6.142667498979327e+17
19255.0	6.141339027286697e+17
19256.0	6.140353983108436e+17
19257.0	6.139221320400895e+17
19258.0	6.138070620089002e+17
19259.0	6.136842894879402e+17
19260.0	6.135543806383443e+17
19261.0	6.134600004796413e+17
19262.0	6.133406913353043e+17
19263.0	6.132213250785279e+17
19264.0	6.130769502841513e+17
19265.0	6.129840696590335e+17
19266.0	6.128678596160169e+17
19267.0	6.127715681129812e+17
19268.0	6.12656114512691e+17
19269.0	6.125410498641919e+17
19270.0	6.124229703499776e+17
19271.0	6.122879004093097e+17
19272.0	6.121919363416063e+17
19273.0	6.120551646319956e+17
19274.0	6.119260042559485e+17
19275.0	6.118499035731284e+17
19276.0	6.117331823143593e+17
19277.0	6.116182980908372e+17
19278.0	6.115026196758527e+17
19279.0	6.113852054481577e+17
19280.0	6.112664879103999e+17
19281.0	6.111545041879039e+17
19282.0	6.110397849403392e+17
19283.0	6.109209185047892e+17
19284.0	6.107978536408404e+17
19285.0	6.106777245799763e+17
19286.0	6.105639936502441e+17
19287.0	6.104420444012544e+17
19288.0	6.10007040480597e+17
19289.0	6.0962986594577e+17
19290.0	6.100913599720106e+17
19291.0	6.099659647527594e+17
19292.0	6.098759862364842e+17
19293.0	6.097608368630441e+17
19294.0	6.096443887233705e+17
19295.0	6.095294667511124e+17
19296.0	6.094055598806355e+17
19297.0	6.092933534405972e+17
19298.0	6.091777596107434e+17
19299.0	6.090555406680063e+17
19300.0	6.089461695075668e+17
19301.0	6.088295503101951e+17
19302.0	6.087083091995306e+17
19303.0	6.085858548864339e+17
19304.0	6.084712416149501e+17
19305.0	6.08353343644194e+17
19306.0	6.082361373141674e+17
19307.0	6.081143352153427e+17
19308.0	6.079958058620244e+17
19309.0	6.078642225763667e+17
19310.0	6.07738322223104e+17
19311.0	6.076358773964799e+17
19312.0	6.075230095147005e+17
19313.0	6.073960719100586e+17
19314.0	6.059231882335567e+17
19315.0	6.059189338112017e+17
19316.0	6.070285888039594e+17
19317.0	6.069311951776425e+17
19318.0	6.068153598257833e+17
19319.0	6.066991653016916e+17
19320.0	6.065772191285247e+17
19321.0	6.06453509460241e+17
19322.0	6.063339061553833e+17
19323.0	6.062139551427242e+17
19324.0	6.060957000968873e+17
19325.0	6.059704823666003e+17
19326.0	6.058563754175146e+17
19327.0	6.057376887078912e+17
19328.0	6.056058235650047e+17
19329.0	6.054976679138644e+17
19330.0	6.053741374122665e+17
19331.0	6.052499132426921e+17
19332.0	6.051324511999316e+17
19333.0	6.050089193701376e+17
19334.0	6.048870981872298e+17
19335.0	6.047380888267434e+17
19336.0	6.046358379866794e+17
19337.0	6.045124649112916e+17
19338.0	6.043700555677695e+17
19339.0	6.042634584500905e+17
19340.0	6.041282767312212e+17
19341.0	6.039964430456148e+17
19342.0	6.038596883928403e+17
19343.0	6.037581322693289e+17
19344.0	6.036185582753108e+17
19345.0	6.03365428114227e+17
19346.0	6.032881565914452e+17
19347.0	6.032318682628095e+17
19348.0	6.031237842643626e+17
19349.0	6.029928383731027e+17
19350.0	6.028599149374122e+17
19351.0	6.027334859620351e+17
19352.0	6.025830392834729e+17
19353.0	6.024688212552361e+17
19354.0	6.023373531032233e+17
19355.0	6.021959371106986e+17
19356.0	6.020712162656255e+17
19357.0	6.019371708536148e+17
19358.0	6.018018803624618e+17
19359.0	6.016605880319999e+17
19360.0	6.015158045726036e+17
19361.0	6.013874247565311e+17
19362.0	6.01250749096482e+17
19363.0	6.011006715865769e+17
19364.0	6.009598597136383e+17
19365.0	6.008179925538131e+17
19366.0	6.006751189707433e+17
19367.0	6.005311115274921e+17
19368.0	6.003858566982314e+17
19369.0	6.002360680360618e+17
19370.0	6.000839453136211e+17
19371.0	5.999219697516543e+17
19372.0	5.997769924455082e+17
19373.0	5.996239257949524e+17
19374.0	5.994720332698963e+17
19375.0	5.993177772545364e+17
19376.0	5.991566259432105e+17
19377.0	5.989811865255935e+17
19378.0	5.988216682665302e+17
19379.0	5.98660284870383e+17
19380.0	5.984963121905663e+17
19381.0	5.983175382313642e+17
19382.0	5.981179086547626e+17
19383.0	5.979465741325652e+17
19384.0	5.977783289249791e+17
19385.0	5.976018744158889e+17
19386.0	5.973866572677119e+17
19387.0	5.972036901229908e+17
19388.0	5.970155797828948e+17
19389.0	5.968142597619712e+17
19390.0	5.965832289692329e+17
19391.0	5.956142192656375e+17
19392.0	5.960956376339795e+17
19393.0	5.959841286367914e+17
19394.0	5.957817558455638e+17
19395.0	5.955666634779306e+17
19396.0	5.953529776701437e+17
19397.0	5.951335418210986e+17
19398.0	5.948993087471615e+17
19399.0	5.946057623426388e+17
19400.0	5.944038744129536e+17
19401.0	5.941754257036628e+17
19402.0	5.939236170279593e+17
19403.0	5.93660511134242e+17
19404.0	5.933643165160788e+17
19405.0	5.930811020105044e+17
19406.0	5.927937579330218e+17
19407.0	5.924896662093823e+17
19408.0	5.92094934737442e+17
19409.0	5.918036565426175e+17
19410.0	5.914770197359274e+17
19411.0	5.911195665388884e+17
19412.0	5.907141902030164e+17
19413.0	5.903365884084223e+17
19414.0	5.899485648169641e+17
19415.0	5.894829668040703e+17
19416.0	5.890385051473235e+17
19417.0	5.885918511278761e+17
19418.0	5.880803809908052e+17
19419.0	5.876007201057449e+17
19420.0	5.870369976090623e+17
19421.0	5.864378952493737e+17
19422.0	5.8586924332701e+17
19423.0	5.851798013214719e+17
19424.0	5.845376951123967e+17
19425.0	5.83788198502946e+17
19426.0	5.830446198467241e+17
19427.0	5.822861327466495e+17
19428.0	5.814382209182376e+17
19429.0	5.805748948129107e+17
19430.0	5.795976230294868e+17
19431.0	5.784440766726144e+17
19432.0	5.774548461595305e+17
19433.0	5.762448399968938e+17
19434.0	5.748777500191402e+17
19435.0	5.7339999060404883e+17
19436.0	5.717527399235583e+17
19437.0	5.7002861058676045e+17
19438.0	5.667554293623466e+17
19439.0	5.657701899392342e+17
19440.0	5.6351072809123834e+17
19441.0	5.607703278430889e+17
19442.0	5.5763680484829875e+17
19443.0	5.54075554980386e+17
19444.0	5.498324624867326e+17
19445.0	5.447150055981058e+17
19446.0	5.386548816816811e+17
19447.0	5.30966394734728e+17
19448.0	5.208931804643332e+17
19449.0	5.064345738980011e+17
19450.0	4.8087339885745325e+17
19451.0	4.6173893297875834e+17
19452.0	4.960480488237739e+17
19453.0	5.1428037541669594e+17
19454.0	5.259022625494352e+17
19455.0	5.344021576679423e+17
19456.0	5.4097069533211315e+17
19457.0	5.462493618328914e+17
19458.0	5.4717699962088634e+17
19459.0	5.54163796914996e+17
19460.0	5.5749699401591443e+17
19461.0	5.602418761575081e+17
19462.0	5.626112632335018e+17
19463.0	5.647117367727443e+17
19464.0	5.6653052861480954e+17
19465.0	5.6812868412811936e+17
19466.0	5.696283157899945e+17
19467.0	5.7091214435942394e+17
19468.0	5.721157096789333e+17
19469.0	5.731488854529363e+17
19470.0	5.741095326231209e+17
19471.0	5.750059117314047e+17
19472.0	5.757768288610985e+17
19473.0	5.7644268042321914e+17
19474.0	5.770778812699988e+17
19475.0	5.776097270562815e+17
19476.0	5.78181100872226e+17
19477.0	5.787383386253993e+17
19478.0	5.792042322668201e+17
19479.0	5.79651136196881e+17
19480.0	5.800594663713449e+17
19481.0	5.804091863203839e+17
19482.0	5.808083293612713e+17
19483.0	5.810931451123028e+17
19484.0	5.813632204712618e+17
19485.0	5.816507676229631e+17
19486.0	5.818518745732436e+17
19487.0	5.820892563111935e+17
19488.0	5.82300210368785e+17
19489.0	5.82436385858082e+17
19490.0	5.825352792276991e+17
19491.0	5.827948001099776e+17
19492.0	5.829241954369535e+17
19493.0	5.830353609905492e+17
19494.0	5.831667486119254e+17
19495.0	5.832637460862291e+17
19496.0	5.833048245403648e+17
19497.0	5.833808575550803e+17
19498.0	5.832032607972009e+17
19499.0	5.822768433419602e+17
19500.0	5.835399152096596e+17
19501.0	5.836018621437268e+17
19502.0	5.836294469626537e+17
19503.0	5.836537059781289e+17
19504.0	5.836779106773674e+17
19505.0	5.836837548108457e+17
19506.0	5.836858792258218e+17
19507.0	5.836807959390889e+17
19508.0	5.836734492661076e+17
19509.0	5.836546669630806e+17
19510.0	5.83596859597346e+17
19511.0	5.813565791404015e+17
19512.0	5.833008315629565e+17
19513.0	5.832013699350523e+17
19514.0	5.832628775157756e+17
19515.0	5.835070776541183e+17
19516.0	5.835197062840319e+17
19517.0	5.835074749945172e+17
19518.0	5.834689963098112e+17
19519.0	5.834239726234282e+17
19520.0	5.833695154580137e+17
19521.0	5.833622165301929e+17
19522.0	5.833084078041769e+17
19523.0	5.832559800527529e+17
19524.0	5.831948759640746e+17
19525.0	5.83143237161233e+17
19526.0	5.831029108157097e+17
19527.0	5.830415654846464e+17
19528.0	5.829767416075604e+17
19529.0	5.829110267904e+17
19530.0	5.828471760617471e+17
19531.0	5.827795196313599e+17
19532.0	5.827214392863402e+17
19533.0	5.82654982496802e+17
19534.0	5.825833920888831e+17
19535.0	5.82509236654353e+17
19536.0	5.824333509296127e+17
19537.0	5.823610601428308e+17
19538.0	5.822610954780672e+17
19539.0	5.821732547286356e+17
19540.0	5.821347662572201e+17
19541.0	5.820594445964628e+17
19542.0	5.819805248520192e+17
19543.0	5.818915450694312e+17
19544.0	5.818181718026921e+17
19545.0	5.816928840974335e+17
19546.0	5.815931170542931e+17
19547.0	5.815695305255594e+17
19548.0	5.814876965087914e+17
19549.0	5.813940790143657e+17
19550.0	5.81317241671953e+17
19551.0	5.812329973284863e+17
19552.0	5.811499508782419e+17
19553.0	5.810604658917376e+17
19554.0	5.809717330837503e+17
19555.0	5.808832041189375e+17
19556.0	5.807959608481107e+17
19557.0	5.807069374447615e+17
19558.0	5.806169357200041e+17
19559.0	5.805266443086506e+17
19560.0	5.804296627027967e+17
19561.0	5.80341786092066e+17
19562.0	5.802491660730367e+17
19563.0	5.801606513688575e+17
19564.0	5.800682642735103e+17
19565.0	5.799754876671316e+17
19566.0	5.798802442507603e+17
19567.0	5.797887538976084e+17
19568.0	5.796929634041855e+17
19569.0	5.79601473610274e+17
19570.0	5.795106937023146e+17
19571.0	5.794159928191657e+17
19572.0	5.793178168153428e+17
19573.0	5.792238374223871e+17
19574.0	5.791243693632169e+17
19575.0	5.79041973379618e+17
19576.0	5.789449612951551e+17
19577.0	5.78845957615343e+17
19578.0	5.787510241580372e+17
19579.0	5.786544821851476e+17
19580.0	5.785580372404905e+17
19581.0	5.784627741807956e+17
19582.0	5.783667884425215e+17
19583.0	5.782695604213076e+17
19584.0	5.781715234586623e+17
19585.0	5.780637762628265e+17
19586.0	5.77962956099857e+17
19587.0	5.77874005467682e+17
19588.0	5.777479650246655e+17
19589.0	5.776773601383764e+17
19590.0	5.775748760950099e+17
19591.0	5.774850053723476e+17
19592.0	5.773873763756714e+17
19593.0	5.772860185029289e+17
19594.0	5.771664019860137e+17
19595.0	5.770890031661055e+17
19596.0	5.76981615911458e+17
19597.0	5.768911220550314e+17
19598.0	5.767601444967763e+17
19599.0	5.766927263028566e+17
19600.0	5.765946815108438e+17
19601.0	5.764893993074687e+17
19602.0	5.763859515528532e+17
19603.0	5.7626342390934176e+17
19604.0	5.7618954704650234e+17
19605.0	5.7607459207905274e+17
19606.0	5.759983597649919e+17
19607.0	5.7590020340449274e+17
19608.0	5.7580015100887034e+17
19609.0	5.756975002419199e+17
19610.0	5.7559647567653536e+17
19611.0	5.754936196683092e+17
19612.0	5.754008396365824e+17
19613.0	5.752994236727294e+17
19614.0	5.7519610286571514e+17
19615.0	5.750980574445567e+17
19616.0	5.7498645973783885e+17
19617.0	5.748874499762858e+17
19618.0	5.747464049000447e+17
19619.0	5.746321553446228e+17
19620.0	5.745444755166547e+17
19621.0	5.744818082108756e+17
19622.0	5.743928886165503e+17
19623.0	5.7429174017938765e+17
19624.0	5.7418858183174816e+17
19625.0	5.7409236624561485e+17
19626.0	5.7399077216365216e+17
19627.0	5.73884841800499e+17
19628.0	5.7376913724101965e+17
19629.0	5.73627190878754e+17
19630.0	5.7339148567401786e+17
19631.0	5.7299261057925114e+17
19632.0	5.733280377383593e+17
19633.0	5.73265238172194e+17
19634.0	5.731780792767828e+17
19635.0	5.7307607226559136e+17
19636.0	5.72970210898739e+17
19637.0	5.7283877588172794e+17
19638.0	5.727785702129662e+17
19639.0	5.726777852821503e+17
19640.0	5.725631072086698e+17
19641.0	5.724006988644352e+17
19642.0	5.723729861891411e+17
19643.0	5.7227199965211296e+17
19644.0	5.721650053338453e+17
19645.0	5.7205311395594234e+17
19646.0	5.7195854589242003e+17
19647.0	5.718690676168021e+17
19648.0	5.717680818487296e+17
19649.0	5.716662009462783e+17
19650.0	5.715653937157459e+17
19651.0	5.7146338754341536e+17
19652.0	5.7136182338082125e+17
19653.0	5.712610027285161e+17
19654.0	5.711588594024447e+17
19655.0	5.710571495576917e+17
19656.0	5.709562340442111e+17
19657.0	5.7085519773477536e+17
19658.0	5.707537021490515e+17
19659.0	5.706521216985769e+17
19660.0	5.7055069392076794e+17
19661.0	5.7044911493829965e+17
19662.0	5.703472348048041e+17
19663.0	5.702425000280063e+17
