# Flux units: erg / (cm m2 s)
# Wavelength units: Angstrom
wave	flux
19000.0	5.85056272847121e+17
19001.0	5.849352289386495e+17
19002.0	5.848380323747155e+17
19003.0	5.847286167546537e+17
19004.0	5.846193129127936e+17
19005.0	5.845093956539732e+17
19006.0	5.844013452798633e+17
19007.0	5.842912575225855e+17
19008.0	5.84174953037824e+17
19009.0	5.840618590830591e+17
19010.0	5.839057152114685e+17
19011.0	5.838511054432938e+17
19012.0	5.837287270470996e+17
19013.0	5.83636166447377e+17
19014.0	5.835209043170644e+17
19015.0	5.834134494642176e+17
19016.0	5.833024431543636e+17
19017.0	5.832008903862954e+17
19018.0	5.830899115491327e+17
19019.0	5.829815558995968e+17
19020.0	5.828708938022912e+17
19021.0	5.827641714147327e+17
19022.0	5.826546831633066e+17
19023.0	5.8254189672093e+17
19024.0	5.824349577674751e+17
19025.0	5.823282186726057e+17
19026.0	5.822158312483497e+17
19027.0	5.821024394980009e+17
19028.0	5.820017424378538e+17
19029.0	5.818915727518378e+17
19030.0	5.817854646201001e+17
19031.0	5.816766559158271e+17
19032.0	5.815671513765203e+17
19033.0	5.814481117162154e+17
19034.0	5.813485392887808e+17
19035.0	5.812359277488809e+17
19036.0	5.804559183467859e+17
19037.0	5.810217270902783e+17
19038.0	5.809123597746175e+17
19039.0	5.808066081587199e+17
19040.0	5.806979796697087e+17
19041.0	5.805882793962154e+17
19042.0	5.804662092813652e+17
19043.0	5.803721042690047e+17
19044.0	5.802620851585023e+17
19045.0	5.801548751831039e+17
19046.0	5.800399129455273e+17
19047.0	5.799354399632042e+17
19048.0	5.798017712695978e+17
19049.0	5.797055916146687e+17
19050.0	5.796059906659667e+17
19051.0	5.794016919202473e+17
19052.0	5.793770178783913e+17
19053.0	5.792866636223828e+17
19054.0	5.791782071697408e+17
19055.0	5.790384166098262e+17
19056.0	5.789575590270292e+17
19057.0	5.788521410680148e+17
19058.0	5.787398334054399e+17
19059.0	5.786343495259475e+17
19060.0	5.785250815453865e+17
19061.0	5.784197852211882e+17
19062.0	5.783108615230803e+17
19063.0	5.782028156928e+17
19064.0	5.780792377256617e+17
19065.0	5.77966219198464e+17
19066.0	5.778703857833299e+17
19067.0	5.777685079567018e+17
19068.0	5.776618663794003e+17
19069.0	5.775538786402303e+17
19070.0	5.774427959241386e+17
19071.0	5.773376632477012e+17
19072.0	5.772281814974464e+17
19073.0	5.771208262593194e+17
19074.0	5.770133955237206e+17
19075.0	5.769053364813823e+17
19076.0	5.767948057356969e+17
19077.0	5.766873226412031e+17
19078.0	5.765769700136276e+17
19079.0	5.76473050260002e+17
19080.0	5.763634031143594e+17
19081.0	5.762523263401983e+17
19082.0	5.761441646772222e+17
19083.0	5.7602985842879136e+17
19084.0	5.759077505652053e+17
19085.0	5.758249561227263e+17
19086.0	5.756739767675562e+17
19087.0	5.7558957527749965e+17
19088.0	5.7549077033779194e+17
19089.0	5.7536512604678816e+17
19090.0	5.7528325309289805e+17
19091.0	5.751753221865471e+17
19092.0	5.750596113356115e+17
19093.0	5.7496348159290016e+17
19094.0	5.748558201006762e+17
19095.0	5.747481486819326e+17
19096.0	5.7463849608369485e+17
19097.0	5.745325445393066e+17
19098.0	5.7442371248674125e+17
19099.0	5.743158627401726e+17
19100.0	5.742077326043818e+17
19101.0	5.741021031825407e+17
19102.0	5.739808319427924e+17
19103.0	5.738870556240554e+17
19104.0	5.737799774896126e+17
19105.0	5.73669083587106e+17
19106.0	5.735618209032874e+17
19107.0	5.734548388184063e+17
19108.0	5.733486431655253e+17
19109.0	5.731964960462164e+17
19110.0	5.7313134319588685e+17
19111.0	5.72993612948002e+17
19112.0	5.7288618165316256e+17
19113.0	5.7277961669181434e+17
19114.0	5.726718293005652e+17
19115.0	5.7255880504115194e+17
19116.0	5.724555940549973e+17
19117.0	5.7234840330349216e+17
19118.0	5.7223154524050765e+17
19119.0	5.7133559283274976e+17
19120.0	5.7202225513321805e+17
19121.0	5.719179917961898e+17
19122.0	5.718150718947326e+17
19123.0	5.7170794049262925e+17
19124.0	5.715978735670611e+17
19125.0	5.714933101974868e+17
19126.0	5.713856868734292e+17
19127.0	5.710616124369577e+17
19128.0	5.711658942289236e+17
19129.0	5.7105629000499174e+17
19130.0	5.709562825583273e+17
19131.0	5.7085124809850874e+17
19132.0	5.707441827566932e+17
19133.0	5.706276124928681e+17
19134.0	5.7052773115494394e+17
19135.0	5.704232180471126e+17
19136.0	5.7031712732173645e+17
19137.0	5.70190509323059e+17
19138.0	5.7010151737698963e+17
19139.0	5.6999653646445216e+17
19140.0	5.698899157887658e+17
19141.0	5.6978311685515936e+17
19142.0	5.6967336058770765e+17
19143.0	5.695629226060458e+17
19144.0	5.694584839471103e+17
19145.0	5.6935616068539725e+17
19146.0	5.691785691004928e+17
19147.0	5.6913021282986656e+17
19148.0	5.690346897233237e+17
19149.0	5.689271609808211e+17
19150.0	5.688218923390292e+17
19151.0	5.687163043009877e+17
19152.0	5.686085692686334e+17
19153.0	5.6849835288603296e+17
19154.0	5.683808886762153e+17
19155.0	5.68290026000657e+17
19156.0	5.68183186592017e+17
19157.0	5.6807495117919565e+17
19158.0	5.679376446958249e+17
19159.0	5.678614349611007e+17
19160.0	5.677558769822379e+17
19161.0	5.6765075737804794e+17
19162.0	5.674724045968726e+17
19163.0	5.6743584075175245e+17
19164.0	5.673319513369258e+17
19165.0	5.6722044527575034e+17
19166.0	5.671026041378132e+17
19167.0	5.6700631787765754e+17
19168.0	5.669055508425386e+17
19169.0	5.667981517739347e+17
19170.0	5.6669412275869005e+17
19171.0	5.6658346653341e+17
19172.0	5.664816974091604e+17
19173.0	5.663754916200446e+17
19174.0	5.662623394343594e+17
19175.0	5.6616294162978125e+17
19176.0	5.660572343336958e+17
19177.0	5.6593283512183456e+17
19178.0	5.6584281983549434e+17
19179.0	5.657322312084138e+17
19180.0	5.6563107703903565e+17
19181.0	5.655104968807764e+17
19182.0	5.654179395665919e+17
19183.0	5.6531438667475616e+17
19184.0	5.652072858211668e+17
19185.0	5.651016510865407e+17
19186.0	5.6499604780919456e+17
19187.0	5.648825110058324e+17
19188.0	5.6478385622220794e+17
19189.0	5.6467827894954656e+17
19190.0	5.645719676736852e+17
19191.0	5.644624065811796e+17
19192.0	5.643606150174037e+17
19193.0	5.642540278961494e+17
19194.0	5.641466435076094e+17
19195.0	5.640425476631209e+17
19196.0	5.639344387085651e+17
19197.0	5.6382913154908154e+17
19198.0	5.637216538372777e+17
19199.0	5.6318721114767334e+17
19200.0	5.632143326358186e+17
19201.0	5.634047801120083e+17
19202.0	5.6330132347944954e+17
19203.0	5.631948780557652e+17
19204.0	5.630873148500649e+17
19205.0	5.629834561934677e+17
19206.0	5.628774064324607e+17
19207.0	5.6275971559041696e+17
19208.0	5.626399603119443e+17
19209.0	5.625607289307136e+17
19210.0	5.624555226442409e+17
19211.0	5.6235089810773325e+17
19212.0	5.6224521779500365e+17
19213.0	5.621271951136084e+17
19214.0	5.6201731008102394e+17
19215.0	5.6192652723705165e+17
19216.0	5.618224985713321e+17
19217.0	5.6171603231593805e+17
19218.0	5.6151227841030803e+17
19219.0	5.614882730803199e+17
19220.0	5.613971410605396e+17
19221.0	5.6125532304397645e+17
19222.0	5.611878759093588e+17
19223.0	5.610808608991913e+17
19224.0	5.6097245624620365e+17
19225.0	5.608541912039423e+17
19226.0	5.6076418891994445e+17
19227.0	5.6065852370670925e+17
19228.0	5.6055592264226125e+17
19229.0	5.604503075509589e+17
19230.0	5.6034434677910176e+17
19231.0	5.602377849634815e+17
19232.0	5.6013278286970874e+17
19233.0	5.600200857660074e+17
19234.0	5.599198946088276e+17
19235.0	5.598138208703828e+17
19236.0	5.597117134056106e+17
19237.0	5.5960432153722874e+17
19238.0	5.594893471361705e+17
19239.0	5.5939545197882016e+17
19240.0	5.592879337220777e+17
19241.0	5.5918137211617274e+17
19242.0	5.590769743517011e+17
19243.0	5.589549078719145e+17
19244.0	5.588681842054484e+17
19245.0	5.5876203671715834e+17
19246.0	5.5865501723306656e+17
19247.0	5.585516535742462e+17
19248.0	5.5844627685922125e+17
19249.0	5.583404278655658e+17
19250.0	5.5823233988253005e+17
19251.0	5.581148832224595e+17
19252.0	5.5799270818010445e+17
19253.0	5.579156810454356e+17
19254.0	5.5781298735677434e+17
19255.0	5.576868793854634e+17
19256.0	5.5759761061533005e+17
19257.0	5.574967681526441e+17
19258.0	5.5739115781488634e+17
19259.0	5.57277565297186e+17
19260.0	5.571650282760873e+17
19261.0	5.570729143697407e+17
19262.0	5.5696205234394445e+17
19263.0	5.5685533373125965e+17
19264.0	5.566899078649172e+17
19265.0	5.566269614981119e+17
19266.0	5.565150541119488e+17
19267.0	5.5644087595827194e+17
19268.0	5.5633438020293965e+17
19269.0	5.562290496252585e+17
19270.0	5.561234388680703e+17
19271.0	5.559194784628737e+17
19272.0	5.558213736224083e+17
19273.0	5.556353295362729e+17
19274.0	5.555442696585215e+17
19275.0	5.555083613132117e+17
19276.0	5.5540020461349536e+17
19277.0	5.552950118187007e+17
19278.0	5.5518942762543776e+17
19279.0	5.550818148570452e+17
19280.0	5.549681717979817e+17
19281.0	5.548708392686932e+17
19282.0	5.547669757886464e+17
19283.0	5.5465453265005216e+17
19284.0	5.545505924142421e+17
19285.0	5.54427274703667e+17
19286.0	5.543381232342355e+17
19287.0	5.5423608567453005e+17
19288.0	5.539376617837906e+17
19289.0	5.535851937267703e+17
19290.0	5.539173157044224e+17
19291.0	5.5378143954862074e+17
19292.0	5.5370490454562125e+17
19293.0	5.53597573075217e+17
19294.0	5.53490688717619e+17
19295.0	5.533853662489258e+17
19296.0	5.5327644681502726e+17
19297.0	5.5317025346901325e+17
19298.0	5.530620280526164e+17
19299.0	5.529566391042047e+17
19300.0	5.5285062981823136e+17
19301.0	5.5274370093110605e+17
19302.0	5.526353712163498e+17
19303.0	5.525212846096383e+17
19304.0	5.524097826029566e+17
19305.0	5.522973826656938e+17
19306.0	5.521910581777749e+17
19307.0	5.520784873226239e+17
19308.0	5.519733495431167e+17
19309.0	5.5185224782315514e+17
19310.0	5.517380391621972e+17
19311.0	5.5164809475959456e+17
19312.0	5.5154430957322234e+17
19313.0	5.514375502058836e+17
19314.0	5.503917997686787e+17
19315.0	5.503494698740404e+17
19316.0	5.5110897639970125e+17
19317.0	5.510030938516138e+17
19318.0	5.508940773195775e+17
19319.0	5.507873970847742e+17
19320.0	5.506776962520405e+17
19321.0	5.50567981158673e+17
19322.0	5.504505316289194e+17
19323.0	5.503435138225492e+17
19324.0	5.5024077064110074e+17
19325.0	5.501166174950741e+17
19326.0	5.5002108837669536e+17
19327.0	5.499093503705087e+17
19328.0	5.497980215186773e+17
19329.0	5.496906313979219e+17
19330.0	5.495752161056085e+17
19331.0	5.4946352297847456e+17
19332.0	5.4934247823114234e+17
19333.0	5.491263928620373e+17
19334.0	5.4901532678335136e+17
19335.0	5.488978137098922e+17
19336.0	5.4879091411298976e+17
19337.0	5.486780918792191e+17
19338.0	5.485407678496766e+17
19339.0	5.4845234919505914e+17
19340.0	5.4832199092578976e+17
19341.0	5.4821793506699936e+17
19342.0	5.4806487358941856e+17
19343.0	5.47996438696209e+17
19344.0	5.4787955511787514e+17
19345.0	5.475221246399825e+17
19346.0	5.4754105010858643e+17
19347.0	5.475247044165631e+17
19348.0	5.474199706883413e+17
19349.0	5.472988980488874e+17
19350.0	5.4718154876299936e+17
19351.0	5.470636984674986e+17
19352.0	5.469380950709589e+17
19353.0	5.46831417422643e+17
19354.0	5.465812184509097e+17
19355.0	5.4642174262422176e+17
19356.0	5.463123235788117e+17
19357.0	5.4619130266910714e+17
19358.0	5.46068726161954e+17
19359.0	5.459397076232874e+17
19360.0	5.458160026386432e+17
19361.0	5.4569483786431136e+17
19362.0	5.4557477703079245e+17
19363.0	5.454491220443135e+17
19364.0	5.4532254941402445e+17
19365.0	5.4517581252744506e+17
19366.0	5.448613500376403e+17
19367.0	5.447315870799188e+17
19368.0	5.446008757900628e+17
19369.0	5.444627898651989e+17
19370.0	5.443268418469887e+17
19371.0	5.441954916947285e+17
19372.0	5.440662519065257e+17
19373.0	5.438201263030269e+17
19374.0	5.43532020470033e+17
19375.0	5.4339172211971405e+17
19376.0	5.43249954644514e+17
19377.0	5.4310488345586336e+17
19378.0	5.429599171248126e+17
19379.0	5.4253906499556704e+17
19380.0	5.423456491405311e+17
19381.0	5.4219231300594323e+17
19382.0	5.4202951235447456e+17
19383.0	5.4164861677294906e+17
19384.0	5.41337669808947e+17
19385.0	5.4117353963301536e+17
19386.0	5.4093706666093274e+17
19387.0	5.403848278190762e+17
19388.0	5.402079584234154e+17
19389.0	5.399399023422124e+17
19390.0	5.3957977688418976e+17
19391.0	5.3876949117829024e+17
19392.0	5.391461978385065e+17
19393.0	5.389603436844372e+17
19394.0	5.3875797907210234e+17
19395.0	5.385511821989204e+17
19396.0	5.3834208600828576e+17
19397.0	5.38128554271266e+17
19398.0	5.379052635772245e+17
19399.0	5.375942632756564e+17
19400.0	5.374439918490964e+17
19401.0	5.372164706402303e+17
19402.0	5.369759770782378e+17
19403.0	5.3670192454041574e+17
19404.0	5.3639920959706445e+17
19405.0	5.361352722524841e+17
19406.0	5.3586845705611936e+17
19407.0	5.3559291575009274e+17
19408.0	5.3521654379533664e+17
19409.0	5.349670788967083e+17
19410.0	5.3460451060613114e+17
19411.0	5.342953580352851e+17
19412.0	5.339776864135851e+17
19413.0	5.3351655659274234e+17
19414.0	5.33135261573666e+17
19415.0	5.3273101049965203e+17
19416.0	5.321706057673385e+17
19417.0	5.317174714084011e+17
19418.0	5.311150589739007e+17
19419.0	5.30418013464166e+17
19420.0	5.2967251053117414e+17
19421.0	5.287254138290171e+17
19422.0	5.275451968716803e+17
19423.0	5.2610454446407725e+17
19424.0	5.2417340867870694e+17
19425.0	5.2306554521299616e+17
19426.0	5.22186007912994e+17
19427.0	5.212564328458922e+17
19428.0	5.20266037994018e+17
19429.0	5.19212464550707e+17
19430.0	5.180677736278699e+17
19431.0	5.167885887821141e+17
19432.0	5.15672875676467e+17
19433.0	5.144414366203904e+17
19434.0	5.1317362148420256e+17
19435.0	5.1183239805883725e+17
19436.0	5.104450528083968e+17
19437.0	5.090635277139966e+17
19438.0	5.066234815053826e+17
19439.0	5.060003069864619e+17
19440.0	5.041889675837438e+17
19441.0	5.015581068973395e+17
19442.0	4.965478417388913e+17
19443.0	4.9016773339163366e+17
19444.0	4.860277763866621e+17
19445.0	4.814598028219735e+17
19446.0	4.7629205441085434e+17
19447.0	4.6847788745140755e+17
19448.0	4.541777061784243e+17
19449.0	4.3804718153072544e+17
19450.0	3.9388430900483603e+17
19451.0	3.731370647311689e+17
19452.0	4.2086982843979046e+17
19453.0	4.472873602602332e+17
19454.0	4.613015604647238e+17
19455.0	4.725111052216995e+17
19456.0	4.78229047332045e+17
19457.0	4.8283781861212134e+17
19458.0	4.8467563882305184e+17
19459.0	4.916077379889851e+17
19460.0	4.9801575558457984e+17
19461.0	5.0127136798801914e+17
19462.0	5.032219537397078e+17
19463.0	5.0470628576897683e+17
19464.0	5.0601597334104736e+17
19465.0	5.072712226220714e+17
19466.0	5.084562534520147e+17
19467.0	5.096144945632596e+17
19468.0	5.1071999775429965e+17
19469.0	5.117412782724436e+17
19470.0	5.1279937939701754e+17
19471.0	5.1380985545796256e+17
19472.0	5.147798299213823e+17
19473.0	5.1566718253793274e+17
19474.0	5.164944196632575e+17
19475.0	5.1716019202293734e+17
19476.0	5.1795232506074445e+17
19477.0	5.1868713559435974e+17
19478.0	5.2008438653255654e+17
19479.0	5.215282712805378e+17
19480.0	5.2268372359905254e+17
19481.0	5.2347421393769786e+17
19482.0	5.241706960825002e+17
19483.0	5.246842671464444e+17
19484.0	5.250371886077268e+17
19485.0	5.254507385935189e+17
19486.0	5.256838020158807e+17
19487.0	5.260171026628607e+17
19488.0	5.2616724231837005e+17
19489.0	5.264003274812072e+17
19490.0	5.2641736942769466e+17
19491.0	5.267007669447338e+17
19492.0	5.268115153747967e+17
19493.0	5.270150832630441e+17
19494.0	5.2710656613635405e+17
19495.0	5.271858934972415e+17
19496.0	5.272070028001278e+17
19497.0	5.273199592516266e+17
19498.0	5.273099433235796e+17
19499.0	5.2654454282212646e+17
19500.0	5.2755014908641274e+17
19501.0	5.275898759260841e+17
19502.0	5.276225495542441e+17
19503.0	5.276516573249535e+17
19504.0	5.276741534045523e+17
19505.0	5.2769123114243405e+17
19506.0	5.27704995799586e+17
19507.0	5.277105798862164e+17
19508.0	5.2771734879382176e+17
19509.0	5.2771697892611405e+17
19510.0	5.276876629082111e+17
19511.0	5.261111542677495e+17
19512.0	5.275776376460627e+17
19513.0	5.2764841519786605e+17
19514.0	5.2774137062140544e+17
19515.0	5.2787396033030816e+17
19516.0	5.2831500041366176e+17
19517.0	5.2827567587764896e+17
19518.0	5.2824733531504634e+17
19519.0	5.2838597188212006e+17
19520.0	5.2852081826638496e+17
19521.0	5.2848066850106016e+17
19522.0	5.2842945059662496e+17
19523.0	5.283836396393812e+17
19524.0	5.2862588257566694e+17
19525.0	5.2857304301349536e+17
19526.0	5.285179276918782e+17
19527.0	5.2845921652353696e+17
19528.0	5.2839907383924045e+17
19529.0	5.28373537308672e+17
19530.0	5.285183319528789e+17
19531.0	5.284536961903274e+17
19532.0	5.2838788329635834e+17
19533.0	5.28320948006639e+17
19534.0	5.282525822495402e+17
19535.0	5.281826369874602e+17
19536.0	5.281090436595711e+17
19537.0	5.280429365351766e+17
19538.0	5.281084899415381e+17
19539.0	5.2802044688684384e+17
19540.0	5.280107842590037e+17
19541.0	5.2793874680818336e+17
19542.0	5.2786266346181965e+17
19543.0	5.277845091778559e+17
19544.0	5.277093756316329e+17
19545.0	5.275714249730729e+17
19546.0	5.2744398649862816e+17
19547.0	5.2747525643304954e+17
19548.0	5.273956955892394e+17
19549.0	5.2730492001539405e+17
19550.0	5.2723538306880845e+17
19551.0	5.272340817859924e+17
19552.0	5.2721850099520845e+17
19553.0	5.271333044049236e+17
19554.0	5.270487728215381e+17
19555.0	5.269687763293524e+17
19556.0	5.268870971523071e+17
19557.0	5.2680268293952845e+17
19558.0	5.2671863950322336e+17
19559.0	5.26634175238417e+17
19560.0	5.2654539398621856e+17
19561.0	5.26460698824977e+17
19562.0	5.2637777687565645e+17
19563.0	5.262927103787007e+17
19564.0	5.262065529432747e+17
19565.0	5.261201123224234e+17
19566.0	5.260296893497343e+17
19567.0	5.259463033705813e+17
19568.0	5.2585623998955514e+17
19569.0	5.257690894827519e+17
19570.0	5.256840654880767e+17
19571.0	5.255956181723819e+17
19572.0	5.25504633582387e+17
19573.0	5.254170790942037e+17
19574.0	5.253207245367978e+17
19575.0	5.252424011524777e+17
19576.0	5.2515310588832403e+17
19577.0	5.250614613945002e+17
19578.0	5.25012081643793e+17
19579.0	5.249887382448809e+17
19580.0	5.248990752800767e+17
19581.0	5.248104703284564e+17
19582.0	5.247225796668073e+17
19583.0	5.2463244204660045e+17
19584.0	5.2454143194125645e+17
19585.0	5.2443874007012685e+17
19586.0	5.243459429116586e+17
19587.0	5.2427174672247443e+17
19588.0	5.241264210094763e+17
19589.0	5.240901633485483e+17
19590.0	5.2398875129937914e+17
19591.0	5.239098966365525e+17
19592.0	5.2381925535034016e+17
19593.0	5.237259478149802e+17
19594.0	5.2360905654708896e+17
19595.0	5.2354056398219936e+17
19596.0	5.2343714733533856e+17
19597.0	5.2336015207738016e+17
19598.0	5.232157836443647e+17
19599.0	5.231779067723775e+17
19600.0	5.2308706464890874e+17
19601.0	5.2298695122616314e+17
19602.0	5.228966887555071e+17
19603.0	5.2275513078579194e+17
19604.0	5.227124696809471e+17
19605.0	5.2259110665584634e+17
19606.0	5.225335157161983e+17
19607.0	5.224421894302377e+17
19608.0	5.2234757970329594e+17
19609.0	5.2225098753856845e+17
19610.0	5.221637779619839e+17
19611.0	5.220699627061247e+17
19612.0	5.2197982669373434e+17
19613.0	5.2188602779566074e+17
19614.0	5.217898832330751e+17
19615.0	5.2170171686584314e+17
19616.0	5.216027649856853e+17
19617.0	5.215134792286207e+17
19618.0	5.2135127864224403e+17
19619.0	5.212419724935167e+17
19620.0	5.2115391447913805e+17
19621.0	5.2114269800147616e+17
19622.0	5.210519684251647e+17
19623.0	5.2095903292456954e+17
19624.0	5.2086491903426554e+17
19625.0	5.207729830363134e+17
19626.0	5.206799007350783e+17
19627.0	5.2058664416051194e+17
19628.0	5.204829613151573e+17
19629.0	5.2038423697599136e+17
19630.0	5.202756782522367e+17
19631.0	5.19736035184913e+17
19632.0	5.2011929271883085e+17
19633.0	5.2002281310126074e+17
19634.0	5.1993450119167994e+17
19635.0	5.1983679781601274e+17
19636.0	5.197451078139903e+17
19637.0	5.196125984260096e+17
19638.0	5.195601792030036e+17
19639.0	5.194666732071594e+17
19640.0	5.193606351902037e+17
19641.0	5.191510516214444e+17
19642.0	5.191873253605374e+17
19643.0	5.190936185274367e+17
19644.0	5.1899398255629645e+17
19645.0	5.188740631407274e+17
19646.0	5.188125351477248e+17
19647.0	5.1872165625419085e+17
19648.0	5.1862841387035296e+17
19649.0	5.185347129791827e+17
19650.0	5.1844165507481594e+17
19651.0	5.183475672591017e+17
19652.0	5.182545573795156e+17
19653.0	5.181612400574464e+17
19654.0	5.1806712120388256e+17
19655.0	5.179732537289385e+17
19656.0	5.1788041434781005e+17
19657.0	5.17787848225587e+17
