# Flux units: erg / (cm m2 s)
# Wavelength units: Angstrom
wave	flux
19000.0	8.909124123929256e+17
19001.0	8.907684426285055e+17
19002.0	8.906306519127379e+17
19003.0	8.904889776908969e+17
19004.0	8.903468647448573e+17
19005.0	8.902043909488639e+17
19006.0	8.900739376087037e+17
19007.0	8.901970008648361e+17
19008.0	8.900507699511295e+17
19009.0	8.899041829410131e+17
19010.0	8.897497609710249e+17
19011.0	8.896154834042876e+17
19012.0	8.894668084696403e+17
19013.0	8.893237734757715e+17
19014.0	8.891747883024383e+17
19015.0	8.890293678680745e+17
19016.0	8.888800264585213e+17
19017.0	8.887324546258259e+17
19018.0	8.885847930350249e+17
19019.0	8.884358883923283e+17
19020.0	8.882853303549952e+17
19021.0	8.881366798871209e+17
19022.0	8.879868792012799e+17
19023.0	8.878364471328767e+17
19024.0	8.876853922103295e+17
19025.0	8.87534375735569e+17
19026.0	8.873835042439167e+17
19027.0	8.872348624442707e+17
19028.0	8.870840458980009e+17
19029.0	8.86931558061397e+17
19030.0	8.867787615240192e+17
19031.0	8.866256059542186e+17
19032.0	8.864720857595903e+17
19033.0	8.863151908279634e+17
19034.0	8.861639242328746e+17
19035.0	8.860068964816212e+17
19036.0	8.857696711213055e+17
19037.0	8.856987071326889e+17
19038.0	8.855433454987945e+17
19039.0	8.853886927022762e+17
19040.0	8.852327384132264e+17
19041.0	8.85076460323908e+17
19042.0	8.84917136331025e+17
19043.0	8.847630211044692e+17
19044.0	8.846057861545983e+17
19045.0	8.844483498781352e+17
19046.0	8.842891809346902e+17
19047.0	8.841316529427796e+17
19048.0	8.839687491114323e+17
19049.0	8.8381332679994e+17
19050.0	8.836552306196479e+17
19051.0	8.834831598572883e+17
19052.0	8.833345811120127e+17
19053.0	8.831786033348607e+17
19054.0	8.830187827363839e+17
19055.0	8.828499517942442e+17
19056.0	8.826982243849556e+17
19057.0	8.825375551389695e+17
19058.0	8.823766090689194e+17
19059.0	8.822152964166995e+17
19060.0	8.820533466497021e+17
19061.0	8.818922530799616e+17
19062.0	8.817301795809961e+17
19063.0	8.815679605396819e+17
19064.0	8.814022421905407e+17
19065.0	8.812365884336808e+17
19066.0	8.810776820536658e+17
19067.0	8.809168397227347e+17
19068.0	8.807534496317439e+17
19069.0	8.805898103990953e+17
19070.0	8.804256717646505e+17
19071.0	8.802618948190208e+17
19072.0	8.800976510473556e+17
19073.0	8.799330455868756e+17
19074.0	8.797684693467136e+17
19075.0	8.796035181357737e+17
19076.0	8.794378025828352e+17
19077.0	8.792725093963091e+17
19078.0	8.791065702869673e+17
19079.0	8.789414785668436e+17
19080.0	8.787752002781183e+17
19081.0	8.786075441605288e+17
19082.0	8.784414054023167e+17
19083.0	8.782717474832383e+17
19084.0	8.780997919244288e+17
19085.0	8.779416121376767e+17
19086.0	8.777600342862505e+17
19087.0	8.776051666015572e+17
19088.0	8.775271279405736e+17
19089.0	8.773729992922451e+17
19090.0	8.772109832552445e+17
19091.0	8.770414598335144e+17
19092.0	8.768713838821376e+17
19093.0	8.767040270980436e+17
19094.0	8.765332238543528e+17
19095.0	8.763633372058964e+17
19096.0	8.761945976995839e+17
19097.0	8.76024939221265e+17
19098.0	8.758547693174781e+17
19099.0	8.756842206680402e+17
19100.0	8.755134751659348e+17
19101.0	8.753423548328616e+17
19102.0	8.751688919810048e+17
19103.0	8.749998973211987e+17
19104.0	8.748282733920255e+17
19105.0	8.746563764136617e+17
19106.0	8.744840600048982e+17
19107.0	8.743115352790356e+17
19108.0	8.741390768231762e+17
19109.0	8.739600586156713e+17
19110.0	8.737924328368812e+17
19111.0	8.736207809456808e+17
19112.0	8.734476554556756e+17
19113.0	8.732741586299562e+17
19114.0	8.731004017573888e+17
19115.0	8.729257401734484e+17
19116.0	8.727522040610816e+17
19117.0	8.725770460113577e+17
19118.0	8.724002331688959e+17
19119.0	8.721668462957907e+17
19120.0	8.720524153367212e+17
19121.0	8.718774535804243e+17
19122.0	8.717026423996413e+17
19123.0	8.715268673677994e+17
19124.0	8.713509441372157e+17
19125.0	8.711746322344617e+17
19126.0	8.709970586850642e+17
19127.0	8.70772845314048e+17
19128.0	8.706423184337577e+17
19129.0	8.704646400267604e+17
19130.0	8.702904414939816e+17
19131.0	8.70113151759155e+17
19132.0	8.699350994998612e+17
19133.0	8.697530221068285e+17
19134.0	8.695792427248297e+17
19135.0	8.694009804707156e+17
19136.0	8.692222362910717e+17
19137.0	8.690391515660284e+17
19138.0	8.688639865257981e+17
19139.0	8.686852788365994e+17
19140.0	8.685058810445821e+17
19141.0	8.683261573551446e+17
19142.0	8.681415120693928e+17
19143.0	8.679598267039744e+17
19144.0	8.677803244737874e+17
19145.0	8.675999433971026e+17
19146.0	8.673996547555327e+17
19147.0	8.672352714533545e+17
19148.0	8.670560323458388e+17
19149.0	8.668739989929981e+17
19150.0	8.66691432124689e+17
19151.0	8.665088600834045e+17
19152.0	8.663258579861505e+17
19153.0	8.661426092638207e+17
19154.0	8.659556627032746e+17
19155.0	8.657752722593107e+17
19156.0	8.655912625504256e+17
19157.0	8.654063618315603e+17
19158.0	8.652100601555625e+17
19159.0	8.647699624624127e+17
19160.0	8.645852100820991e+17
19161.0	8.643990994463401e+17
19162.0	8.642030713787731e+17
19163.0	8.64025356481331e+17
19164.0	8.63840929579008e+17
19165.0	8.636542037786621e+17
19166.0	8.634643813236736e+17
19167.0	8.632789189875026e+17
19168.0	8.630913662102186e+17
19169.0	8.629037561107796e+17
19170.0	8.627162076676095e+17
19171.0	8.625275355703977e+17
19172.0	8.623390064989523e+17
19173.0	8.621500030517245e+17
19174.0	8.619591448832681e+17
19175.0	8.617710184650067e+17
19176.0	8.615810931097599e+17
19177.0	8.613858980309673e+17
19178.0	8.611999588024319e+17
19179.0	8.610089871081472e+17
19180.0	8.608180267384831e+17
19181.0	8.60624142938931e+17
19182.0	8.604342540741289e+17
19183.0	8.602428506461523e+17
19184.0	8.600497753686013e+17
19185.0	8.598574937931773e+17
19186.0	8.59664624595763e+17
19187.0	8.594687749259264e+17
19188.0	8.590400774908586e+17
19189.0	8.58741335532066e+17
19190.0	8.585461050813097e+17
19191.0	8.583505252450303e+17
19192.0	8.581546849424723e+17
19193.0	8.579583076291923e+17
19194.0	8.577616445439997e+17
19195.0	8.575643837704872e+17
19196.0	8.573661602643967e+17
19197.0	8.571670281322493e+17
19198.0	8.569631484674045e+17
19199.0	8.567064485341864e+17
19200.0	8.565192947750228e+17
19201.0	8.563684158734336e+17
19202.0	8.56174831686997e+17
19203.0	8.559771053457407e+17
19204.0	8.557773883878058e+17
19205.0	8.555782308102143e+17
19206.0	8.553776397593258e+17
19207.0	8.551749175825748e+17
19208.0	8.549708670697472e+17
19209.0	8.54774244389683e+17
19210.0	8.543359517851644e+17
19211.0	8.539423626319187e+17
19212.0	8.537360841048063e+17
19213.0	8.535267315722922e+17
19214.0	8.533189091218769e+17
19215.0	8.531139474664105e+17
19216.0	8.529057297727488e+17
19217.0	8.526963287261183e+17
19218.0	8.524653574924969e+17
19219.0	8.52270914871842e+17
19220.0	8.520661985831592e+17
19221.0	8.518479103655935e+17
19222.0	8.516436483200339e+17
19223.0	8.514324290426196e+17
19224.0	8.512184885007698e+17
19225.0	8.508093098186068e+17
19226.0	8.502756932670804e+17
19227.0	8.500585649143808e+17
19228.0	8.498424771685033e+17
19229.0	8.496248074709672e+17
19230.0	8.494064564786514e+17
19231.0	8.49187649565491e+17
19232.0	8.489676128823977e+17
19233.0	8.487453803413501e+17
19234.0	8.485262658458964e+17
19235.0	8.483052725818707e+17
19236.0	8.480829424533501e+17
19237.0	8.478365110151849e+17
19238.0	8.473254875015849e+17
19239.0	8.471027241014612e+17
19240.0	8.468750177140733e+17
19241.0	8.466487013190313e+17
19242.0	8.46421552075025e+17
19243.0	8.461871919835816e+17
19244.0	8.459637454711464e+17
19245.0	8.457336262404777e+17
19246.0	8.455023359601322e+17
19247.0	8.452709444572498e+17
19248.0	8.45038541288243e+17
19249.0	8.448051893676714e+17
19250.0	8.445708961054719e+17
19251.0	8.44332282290722e+17
19252.0	8.440903373597352e+17
19253.0	8.438639590288041e+17
19254.0	8.436271064023037e+17
19255.0	8.433830739662166e+17
19256.0	8.431498582207145e+17
19257.0	8.429113298299561e+17
19258.0	8.426709446208169e+17
19259.0	8.424272172504403e+17
19260.0	8.421860285524649e+17
19261.0	8.41943600857088e+17
19262.0	8.416977067092646e+17
19263.0	8.414505226731519e+17
19264.0	8.411926255457622e+17
19265.0	8.409529012191231e+17
19266.0	8.407057830335827e+17
19267.0	8.404593527138985e+17
19268.0	8.402084449746943e+17
19269.0	8.399564146999295e+17
19270.0	8.397029097078781e+17
19271.0	8.394405415922345e+17
19272.0	8.39192114504226e+17
19273.0	8.388908953894911e+17
19274.0	8.386462440139433e+17
19275.0	8.384210400881322e+17
19276.0	8.381618262289066e+17
19277.0	8.379010396454911e+17
19278.0	8.37638952128785e+17
19279.0	8.373754255463766e+17
19280.0	8.371090875219967e+17
19281.0	8.368449715000658e+17
19282.0	8.365778980743849e+17
19283.0	8.363089748208298e+17
19284.0	8.36037848998434e+17
19285.0	8.357656934744063e+17
19286.0	8.354828043070121e+17
19287.0	8.352045888525651e+17
19288.0	8.349067235033088e+17
19289.0	8.346032296777042e+17
19290.0	8.34374899737122e+17
19291.0	8.340872472384851e+17
19292.0	8.338147617625428e+17
19293.0	8.335317508205225e+17
19294.0	8.332460400050173e+17
19295.0	8.329586464347475e+17
19296.0	8.32669792547635e+17
19297.0	8.323794614266537e+17
19298.0	8.320881689711955e+17
19299.0	8.3179536922269e+17
19300.0	8.314999920743764e+17
19301.0	8.31202386072917e+17
19302.0	8.309029773595987e+17
19303.0	8.306006238254419e+17
19304.0	8.30299677200657e+17
19305.0	8.299968259424253e+17
19306.0	8.296915159831891e+17
19307.0	8.293827288061267e+17
19308.0	8.290744857701032e+17
19309.0	8.287631817310207e+17
19310.0	8.28449426960111e+17
19311.0	8.281377276777812e+17
19312.0	8.278237164950868e+17
19313.0	8.275059336544255e+17
19314.0	8.271566599793321e+17
19315.0	8.268376876340564e+17
19316.0	8.265427508876627e+17
19317.0	8.262000961039017e+17
19318.0	8.258487356227581e+17
19319.0	8.255198205400402e+17
19320.0	8.251887253979136e+17
19321.0	8.248556195064488e+17
19322.0	8.24518296801553e+17
19323.0	8.241824320367272e+17
19324.0	8.238436396477097e+17
19325.0	8.234992837940564e+17
19326.0	8.23150601376017e+17
19327.0	8.227975354908672e+17
19328.0	8.22442054525474e+17
19329.0	8.220839386983081e+17
19330.0	8.21723172071014e+17
19331.0	8.21358706487023e+17
19332.0	8.209922279167315e+17
19333.0	8.206213008676179e+17
19334.0	8.202468926859945e+17
19335.0	8.198244017023657e+17
19336.0	8.194096710199977e+17
19337.0	8.190243356977834e+17
19338.0	8.1862962736442e+17
19339.0	8.18242801386564e+17
19340.0	8.178450925879293e+17
19341.0	8.174442047864831e+17
19342.0	8.170317092487165e+17
19343.0	8.166304119433897e+17
19344.0	8.162161861154132e+17
19345.0	8.15752715383603e+17
19346.0	8.153492873718442e+17
19347.0	8.148229106084521e+17
19348.0	8.143863838059178e+17
19349.0	8.139462064209919e+17
19350.0	8.135014334769833e+17
19351.0	8.130514377856339e+17
19352.0	8.125934197888339e+17
19353.0	8.121324751465128e+17
19354.0	8.116614016794621e+17
19355.0	8.111459404524205e+17
19356.0	8.105139262281042e+17
19357.0	8.100172747767804e+17
19358.0	8.095138386193064e+17
19359.0	8.090029638636883e+17
19360.0	8.084882471256063e+17
19361.0	8.079662332772351e+17
19362.0	8.074231367598079e+17
19363.0	8.066718861623296e+17
19364.0	8.061290766751059e+17
19365.0	8.055792273282387e+17
19366.0	8.050222594086227e+17
19367.0	8.044580297506816e+17
19368.0	8.038763069090473e+17
19369.0	8.030159019267412e+17
19370.0	8.024270146546345e+17
19371.0	8.018368688117076e+17
19372.0	8.012395653890045e+17
19373.0	8.006310659708242e+17
19374.0	7.99681273239962e+17
19375.0	7.989968880970408e+17
19376.0	7.98333916553762e+17
19377.0	7.976586712186879e+17
19378.0	7.968477984500394e+17
19379.0	7.958441164625238e+17
19380.0	7.951321111287127e+17
19381.0	7.944073299449172e+17
19382.0	7.936664979985748e+17
19383.0	7.924914094866436e+17
19384.0	7.916847159225e+17
19385.0	7.909049026740224e+17
19386.0	7.901092735440212e+17
19387.0	7.889502255884972e+17
19388.0	7.879495453245439e+17
19389.0	7.870954199143764e+17
19390.0	7.862233848261288e+17
19391.0	7.848945114589866e+17
19392.0	7.838475305527977e+17
19393.0	7.829367147899561e+17
19394.0	7.820076005370538e+17
19395.0	7.808564789772288e+17
19396.0	7.798255670089046e+17
19397.0	7.788578461450239e+17
19398.0	7.778728724310697e+17
19399.0	7.768411234194772e+17
19400.0	7.757825237319679e+17
19401.0	7.747079345187496e+17
19402.0	7.735960801727827e+17
19403.0	7.724503900968276e+17
19404.0	7.712708505894911e+17
19405.0	7.700477754649257e+17
19406.0	7.687166264082432e+17
19407.0	7.67417822565717e+17
19408.0	7.66065176023313e+17
19409.0	7.647004079423487e+17
19410.0	7.632902247765331e+17
19411.0	7.61754670089284e+17
19412.0	7.602363211360938e+17
19413.0	7.58699928986146e+17
19414.0	7.571223890362365e+17
19415.0	7.555000161708713e+17
19416.0	7.536727400906751e+17
19417.0	7.518989225121108e+17
19418.0	7.500532226719744e+17
19419.0	7.4811833333405e+17
19420.0	7.461144137214632e+17
19421.0	7.439323158806525e+17
19422.0	7.417984029032447e+17
19423.0	7.39596275443302e+17
19424.0	7.373213459109203e+17
19425.0	7.349362687825236e+17
19426.0	7.323943792104786e+17
19427.0	7.297111649419263e+17
19428.0	7.269618688546131e+17
19429.0	7.241337454373544e+17
19430.0	7.211899301134336e+17
19431.0	7.180728489301332e+17
19432.0	7.147998285572776e+17
19433.0	7.113933279548756e+17
19434.0	7.078368727356756e+17
19435.0	7.040743410849106e+17
19436.0	7.001308707247446e+17
19437.0	6.959979310000809e+17
19438.0	6.915933159292924e+17
19439.0	6.869982124179457e+17
19440.0	6.821438808566442e+17
19441.0	6.77001121060181e+17
19442.0	6.715663932456961e+17
19443.0	6.658172303441919e+17
19444.0	6.59734084871782e+17
19445.0	6.532895752235692e+17
19446.0	6.464634742287018e+17
19447.0	6.39211890033732e+17
19448.0	6.314667708252163e+17
19449.0	6.231144215347199e+17
19450.0	6.138373980815355e+17
19451.0	6.090301507283628e+17
19452.0	6.185300594961065e+17
19453.0	6.270401408314029e+17
19454.0	6.348362899696294e+17
19455.0	6.420868048267946e+17
19456.0	6.488787214052012e+17
19457.0	6.55265721762884e+17
19458.0	6.61262384112162e+17
19459.0	6.669435213447169e+17
19460.0	6.722653007467859e+17
19461.0	6.773050801739092e+17
19462.0	6.820343047345494e+17
19463.0	6.865012302457512e+17
19464.0	6.907403986184874e+17
19465.0	6.94721715232222e+17
19466.0	6.984813121284776e+17
19467.0	7.020697631064063e+17
19468.0	7.054436804678998e+17
19469.0	7.08639458538291e+17
19470.0	7.117124923992745e+17
19471.0	7.14631924556322e+17
19472.0	7.173669948227581e+17
19473.0	7.19969627284002e+17
19474.0	7.224574528367276e+17
19475.0	7.24912013783859e+17
19476.0	7.272324101308415e+17
19477.0	7.294073568231424e+17
19478.0	7.314382428744361e+17
19479.0	7.333884681256957e+17
19480.0	7.35263292793378e+17
19481.0	7.371355129380863e+17
19482.0	7.389277162482345e+17
19483.0	7.40606766883362e+17
19484.0	7.422016337827156e+17
19485.0	7.43714351742976e+17
19486.0	7.45229660524817e+17
19487.0	7.466448444194815e+17
19488.0	7.479453097656319e+17
19489.0	7.492035179184128e+17
19490.0	7.50403021194308e+17
19491.0	7.516830159601663e+17
19492.0	7.52834580718114e+17
19493.0	7.539285225897981e+17
19494.0	7.549861089334612e+17
19495.0	7.56008237469969e+17
19496.0	7.570158400132435e+17
19497.0	7.579969903394816e+17
19498.0	7.588853756635817e+17
19499.0	7.596825249491624e+17
19500.0	7.605793789924692e+17
19501.0	7.613735547961343e+17
19502.0	7.621373852297897e+17
19503.0	7.628901847837352e+17
19504.0	7.635805999377064e+17
19505.0	7.642538875114834e+17
19506.0	7.649101615901354e+17
19507.0	7.658243291611136e+17
19508.0	7.664637832418644e+17
19509.0	7.670793704745642e+17
19510.0	7.67678792859648e+17
19511.0	7.687639531170476e+17
19512.0	7.693936625713151e+17
19513.0	7.699339540780374e+17
19514.0	7.704937998494376e+17
19515.0	7.714999918482772e+17
19516.0	7.720042284187647e+17
19517.0	7.724831580968276e+17
19518.0	7.729480785199101e+17
19519.0	7.737533428050602e+17
19520.0	7.742814801974612e+17
19521.0	7.747040907187539e+17
19522.0	7.751129867048275e+17
19523.0	7.756734448446124e+17
19524.0	7.763005167807148e+17
19525.0	7.766713331002024e+17
19526.0	7.77030195932911e+17
19527.0	7.773767353412266e+17
19528.0	7.779654194692092e+17
19529.0	7.78351127245619e+17
19530.0	7.786444655427583e+17
19531.0	7.789293342818301e+17
19532.0	7.792088260629844e+17
19533.0	7.796550165419348e+17
19534.0	7.800192226383187e+17
19535.0	7.802758059698858e+17
19536.0	7.805238661961044e+17
19537.0	7.807666122391551e+17
19538.0	7.809982316325544e+17
19539.0	7.813483956185769e+17
19540.0	7.816645647706796e+17
19541.0	7.818789431978664e+17
19542.0	7.820855918024022e+17
19543.0	7.822855421034493e+17
19544.0	7.824788370227197e+17
19545.0	7.826544030384127e+17
19546.0	7.829029411356671e+17
19547.0	7.831830577283071e+17
19548.0	7.833478299822761e+17
19549.0	7.834987992012114e+17
19550.0	7.836491689142953e+17
19551.0	7.837899413607764e+17
19552.0	7.839246912061439e+17
19553.0	7.84053881082129e+17
19554.0	7.841779070708393e+17
19555.0	7.843673507801769e+17
19556.0	7.845243730788352e+17
19557.0	7.84632662458368e+17
19558.0	7.847383635329021e+17
19559.0	7.848373067448317e+17
19560.0	7.849309194158079e+17
19561.0	7.85021909807923e+17
19562.0	7.851078220163754e+17
19563.0	7.85189621010705e+17
19564.0	7.852675612453545e+17
19565.0	7.853416778126675e+17
19566.0	7.854116298555391e+17
19567.0	7.85541384704273e+17
19568.0	7.856115433865215e+17
19569.0	7.856718762125993e+17
19570.0	7.857282835895636e+17
19571.0	7.857810751968596e+17
19572.0	7.858287553456809e+17
19573.0	7.858748869574656e+17
19574.0	7.859164142021289e+17
19575.0	7.859603877046953e+17
19576.0	7.859983897766569e+17
19577.0	7.860316376050344e+17
19578.0	7.860587473491284e+17
19579.0	7.860841365897216e+17
19580.0	7.861072684559017e+17
19581.0	7.86128472200533e+17
19582.0	7.86147598086963e+17
19583.0	7.861642304596649e+17
19584.0	7.861787024861864e+17
19585.0	7.862134938184361e+17
19586.0	7.862352871424e+17
19587.0	7.862473450673494e+17
19588.0	7.862430510787241e+17
19589.0	7.862582819946493e+17
19590.0	7.862600319980883e+17
19591.0	7.862629102693034e+17
19592.0	7.862620600838826e+17
19593.0	7.862587911831552e+17
19594.0	7.862481587623254e+17
19595.0	7.862486917185535e+17
19596.0	7.862337640508073e+17
19597.0	7.8623123977885e+17
19598.0	7.862145272949417e+17
19599.0	7.862080449981097e+17
19600.0	7.86193716416785e+17
19601.0	7.861758349803519e+17
19602.0	7.861581545908906e+17
19603.0	7.861294733808979e+17
19604.0	7.861157392722602e+17
19605.0	7.860857915222697e+17
19606.0	7.860699244702376e+17
19607.0	7.860440263207593e+17
19608.0	7.860163946654378e+17
19609.0	7.859862380391081e+17
19610.0	7.859545120440319e+17
19611.0	7.85920642899422e+17
19612.0	7.858855360157011e+17
19613.0	7.85848826208802e+17
19614.0	7.858092934955007e+17
19615.0	7.857710845045416e+17
19616.0	7.857295601958911e+17
19617.0	7.856885968054953e+17
19618.0	7.856441999578451e+17
19619.0	7.855955019912531e+17
19620.0	7.855510490797395e+17
19621.0	7.855200921802067e+17
19622.0	7.854715689762816e+17
19623.0	7.854215883915263e+17
19624.0	7.853703344160765e+17
19625.0	7.853178647915178e+17
19626.0	7.852641723875327e+17
19627.0	7.852091159958867e+17
19628.0	7.851514647281663e+17
19629.0	7.850921990728361e+17
19630.0	7.850228196922708e+17
19631.0	7.84906753094451e+17
19632.0	7.849158214593193e+17
19633.0	7.848567223178582e+17
19634.0	7.847948563338582e+17
19635.0	7.84730181284659e+17
19636.0	7.846673131416233e+17
19637.0	7.845881039902036e+17
19638.0	7.845353985059498e+17
19639.0	7.844677512331263e+17
19640.0	7.843975417997996e+17
19641.0	7.843168028459007e+17
19642.0	7.842601236780374e+17
19643.0	7.841881922032978e+17
19644.0	7.841133395356328e+17
19645.0	7.840350534107135e+17
19646.0	7.839676720567636e+17
19647.0	7.838925814322514e+17
19648.0	7.838165567362386e+17
19649.0	7.837396253715114e+17
19650.0	7.836622489911296e+17
19651.0	7.8358427743901e+17
19652.0	7.835055056136873e+17
19653.0	7.834258834631338e+17
19654.0	7.83345572188433e+17
19655.0	7.832642925887485e+17
19656.0	7.831823321137151e+17
19657.0	7.830998544809984e+17
19658.0	7.830164545208317e+17
19659.0	7.829322723229696e+17
19660.0	7.829141327970305e+17
19661.0	7.830225587710632e+17
19662.0	7.829349737343658e+17
19663.0	7.828455734028969e+17
19664.0	7.827575838954836e+17
19665.0	7.826682541681321e+17
19666.0	7.825776527278079e+17
