# Flux units: erg / (cm m2 s)
# Wavelength units: Angstrom
wave	flux
19000.0	6.372574693599914e+17
19001.0	6.37134365069585e+17
19002.0	6.370187928403967e+17
19003.0	6.368993884853588e+17
19004.0	6.367799584052564e+17
19005.0	6.366604811392339e+17
19006.0	6.365414243521876e+17
19007.0	6.364179348149588e+17
19008.0	6.363001513487017e+17
19009.0	6.361827243982847e+17
19010.0	6.360444425994239e+17
19011.0	6.359437152004778e+17
19012.0	6.358154071070036e+17
19013.0	6.357058619528534e+17
19014.0	6.355844643946495e+17
19015.0	6.354660389202602e+17
19016.0	6.35346324955682e+17
19017.0	6.352279222703444e+17
19018.0	6.351089925707091e+17
19019.0	6.349904190373887e+17
19020.0	6.34869876068625e+17
19021.0	6.3475159152285e+17
19022.0	6.346329071899988e+17
19023.0	6.345123501703167e+17
19024.0	6.343939586697898e+17
19025.0	6.342753336164351e+17
19026.0	6.34154875232802e+17
19027.0	6.340309976525481e+17
19028.0	6.339183168367274e+17
19029.0	6.337987844156074e+17
19030.0	6.336806572960426e+17
19031.0	6.335616144201044e+17
19032.0	6.334424710905855e+17
19033.0	6.33320162529553e+17
19034.0	6.332040221119828e+17
19035.0	6.330841696654676e+17
19036.0	6.324828536919375e+17
19037.0	6.328471935866196e+17
19038.0	6.327277826605055e+17
19039.0	6.326098030406314e+17
19040.0	6.32490892075554e+17
19041.0	6.323716852023295e+17
19042.0	6.322496169749161e+17
19043.0	6.32134301786658e+17
19044.0	6.320149565713065e+17
19045.0	6.318963302596607e+17
19046.0	6.317758748120403e+17
19047.0	6.316589399233876e+17
19048.0	6.315316325209427e+17
19049.0	6.314188534185983e+17
19050.0	6.313008229078356e+17
19051.0	6.311053240216232e+17
19052.0	6.310612480382292e+17
19053.0	6.309455339716608e+17
19054.0	6.308279148522153e+17
19055.0	6.306995981604182e+17
19056.0	6.305894567160489e+17
19057.0	6.304716073992191e+17
19058.0	6.303518822498301e+17
19059.0	6.302346106983764e+17
19060.0	6.301152493349544e+17
19061.0	6.299976762130431e+17
19062.0	6.298789618210132e+17
19063.0	6.297605578074793e+17
19064.0	6.296371068578474e+17
19065.0	6.295168842640042e+17
19066.0	6.294028189084329e+17
19067.0	6.29286197264384e+17
19068.0	6.291682660188159e+17
19069.0	6.290499170205696e+17
19070.0	6.289305756499967e+17
19071.0	6.288128992083967e+17
19072.0	6.286947672653823e+17
19073.0	6.28576273703458e+17
19074.0	6.284581701419008e+17
19075.0	6.283398759492265e+17
19076.0	6.282207169609727e+17
19077.0	6.281029792825343e+17
19078.0	6.279836228124671e+17
19079.0	6.278668761781588e+17
19080.0	6.277481907967316e+17
19081.0	6.276287261136212e+17
19082.0	6.275103443298985e+17
19083.0	6.273902830070441e+17
19084.0	6.272671871052457e+17
19085.0	6.271577267459412e+17
19086.0	6.270252435723604e+17
19087.0	6.269076940084563e+17
19088.0	6.268009599467519e+17
19089.0	6.266713941912233e+17
19090.0	6.265665171576148e+17
19091.0	6.26448978289186e+17
19092.0	6.263265011870377e+17
19093.0	6.262138725203968e+17
19094.0	6.260955314214228e+17
19095.0	6.259775057341097e+17
19096.0	6.258592036421632e+17
19097.0	6.257422442168319e+17
19098.0	6.256244589330432e+17
19099.0	6.255065994100735e+17
19100.0	6.253878852277588e+17
19101.0	6.25270766768401e+17
19102.0	6.251493862670335e+17
19103.0	6.250353829871615e+17
19104.0	6.249178025951231e+17
19105.0	6.248000856784895e+17
19106.0	6.246798262446761e+17
19107.0	6.245641564280148e+17
19108.0	6.244470599188479e+17
19109.0	6.242865596334079e+17
19110.0	6.242116468473855e+17
19111.0	6.240942572961791e+17
19112.0	6.239766985048063e+17
19113.0	6.238591512477695e+17
19114.0	6.237415989575677e+17
19115.0	6.236214877224959e+17
19116.0	6.235057696014335e+17
19117.0	6.233886220615679e+17
19118.0	6.232664406578516e+17
19119.0	6.230114302601896e+17
19120.0	6.230322515542015e+17
19121.0	6.229169117593599e+17
19122.0	6.22802098978816e+17
19123.0	6.226846255415295e+17
19124.0	6.225648449574227e+17
19125.0	6.22449900196113e+17
19126.0	6.223321819512831e+17
19127.0	6.221502086468946e+17
19128.0	6.220727706801492e+17
19129.0	6.2197760800413e+17
19130.0	6.218633126608895e+17
19131.0	6.217457159110655e+17
19132.0	6.216292981800959e+17
19133.0	6.214988408553472e+17
19134.0	6.213824368956756e+17
19135.0	6.21277691842833e+17
19136.0	6.211609483542527e+17
19137.0	6.210376671341225e+17
19138.0	6.209246917383508e+17
19139.0	6.208097320173568e+17
19140.0	6.20692746866961e+17
19141.0	6.205757501822291e+17
19142.0	6.204578048158378e+17
19143.0	6.203395303363924e+17
19144.0	6.202236531113983e+17
19145.0	6.201078198566911e+17
19146.0	6.199678238457855e+17
19147.0	6.198705745035263e+17
19148.0	6.197569646493695e+17
19149.0	6.196399560108714e+17
19150.0	6.195231459726676e+17
19151.0	6.194067399857494e+17
19152.0	6.192891883246932e+17
19153.0	6.191722804893012e+17
19154.0	6.190515436038825e+17
19155.0	6.189396404819284e+17
19156.0	6.188227868229631e+17
19157.0	6.187057350530388e+17
19158.0	6.185602603723433e+17
19159.0	6.184719326642173e+17
19160.0	6.183549804391081e+17
19161.0	6.1823701235357e+17
19162.0	6.180565860483072e+17
19163.0	6.180059971496618e+17
19164.0	6.178897104906921e+17
19165.0	6.177716299279018e+17
19166.0	6.176508962581161e+17
19167.0	6.175337992596137e+17
19168.0	6.174208204384938e+17
19169.0	6.173044574431914e+17
19170.0	6.17190486249745e+17
19171.0	6.170700522629802e+17
19172.0	6.1695730909184e+17
19173.0	6.168410082421418e+17
19174.0	6.167226209359188e+17
19175.0	6.16608390254865e+17
19176.0	6.164919974100991e+17
19177.0	6.16369940996642e+17
19178.0	6.162584768086013e+17
19179.0	6.161367792877568e+17
19180.0	6.160231335723008e+17
19181.0	6.159057035460605e+17
19182.0	6.157927508694356e+17
19183.0	6.156773019527849e+17
19184.0	6.155586078332243e+17
19185.0	6.154445691114836e+17
19186.0	6.153287998199124e+17
19187.0	6.152098186701482e+17
19188.0	6.150960211208874e+17
19189.0	6.149791418067626e+17
19190.0	6.148626710877524e+17
19191.0	6.147459047402153e+17
19192.0	6.146316321161215e+17
19193.0	6.145140971623764e+17
19194.0	6.143982061660842e+17
19195.0	6.142829950664703e+17
19196.0	6.141664027126442e+17
19197.0	6.140505565954047e+17
19198.0	6.139343745144148e+17
19199.0	6.134212178477053e+17
19200.0	6.134558223237121e+17
19201.0	6.135862865690623e+17
19202.0	6.134706651966121e+17
19203.0	6.133538044772351e+17
19204.0	6.132377345938771e+17
19205.0	6.131223181830825e+17
19206.0	6.130063117036201e+17
19207.0	6.128387716983465e+17
19208.0	6.126905225554601e+17
19209.0	6.125828440063999e+17
19210.0	6.124670501082452e+17
19211.0	6.123514206268073e+17
19212.0	6.122355592003583e+17
19213.0	6.121131760506198e+17
19214.0	6.119957373561514e+17
19215.0	6.118864704940714e+17
19216.0	6.117715159460521e+17
19217.0	6.116560348031658e+17
19218.0	6.115091959949993e+17
19219.0	6.114184050420393e+17
19220.0	6.113072477372415e+17
19221.0	6.11179699441937e+17
19222.0	6.110766838404435e+17
19223.0	6.109598921872724e+17
19224.0	6.108426314011988e+17
19225.0	6.107232329880915e+17
19226.0	6.106122784079872e+17
19227.0	6.104963284817235e+17
19228.0	6.103815936453289e+17
19229.0	6.102657268361898e+17
19230.0	6.101487593717759e+17
19231.0	6.100328029443412e+17
19232.0	6.099174371448148e+17
19233.0	6.097995889464662e+17
19234.0	6.096854598374739e+17
19235.0	6.095694200831999e+17
19236.0	6.094547323628201e+17
19237.0	6.093382765335892e+17
19238.0	6.092190789577386e+17
19239.0	6.091072413368319e+17
19240.0	6.089860829238612e+17
19241.0	6.088733101828777e+17
19242.0	6.087589155744425e+17
19243.0	6.086372660783786e+17
19244.0	6.085277689490089e+17
19245.0	6.084116773950804e+17
19246.0	6.082953387966463e+17
19247.0	6.081800475159209e+17
19248.0	6.080641917517823e+17
19249.0	6.079480094610771e+17
19250.0	6.078314800917161e+17
19251.0	6.077133647162026e+17
19252.0	6.075879265053353e+17
19253.0	6.074834122790227e+17
19254.0	6.073675536487763e+17
19255.0	6.07244411609634e+17
19256.0	6.071350617003348e+17
19257.0	6.070201994270038e+17
19258.0	6.069040822179156e+17
19259.0	6.067850415090346e+17
19260.0	6.066637096615933e+17
19261.0	6.065552746698067e+17
19262.0	6.064373084018004e+17
19263.0	6.063214459966803e+17
19264.0	6.061875065607507e+17
19265.0	6.060833382247081e+17
19266.0	6.059677391519744e+17
19267.0	6.058583711372628e+17
19268.0	6.057418024113492e+17
19269.0	6.05625659826722e+17
19270.0	6.055103586194772e+17
19271.0	6.05382022004736e+17
19272.0	6.052766705254397e+17
19273.0	6.05015056266035e+17
19274.0	6.049699401651539e+17
19275.0	6.049283326694739e+17
19276.0	6.048109447959891e+17
19277.0	6.046944229064703e+17
19278.0	6.04577854460177e+17
19279.0	6.044595569120596e+17
19280.0	6.043412156033705e+17
19281.0	6.042271392027988e+17
19282.0	6.041108440154111e+17
19283.0	6.039877689453225e+17
19284.0	6.038674549855572e+17
19285.0	6.037518038335487e+17
19286.0	6.036412434481151e+17
19287.0	6.035252914946047e+17
19288.0	6.033053587603455e+17
19289.0	6.029455782838262e+17
19290.0	6.031732046299133e+17
19291.0	6.030458538164224e+17
19292.0	6.0293810487296e+17
19293.0	6.028201126002687e+17
19294.0	6.027022310572031e+17
19295.0	6.025848300415657e+17
19296.0	6.024666332965546e+17
19297.0	6.023481670675114e+17
19298.0	6.022296570778963e+17
19299.0	6.021125163887274e+17
19300.0	6.019940775624704e+17
19301.0	6.018754126632276e+17
19302.0	6.017568909295615e+17
19303.0	6.016350064126634e+17
19304.0	6.01517829722385e+17
19305.0	6.014000045927081e+17
19306.0	6.012811204012712e+17
19307.0	6.011600136481449e+17
19308.0	6.010418733165225e+17
19309.0	6.009100576664233e+17
19310.0	6.007843425615871e+17
19311.0	6.006822453728595e+17
19312.0	6.005638988212906e+17
19313.0	6.004432465210025e+17
19314.0	5.999732202318496e+17
19315.0	5.998888165747378e+17
19316.0	6.00082430960162e+17
19317.0	5.99962152931601e+17
19318.0	5.998410561748991e+17
19319.0	5.997206685351935e+17
19320.0	5.995989672394751e+17
19321.0	5.99477721445171e+17
19322.0	5.993517708301652e+17
19323.0	5.992270730537641e+17
19324.0	5.991113492004863e+17
19325.0	5.989766499663872e+17
19326.0	5.98866236940834e+17
19327.0	5.987426535910057e+17
19328.0	5.986199983707475e+17
19329.0	5.984963981737983e+17
19330.0	5.983708885199529e+17
19331.0	5.982465960531284e+17
19332.0	5.981237398558036e+17
19333.0	5.979983628817748e+17
19334.0	5.978732802779818e+17
19335.0	5.977481453152937e+17
19336.0	5.976220934777513e+17
19337.0	5.974955920807252e+17
19338.0	5.97361143386385e+17
19339.0	5.972417883144191e+17
19340.0	5.971108670297428e+17
19341.0	5.969860223128916e+17
19342.0	5.968426180105556e+17
19343.0	5.96728744055057e+17
19344.0	5.965991980127572e+17
19345.0	5.96384594211635e+17
19346.0	5.963191669140138e+17
19347.0	5.962051753082879e+17
19348.0	5.960761464935764e+17
19349.0	5.958985186279423e+17
19350.0	5.957111666180096e+17
19351.0	5.95576890589184e+17
19352.0	5.95441367314159e+17
19353.0	5.953090119270399e+17
19354.0	5.951731018672809e+17
19355.0	5.950327417907882e+17
19356.0	5.948987664236543e+17
19357.0	5.947603549508948e+17
19358.0	5.946201079807999e+17
19359.0	5.944730335226538e+17
19360.0	5.943382819296595e+17
19361.0	5.941957471065427e+17
19362.0	5.940543016140799e+17
19363.0	5.939098557262505e+17
19364.0	5.937641189015551e+17
19365.0	5.93617529794287e+17
19366.0	5.934694944909993e+17
19367.0	5.933201719558143e+17
19368.0	5.931694669780308e+17
19369.0	5.930138743777962e+17
19370.0	5.928465949786111e+17
19371.0	5.927061268288852e+17
19372.0	5.925512759913129e+17
19373.0	5.923188650628435e+17
19374.0	5.921027364924074e+17
19375.0	5.919400253194237e+17
19376.0	5.917752286685868e+17
19377.0	5.916077644404052e+17
19378.0	5.914386728222719e+17
19379.0	5.912671145339561e+17
19380.0	5.910930961465343e+17
19381.0	5.9091616544413e+17
19382.0	5.907336751218687e+17
19383.0	5.905506045176489e+17
19384.0	5.903033350575446e+17
19385.0	5.900171892228095e+17
19386.0	5.8982459768832e+17
19387.0	5.896282520420351e+17
19388.0	5.894281492081322e+17
19389.0	5.892240608766633e+17
19390.0	5.890156771584681e+17
19391.0	5.882514386889376e+17
19392.0	5.883833973648042e+17
19393.0	5.881601880402602e+17
19394.0	5.879306991435775e+17
19395.0	5.87695203164706e+17
19396.0	5.872477331434156e+17
19397.0	5.86964568899584e+17
19398.0	5.867074167504895e+17
19399.0	5.8632826823639e+17
19400.0	5.858628275098964e+17
19401.0	5.855676098150399e+17
19402.0	5.851018678676138e+17
19403.0	5.846393065308159e+17
19404.0	5.84231416548557e+17
19405.0	5.836136467398655e+17
19406.0	5.831168860269228e+17
19407.0	5.824771259716948e+17
19408.0	5.818948171857919e+17
19409.0	5.814642758647805e+17
19410.0	5.810548652376063e+17
19411.0	5.806270495850495e+17
19412.0	5.801815170525866e+17
19413.0	5.797172029161471e+17
19414.0	5.792314638554452e+17
19415.0	5.787263027904512e+17
19416.0	5.781774857317033e+17
19417.0	5.775652908520788e+17
19418.0	5.769935368224767e+17
19419.0	5.7638654525658445e+17
19420.0	5.757530335259305e+17
19421.0	5.750871709887147e+17
19422.0	5.7428270236303366e+17
19423.0	5.7353587228235085e+17
19424.0	5.727576281929045e+17
19425.0	5.7178636027603616e+17
19426.0	5.7090357770321894e+17
19427.0	5.697934072304981e+17
19428.0	5.6867101427630086e+17
19429.0	5.6737047308315315e+17
19430.0	5.658610214371324e+17
19431.0	5.639722261020674e+17
19432.0	5.618082512896001e+17
19433.0	5.5890905951546054e+17
19434.0	5.55996185502242e+17
19435.0	5.5397269330984934e+17
19436.0	5.518200796785322e+17
19437.0	5.4955171905536e+17
19438.0	5.464244482299218e+17
19439.0	5.4431270913966074e+17
19440.0	5.412744391382356e+17
19441.0	5.3774133060348544e+17
19442.0	5.3323757553800544e+17
19443.0	5.267863350804473e+17
19444.0	5.195604616194728e+17
19445.0	5.132472659126956e+17
19446.0	5.055887975295655e+17
19447.0	4.946916805356196e+17
19448.0	4.806779068918449e+17
19449.0	4.608869727382182e+17
19450.0	4.21648974234691e+17
19451.0	4.1041001678110586e+17
19452.0	4.4281122468659315e+17
19453.0	4.7239570055495744e+17
19454.0	4.8744370085560205e+17
19455.0	5.002621129588729e+17
19456.0	5.08864955731149e+17
19457.0	5.15541145240644e+17
19458.0	5.211023128657924e+17
19459.0	5.289854285206862e+17
19460.0	5.340209279401983e+17
19461.0	5.3771734799264435e+17
19462.0	5.4076707976861005e+17
19463.0	5.434541983749459e+17
19464.0	5.458143439312211e+17
19465.0	5.48031061487343e+17
19466.0	5.5000736580239334e+17
19467.0	5.518493506775722e+17
19468.0	5.539769737368918e+17
19469.0	5.5686691651147117e+17
19470.0	5.592089493154464e+17
19471.0	5.609575076069375e+17
19472.0	5.623811423251109e+17
19473.0	5.635735226242388e+17
19474.0	5.645961470672898e+17
19475.0	5.653994895922518e+17
19476.0	5.662182148669439e+17
19477.0	5.669165260778154e+17
19478.0	5.6757689973910176e+17
19479.0	5.6811374122106874e+17
19480.0	5.686750268970324e+17
19481.0	5.691889918061225e+17
19482.0	5.6962009467453434e+17
19483.0	5.700220309820758e+17
19484.0	5.7039436584932685e+17
19485.0	5.7075419099518285e+17
19486.0	5.7113144431301965e+17
19487.0	5.714297005015039e+17
19488.0	5.7170550800602445e+17
19489.0	5.7195929247853216e+17
19490.0	5.721425754543443e+17
19491.0	5.724097796724052e+17
19492.0	5.726106249680211e+17
19493.0	5.727925041102847e+17
19494.0	5.73119619277346e+17
19495.0	5.733598087522986e+17
19496.0	5.738781380444158e+17
19497.0	5.74043739232666e+17
19498.0	5.7446630424576006e+17
19499.0	5.7385422932322886e+17
19500.0	5.7489034810053997e+17
19501.0	5.750355308576767e+17
19502.0	5.7509368397387085e+17
19503.0	5.7541164682007885e+17
19504.0	5.754909799830868e+17
19505.0	5.7552465388284576e+17
19506.0	5.756008427858602e+17
19507.0	5.757996928510634e+17
19508.0	5.758128196244819e+17
19509.0	5.7581965885658445e+17
19510.0	5.758139285984596e+17
19511.0	5.751337730615969e+17
19512.0	5.759209675860646e+17
19513.0	5.757807478090407e+17
19514.0	5.758398652656296e+17
19515.0	5.759238497719637e+17
19516.0	5.759227683405822e+17
19517.0	5.758920491182761e+17
19518.0	5.7586309604747936e+17
19519.0	5.7595926221073043e+17
19520.0	5.7594225997032096e+17
19521.0	5.7590220611474765e+17
19522.0	5.758570469523455e+17
19523.0	5.7581202102900045e+17
19524.0	5.757632950304767e+17
19525.0	5.757111395592873e+17
19526.0	5.756589717848063e+17
19527.0	5.7560369763887776e+17
19528.0	5.755463773017427e+17
19529.0	5.7548765746517325e+17
19530.0	5.7542707158275405e+17
19531.0	5.75395255480047e+17
19532.0	5.754204180884138e+17
19533.0	5.753544568558933e+17
19534.0	5.7528697770475514e+17
19535.0	5.7521767843539616e+17
19536.0	5.7514653576942925e+17
19537.0	5.750766761410558e+17
19538.0	5.7500298459654835e+17
19539.0	5.749074044474709e+17
19540.0	5.7485427988234234e+17
19541.0	5.747793361283754e+17
19542.0	5.747021380059135e+17
19543.0	5.7462432520820045e+17
19544.0	5.745455109505022e+17
19545.0	5.744532128443049e+17
19546.0	5.7434750491907405e+17
19547.0	5.743038157903188e+17
19548.0	5.7422175625980576e+17
19549.0	5.7413498673561594e+17
19550.0	5.7405512047656954e+17
19551.0	5.7397085984522234e+17
19552.0	5.738858014572543e+17
19553.0	5.7379947002811725e+17
19554.0	5.737123203601749e+17
19555.0	5.7362651098207565e+17
19556.0	5.7353966463221754e+17
19557.0	5.7345153384666445e+17
19558.0	5.7336313714223776e+17
19559.0	5.732737907774805e+17
19560.0	5.731837151630675e+17
19561.0	5.7309376621663565e+17
19562.0	5.730045289736873e+17
19563.0	5.7291368831822496e+17
19564.0	5.7289887214906016e+17
19565.0	5.7282011919810554e+17
19566.0	5.7272684521717754e+17
19567.0	5.726355102629887e+17
19568.0	5.7254170276659194e+17
19569.0	5.724487650989397e+17
19570.0	5.723561705253545e+17
19571.0	5.722623603026602e+17
19572.0	5.721670828425216e+17
19573.0	5.7207340278306125e+17
19574.0	5.719754592135849e+17
19575.0	5.718843764768767e+17
19576.0	5.7178904449078605e+17
19577.0	5.716915894878207e+17
19578.0	5.7159658116218874e+17
19579.0	5.715010519039998e+17
19580.0	5.714051601880405e+17
19581.0	5.7130906337061536e+17
19582.0	5.712132242931711e+17
19583.0	5.711164761702398e+17
19584.0	5.7101951644467194e+17
19585.0	5.7091808726876154e+17
19586.0	5.708195529315668e+17
19587.0	5.707247693507241e+17
19588.0	5.7061204798996474e+17
19589.0	5.705308482917716e+17
19590.0	5.704305466845866e+17
19591.0	5.703357278715902e+17
19592.0	5.702376836388181e+17
19593.0	5.7013854588108794e+17
19594.0	5.7003082909395616e+17
19595.0	5.6994132117858976e+17
19596.0	5.6978511956541434e+17
19597.0	5.69743656493602e+17
19598.0	5.696328956903423e+17
19599.0	5.6954593462626976e+17
19600.0	5.694470183277908e+17
19601.0	5.6934507695745683e+17
19602.0	5.692466114068479e+17
19603.0	5.691270839489876e+17
19604.0	5.6904714428962125e+17
19605.0	5.689375864826537e+17
19606.0	5.688489186164735e+17
19607.0	5.687494085443583e+17
19608.0	5.686487398656681e+17
19609.0	5.685471769613652e+17
19610.0	5.684491345461247e+17
19611.0	5.683486448943103e+17
19612.0	5.6824857425346554e+17
19613.0	5.68147689288499e+17
19614.0	5.6804616518150816e+17
19615.0	5.67947212812015e+17
19616.0	5.678428770533375e+17
19617.0	5.677458424594431e+17
19618.0	5.676261907103742e+17
19619.0	5.675172438037843e+17
19620.0	5.674190474575871e+17
19621.0	5.673429139892905e+17
19622.0	5.672420163715071e+17
19623.0	5.671410728959999e+17
19624.0	5.6703970097233914e+17
19625.0	5.669389724549119e+17
19626.0	5.6683794271655245e+17
19627.0	5.667368144120489e+17
19628.0	5.666264584290303e+17
19629.0	5.665311281905663e+17
19630.0	5.664287647334399e+17
19631.0	5.658976890213713e+17
19632.0	5.6623036310923936e+17
19633.0	5.661276009136126e+17
19634.0	5.660279484448767e+17
19635.0	5.659250868442452e+17
19636.0	5.6582488044776096e+17
19637.0	5.657095619040597e+17
19638.0	5.6562192975134714e+17
19639.0	5.655204073220777e+17
19640.0	5.654169064396118e+17
19641.0	5.65288246444032e+17
19642.0	5.652157389515434e+17
19643.0	5.6511379478500685e+17
19644.0	5.6501061875138554e+17
19645.0	5.6490107324770976e+17
19646.0	5.648096978883924e+17
19647.0	5.647080462745599e+17
19648.0	5.646063789320873e+17
19649.0	5.645045905839445e+17
19650.0	5.6440299957780474e+17
19651.0	5.64301018501393e+17
19652.0	5.6419950592873805e+17
19653.0	5.6409776560537594e+17
19654.0	5.6399575852427936e+17
19655.0	5.638939104073043e+17
19656.0	5.637922952839167e+17
19657.0	5.6369080976452256e+17
19658.0	5.635890411296084e+17
19659.0	5.634871930126336e+17
19660.0	5.633854656916138e+17
19661.0	5.632836695840084e+17
19662.0	5.631818686529535e+17
