# Flux units: erg / (cm m2 s)
# Wavelength units: Angstrom
wave	flux
19000.0	7.362957633650688e+17
19001.0	7.361616764993533e+17
19002.0	7.360287820742653e+17
19003.0	7.358952081719293e+17
19004.0	7.357615885516799e+17
19005.0	7.356286450532352e+17
19006.0	7.354980998578173e+17
19007.0	7.353642935910399e+17
19008.0	7.352411727331327e+17
19009.0	7.35111348958003e+17
19010.0	7.349767115199827e+17
19011.0	7.348441334852266e+17
19012.0	7.347101251928061e+17
19013.0	7.345763868737535e+17
19014.0	7.344423155269632e+17
19015.0	7.343081951068157e+17
19016.0	7.34173864132608e+17
19017.0	7.340397969801215e+17
19018.0	7.339056404889599e+17
19019.0	7.3377137033216e+17
19020.0	7.336370829787135e+17
19021.0	7.335027641679872e+17
19022.0	7.333683967033343e+17
19023.0	7.33234007847731e+17
19024.0	7.330995535609853e+17
19025.0	7.329650992742399e+17
19026.0	7.328305388716032e+17
19027.0	7.326959054880768e+17
19028.0	7.325616294592511e+17
19029.0	7.324271206465533e+17
19030.0	7.322925552107517e+17
19031.0	7.321579490902015e+17
19032.0	7.320232951545855e+17
19033.0	7.318880020070399e+17
19034.0	7.317536331442858e+17
19035.0	7.316169616086355e+17
19036.0	7.314647799562237e+17
19037.0	7.313480403124224e+17
19038.0	7.312148539637757e+17
19039.0	7.310803476676607e+17
19040.0	7.309456614359037e+17
19041.0	7.308109127090175e+17
19042.0	7.306761199419391e+17
19043.0	7.305413045256191e+17
19044.0	7.304064572325887e+17
19045.0	7.302715759656957e+17
19046.0	7.301365126660093e+17
19047.0	7.300014907501225e+17
19048.0	7.298662402446675e+17
19049.0	7.297318718013439e+17
19050.0	7.295967441889961e+17
19051.0	7.294595081000275e+17
19052.0	7.293256333262847e+17
19053.0	7.291920430661632e+17
19054.0	7.290572574294015e+17
19055.0	7.289212172763135e+17
19056.0	7.287873694859263e+17
19057.0	7.286523816837117e+17
19058.0	7.285173691351037e+17
19059.0	7.28382326247697e+17
19060.0	7.282472661636436e+17
19061.0	7.281122757050368e+17
19062.0	7.279772076518058e+17
19063.0	7.278421110773076e+17
19064.0	7.277067573919743e+17
19065.0	7.27571739250961e+17
19066.0	7.274369329222995e+17
19067.0	7.273018900348927e+17
19068.0	7.271668099579901e+17
19069.0	7.270317160398847e+17
19070.0	7.268965909441194e+17
19071.0	7.267615082108244e+17
19072.0	7.266263986339837e+17
19073.0	7.26491276054801e+17
19074.0	7.263561555727699e+17
19075.0	7.262210233466879e+17
19076.0	7.260858311420585e+17
19077.0	7.259506471862271e+17
19078.0	7.258155034957139e+17
19079.0	7.256804508215977e+17
19080.0	7.255453020979199e+17
19081.0	7.254101244335444e+17
19082.0	7.252748626034687e+17
19083.0	7.251397225480191e+17
19084.0	7.250031090335743e+17
19085.0	7.24869452084019e+17
19086.0	7.247321466492244e+17
19087.0	7.245989302413994e+17
19088.0	7.244637939608233e+17
19089.0	7.243275515024723e+17
19090.0	7.241935219589119e+17
19091.0	7.240583747731455e+17
19092.0	7.239232124878847e+17
19093.0	7.237880741101565e+17
19094.0	7.236528870785023e+17
19095.0	7.235177116510889e+17
19096.0	7.23382497636079e+17
19097.0	7.232473325546153e+17
19098.0	7.23112173904418e+17
19099.0	7.229769846358016e+17
19100.0	7.2284177984826e+17
19101.0	7.227064818073599e+17
19102.0	7.225710025725268e+17
19103.0	7.224361579358889e+17
19104.0	7.223009672691711e+17
19105.0	7.221657426285908e+17
19106.0	7.220304854122493e+17
19107.0	7.218952151935658e+17
19108.0	7.217598736717139e+17
19109.0	7.21624106008576e+17
19110.0	7.21489282203648e+17
19111.0	7.213543954841599e+17
19112.0	7.21219278077952e+17
19113.0	7.210840951007913e+17
19114.0	7.209488810857811e+17
19115.0	7.208135785709565e+17
19116.0	7.206784120913919e+17
19117.0	7.205430883254271e+17
19118.0	7.204069786867028e+17
19119.0	7.202543181845844e+17
19120.0	7.201369019995475e+17
19121.0	7.200021241921535e+17
19122.0	7.19867109126963e+17
19123.0	7.197319078346751e+17
19124.0	7.195966385946623e+17
19125.0	7.194612500966058e+17
19126.0	7.193251246593363e+17
19127.0	7.191846047099561e+17
19128.0	7.190544884520276e+17
19129.0	7.189202873614335e+17
19130.0	7.187852395806719e+17
19131.0	7.186500540869289e+17
19132.0	7.1851480987293e+17
19133.0	7.183795425902591e+17
19134.0	7.182443433951232e+17
19135.0	7.18109087576883e+17
19136.0	7.179737466142719e+17
19137.0	7.178380667518975e+17
19138.0	7.177031229898751e+17
19139.0	7.175680127139839e+17
19140.0	7.174327682203647e+17
19141.0	7.172974897528832e+17
19142.0	7.171621830437545e+17
19143.0	7.170267240813908e+17
19144.0	7.168914911920127e+17
19145.0	7.167562633357994e+17
19146.0	7.166171999283881e+17
19147.0	7.164853846977194e+17
19148.0	7.163502920379049e+17
19149.0	7.162149814140927e+17
19150.0	7.16079636816418e+17
19151.0	7.159442902614016e+17
19152.0	7.158089164434089e+17
19153.0	7.15673481388578e+17
19154.0	7.155377836305066e+17
19155.0	7.154026514044244e+17
19156.0	7.152672897499135e+17
19157.0	7.151317812947625e+17
19158.0	7.149961528825172e+17
19159.0	7.14860892730163e+17
19160.0	7.147255382059689e+17
19161.0	7.145898811326463e+17
19162.0	7.144535244494164e+17
19163.0	7.14318720078097e+17
19164.0	7.141818858034516e+17
19165.0	7.140447491194879e+17
19166.0	7.139088738025471e+17
19167.0	7.137737081618432e+17
19168.0	7.136383235784701e+17
19169.0	7.13502840009523e+17
19170.0	7.133673307155113e+17
19171.0	7.132317627012436e+17
19172.0	7.130962118836224e+17
19173.0	7.129606077983402e+17
19174.0	7.128248443295059e+17
19175.0	7.126893764192936e+17
19176.0	7.125537684193279e+17
19177.0	7.124171764356436e+17
19178.0	7.122823741614761e+17
19179.0	7.121466568299859e+17
19180.0	7.120109642448896e+17
19181.0	7.118748252460372e+17
19182.0	7.117393640467113e+17
19183.0	7.116037711462399e+17
19184.0	7.114679808338602e+17
19185.0	7.113321606021119e+17
19186.0	7.111953010218323e+17
19187.0	7.110589251846143e+17
19188.0	7.109230280572927e+17
19189.0	7.107871120556032e+17
19190.0	7.106511352365055e+17
19191.0	7.105151251425961e+17
19192.0	7.103790714279251e+17
19193.0	7.102429497655296e+17
19194.0	7.101067421199017e+17
19195.0	7.099703952233812e+17
19196.0	7.098338049174185e+17
19197.0	7.096967518399145e+17
19198.0	7.095583490353833e+17
19199.0	7.094155689153876e+17
19200.0	7.092800503939071e+17
19201.0	7.091498607356585e+17
19202.0	7.090155940741119e+17
19203.0	7.088800786284543e+17
19204.0	7.087440183427071e+17
19205.0	7.086078371211945e+17
19206.0	7.084714548527104e+17
19207.0	7.08334687547119e+17
19208.0	7.081977496731647e+17
19209.0	7.080619150409727e+17
19210.0	7.079253241757696e+17
19211.0	7.077886270548649e+17
19212.0	7.076518492635135e+17
19213.0	7.075145178240339e+17
19214.0	7.073777572293289e+17
19215.0	7.072411581153279e+17
19216.0	7.071041588647251e+17
19217.0	7.069667224278356e+17
19218.0	7.068275643689641e+17
19219.0	7.066912630505471e+17
19220.0	7.065554654680404e+17
19221.0	7.06417474264542e+17
19222.0	7.062806587244543e+17
19223.0	7.061435761470122e+17
19224.0	7.060035003744255e+17
19225.0	7.058626557859156e+17
19226.0	7.057253867017556e+17
19227.0	7.055877638979583e+17
19228.0	7.054500177816233e+17
19229.0	7.053121760351572e+17
19230.0	7.051742537580543e+17
19231.0	7.050362610166441e+17
19232.0	7.048981327992148e+17
19233.0	7.047599304824148e+17
19234.0	7.046217101301076e+17
19235.0	7.044834428015956e+17
19236.0	7.043450655823187e+17
19237.0	7.042065822471508e+17
19238.0	7.040679627369129e+17
19239.0	7.039294932429481e+17
19240.0	7.037907750267561e+17
19241.0	7.036519753711615e+17
19242.0	7.03513069949201e+17
19243.0	7.033730048021844e+17
19244.0	7.032349576746324e+17
19245.0	7.030957335554729e+17
19246.0	7.029563733311487e+17
19247.0	7.028169523593215e+17
19248.0	7.02677413667362e+17
19249.0	7.025377392896681e+17
19250.0	7.023979205580116e+17
19251.0	7.022574563229695e+17
19252.0	7.02116004958481e+17
19253.0	7.019777664308564e+17
19254.0	7.018375005863935e+17
19255.0	7.016939411647145e+17
19256.0	7.015482274785962e+17
19257.0	7.014076341288959e+17
19258.0	7.012667796837715e+17
19259.0	7.01125794795793e+17
19260.0	7.009843212713983e+17
19261.0	7.008434397730132e+17
19262.0	7.007019884784297e+17
19263.0	7.005598832918527e+17
19264.0	7.004167060411732e+17
19265.0	7.002757135335423e+17
19266.0	7.001337126453247e+17
19267.0	6.999921817288703e+17
19268.0	6.998496064307199e+17
19269.0	6.997067635359743e+17
19270.0	6.995634714312704e+17
19271.0	6.994193417240575e+17
19272.0	6.992767554508116e+17
19273.0	6.991315489958568e+17
19274.0	6.9898673338013e+17
19275.0	6.988453865936212e+17
19276.0	6.987011113440595e+17
19277.0	6.985453723626154e+17
19278.0	6.983983355833001e+17
19279.0	6.982516974725801e+17
19280.0	6.981060999686826e+17
19281.0	6.979604241711103e+17
19282.0	6.978143419454804e+17
19283.0	6.976678976815104e+17
19284.0	6.975211268210687e+17
19285.0	6.973740306923519e+17
19286.0	6.972269645529087e+17
19287.0	6.970791204399785e+17
19288.0	6.969236502435156e+17
19289.0	6.967712256010922e+17
19290.0	6.966348043954857e+17
19291.0	6.964850658552489e+17
19292.0	6.963378011155113e+17
19293.0	6.961866030972927e+17
19294.0	6.960239061849427e+17
19295.0	6.958739353501695e+17
19296.0	6.957235882164223e+17
19297.0	6.955728736616447e+17
19298.0	6.95421841178624e+17
19299.0	6.952705649366356e+17
19300.0	6.951188837345961e+17
19301.0	6.949668096660819e+17
19302.0	6.948143043532116e+17
19303.0	6.946613361988947e+17
19304.0	6.945080569670313e+17
19305.0	6.943543549493247e+17
19306.0	6.942001357739347e+17
19307.0	6.940383353241599e+17
19308.0	6.938808140431359e+17
19309.0	6.937247964200959e+17
19310.0	6.935670873740628e+17
19311.0	6.934108584280061e+17
19312.0	6.932479907375786e+17
19313.0	6.930891820848467e+17
19314.0	6.929105596798291e+17
19315.0	6.927527244551507e+17
19316.0	6.92611460506146e+17
19317.0	6.924508879388671e+17
19318.0	6.922893590702761e+17
19319.0	6.92127104447283e+17
19320.0	6.919641987284992e+17
19321.0	6.91800509723443e+17
19322.0	6.916359066397353e+17
19323.0	6.914707987016361e+17
19324.0	6.913048493861545e+17
19325.0	6.911379428605951e+17
19326.0	6.909702983472468e+17
19327.0	6.908016782387882e+17
19328.0	6.906321667009193e+17
19329.0	6.904616083346771e+17
19330.0	6.902893558890495e+17
19331.0	6.901161100225193e+17
19332.0	6.899418303998633e+17
19333.0	6.897551620614826e+17
19334.0	6.895789132830036e+17
19335.0	6.894016349427027e+17
19336.0	6.892231721309523e+17
19337.0	6.89043599785984e+17
19338.0	6.888616875087188e+17
19339.0	6.886810683353769e+17
19340.0	6.884976476465834e+17
19341.0	6.883132756197375e+17
19342.0	6.881272319530323e+17
19343.0	6.879411517259775e+17
19344.0	6.877524144073385e+17
19345.0	6.875562730935635e+17
19346.0	6.873671802377555e+17
19347.0	6.871800533920425e+17
19348.0	6.869725269196797e+17
19349.0	6.867763671509674e+17
19350.0	6.86580686791202e+17
19351.0	6.863835262615552e+17
19352.0	6.861848289389225e+17
19353.0	6.859820710406825e+17
19354.0	6.857759482620585e+17
19355.0	6.855686370273961e+17
19356.0	6.853599745977002e+17
19357.0	6.851486292814505e+17
19358.0	6.849349741619881e+17
19359.0	6.847188662135466e+17
19360.0	6.84491101245713e+17
19361.0	6.842567410144598e+17
19362.0	6.84033568809506e+17
19363.0	6.838076002620756e+17
19364.0	6.835788004196351e+17
19365.0	6.833472576421887e+17
19366.0	6.831125282422783e+17
19367.0	6.828739975446527e+17
19368.0	6.826310106087423e+17
19369.0	6.823835605139455e+17
19370.0	6.821331134491306e+17
19371.0	6.818684683856553e+17
19372.0	6.815948225555114e+17
19373.0	6.813348391813119e+17
19374.0	6.810591826717353e+17
19375.0	6.807908636775764e+17
19376.0	6.805191662414506e+17
19377.0	6.802428468920319e+17
19378.0	6.799598422414676e+17
19379.0	6.796765907561129e+17
19380.0	6.793894271036074e+17
19381.0	6.790983197567657e+17
19382.0	6.787898897246889e+17
19383.0	6.784731911116116e+17
19384.0	6.78170301825024e+17
19385.0	6.7785639605917e+17
19386.0	6.775331107110911e+17
19387.0	6.772040995089065e+17
19388.0	6.768534993851734e+17
19389.0	6.765061724962815e+17
19390.0	6.761573740358314e+17
19391.0	6.757851535332691e+17
19392.0	6.754305089120938e+17
19393.0	6.750583058857983e+17
19394.0	6.746746250767017e+17
19395.0	6.742765369032703e+17
19396.0	6.738519610709331e+17
19397.0	6.734401660518399e+17
19398.0	6.730171857327444e+17
19399.0	6.725793332505258e+17
19400.0	6.721281104456361e+17
19401.0	6.716234985548457e+17
19402.0	6.71148175069457e+17
19403.0	6.706584900075519e+17
19404.0	6.701549983454548e+17
19405.0	6.696384061942442e+17
19406.0	6.69108499504606e+17
19407.0	6.685650441644713e+17
19408.0	6.680060355062441e+17
19409.0	6.674407363706879e+17
19410.0	6.668542337701204e+17
19411.0	6.662293415439017e+17
19412.0	6.655819413542228e+17
19413.0	6.649103204570452e+17
19414.0	6.642141599454547e+17
19415.0	6.634787680813055e+17
19416.0	6.627172847102633e+17
19417.0	6.619432175883604e+17
19418.0	6.611326087113386e+17
19419.0	6.602759786725376e+17
19420.0	6.593832872662356e+17
19421.0	6.584547229564928e+17
19422.0	6.574917157213524e+17
19423.0	6.564811534674601e+17
19424.0	6.554440695108948e+17
19425.0	6.543571943423999e+17
19426.0	6.531972174883498e+17
19427.0	6.519644010228394e+17
19428.0	6.506690512595626e+17
19429.0	6.493019252107945e+17
19430.0	6.478592745668608e+17
19431.0	6.463190012177065e+17
19432.0	6.446941182711123e+17
19433.0	6.429788343020201e+17
19434.0	6.411463776272383e+17
19435.0	6.391856224359763e+17
19436.0	6.370511432275284e+17
19437.0	6.347737182939817e+17
19438.0	6.323013888770047e+17
19439.0	6.296266596854442e+17
19440.0	6.267421466471082e+17
19441.0	6.235407793171112e+17
19442.0	6.199928544733868e+17
19443.0	6.160588611431082e+17
19444.0	6.115980732967592e+17
19445.0	6.065124072052054e+17
19446.0	6.006000586151252e+17
19447.0	5.935926395360594e+17
19448.0	5.850553972162563e+17
19449.0	5.741967398928384e+17
19450.0	5.5888869127618477e+17
19451.0	5.489218558798507e+17
19452.0	5.6738140882206714e+17
19453.0	5.797352364660056e+17
19454.0	5.890420940035409e+17
19455.0	5.96502541046033e+17
19456.0	6.026851528998913e+17
19457.0	6.079152850119334e+17
19458.0	6.12390512239138e+17
19459.0	6.163755729682432e+17
19460.0	6.19869730260036e+17
19461.0	6.230039429382143e+17
19462.0	6.2579685734045e+17
19463.0	6.283454978544978e+17
19464.0	6.306773306703871e+17
19465.0	6.327886095755946e+17
19466.0	6.347497156203859e+17
19467.0	6.365591578694995e+17
19468.0	6.382013476328788e+17
19469.0	6.39730336416836e+17
19470.0	6.411531769435476e+17
19471.0	6.42493342285824e+17
19472.0	6.43734231598148e+17
19473.0	6.448907662568106e+17
19474.0	6.459732225862314e+17
19475.0	6.469861168731476e+17
19476.0	6.47940384297233e+17
19477.0	6.488111525658624e+17
19478.0	6.496225315170984e+17
19479.0	6.503975065660074e+17
19480.0	6.511340777286314e+17
19481.0	6.518311492430505e+17
19482.0	6.524914751591763e+17
19483.0	6.531165729062911e+17
19484.0	6.537003293562195e+17
19485.0	6.542402988102995e+17
19486.0	6.54749962530543e+17
19487.0	6.552595497746431e+17
19488.0	6.557179867824127e+17
19489.0	6.561491018842111e+17
19490.0	6.565543163898537e+17
19491.0	6.569434775464617e+17
19492.0	6.573006451813033e+17
19493.0	6.576210166065834e+17
19494.0	6.579332901590355e+17
19495.0	6.582315320868863e+17
19496.0	6.585147913317034e+17
19497.0	6.587865426646355e+17
19498.0	6.590376267743232e+17
19499.0	6.592658767435091e+17
19500.0	6.595186232655872e+17
19501.0	6.597520380308137e+17
19502.0	6.599845863227392e+17
19503.0	6.601748177223679e+17
19504.0	6.603514790805504e+17
19505.0	6.605163218687316e+17
19506.0	6.606753809913172e+17
19507.0	6.608421341451604e+17
19508.0	6.609779612975103e+17
19509.0	6.611046189323604e+17
19510.0	6.61221463363857e+17
19511.0	6.612978129087145e+17
19512.0	6.614243657558697e+17
19513.0	6.615156805773994e+17
19514.0	6.616156332184916e+17
19515.0	6.617081128681471e+17
19516.0	6.617832639605417e+17
19517.0	6.618502760060244e+17
19518.0	6.619056637476863e+17
19519.0	6.619540717480618e+17
19520.0	6.620264682313044e+17
19521.0	6.620684093139625e+17
19522.0	6.621049823166463e+17
19523.0	6.621375623419219e+17
19524.0	6.621661962960895e+17
19525.0	6.621940601760426e+17
19526.0	6.622159154358953e+17
19527.0	6.622330140054868e+17
19528.0	6.622482146525183e+17
19529.0	6.622665578818217e+17
19530.0	6.622720443809791e+17
19531.0	6.622976459232596e+17
19532.0	6.622998721899178e+17
19533.0	6.622959571566591e+17
19534.0	6.622885610607956e+17
19535.0	6.622762720996009e+17
19536.0	6.622603178060458e+17
19537.0	6.622405305477801e+17
19538.0	6.622172485954216e+17
19539.0	6.621912891391999e+17
19540.0	6.621650195141972e+17
19541.0	6.621346109500073e+17
19542.0	6.621182405814954e+17
19543.0	6.620874543901353e+17
19544.0	6.620495342469119e+17
19545.0	6.62007131021858e+17
19546.0	6.619642869754538e+17
19547.0	6.619229475657046e+17
19548.0	6.618759209593514e+17
19549.0	6.618251161239551e+17
19550.0	6.617775466348544e+17
19551.0	6.617233234416982e+17
19552.0	6.616676112706217e+17
19553.0	6.616103901287764e+17
19554.0	6.615529007611903e+17
19555.0	6.615077130775209e+17
19556.0	6.614468681968297e+17
19557.0	6.613849382496937e+17
19558.0	6.613216894036649e+17
19559.0	6.612570639870633e+17
19560.0	6.611909851043156e+17
19561.0	6.611236582064128e+17
19562.0	6.610551176866473e+17
19563.0	6.609853969596415e+17
19564.0	6.609145154590036e+17
19565.0	6.608425047119188e+17
19566.0	6.607693346592084e+17
19567.0	6.606951676204371e+17
19568.0	6.606198618281299e+17
19569.0	6.605435121434623e+17
19570.0	6.604715991935657e+17
19571.0	6.603982053048319e+17
19572.0	6.603189838501203e+17
19573.0	6.602383407360682e+17
19574.0	6.601565031541417e+17
19575.0	6.600737269568852e+17
19576.0	6.599900626157565e+17
19577.0	6.599054910466729e+17
19578.0	6.598200259510271e+17
19579.0	6.597339770082644e+17
19580.0	6.596470094430208e+17
19581.0	6.595592805416959e+17
19582.0	6.594708816003072e+17
19583.0	6.593817680893267e+17
19584.0	6.592920357087913e+17
19585.0	6.592011266162687e+17
19586.0	6.591096807227391e+17
19587.0	6.590184618109609e+17
19588.0	6.589242913674579e+17
19589.0	6.588319090256554e+17
19590.0	6.587377066355369e+17
19591.0	6.586432806890153e+17
19592.0	6.585527169974271e+17
19593.0	6.584583980056575e+17
19594.0	6.583607533502464e+17
19595.0	6.582663206928383e+17
19596.0	6.581764380863146e+17
19597.0	6.580794912232788e+17
19598.0	6.579817152861524e+17
19599.0	6.578846175679827e+17
19600.0	6.577859446789459e+17
19601.0	6.576866498445311e+17
19602.0	6.575866923100841e+17
19603.0	6.574860022404435e+17
19604.0	6.573868955205631e+17
19605.0	6.572853201731583e+17
19606.0	6.571859808092159e+17
19607.0	6.570849047237972e+17
19608.0	6.569834076700671e+17
19609.0	6.568855433030314e+17
19610.0	6.567921676801364e+17
19611.0	6.566956717047807e+17
19612.0	6.566085682440873e+17
19613.0	6.565054900775593e+17
19614.0	6.564020962197503e+17
19615.0	6.562983651398996e+17
19616.0	6.561942269329407e+17
19617.0	6.560898764242943e+17
19618.0	6.559827878739967e+17
19619.0	6.558772570882047e+17
19620.0	6.557733638285993e+17
19621.0	6.556703681500499e+17
19622.0	6.555651148174676e+17
19623.0	6.554592217137151e+17
19624.0	6.55353007116561e+17
19625.0	6.552493048375978e+17
19626.0	6.551491863117824e+17
19627.0	6.550423170536788e+17
19628.0	6.549374440046591e+17
19629.0	6.548288580179284e+17
19630.0	6.547177229429417e+17
19631.0	6.54605370401314e+17
19632.0	6.545052467025235e+17
19633.0	6.543987336107348e+17
19634.0	6.542908837243561e+17
19635.0	6.541825694586196e+17
19636.0	6.540739553001472e+17
19637.0	6.539626468605952e+17
19638.0	6.538559366365183e+17
19639.0	6.537466362200064e+17
19640.0	6.536364626892116e+17
19641.0	6.535242654067369e+17
19642.0	6.534177698611199e+17
19643.0	6.533079029339478e+17
19644.0	6.531975757518163e+17
19645.0	6.530868838749523e+17
19646.0	6.529774809077076e+17
19647.0	6.528697773326333e+17
19648.0	6.527632313854633e+17
19649.0	6.526525995570516e+17
19650.0	6.52541849379362e+17
19651.0	6.524309754697044e+17
19652.0	6.523199819524778e+17
19653.0	6.522088688975871e+17
19654.0	6.520976520336723e+17
19655.0	6.519863097600682e+17
19656.0	6.518748726951935e+17
19657.0	6.51763361391138e+17
19658.0	6.516517288716969e+17
19659.0	6.515399919140863e+17
19660.0	6.514281838630228e+17
19661.0	6.513162610977449e+17
19662.0	6.512042299097087e+17
19663.0	6.510920150111571e+17
19664.0	6.509799370566314e+17
19665.0	6.50867721109504e+17
