# Flux units: erg / (cm m2 s)
# Wavelength units: Angstrom
wave	flux
19000.0	7.40816669848371e+17
19001.0	7.406755793338365e+17
19002.0	7.405476684409514e+17
19003.0	7.404125668332884e+17
19004.0	7.402775054909439e+17
19005.0	7.401435008335871e+17
19006.0	7.400085889482751e+17
19007.0	7.39870594109713e+17
19008.0	7.397354541940735e+17
19009.0	7.395938542114131e+17
19010.0	7.394457020268543e+17
19011.0	7.393277345704616e+17
19012.0	7.391705126229331e+17
19013.0	7.390710089121792e+17
19014.0	7.38941298802688e+17
19015.0	7.388074728226815e+17
19016.0	7.386727185033897e+17
19017.0	7.38539192136499e+17
19018.0	7.384027918325076e+17
19019.0	7.382679062315007e+17
19020.0	7.381314905483945e+17
19021.0	7.37997297426978e+17
19022.0	7.378658817736701e+17
19023.0	7.37727421367364e+17
19024.0	7.375931640730964e+17
19025.0	7.374554986272084e+17
19026.0	7.373156501858985e+17
19027.0	7.371627524259839e+17
19028.0	7.370487252385791e+17
19029.0	7.369140750778368e+17
19030.0	7.367791770337279e+17
19031.0	7.366426271328938e+17
19032.0	7.365053196009471e+17
19033.0	7.363602572203347e+17
19034.0	7.36219713503232e+17
19035.0	7.360066202107901e+17
19036.0	7.343449191743484e+17
19037.0	7.357566961756841e+17
19038.0	7.356762666216105e+17
19039.0	7.355502835706536e+17
19040.0	7.354169706938368e+17
19041.0	7.352820820170067e+17
19042.0	7.351359022738089e+17
19043.0	7.350107515125757e+17
19044.0	7.348737996576084e+17
19045.0	7.347369505630889e+17
19046.0	7.345992517025791e+17
19047.0	7.344621569616553e+17
19048.0	7.343182137611603e+17
19049.0	7.341756297947817e+17
19050.0	7.34039894008354e+17
19051.0	7.336846174453756e+17
19052.0	7.336797587636223e+17
19053.0	7.336377542071636e+17
19054.0	7.335087509777066e+17
19055.0	7.33355967722291e+17
19056.0	7.332365993683626e+17
19057.0	7.331018563736916e+17
19058.0	7.329601948745727e+17
19059.0	7.328278595502079e+17
19060.0	7.326924904857599e+17
19061.0	7.325569241492138e+17
19062.0	7.324201905378644e+17
19063.0	7.322834665734143e+17
19064.0	7.321409154624169e+17
19065.0	7.319989413478399e+17
19066.0	7.3186823648925e+17
19067.0	7.317377255473152e+17
19068.0	7.316011878099625e+17
19069.0	7.314645875774803e+17
19070.0	7.313266241961983e+17
19071.0	7.311902245912575e+17
19072.0	7.310528158367741e+17
19073.0	7.309178912287402e+17
19074.0	7.307814175244287e+17
19075.0	7.30644672029218e+17
19076.0	7.305071122797908e+17
19077.0	7.303701242139986e+17
19078.0	7.302331898352978e+17
19079.0	7.300975948376748e+17
19080.0	7.299598610246314e+17
19081.0	7.298209221880489e+17
19082.0	7.296850763710464e+17
19083.0	7.295417270839977e+17
19084.0	7.293959346148692e+17
19085.0	7.292735930586454e+17
19086.0	7.291019123665578e+17
19087.0	7.289733524750335e+17
19088.0	7.288424262970025e+17
19089.0	7.286996183547904e+17
19090.0	7.285821473641811e+17
19091.0	7.284490012808532e+17
19092.0	7.28305031656243e+17
19093.0	7.28179923816721e+17
19094.0	7.28044858979123e+17
19095.0	7.279086924376745e+17
19096.0	7.27771573789218e+17
19097.0	7.276353383213738e+17
19098.0	7.274968865832957e+17
19099.0	7.273597459846484e+17
19100.0	7.272216465681066e+17
19101.0	7.270863882332842e+17
19102.0	7.269462921882281e+17
19103.0	7.268141649013417e+17
19104.0	7.266768103931904e+17
19105.0	7.265340200670547e+17
19106.0	7.263975119694506e+17
19107.0	7.262591027336531e+17
19108.0	7.261127696187391e+17
19109.0	7.259024203797844e+17
19110.0	7.258211293156692e+17
19111.0	7.257100968613204e+17
19112.0	7.25578270585651e+17
19113.0	7.254444199990612e+17
19114.0	7.253065751767721e+17
19115.0	7.251649017937917e+17
19116.0	7.250321724844714e+17
19117.0	7.248942619514195e+17
19118.0	7.247473498827433e+17
19119.0	7.244097664319483e+17
19120.0	7.244684100719955e+17
19121.0	7.243369474424832e+17
19122.0	7.24212407931153e+17
19123.0	7.240761793140051e+17
19124.0	7.239267498240681e+17
19125.0	7.238007636972884e+17
19126.0	7.236586030759935e+17
19127.0	7.234402267780436e+17
19128.0	7.233667360008872e+17
19129.0	7.232475986132991e+17
19130.0	7.23116398826837e+17
19131.0	7.229806296257875e+17
19132.0	7.228434670769492e+17
19133.0	7.227010717144404e+17
19134.0	7.225611500126207e+17
19135.0	7.224321943186089e+17
19136.0	7.222950541393919e+17
19137.0	7.221512356495357e+17
19138.0	7.220178546851839e+17
19139.0	7.21880251175185e+17
19140.0	7.217434347962365e+17
19141.0	7.216063793419603e+17
19142.0	7.214675389317119e+17
19143.0	7.213296030930259e+17
19144.0	7.211918832609961e+17
19145.0	7.21057503912482e+17
19146.0	7.208800782822058e+17
19147.0	7.207794038013951e+17
19148.0	7.206436794793983e+17
19149.0	7.205063091727017e+17
19150.0	7.203709991081299e+17
19151.0	7.202337427466921e+17
19152.0	7.20093862568482e+17
19153.0	7.199534824292352e+17
19154.0	7.198141722569386e+17
19155.0	7.196799423654569e+17
19156.0	7.195400744905385e+17
19157.0	7.193887365922815e+17
19158.0	7.19223056830737e+17
19159.0	7.191164920091987e+17
19160.0	7.189835487903744e+17
19161.0	7.188325204317523e+17
19162.0	7.185790642334377e+17
19163.0	7.185306218397696e+17
19164.0	7.18435077132561e+17
19165.0	7.182990838158676e+17
19166.0	7.181596947906557e+17
19167.0	7.18018891026705e+17
19168.0	7.178908329137491e+17
19169.0	7.177564219681449e+17
19170.0	7.176200067044692e+17
19171.0	7.174794185277439e+17
19172.0	7.173437533454333e+17
19173.0	7.172086109132116e+17
19174.0	7.170696768301736e+17
19175.0	7.169345988504233e+17
19176.0	7.167968495184553e+17
19177.0	7.166480440011434e+17
19178.0	7.165136063518036e+17
19179.0	7.163647725928445e+17
19180.0	7.162321846315689e+17
19181.0	7.160910970530474e+17
19182.0	7.159580161212415e+17
19183.0	7.158217680704851e+17
19184.0	7.156836151066624e+17
19185.0	7.155454839532202e+17
19186.0	7.154073142121811e+17
19187.0	7.152633707320662e+17
19188.0	7.151298377940991e+17
19189.0	7.149904475105962e+17
19190.0	7.148499609758378e+17
19191.0	7.147084125831168e+17
19192.0	7.145711952287059e+17
19193.0	7.144287917572096e+17
19194.0	7.142837545424211e+17
19195.0	7.141372585487017e+17
19196.0	7.139793220315816e+17
19197.0	7.137968959520765e+17
19198.0	7.135163420333398e+17
19199.0	7.125783552895657e+17
19200.0	7.12556659413265e+17
19201.0	7.131203273140905e+17
19202.0	7.131100845441024e+17
19203.0	7.130085144395773e+17
19204.0	7.128903738982399e+17
19205.0	7.127620195276118e+17
19206.0	7.126292296805033e+17
19207.0	7.124864003473407e+17
19208.0	7.123476912188074e+17
19209.0	7.122195918618623e+17
19210.0	7.120821031359828e+17
19211.0	7.1194408662685e+17
19212.0	7.118041077426857e+17
19213.0	7.116531745947647e+17
19214.0	7.115031019782143e+17
19215.0	7.113683539503785e+17
19216.0	7.112337296545108e+17
19217.0	7.110926896114345e+17
19218.0	7.109185594458111e+17
19219.0	7.108024125969747e+17
19220.0	7.106754029202089e+17
19221.0	7.105256405423444e+17
19222.0	7.103963627257853e+17
19223.0	7.102586824600233e+17
19224.0	7.101167066677245e+17
19225.0	7.099747082261844e+17
19226.0	7.098390982688765e+17
19227.0	7.096992577967444e+17
19228.0	7.095612250696361e+17
19229.0	7.094208921862143e+17
19230.0	7.092798096408575e+17
19231.0	7.091386692141055e+17
19232.0	7.089977561186301e+17
19233.0	7.088515113637204e+17
19234.0	7.087147285392042e+17
19235.0	7.085732159378772e+17
19236.0	7.084336153799338e+17
19237.0	7.082916584620032e+17
19238.0	7.081445193416704e+17
19239.0	7.08003918721843e+17
19240.0	7.078585982517247e+17
19241.0	7.07715799397171e+17
19242.0	7.075746571528874e+17
19243.0	7.074225266709844e+17
19244.0	7.072921402998783e+17
19245.0	7.071495631841961e+17
19246.0	7.070069915211091e+17
19247.0	7.068583460864e+17
19248.0	7.067149638041599e+17
19249.0	7.065714431098879e+17
19250.0	7.064273744997033e+17
19251.0	7.062793758266708e+17
19252.0	7.061228052545536e+17
19253.0	7.059987733938173e+17
19254.0	7.058567995588607e+17
19255.0	7.056997539119104e+17
19256.0	7.055676194947071e+17
19257.0	7.054255269609471e+17
19258.0	7.052812588417023e+17
19259.0	7.051304789256872e+17
19260.0	7.049598939256147e+17
19261.0	7.048458196221951e+17
19262.0	7.046984014408362e+17
19263.0	7.045509051056127e+17
19264.0	7.043848691078484e+17
19265.0	7.042555282369194e+17
19266.0	7.041115670009172e+17
19267.0	7.039760157638655e+17
19268.0	7.038301696076458e+17
19269.0	7.036837496706387e+17
19270.0	7.035351323377663e+17
19271.0	7.033740194742271e+17
19272.0	7.032402829028009e+17
19273.0	7.030687489414484e+17
19274.0	7.029145520657748e+17
19275.0	7.028005947834368e+17
19276.0	7.026518853855913e+17
19277.0	7.02503932989713e+17
19278.0	7.023555169135274e+17
19279.0	7.022045796412074e+17
19280.0	7.020535047258111e+17
19281.0	7.019056475406335e+17
19282.0	7.017512591949823e+17
19283.0	7.015854023639039e+17
19284.0	7.014304675004415e+17
19285.0	7.012821462155263e+17
19286.0	7.011309307909459e+17
19287.0	7.009666536745641e+17
19288.0	7.002724199563259e+17
19289.0	6.996574485872628e+17
19290.0	7.005055296558419e+17
19291.0	7.003561270094506e+17
19292.0	7.002250137654611e+17
19293.0	7.000730281967615e+17
19294.0	6.999191784696489e+17
19295.0	6.997659143372799e+17
19296.0	6.996089088857428e+17
19297.0	6.994535752837802e+17
19298.0	6.99297951785506e+17
19299.0	6.991407750665556e+17
19300.0	6.98986081165858e+17
19301.0	6.988283479326719e+17
19302.0	6.986689199909546e+17
19303.0	6.985058818020691e+17
19304.0	6.98327746355746e+17
19305.0	6.981672178286591e+17
19306.0	6.980060544936617e+17
19307.0	6.978404022747136e+17
19308.0	6.976751102066687e+17
19309.0	6.974834311430143e+17
19310.0	6.973060426323284e+17
19311.0	6.971758587062953e+17
19312.0	6.970221357170687e+17
19313.0	6.968497826780499e+17
19314.0	6.95314600514901e+17
19315.0	6.952585197344102e+17
19316.0	6.963429997456042e+17
19317.0	6.961919733443242e+17
19318.0	6.960157765053097e+17
19319.0	6.958239036648105e+17
19320.0	6.956500173979647e+17
19321.0	6.954769861399891e+17
19322.0	6.952993439438163e+17
19323.0	6.95123980722722e+17
19324.0	6.949546417804627e+17
19325.0	6.947712880607231e+17
19326.0	6.946091749255849e+17
19327.0	6.94438221455906e+17
19328.0	6.942602051278164e+17
19329.0	6.940729005135188e+17
19330.0	6.938644064851283e+17
19331.0	6.936835654331049e+17
19332.0	6.93505761546513e+17
19333.0	6.933221196081834e+17
19334.0	6.931386888530601e+17
19335.0	6.929456592235178e+17
19336.0	6.927652525615786e+17
19337.0	6.925776637831849e+17
19338.0	6.923556520722431e+17
19339.0	6.921395115480403e+17
19340.0	6.919428877494953e+17
19341.0	6.917458668901716e+17
19342.0	6.915371869143039e+17
19343.0	6.913578781813417e+17
19344.0	6.911537913877844e+17
19345.0	6.90864595874611e+17
19346.0	6.90636151010099e+17
19347.0	6.904552630517759e+17
19348.0	6.902588704292863e+17
19349.0	6.900491411084627e+17
19350.0	6.898366638893738e+17
19351.0	6.896251415035903e+17
19352.0	6.894035649516884e+17
19353.0	6.891134031407786e+17
19354.0	6.888894970724351e+17
19355.0	6.886626625410388e+17
19356.0	6.884459468379475e+17
19357.0	6.882207787734355e+17
19358.0	6.879908199748948e+17
19359.0	6.877085325503146e+17
19360.0	6.874668801720319e+17
19361.0	6.872112150435156e+17
19362.0	6.869718596758185e+17
19363.0	6.867307437490175e+17
19364.0	6.864887493252436e+17
19365.0	6.862439919037098e+17
19366.0	6.859965018931199e+17
19367.0	6.857466555924479e+17
19368.0	6.854948151798442e+17
19369.0	6.852353757369684e+17
19370.0	6.849682830174889e+17
19371.0	6.846501129027583e+17
19372.0	6.843809916081492e+17
19373.0	6.84102740222498e+17
19374.0	6.838223873507328e+17
19375.0	6.835358298450601e+17
19376.0	6.832445406052351e+17
19377.0	6.829474475671551e+17
19378.0	6.826393677594623e+17
19379.0	6.82262104445201e+17
19380.0	6.819482780215977e+17
19381.0	6.816281454619305e+17
19382.0	6.812959195354452e+17
19383.0	6.809623331165524e+17
19384.0	6.806250928297299e+17
19385.0	6.802191822793385e+17
19386.0	6.798060062856531e+17
19387.0	6.794197094891519e+17
19388.0	6.79041704272418e+17
19389.0	6.786528646791165e+17
19390.0	6.78233826726161e+17
19391.0	6.765146619073862e+17
19392.0	6.771939463572136e+17
19393.0	6.769158893076479e+17
19394.0	6.765041474164054e+17
19395.0	6.760759237279743e+17
19396.0	6.755736798014121e+17
19397.0	6.750563239373482e+17
19398.0	6.745445843861501e+17
19399.0	6.740243211703635e+17
19400.0	6.735470532755455e+17
19401.0	6.729756169644712e+17
19402.0	6.723511994635603e+17
19403.0	6.718097313846612e+17
19404.0	6.712528217658708e+17
19405.0	6.706658096272723e+17
19406.0	6.699503825103529e+17
19407.0	6.692043240417961e+17
19408.0	6.685429861100202e+17
19409.0	6.679148262413652e+17
19410.0	6.672353269732691e+17
19411.0	6.6652365403805e+17
19412.0	6.655931035156479e+17
19413.0	6.647155524982102e+17
19414.0	6.639177515575978e+17
19415.0	6.630860541394941e+17
19416.0	6.621989194170367e+17
19417.0	6.612498748801024e+17
19418.0	6.602507481863508e+17
19419.0	6.592956144986793e+17
19420.0	6.582871649157119e+17
19421.0	6.572135852714666e+17
19422.0	6.560853339231571e+17
19423.0	6.547388164472832e+17
19424.0	6.534485931021652e+17
19425.0	6.521344575406079e+17
19426.0	6.507370149227177e+17
19427.0	6.49249493614592e+17
19428.0	6.476819154862079e+17
19429.0	6.459844980637695e+17
19430.0	6.44155696934639e+17
19431.0	6.421909690384385e+17
19432.0	6.403836577753769e+17
19433.0	6.382465016922111e+17
19434.0	6.359496655197524e+17
19435.0	6.334117252344489e+17
19436.0	6.30642632172066e+17
19437.0	6.278402604531711e+17
19438.0	6.230989966322348e+17
19439.0	6.21159825539072e+17
19440.0	6.1764218140317e+17
19441.0	6.135792311904936e+17
19442.0	6.090349775334061e+17
19443.0	6.039778745122815e+17
19444.0	5.982226948117841e+17
19445.0	5.916634015334403e+17
19446.0	5.84025288736768e+17
19447.0	5.7495320778506195e+17
19448.0	5.6382573437255725e+17
19449.0	5.4947452568644256e+17
19450.0	5.2891579762169056e+17
19451.0	5.1596784269175514e+17
19452.0	5.404320860908202e+17
19453.0	5.5699089335692006e+17
19454.0	5.6926360686646554e+17
19455.0	5.790194461223593e+17
19456.0	5.870696437645313e+17
19457.0	5.938853456117756e+17
19458.0	5.97429969048921e+17
19459.0	6.048248719125169e+17
19460.0	6.094755038145192e+17
19461.0	6.135670281426259e+17
19462.0	6.172077572751361e+17
19463.0	6.205428056719359e+17
19464.0	6.235386542030847e+17
19465.0	6.262648811290625e+17
19466.0	6.287895434362879e+17
19467.0	6.311762113942867e+17
19468.0	6.333005440920234e+17
19469.0	6.35265085551411e+17
19470.0	6.370989186569556e+17
19471.0	6.387627970964138e+17
19472.0	6.402947236407977e+17
19473.0	6.418012357787647e+17
19474.0	6.431616194139476e+17
19475.0	6.444056848629759e+17
19476.0	6.456281937565012e+17
19477.0	6.467361228630698e+17
19478.0	6.477651875201023e+17
19479.0	6.488770547286013e+17
19480.0	6.498321740857343e+17
19481.0	6.506810804535293e+17
19482.0	6.514741948186624e+17
19483.0	6.522002189844479e+17
19484.0	6.52908326691362e+17
19485.0	6.536876166305108e+17
19486.0	6.543107434042708e+17
19487.0	6.549164101293396e+17
19488.0	6.554748524866217e+17
19489.0	6.560160705150977e+17
19490.0	6.566913554164393e+17
19491.0	6.572637952147455e+17
19492.0	6.577116906083668e+17
19493.0	6.581277160024746e+17
19494.0	6.585153359620778e+17
19495.0	6.589319284959914e+17
19496.0	6.594092766418262e+17
19497.0	6.597863627467433e+17
19498.0	6.597335364665343e+17
19499.0	6.584346998385317e+17
19500.0	6.606786005390675e+17
19501.0	6.611156261142527e+17
19502.0	6.613757217559892e+17
19503.0	6.616164870389759e+17
19504.0	6.618692658571946e+17
19505.0	6.62097555043123e+17
19506.0	6.6241089241088e+17
19507.0	6.625865777545215e+17
19508.0	6.627550719639551e+17
19509.0	6.629094921863165e+17
19510.0	6.630205019914237e+17
19511.0	6.60802303077033e+17
19512.0	6.630021000418642e+17
19513.0	6.629762877358074e+17
19514.0	6.632311245591887e+17
19515.0	6.638012500104532e+17
19516.0	6.639716322858324e+17
19517.0	6.641701724618751e+17
19518.0	6.642675052707839e+17
19519.0	6.643489993392127e+17
19520.0	6.644223949056682e+17
19521.0	6.644945948158633e+17
19522.0	6.645544569711273e+17
19523.0	6.646387438168745e+17
19524.0	6.647303332954111e+17
19525.0	6.647765173359955e+17
19526.0	6.648156244672511e+17
19527.0	6.64849228112418e+17
19528.0	6.648771558156969e+17
19529.0	6.649015239529811e+17
19530.0	6.649214278828031e+17
19531.0	6.649521090767529e+17
19532.0	6.649967572331178e+17
19533.0	6.650017859938985e+17
19534.0	6.650000455674537e+17
19535.0	6.649948847560022e+17
19536.0	6.649868804860585e+17
19537.0	6.649797335318528e+17
19538.0	6.649553374325418e+17
19539.0	6.64929504854016e+17
19540.0	6.64934182691362e+17
19541.0	6.649213919515988e+17
19542.0	6.649291041581737e+17
19543.0	6.649250593112063e+17
19544.0	6.649256767826602e+17
19545.0	6.648681035988991e+17
19546.0	6.648243584062804e+17
19547.0	6.648322210485588e+17
19548.0	6.647981835725482e+17
19549.0	6.647942039470077e+17
19550.0	6.64802344112401e+17
19551.0	6.647612734876329e+17
19552.0	6.647179679279785e+17
19553.0	6.646715294329513e+17
19554.0	6.646230108427604e+17
19555.0	6.645732241047551e+17
19556.0	6.645708855705599e+17
19557.0	6.645463350509568e+17
19558.0	6.644945104404479e+17
19559.0	6.64437598069282e+17
19560.0	6.643758282047487e+17
19561.0	6.643166170753705e+17
19562.0	6.642554742592852e+17
19563.0	6.641932257547603e+17
19564.0	6.641743224460628e+17
19565.0	6.64114191086387e+17
19566.0	6.640451505356799e+17
19567.0	6.639777866579967e+17
19568.0	6.639060587468116e+17
19569.0	6.638361974407167e+17
19570.0	6.637638491220649e+17
19571.0	6.6368910145181e+17
19572.0	6.636110951568723e+17
19573.0	6.635631030916436e+17
19574.0	6.634911270174719e+17
19575.0	6.634189363347455e+17
19576.0	6.633392600776703e+17
19577.0	6.632582652013226e+17
19578.0	6.631753207425705e+17
19579.0	6.630928416418473e+17
19580.0	6.630099384270847e+17
19581.0	6.629275759280127e+17
19582.0	6.628439356342272e+17
19583.0	6.627587447761578e+17
19584.0	6.626811549057023e+17
19585.0	6.626096042038612e+17
19586.0	6.625223637292372e+17
19587.0	6.624398920384511e+17
19588.0	6.623333284752041e+17
19589.0	6.622638997416617e+17
19590.0	6.62171443859729e+17
19591.0	6.620868697041577e+17
19592.0	6.619958666592255e+17
19593.0	6.619027065536511e+17
19594.0	6.617954057715711e+17
19595.0	6.617169088129705e+17
19596.0	6.615857441188521e+17
19597.0	6.615292587977386e+17
19598.0	6.614169595936767e+17
19599.0	6.613415499923455e+17
19600.0	6.612634476478463e+17
19601.0	6.611625631722153e+17
19602.0	6.610623391596543e+17
19603.0	6.609394854090068e+17
19604.0	6.60862966833698e+17
19605.0	6.607570425522857e+17
19606.0	6.606761700098047e+17
19607.0	6.605774172192767e+17
19608.0	6.604765732186793e+17
19609.0	6.603744424056148e+17
19610.0	6.602750324375552e+17
19611.0	6.601732280112468e+17
19612.0	6.600740882262697e+17
19613.0	6.599713825838422e+17
19614.0	6.598669467211091e+17
19615.0	6.597655183840596e+17
19616.0	6.596504771537578e+17
19617.0	6.595769660342271e+17
19618.0	6.59444756259362e+17
19619.0	6.59332039582242e+17
19620.0	6.592356618862591e+17
19621.0	6.591631476828842e+17
19622.0	6.590714876002304e+17
19623.0	6.5896610018973e+17
19624.0	6.588591514495658e+17
19625.0	6.587524978485929e+17
19626.0	6.586433335372457e+17
19627.0	6.585276177230505e+17
19628.0	6.583915782690131e+17
19629.0	6.582534645219327e+17
19630.0	6.578356508863144e+17
19631.0	6.57095307226863e+17
19632.0	6.578951459700735e+17
19633.0	6.578650013674153e+17
19634.0	6.577794848216404e+17
19635.0	6.57675450913041e+17
19636.0	6.575706360250368e+17
19637.0	6.574383686483967e+17
19638.0	6.573590525422249e+17
19639.0	6.572507043026259e+17
19640.0	6.571345078211923e+17
19641.0	6.569939148210176e+17
19642.0	6.569244228233897e+17
19643.0	6.568152667608403e+17
19644.0	6.567012306255871e+17
19645.0	6.565839550196394e+17
19646.0	6.564834066475689e+17
19647.0	6.563773691898537e+17
19648.0	6.562673704217257e+17
19649.0	6.561569669731668e+17
19650.0	6.560465819795455e+17
19651.0	6.559354709519017e+17
19652.0	6.558249731315028e+17
19653.0	6.557133864697855e+17
19654.0	6.556024333576874e+17
19655.0	6.554915702833152e+17
19656.0	6.553801576852138e+17
19657.0	6.552690185557331e+17
19658.0	6.551574071476221e+17
19659.0	6.550456055278249e+17
19660.0	6.549352092095827e+17
19661.0	6.548280102791849e+17
19662.0	6.547155416252415e+17
19663.0	6.546076481181012e+17
19664.0	6.544957487011156e+17
19665.0	6.543863374850729e+17
