# Flux units: erg / (cm m2 s)
# Wavelength units: Angstrom
wave	flux
19000.0	5.7298059655468365e+17
19001.0	5.728610634345129e+17
19002.0	5.7276709529627296e+17
19003.0	5.7266004134898336e+17
19004.0	5.725530687711915e+17
19005.0	5.724454400644437e+17
19006.0	5.723398783107071e+17
19007.0	5.7223307951691085e+17
19008.0	5.7211764073649485e+17
19009.0	5.7200854143685965e+17
19010.0	5.718468480117417e+17
19011.0	5.7180154917901645e+17
19012.0	5.716840240119807e+17
19013.0	5.7159126551101434e+17
19014.0	5.7147804251149645e+17
19015.0	5.713728161622698e+17
19016.0	5.7126404996027725e+17
19017.0	5.711650576749908e+17
19018.0	5.7105698136610125e+17
19019.0	5.709510742114303e+17
19020.0	5.7084267885581645e+17
19021.0	5.707384360708777e+17
19022.0	5.706313354969088e+17
19023.0	5.705206999635285e+17
19024.0	5.7041607423863456e+17
19025.0	5.7031237440634874e+17
19026.0	5.702024439354708e+17
19027.0	5.700942677322409e+17
19028.0	5.699928375776596e+17
19029.0	5.6988429045814605e+17
19030.0	5.6978148324365645e+17
19031.0	5.6967507878434125e+17
19032.0	5.6956787216438605e+17
19033.0	5.694506000536917e+17
19034.0	5.693541549692243e+17
19035.0	5.692441424297983e+17
19036.0	5.686775589284519e+17
19037.0	5.690348184884564e+17
19038.0	5.689275302892884e+17
19039.0	5.68823824654882e+17
19040.0	5.687181917377877e+17
19041.0	5.6861090409786016e+17
19042.0	5.6849038531624954e+17
19043.0	5.683995785647443e+17
19044.0	5.682918982680575e+17
19045.0	5.6818720137980576e+17
19046.0	5.680731776177492e+17
19047.0	5.679728143542953e+17
19048.0	5.678387469221887e+17
19049.0	5.6774705174719123e+17
19050.0	5.676500717491541e+17
19051.0	5.6747672689704934e+17
19052.0	5.6743360728487245e+17
19053.0	5.6733850130186246e+17
19054.0	5.672325230537386e+17
19055.0	5.67092878245888e+17
19056.0	5.670163864442196e+17
19057.0	5.669136726928041e+17
19058.0	5.6680373138664096e+17
19059.0	5.667007608040105e+17
19060.0	5.6659374271802003e+17
19061.0	5.6649112368797e+17
19062.0	5.6638459137228794e+17
19063.0	5.662790310865579e+17
19064.0	5.661568876412928e+17
19065.0	5.660459020932437e+17
19066.0	5.6595341929786016e+17
19067.0	5.658544981759316e+17
19068.0	5.6575034424033274e+17
19069.0	5.656448231713449e+17
19070.0	5.655352087412734e+17
19071.0	5.6543274839572474e+17
19072.0	5.653264389373951e+17
19073.0	5.652215077273598e+17
19074.0	5.651165814805843e+17
19075.0	5.6501097659542176e+17
19076.0	5.649026564576596e+17
19077.0	5.647978006052863e+17
19078.0	5.646895354129066e+17
19079.0	5.6458855376923296e+17
19080.0	5.644813343566505e+17
19081.0	5.643721367005866e+17
19082.0	5.64266511053619e+17
19083.0	5.641546920973652e+17
19084.0	5.640339979938474e+17
19085.0	5.6395414879163725e+17
19086.0	5.6380384220282874e+17
19087.0	5.637305518434986e+17
19088.0	5.6362851344493216e+17
19089.0	5.6350655112369485e+17
19090.0	5.634256432791551e+17
19091.0	5.633204114773333e+17
19092.0	5.6320791136610976e+17
19093.0	5.6311342411284474e+17
19094.0	5.6300822607517024e+17
19095.0	5.629030123088553e+17
19096.0	5.627956101644287e+17
19097.0	5.6269236352669e+17
19098.0	5.6258589580328954e+17
19099.0	5.624798301039273e+17
19100.0	5.6237495286060365e+17
19101.0	5.622718781194239e+17
19102.0	5.621513735285418e+17
19103.0	5.620616132558847e+17
19104.0	5.619570417074175e+17
19105.0	5.6184861349642234e+17
19106.0	5.617448563419817e+17
19107.0	5.61638630699827e+17
19108.0	5.615356394952021e+17
19109.0	5.614013230612478e+17
19110.0	5.613261498089471e+17
19111.0	5.612213192622079e+17
19112.0	5.61116307731251e+17
19113.0	5.6101215323641165e+17
19114.0	5.6090689668819616e+17
19115.0	5.607963316191231e+17
19116.0	5.6069539716136954e+17
19117.0	5.605908558118911e+17
19118.0	5.6047666015327565e+17
19119.0	5.594366610855238e+17
19120.0	5.6023071602333005e+17
19121.0	5.60128780874547e+17
19122.0	5.6002707214827514e+17
19123.0	5.599224372658175e+17
19124.0	5.5981576437104634e+17
19125.0	5.597129313615871e+17
19126.0	5.596074741858303e+17
19127.0	5.592687035372883e+17
19128.0	5.593951345399124e+17
19129.0	5.592848019051859e+17
19130.0	5.591882970518868e+17
19131.0	5.59085641671202e+17
19132.0	5.5898102104937805e+17
19133.0	5.588674367105705e+17
19134.0	5.5877090424477005e+17
19135.0	5.586676231438335e+17
19136.0	5.585639669323092e+17
19137.0	5.5843821547683834e+17
19138.0	5.583533937175209e+17
19139.0	5.582508863957674e+17
19140.0	5.581467437847892e+17
19141.0	5.580424554217471e+17
19142.0	5.5793493199202976e+17
19143.0	5.5782615222845434e+17
19144.0	5.577248913839445e+17
19145.0	5.5762548554028365e+17
19146.0	5.574434438687403e+17
19147.0	5.5740413562060794e+17
19148.0	5.573115851571199e+17
19149.0	5.5720646841903776e+17
19150.0	5.571036340114773e+17
19151.0	5.569999129979562e+17
19152.0	5.5689607615173965e+17
19153.0	5.567873032388607e+17
19154.0	5.566716515975166e+17
19155.0	5.56584352682257e+17
19156.0	5.564800357979477e+17
19157.0	5.5637468347979085e+17
19158.0	5.562497271245483e+17
19159.0	5.5616568704368634e+17
19160.0	5.560629570742953e+17
19161.0	5.559602774365524e+17
19162.0	5.558078005051392e+17
19163.0	5.557513546803881e+17
19164.0	5.55648948511266e+17
19165.0	5.5554019321446394e+17
19166.0	5.5542379142184954e+17
19167.0	5.5533306296401914e+17
19168.0	5.552327488438271e+17
19169.0	5.551281345833642e+17
19170.0	5.550261600081236e+17
19171.0	5.549194733420543e+17
19172.0	5.548188310874794e+17
19173.0	5.5471513377177594e+17
19174.0	5.546038445561173e+17
19175.0	5.54507469656337e+17
19176.0	5.544036569273685e+17
19177.0	5.542811040481279e+17
19178.0	5.5419572633381536e+17
19179.0	5.540889594167296e+17
19180.0	5.5398838014661965e+17
19181.0	5.538680800280575e+17
19182.0	5.5378052400196256e+17
19183.0	5.5367922785539405e+17
19184.0	5.5357461527265274e+17
19185.0	5.5347072473934496e+17
19186.0	5.533684376884564e+17
19187.0	5.532570456424447e+17
19188.0	5.531613178538666e+17
19189.0	5.530586151474515e+17
19190.0	5.529550081490943e+17
19191.0	5.528475772037802e+17
19192.0	5.527482632852819e+17
19193.0	5.5264374598314656e+17
19194.0	5.525393110291796e+17
19195.0	5.524379509194751e+17
19196.0	5.5233226102975136e+17
19197.0	5.522297924354047e+17
19198.0	5.521256691881299e+17
19199.0	5.517335169335294e+17
19200.0	5.517237857288192e+17
19201.0	5.518163416449023e+17
19202.0	5.5171481963506336e+17
19203.0	5.5161117768417274e+17
19204.0	5.515053997839701e+17
19205.0	5.5140434634779296e+17
19206.0	5.513009129936211e+17
19207.0	5.511854304526336e+17
19208.0	5.510650292513449e+17
19209.0	5.5099182144989856e+17
19210.0	5.508885597825705e+17
19211.0	5.5078719561837216e+17
19212.0	5.5068414401576954e+17
19213.0	5.505688926508372e+17
19214.0	5.504623477522431e+17
19215.0	5.5035698648623776e+17
19216.0	5.5022572937762125e+17
19217.0	5.501217287438335e+17
19218.0	5.499139569046866e+17
19219.0	5.498982420359849e+17
19220.0	5.498108092525225e+17
19221.0	5.4966840724903245e+17
19222.0	5.4960700669296634e+17
19223.0	5.4950217873271456e+17
19224.0	5.4939630911706445e+17
19225.0	5.492797379444735e+17
19226.0	5.491934033696085e+17
19227.0	5.4909042964125005e+17
19228.0	5.4899067608978765e+17
19229.0	5.488876873318399e+17
19230.0	5.487837202524841e+17
19231.0	5.4868033869796685e+17
19232.0	5.4857814210423456e+17
19233.0	5.484675216004437e+17
19234.0	5.4837027568353274e+17
19235.0	5.482668737167358e+17
19236.0	5.481676652849834e+17
19237.0	5.4806282075723085e+17
19238.0	5.479500189357398e+17
19239.0	5.478595001931092e+17
19240.0	5.4775485356660045e+17
19241.0	5.476507054331222e+17
19242.0	5.47549039698466e+17
19243.0	5.474284532487508e+17
19244.0	5.473456521652905e+17
19245.0	5.47242154009122e+17
19246.0	5.4713776393420794e+17
19247.0	5.4703666771613005e+17
19248.0	5.469346042216447e+17
19249.0	5.4683151836555936e+17
19250.0	5.4672589516526925e+17
19251.0	5.466110015045631e+17
19252.0	5.4648883869559456e+17
19253.0	5.464173874686634e+17
19254.0	5.46317771280657e+17
19255.0	5.4619220703095443e+17
19256.0	5.4610840882162336e+17
19257.0	5.460098074454697e+17
19258.0	5.4590696415996576e+17
19259.0	5.4579536771153894e+17
19260.0	5.456899639432532e+17
19261.0	5.4559687150578336e+17
19262.0	5.4548852550314656e+17
19263.0	5.4538486139234976e+17
19264.0	5.4521683296037523e+17
19265.0	5.4516027284084045e+17
19266.0	5.4504873672048646e+17
19267.0	5.449819234151081e+17
19268.0	5.448782094619988e+17
19269.0	5.4474025146340685e+17
19270.0	5.446219412624726e+17
19271.0	5.444742217902764e+17
19272.0	5.444119572774911e+17
19273.0	5.442343489852756e+17
19274.0	5.441407602218324e+17
19275.0	5.4410800669218125e+17
19276.0	5.4400260089664845e+17
19277.0	5.4390042177918285e+17
19278.0	5.4379787419211085e+17
19279.0	5.436930128172372e+17
19280.0	5.435809582809088e+17
19281.0	5.4348812064740685e+17
19282.0	5.433873918503594e+17
19283.0	5.4328006317615776e+17
19284.0	5.4317768189323936e+17
19285.0	5.4305542946597536e+17
19286.0	5.4297032235417594e+17
19287.0	5.428717067872938e+17
19288.0	5.426432995317076e+17
19289.0	5.423564196238671e+17
19290.0	5.4256220301339296e+17
19291.0	5.4242738186485766e+17
19292.0	5.423559718120106e+17
19293.0	5.4225170085533005e+17
19294.0	5.421479428620287e+17
19295.0	5.4204589048244896e+17
19296.0	5.4194007112854176e+17
19297.0	5.4183633718258336e+17
19298.0	5.4173139968109216e+17
19299.0	5.416300013333162e+17
19300.0	5.4152718656907936e+17
19301.0	5.4142353490138445e+17
19302.0	5.413187234387283e+17
19303.0	5.412068984706388e+17
19304.0	5.4110837559787514e+17
19305.0	5.410063396459862e+17
19306.0	5.4090350363060896e+17
19307.0	5.4079404592769696e+17
19308.0	5.406867506681171e+17
19309.0	5.4051705884508154e+17
19310.0	5.404076224632149e+17
19311.0	5.4031521180986016e+17
19312.0	5.4021451069521914e+17
19313.0	5.401115748554069e+17
19314.0	5.392973628615338e+17
19315.0	5.3924978030018656e+17
19316.0	5.397944965879124e+17
19317.0	5.3969149573638816e+17
19318.0	5.39586232267571e+17
19319.0	5.394835529793534e+17
19320.0	5.393776701516458e+17
19321.0	5.3927174055744845e+17
19322.0	5.391581228040191e+17
19323.0	5.390571922609492e+17
19324.0	5.389558177508009e+17
19325.0	5.388410938195968e+17
19326.0	5.387448206316885e+17
19327.0	5.3863687259859616e+17
19328.0	5.385253717103957e+17
19329.0	5.383879799428437e+17
19330.0	5.382763443475796e+17
19331.0	5.381689600988501e+17
19332.0	5.3806769394155514e+17
19333.0	5.379594505595562e+17
19334.0	5.378536883879935e+17
19335.0	5.377406088336725e+17
19336.0	5.376384898345641e+17
19337.0	5.375303393563988e+17
19338.0	5.3739600209073485e+17
19339.0	5.3731424839488845e+17
19340.0	5.371852021039103e+17
19341.0	5.370895767262549e+17
19342.0	5.369379261426345e+17
19343.0	5.368684582622549e+17
19344.0	5.366967754031104e+17
19345.0	5.3631636027910765e+17
19346.0	5.363681183399934e+17
19347.0	5.363577357598719e+17
19348.0	5.362592010731518e+17
19349.0	5.36143482462754e+17
19350.0	5.3603200394417485e+17
19351.0	5.3591970019628365e+17
19352.0	5.357998738942634e+17
19353.0	5.3569988287528954e+17
19354.0	5.355870893725012e+17
19355.0	5.3546114455961594e+17
19356.0	5.3535929071042554e+17
19357.0	5.352451754426367e+17
19358.0	5.351297250579796e+17
19359.0	5.350077537888938e+17
19360.0	5.348910174306303e+17
19361.0	5.3477721044418554e+17
19362.0	5.346652946694143e+17
19363.0	5.3454748317122554e+17
19364.0	5.3442892543645e+17
19365.0	5.34309914227507e+17
19366.0	5.341900675132073e+17
19367.0	5.3403336915462816e+17
19368.0	5.338461975696725e+17
19369.0	5.337174090186751e+17
19370.0	5.33592026592051e+17
19371.0	5.3346963344588794e+17
19372.0	5.33351307096883e+17
19373.0	5.332226927493119e+17
19374.0	5.330973644991145e+17
19375.0	5.3296950058243405e+17
19376.0	5.328405817283924e+17
19377.0	5.3270858775046816e+17
19378.0	5.32577253536563e+17
19379.0	5.323178345059668e+17
19380.0	5.321679812515157e+17
19381.0	5.3203073062229325e+17
19382.0	5.318837991899135e+17
19383.0	5.3173892660155725e+17
19384.0	5.3161065800444576e+17
19385.0	5.3146773562763936e+17
19386.0	5.3116444228976614e+17
19387.0	5.3098681009001805e+17
19388.0	5.308359197239977e+17
19389.0	5.3068262063909536e+17
19390.0	5.305092968983209e+17
19391.0	5.2972063080229485e+17
19392.0	5.2994035403106976e+17
19393.0	5.2977997873588896e+17
19394.0	5.295746247032832e+17
19395.0	5.2913622339638605e+17
19396.0	5.289583194057386e+17
19397.0	5.287129234713261e+17
19398.0	5.2822100424349005e+17
19399.0	5.279287043162111e+17
19400.0	5.274836378408279e+17
19401.0	5.271839969727828e+17
19402.0	5.265950663595345e+17
19403.0	5.262285784918699e+17
19404.0	5.2570190742814726e+17
19405.0	5.254498143786324e+17
19406.0	5.251957841199103e+17
19407.0	5.2493225516072954e+17
19408.0	5.245567376556034e+17
19409.0	5.2433169583964154e+17
19410.0	5.240439751835647e+17
19411.0	5.237459214401535e+17
19412.0	5.2343758633915725e+17
19413.0	5.2311947075037856e+17
19414.0	5.2278774716170234e+17
19415.0	5.22400400880435e+17
19416.0	5.219954216752468e+17
19417.0	5.216455036152489e+17
19418.0	5.21270985752576e+17
19419.0	5.207472864930474e+17
19420.0	5.2033946180212045e+17
19421.0	5.1979516110001504e+17
19422.0	5.192884732384596e+17
19423.0	5.1861473295947085e+17
19424.0	5.1794621284133504e+17
19425.0	5.171055198994435e+17
19426.0	5.160714584282457e+17
19427.0	5.1474473331370624e+17
19428.0	5.1288432663593005e+17
19429.0	5.1056480221484397e+17
19430.0	5.090990197047296e+17
19431.0	5.078752551064917e+17
19432.0	5.0668815921097376e+17
19433.0	5.053251700042411e+17
19434.0	5.0391592049049594e+17
19435.0	5.024766619899219e+17
19436.0	5.0097355877253114e+17
19437.0	4.994025482354687e+17
19438.0	4.9707262201036794e+17
19439.0	4.9610467430454624e+17
19440.0	4.9438955209577805e+17
19441.0	4.92526521741039e+17
19442.0	4.902707925439833e+17
19443.0	4.864734996900517e+17
19444.0	4.792557112393728e+17
19445.0	4.7336895216790195e+17
19446.0	4.68010993328674e+17
19447.0	4.617159122616321e+17
19448.0	4.500733853084332e+17
19449.0	4.321478634547883e+17
19450.0	3.9010964609871366e+17
19451.0	3.693007657588064e+17
19452.0	4.1636358104896915e+17
19453.0	4.414023721637222e+17
19454.0	4.569309896507388e+17
19455.0	4.644885726494721e+17
19456.0	4.7001633439088666e+17
19457.0	4.7494990033933606e+17
19458.0	4.8035322546968346e+17
19459.0	4.8731192519120256e+17
19460.0	4.8995348428881894e+17
19461.0	4.9176337679646726e+17
19462.0	4.933470291755008e+17
19463.0	4.948601517462868e+17
19464.0	4.963071490872659e+17
19465.0	4.97750138351343e+17
19466.0	4.991011807122772e+17
19467.0	5.003574223656276e+17
19468.0	5.0158938612913485e+17
19469.0	5.027519139588777e+17
19470.0	5.039087550114474e+17
19471.0	5.0491980771928755e+17
19472.0	5.0589434404754746e+17
19473.0	5.0773766809408954e+17
19474.0	5.096863232775502e+17
19475.0	5.108625589316265e+17
19476.0	5.119798458100398e+17
19477.0	5.126848672082602e+17
19478.0	5.1329899405421235e+17
19479.0	5.137314336473088e+17
19480.0	5.1407091634885965e+17
19481.0	5.144659684054356e+17
19482.0	5.147130284299604e+17
19483.0	5.1498517521585485e+17
19484.0	5.152434938707967e+17
19485.0	5.1541298247980365e+17
19486.0	5.155767404112554e+17
19487.0	5.158040518350163e+17
19488.0	5.159579142848511e+17
19489.0	5.1607452942772896e+17
19490.0	5.160113128079357e+17
19491.0	5.163068294168574e+17
19492.0	5.164111228829694e+17
19493.0	5.165137809899519e+17
19494.0	5.1662733729682765e+17
19495.0	5.166992903023273e+17
19496.0	5.167072670296744e+17
19497.0	5.168161875121492e+17
19498.0	5.169607203618816e+17
19499.0	5.165146092251814e+17
19500.0	5.1755901853368294e+17
19501.0	5.177272589178196e+17
19502.0	5.1799787478275405e+17
19503.0	5.18157947109376e+17
19504.0	5.182133843438253e+17
19505.0	5.1849391589294074e+17
19506.0	5.1848095248766285e+17
19507.0	5.185067817806507e+17
19508.0	5.187243315909973e+17
19509.0	5.186966006704809e+17
19510.0	5.186390927081471e+17
19511.0	5.175138874731171e+17
19512.0	5.187225497807527e+17
19513.0	5.1855414176426624e+17
19514.0	5.186180728837459e+17
19515.0	5.186489059115009e+17
19516.0	5.18687594451217e+17
19517.0	5.1878358326531405e+17
19518.0	5.1874032433233914e+17
19519.0	5.1868548345801376e+17
19520.0	5.1862522452159136e+17
19521.0	5.185736880597674e+17
19522.0	5.185102768941738e+17
19523.0	5.184540874812073e+17
19524.0	5.184751691016874e+17
19525.0	5.184599941098154e+17
19526.0	5.1839662341925536e+17
19527.0	5.183297612502356e+17
19528.0	5.182620549775359e+17
19529.0	5.1819358289483085e+17
19530.0	5.181262892018346e+17
19531.0	5.180561691770879e+17
19532.0	5.1798513731065165e+17
19533.0	5.1791324197683194e+17
19534.0	5.178401776904874e+17
19535.0	5.1776497067403936e+17
19536.0	5.1768807139573754e+17
19537.0	5.1771182408881485e+17
19538.0	5.1762120650042016e+17
19539.0	5.174832885574316e+17
19540.0	5.174786158930602e+17
19541.0	5.174039380579668e+17
19542.0	5.17325049630993e+17
19543.0	5.1724436478361594e+17
19544.0	5.171668541855059e+17
19545.0	5.170245541036029e+17
19546.0	5.168846711990954e+17
19547.0	5.169264098366804e+17
19548.0	5.1684518266579616e+17
19549.0	5.167510716416e+17
19550.0	5.166813489572522e+17
19551.0	5.165992123913557e+17
19552.0	5.1651622794690554e+17
19553.0	5.1643004010277536e+17
19554.0	5.1634413872960845e+17
19555.0	5.1626386212782086e+17
19556.0	5.161816485265407e+17
19557.0	5.160966064963583e+17
19558.0	5.1601177900482554e+17
19559.0	5.159269514433877e+17
19560.0	5.158378768695296e+17
19561.0	5.1575287915915936e+17
19562.0	5.1567000586376525e+17
19563.0	5.155847908185428e+17
19564.0	5.15498561171183e+17
19565.0	5.154121005574826e+17
19566.0	5.15346159247906e+17
19567.0	5.1530105293373434e+17
19568.0	5.1521092670805325e+17
19569.0	5.1512381227226445e+17
19570.0	5.1503921714517325e+17
19571.0	5.149508640615083e+17
19572.0	5.148593551835135e+17
19573.0	5.147731833476436e+17
19574.0	5.146761794420734e+17
19575.0	5.1460148846482765e+17
19576.0	5.145138253441706e+17
19577.0	5.144226079703039e+17
19578.0	5.143315456458751e+17
19579.0	5.142446866432e+17
19580.0	5.1418762341690016e+17
19581.0	5.1410226073217696e+17
19582.0	5.140154570943145e+17
19583.0	5.139261952447828e+17
19584.0	5.138363291358549e+17
19585.0	5.137331184293204e+17
19586.0	5.136400635308715e+17
19587.0	5.1356608880093856e+17
19588.0	5.13416367247633e+17
19589.0	5.133856335549781e+17
19590.0	5.132838668075007e+17
19591.0	5.132076200929962e+17
19592.0	5.131181216847188e+17
19593.0	5.1302587957247994e+17
19594.0	5.129068025129641e+17
19595.0	5.128435314371242e+17
19596.0	5.1274719813085856e+17
19597.0	5.126652714199722e+17
19598.0	5.1251514043269094e+17
19599.0	5.124853155059028e+17
19600.0	5.1239590315076256e+17
19601.0	5.122965380617557e+17
19602.0	5.122082165052756e+17
19603.0	5.1206575466304845e+17
19604.0	5.1202720991805434e+17
19605.0	5.119038086010198e+17
19606.0	5.118505767316138e+17
19607.0	5.117607290077183e+17
19608.0	5.116792169736874e+17
19609.0	5.116263981733205e+17
19610.0	5.1154115866132474e+17
19611.0	5.1144815360518816e+17
19612.0	5.113602268026196e+17
19613.0	5.1126776721571834e+17
19614.0	5.1117297056262816e+17
19615.0	5.1108672882169165e+17
19616.0	5.1099083759506765e+17
19617.0	5.109011779857066e+17
19618.0	5.107357262544894e+17
19619.0	5.1062460110602214e+17
19620.0	5.1053969063717536e+17
19621.0	5.10536941969954e+17
19622.0	5.1044791003818656e+17
19623.0	5.103566026964992e+17
19624.0	5.1026405656712525e+17
19625.0	5.1017384205134496e+17
19626.0	5.100818406921557e+17
19627.0	5.099908751163391e+17
19628.0	5.0989172121053856e+17
19629.0	5.097911538941951e+17
19630.0	5.0969887494198605e+17
19631.0	5.093003270029311e+17
19632.0	5.0953228774277114e+17
19633.0	5.094371928047615e+17
19634.0	5.0935057294731936e+17
19635.0	5.0925437560640845e+17
19636.0	5.091644774809598e+17
19637.0	5.0903151965197645e+17
19638.0	5.089830811030868e+17
19639.0	5.0889148211746125e+17
19640.0	5.08788663648256e+17
19641.0	5.0855836329355974e+17
19642.0	5.086172702659924e+17
19643.0	5.085252985465513e+17
19644.0	5.0842703732845216e+17
19645.0	5.0830652805393056e+17
19646.0	5.082496630084947e+17
19647.0	5.0816067938112845e+17
19648.0	5.080692139840853e+17
19649.0	5.0797670979775136e+17
19650.0	5.078860991299583e+17
19651.0	5.077937715238228e+17
19652.0	5.077019354901163e+17
19653.0	5.076111637610496e+17
19654.0	5.0751885125440845e+17
19655.0	5.0742680543559674e+17
