# Flux units: erg / (cm m2 s)
# Wavelength units: Angstrom
wave	flux
19000.0	4.4723590474847565e+17
19001.0	4.471604375453696e+17
19002.0	4.4709166389220685e+17
19003.0	4.470149311277739e+17
19004.0	4.469161973514239e+17
19005.0	4.468561598742527e+17
19006.0	4.467801389531134e+17
19007.0	4.4671172188569594e+17
19008.0	4.466355242445481e+17
19009.0	4.4656356935161165e+17
19010.0	4.464413067881129e+17
19011.0	4.463930708241066e+17
19012.0	4.4629595255384723e+17
19013.0	4.462624799806805e+17
19014.0	4.4616243394641914e+17
19015.0	4.460857348762281e+17
19016.0	4.460195739948373e+17
19017.0	4.4595678155898874e+17
19018.0	4.458725339998891e+17
19019.0	4.4579955171218765e+17
19020.0	4.4572267025967776e+17
19021.0	4.45648479453184e+17
19022.0	4.455789545302698e+17
19023.0	4.45485951291665e+17
19024.0	4.454163904375466e+17
19025.0	4.453414275295915e+17
19026.0	4.452667745807018e+17
19027.0	4.4518523982752416e+17
19028.0	4.4510555070791674e+17
19029.0	4.45024764358383e+17
19030.0	4.4494481624050336e+17
19031.0	4.448839506679126e+17
19032.0	4.448173576333994e+17
19033.0	4.4471678108958714e+17
19034.0	4.4465483632257696e+17
19035.0	4.4458604323580576e+17
19036.0	4.442766986357416e+17
19037.0	4.444293699731456e+17
19038.0	4.4435260484266656e+17
19039.0	4.442764617274709e+17
19040.0	4.441990294929406e+17
19041.0	4.441259370348543e+17
19042.0	4.437594028900346e+17
19043.0	4.439756433784831e+17
19044.0	4.439117837019818e+17
19045.0	4.4382683925927245e+17
19046.0	4.4374115410247674e+17
19047.0	4.436699296475817e+17
19048.0	4.4354792915817805e+17
19049.0	4.4291425091365466e+17
19050.0	4.43449391255825e+17
19051.0	4.432659087010472e+17
19052.0	4.4328915003856205e+17
19053.0	4.4322285920365216e+17
19054.0	4.4313610582753274e+17
19055.0	4.429698849308672e+17
19056.0	4.429733603311615e+17
19057.0	4.4292525900431354e+17
19058.0	4.425353038659578e+17
19059.0	4.426323908187476e+17
19060.0	4.426948460325546e+17
19061.0	4.4261474657020576e+17
19062.0	4.4252603676098554e+17
19063.0	4.4247242320991565e+17
19064.0	4.4238725667880954e+17
19065.0	4.423071828017151e+17
19066.0	4.421334989799425e+17
19067.0	4.4213852368622925e+17
19068.0	4.4209719196603725e+17
19069.0	4.420185017898323e+17
19070.0	4.4192470652682234e+17
19071.0	4.418545157581482e+17
19072.0	4.416786151069011e+17
19073.0	4.4172398083877536e+17
19074.0	4.4162292292867405e+17
19075.0	4.4156540147466234e+17
19076.0	4.41482619335475e+17
19077.0	4.414113517491541e+17
19078.0	4.413346598791849e+17
19079.0	4.4125593048623776e+17
19080.0	4.4118866901947725e+17
19081.0	4.411146677256191e+17
19082.0	4.4104263335062163e+17
19083.0	4.409546768384e+17
19084.0	4.408776712344917e+17
19085.0	4.408107418867028e+17
19086.0	4.4054983877154125e+17
19087.0	4.404005035136337e+17
19088.0	4.404261693685756e+17
19089.0	4.4049645492852045e+17
19090.0	4.4043980554021536e+17
19091.0	4.4034349753958406e+17
19092.0	4.400433858609158e+17
19093.0	4.4020951825776634e+17
19094.0	4.401386658376362e+17
19095.0	4.400514173938346e+17
19096.0	4.3998744461093536e+17
19097.0	4.399124079531349e+17
19098.0	4.3972159396468026e+17
19099.0	4.3961351094490477e+17
19100.0	4.3969100308807674e+17
19101.0	4.396120937594878e+17
19102.0	4.395301280415744e+17
19103.0	4.394550913138686e+17
19104.0	4.3939421511570765e+17
19105.0	4.3904047436704506e+17
19106.0	4.3923749082234874e+17
19107.0	4.3909528210636774e+17
19108.0	4.389794257829888e+17
19109.0	4.389951248531455e+17
19110.0	4.3893132934949536e+17
19111.0	4.387639611708755e+17
19112.0	4.3868193645308563e+17
19113.0	4.387126227501055e+17
19114.0	4.385714308732243e+17
19115.0	4.385379260738218e+17
19116.0	4.3845030985946445e+17
19117.0	4.383576021794815e+17
19118.0	4.3819553049804806e+17
19119.0	4.379699966203219e+17
19120.0	4.380778616761002e+17
19121.0	4.380583239090176e+17
19122.0	4.380273547760981e+17
19123.0	4.379668782951082e+17
19124.0	4.378902225660586e+17
19125.0	4.378205072217429e+17
19126.0	4.3774382681620474e+17
19127.0	4.375315951736146e+17
19128.0	4.3758899226651296e+17
19129.0	4.375245834158079e+17
19130.0	4.374546041099604e+17
19131.0	4.3737885735649274e+17
19132.0	4.372967826565802e+17
19133.0	4.3723100751134714e+17
19134.0	4.371556898351787e+17
19135.0	4.3708780907943245e+17
19136.0	4.370040926590293e+17
19137.0	4.3690991774160205e+17
19138.0	4.3685954226312525e+17
19139.0	4.367916317977257e+17
19140.0	4.3671883867313485e+17
19141.0	4.366411768004607e+17
19142.0	4.365612219017898e+17
19143.0	4.364819400491007e+17
19144.0	4.364053578601813e+17
19145.0	4.3633703705204045e+17
19146.0	4.362290258247679e+17
19147.0	4.3617987871812256e+17
19148.0	4.360219554829654e+17
19149.0	4.359166274218666e+17
19150.0	4.359738357710846e+17
19151.0	4.358923038840149e+17
19152.0	4.3582758794035194e+17
19153.0	4.3554063323409024e+17
19154.0	4.3565112518246394e+17
19155.0	4.356066230577834e+17
19156.0	4.3552667340199245e+17
19157.0	4.353846137236139e+17
19158.0	4.3522418439181664e+17
19159.0	4.35287017652224e+17
19160.0	4.3522083146519885e+17
19161.0	4.35155360686626e+17
19162.0	4.350609682945365e+17
19163.0	4.350071423718741e+17
19164.0	4.349322113406293e+17
19165.0	4.3462122886485286e+17
19166.0	4.3476218865691296e+17
19167.0	4.347140783123114e+17
19168.0	4.346364784454315e+17
19169.0	4.3456253796898125e+17
19170.0	4.344920467483306e+17
19171.0	4.344039914602496e+17
19172.0	4.3434197601921696e+17
19173.0	4.342751935419733e+17
19174.0	4.3419183706275834e+17
19175.0	4.341178510082047e+17
19176.0	4.3405122162305696e+17
19177.0	4.339661121344854e+17
19178.0	4.338966579554986e+17
19179.0	4.3381792569644365e+17
19180.0	4.3375397793955834e+17
19181.0	4.3367004600183456e+17
19182.0	4.3359586127708154e+17
19183.0	4.3353223676122445e+17
19184.0	4.3346092681243296e+17
19185.0	4.333833454703957e+17
19186.0	4.333113649922047e+17
19187.0	4.3323757488155296e+17
19188.0	4.3316929804369914e+17
19189.0	4.3309785660347725e+17
19190.0	4.3302142743674874e+17
19191.0	4.3294765298483194e+17
19192.0	4.3287683740467194e+17
19193.0	4.327689466937344e+17
19194.0	4.326842554471766e+17
19195.0	4.3265972016687776e+17
19196.0	4.325819221890389e+17
19197.0	4.3249976115636896e+17
19198.0	4.324200705687551e+17
19199.0	4.320487280738302e+17
19200.0	4.3209287941488646e+17
19201.0	4.322114089779199e+17
19202.0	4.321417440351573e+17
19203.0	4.320653635223551e+17
19204.0	4.320017458571947e+17
19205.0	4.319212889003348e+17
19206.0	4.318500832499028e+17
19207.0	4.317508009284948e+17
19208.0	4.316808000918868e+17
19209.0	4.3162944209769805e+17
19210.0	4.315467012724053e+17
19211.0	4.314811717036714e+17
19212.0	4.314074456959657e+17
19213.0	4.3132836482034336e+17
19214.0	4.31254093623023e+17
19215.0	4.311891748847615e+17
19216.0	4.311183937677994e+17
19217.0	4.3105186057202336e+17
19218.0	4.309089353291091e+17
19219.0	4.308841084747774e+17
19220.0	4.308276524438868e+17
19221.0	4.307272291319807e+17
19222.0	4.3066650427828896e+17
19223.0	4.3060071088783354e+17
19224.0	4.3052310689655456e+17
19225.0	4.304523698197844e+17
19226.0	4.303927302422527e+17
19227.0	4.303142008477012e+17
19228.0	4.302446011263657e+17
19229.0	4.301440442258771e+17
19230.0	4.300916662468607e+17
19231.0	4.300327457827497e+17
19232.0	4.299577952479914e+17
19233.0	4.2987359725158394e+17
19234.0	4.298002608248149e+17
19235.0	4.297312055241385e+17
19236.0	4.296617567278421e+17
19237.0	4.295744347439104e+17
19238.0	4.295047920309589e+17
19239.0	4.2944250340092576e+17
19240.0	4.293584178118655e+17
19241.0	4.2929942632420685e+17
19242.0	4.2920595353326925e+17
19243.0	4.2914517764887885e+17
19244.0	4.2907456870809594e+17
19245.0	4.290078946536106e+17
19246.0	4.2893728885855565e+17
19247.0	4.288664091055443e+17
19248.0	4.287884684514644e+17
19249.0	4.287010046301525e+17
19250.0	4.285930740034218e+17
19251.0	4.285258288245417e+17
19252.0	4.284853485480618e+17
19253.0	4.2842212374937594e+17
19254.0	4.2835546507400525e+17
19255.0	4.2826688591735456e+17
19256.0	4.281965470897493e+17
19257.0	4.2813234005497165e+17
19258.0	4.280569677829459e+17
19259.0	4.2799356025241594e+17
19260.0	4.2790114743200416e+17
19261.0	4.278488468378964e+17
19262.0	4.277696094448298e+17
19263.0	4.276874557521919e+17
19264.0	4.275839935272276e+17
19265.0	4.275245854752767e+17
19266.0	4.274509126653268e+17
19267.0	4.274065368591018e+17
19268.0	4.273235556302847e+17
19269.0	4.2725761634795514e+17
19270.0	4.271834579075072e+17
19271.0	4.270772268826624e+17
19272.0	4.270420492550142e+17
19273.0	4.269661331914751e+17
19274.0	4.268783397677736e+17
19275.0	4.2682969031529805e+17
19276.0	4.2675692969656314e+17
19277.0	4.2668737660190714e+17
19278.0	4.2660769957587616e+17
19279.0	4.265400887235923e+17
19280.0	4.2646662038596256e+17
19281.0	4.263960975682218e+17
19282.0	4.263254883478186e+17
19283.0	4.262447426131286e+17
19284.0	4.261822497204906e+17
19285.0	4.260874260840447e+17
19286.0	4.2602515961391776e+17
19287.0	4.259524155626836e+17
19288.0	4.258488536530943e+17
19289.0	4.256464642943654e+17
19290.0	4.257439218838185e+17
19291.0	4.256566180752042e+17
19292.0	4.255988860671317e+17
19293.0	4.255254216441855e+17
19294.0	4.2545783469943456e+17
19295.0	4.253774145126399e+17
19296.0	4.251737235914755e+17
19297.0	4.2521425063444474e+17
19298.0	4.251573797868885e+17
19299.0	4.2494747255767046e+17
19300.0	4.250258304051882e+17
19301.0	4.2494747780055034e+17
19302.0	4.2487675330669216e+17
19303.0	4.247899809862996e+17
19304.0	4.247230232570538e+17
19305.0	4.246478988683947e+17
19306.0	4.245809097517738e+17
19307.0	4.2449923441950714e+17
19308.0	4.244252206825472e+17
19309.0	4.2433313159249914e+17
19310.0	4.242467853434879e+17
19311.0	4.2415448276336634e+17
19312.0	4.240265881583615e+17
19313.0	4.238055094004393e+17
19314.0	4.2301243809682765e+17
19315.0	4.229455023177728e+17
19316.0	4.234197030578861e+17
19317.0	4.2367259693984416e+17
19318.0	4.2366276947585696e+17
19319.0	4.2360217534464e+17
19320.0	4.235127778093736e+17
19321.0	4.233768616678741e+17
19322.0	4.234256176556714e+17
19323.0	4.233655457153023e+17
19324.0	4.2329366345373e+17
19325.0	4.2321505919085216e+17
19326.0	4.231506361494185e+17
19327.0	4.230866149223082e+17
19328.0	4.227633768300548e+17
19329.0	4.229451219643049e+17
19330.0	4.228741881746772e+17
19331.0	4.2280337280423245e+17
19332.0	4.227287549476864e+17
19333.0	4.22666536292625e+17
19334.0	4.225662660728149e+17
19335.0	4.22014007867256e+17
19336.0	4.224371805650943e+17
19337.0	4.2237226944648525e+17
19338.0	4.2228931247472634e+17
19339.0	4.222215619521194e+17
19340.0	4.221257577573033e+17
19341.0	4.219050730542424e+17
19342.0	4.219383809310721e+17
19343.0	4.219465162031104e+17
19344.0	4.216932310624941e+17
19345.0	4.2153741169022266e+17
19346.0	4.216853515730945e+17
19347.0	4.2142367432922445e+17
19348.0	4.215924027206314e+17
19349.0	4.2151636949620045e+17
19350.0	4.2134627634817696e+17
19351.0	4.2137089663303674e+17
19352.0	4.210500491542524e+17
19353.0	4.2122986085416954e+17
19354.0	4.2116473862225914e+17
19355.0	4.210874412346027e+17
19356.0	4.2101630192407885e+17
19357.0	4.2094980151377914e+17
19358.0	4.208768977294676e+17
19359.0	4.2075134473448083e+17
19360.0	4.205339419344894e+17
19361.0	4.206595026190334e+17
19362.0	4.2059028087439354e+17
19363.0	4.205200336224255e+17
19364.0	4.20450940223488e+17
19365.0	4.2037603988056736e+17
19366.0	4.202889659897172e+17
19367.0	4.2023014884529485e+17
19368.0	4.201636355724629e+17
19369.0	4.2009527282128205e+17
19370.0	4.2002709203298976e+17
19371.0	4.19940126494993e+17
19372.0	4.198761019124393e+17
19373.0	4.197962101380438e+17
19374.0	4.197218851138218e+17
19375.0	4.1966321931386874e+17
19376.0	4.1959511220551674e+17
19377.0	4.1952443573643936e+17
19378.0	4.1945394717218125e+17
19379.0	4.193824152048981e+17
19380.0	4.1928783847314765e+17
19381.0	4.192215162508629e+17
19382.0	4.191575489904638e+17
19383.0	4.190800838306473e+17
19384.0	4.189974456259923e+17
19385.0	4.189461772500991e+17
19386.0	4.1887587582170445e+17
19387.0	4.1880035521112736e+17
19388.0	4.187283802554367e+17
19389.0	4.18661971141154e+17
19390.0	4.185879137135274e+17
19391.0	4.182920610010449e+17
19392.0	4.1843992286986234e+17
19393.0	4.183713907387049e+17
19394.0	4.183025023713279e+17
19395.0	4.181623831876951e+17
19396.0	4.181421680405162e+17
19397.0	4.180831430683306e+17
19398.0	4.179504539544234e+17
19399.0	4.177901218605736e+17
19400.0	4.178125471962454e+17
19401.0	4.17793731408691e+17
19402.0	4.177284878215851e+17
19403.0	4.17656000811281e+17
19404.0	4.1757357784432634e+17
19405.0	4.174982887593301e+17
19406.0	4.174362757649748e+17
19407.0	4.172765242327038e+17
19408.0	4.172302982490796e+17
19409.0	4.1721826213451085e+17
19410.0	4.1714540218067616e+17
19411.0	4.1707069358735354e+17
19412.0	4.1699554864660474e+17
19413.0	4.168373978704555e+17
19414.0	4.168520901678421e+17
19415.0	4.167769181039274e+17
19416.0	4.166884222042111e+17
19417.0	4.166285304091989e+17
19418.0	4.165600669947221e+17
19419.0	4.1648455449313274e+17
19420.0	4.164082939374249e+17
19421.0	4.163336735642965e+17
19422.0	4.1625022914450765e+17
19423.0	4.161894429840725e+17
19424.0	4.1611468161242445e+17
19425.0	4.160323005885098e+17
19426.0	4.1596562723307514e+17
19427.0	4.1589150793946445e+17
19428.0	4.15800464769024e+17
19429.0	4.157422881647274e+17
19430.0	4.156546790107818e+17
19431.0	4.154700484050947e+17
19432.0	4.1550368413668685e+17
19433.0	4.154233464378708e+17
19434.0	4.153558200309076e+17
19435.0	4.152624283997525e+17
19436.0	4.1513198421715616e+17
19437.0	4.1511862088499194e+17
19438.0	4.1452369612199226e+17
19439.0	4.1497671213165216e+17
19440.0	4.1489469300626765e+17
19441.0	4.14817644969984e+17
19442.0	4.147406401350315e+17
19443.0	4.1466431932115616e+17
19444.0	4.145801893423786e+17
19445.0	4.145057365316949e+17
19446.0	4.1442306176669e+17
19447.0	4.1434206891758925e+17
19448.0	4.14254776783121e+17
19449.0	4.1418294485319674e+17
19450.0	4.1409392969864525e+17
19451.0	4.140363481262762e+17
19452.0	4.139558612500479e+17
19453.0	4.138796305438036e+17
19454.0	4.137702142246912e+17
19455.0	4.1364805861594445e+17
19456.0	4.134306713348778e+17
19457.0	4.129298808045568e+17
19458.0	4.110006699251033e+17
19459.0	4.1200679467526835e+17
19460.0	4.129804735479808e+17
19461.0	4.1320106898227194e+17
19462.0	4.132392461664255e+17
19463.0	4.132258465535316e+17
19464.0	4.1318478543585274e+17
19465.0	4.131393398024874e+17
19466.0	4.1308869539921914e+17
19467.0	4.1303431617795405e+17
19468.0	4.1297988620561056e+17
19469.0	4.127260650329426e+17
19470.0	4.1285871583887354e+17
19471.0	4.1279593200134816e+17
19472.0	4.127393067302912e+17
19473.0	4.12672960041233e+17
19474.0	4.124218299340113e+17
19475.0	4.1245920069331603e+17
19476.0	4.12481292931345e+17
19477.0	4.124144785074857e+17
19478.0	4.123589715776853e+17
19479.0	4.1211805851538726e+17
19480.0	4.1223085131912525e+17
19481.0	4.121485494277461e+17
19482.0	4.120859900553897e+17
19483.0	4.120335735586815e+17
19484.0	4.119587197725353e+17
19485.0	4.118999038864042e+17
19486.0	4.1164176943131366e+17
19487.0	4.117632351469567e+17
19488.0	4.1170364548164256e+17
19489.0	4.116428677797204e+17
19490.0	4.1144320646621843e+17
19491.0	4.1149972478252365e+17
19492.0	4.1143795638599674e+17
19493.0	4.113638143033342e+17
19494.0	4.112993680534186e+17
19495.0	4.1124397562811725e+17
19496.0	4.1112635622905165e+17
19497.0	4.111112584123734e+17
19498.0	4.110440203638102e+17
19499.0	4.106025239401808e+17
19500.0	4.109064151760896e+17
19501.0	4.1088208241076896e+17
19502.0	4.10828891435827e+17
19503.0	4.1075864600139085e+17
19504.0	4.106829246933674e+17
19505.0	4.106027859443711e+17
19506.0	4.105372155510783e+17
19507.0	4.104574868652031e+17
19508.0	4.103605048399189e+17
19509.0	4.102341560456532e+17
19510.0	4.099282373530963e+17
19511.0	4.0911341739485843e+17
19512.0	4.097385207343784e+17
19513.0	4.098013658786471e+17
19514.0	4.09862776431138e+17
19515.0	4.0986703805371757e+17
19516.0	4.098167517042003e+17
19517.0	4.0977990893786445e+17
19518.0	4.0966965935035725e+17
19519.0	4.096025479697748e+17
19520.0	4.0940952630940966e+17
19521.0	4.0953226422736205e+17
19522.0	4.0942886666458445e+17
19523.0	4.0935707430092806e+17
19524.0	4.091878961403224e+17
19525.0	4.092566126111402e+17
19526.0	4.0918099315479885e+17
19527.0	4.091196508296533e+17
19528.0	4.090317656905044e+17
19529.0	4.0895942631970125e+17
19530.0	4.0891424695473485e+17
19531.0	4.0884386548503885e+17
19532.0	4.087731683240618e+17
19533.0	4.0869756187006285e+17
19534.0	4.086425142165504e+17
19535.0	4.0857580905431034e+17
19536.0	4.084979229960874e+17
19537.0	4.084361812333908e+17
19538.0	4.0820174494542534e+17
19539.0	4.0825675533953734e+17
19540.0	4.0823629258861216e+17
19541.0	4.0812196774543354e+17
19542.0	4.0807489143657805e+17
19543.0	4.078503547546282e+17
19544.0	4.079425227674965e+17
19545.0	4.0786933467927866e+17
19546.0	4.0773944819930445e+17
19547.0	4.077616111113557e+17
19548.0	4.076910828410196e+17
19549.0	4.0760886273856845e+17
19550.0	4.075368301811029e+17
19551.0	4.0748627253002234e+17
19552.0	4.0740741842643616e+17
19553.0	4.0734765770342394e+17
19554.0	4.072666338863787e+17
19555.0	4.0717521197028685e+17
19556.0	4.071203229313705e+17
19557.0	4.0707111836276045e+17
19558.0	4.070050440937472e+17
19559.0	4.069344562642942e+17
19560.0	4.068012606182739e+17
19561.0	4.0679853110504096e+17
19562.0	4.0667804867406483e+17
19563.0	4.066673428529151e+17
19564.0	4.065762020250964e+17
19565.0	4.06521629446417e+17
19566.0	4.06442842591505e+17
19567.0	4.0639435329153696e+17
19568.0	4.063238150247764e+17
19569.0	4.062581926221142e+17
19570.0	4.0619149584848205e+17
19571.0	4.061192800698368e+17
19572.0	4.060514258081108e+17
19573.0	4.0596641495558816e+17
19574.0	4.059049624600574e+17
19575.0	4.0585246417442125e+17
19576.0	4.057763234359979e+17
19577.0	4.0568829044763296e+17
19578.0	4.056448190032555e+17
19579.0	4.0558323990964896e+17
19580.0	4.055049047113726e+17
19581.0	4.0542773811609594e+17
19582.0	4.053750131982335e+17
19583.0	4.0531553971514016e+17
19584.0	4.0523758060612256e+17
19585.0	4.0516944728337056e+17
19586.0	4.0510240273203206e+17
19587.0	4.050428367645354e+17
19588.0	4.04934898098722e+17
19589.0	4.049082746142718e+17
19590.0	4.048293580854612e+17
19591.0	4.0476858192145056e+17
19592.0	4.046998787325951e+17
19593.0	4.046172459805354e+17
19594.0	4.045371459589459e+17
19595.0	4.04497844211985e+17
19596.0	4.0442000387167565e+17
19597.0	4.043652118609919e+17
19598.0	4.042342066203306e+17
19599.0	4.0422585981556045e+17
19600.0	4.041502676221951e+17
19601.0	4.0408625037967354e+17
19602.0	4.040207152185342e+17
19603.0	4.039190903783422e+17
19604.0	4.038906130115242e+17
19605.0	4.037950945187157e+17
19606.0	4.0374483508264954e+17
19607.0	4.036888697154218e+17
19608.0	4.0359804520802976e+17
19609.0	4.03547850084625e+17
19610.0	4.034034984987307e+17
19611.0	4.032847016187221e+17
19612.0	4.033505182875647e+17
19613.0	4.032676698084693e+17
19614.0	4.0321086711835296e+17
19615.0	4.031514998210559e+17
19616.0	4.0300263299700064e+17
19617.0	4.028917851619328e+17
19618.0	4.0289651263187616e+17
19619.0	4.027991748597075e+17
19620.0	4.027129349363026e+17
19621.0	4.025439361520979e+17
19622.0	4.0267779960122016e+17
19623.0	4.0260665560705696e+17
19624.0	4.025230838901418e+17
19625.0	4.02478585819955e+17
19626.0	4.024002429321215e+17
19627.0	4.0234366407802874e+17
19628.0	4.0227318299361274e+17
19629.0	4.017799210991613e+17
19630.0	4.0214423687659514e+17
19631.0	4.01917874414114e+17
19632.0	4.0200969786490874e+17
19633.0	4.0194107975051936e+17
19634.0	4.018732602316117e+17
19635.0	4.017835909054463e+17
19636.0	4.015265204054696e+17
19637.0	4.014469501943806e+17
19638.0	4.015833315540991e+17
19639.0	4.015292403417087e+17
19640.0	4.014624911392768e+17
19641.0	4.01280224163704e+17
19642.0	4.0132926172910925e+17
19643.0	4.012614582883668e+17
19644.0	4.01199443546385e+17
19645.0	4.0112043537203194e+17
19646.0	4.008498363542183e+17
19647.0	4.009787251490815e+17
19648.0	4.009387814638933e+17
19649.0	4.008648804838059e+17
19650.0	4.0080005527852365e+17
19651.0	4.007342356037631e+17
19652.0	4.0067243574995616e+17
19653.0	4.005974767566847e+17
19654.0	4.005390970082645e+17
19655.0	4.0046123688482125e+17
19656.0	4.004056729823914e+17
