# Flux units: erg / (cm m2 s)
# Wavelength units: Angstrom
wave	flux
19000.0	7.101698663951017e+17
19001.0	7.10031932793378e+17
19002.0	7.099098414972927e+17
19003.0	7.09778832691473e+17
19004.0	7.096479104281258e+17
19005.0	7.095191282384896e+17
19006.0	7.09388753052194e+17
19007.0	7.092480316364116e+17
19008.0	7.091231405025962e+17
19009.0	7.089908636188671e+17
19010.0	7.088301784345257e+17
19011.0	7.08731135398161e+17
19012.0	7.085423615191718e+17
19013.0	7.084734797228714e+17
19014.0	7.083382515870377e+17
19015.0	7.08216276193553e+17
19016.0	7.082358005388628e+17
19017.0	7.081083612255572e+17
19018.0	7.079741770519891e+17
19019.0	7.078458868542122e+17
19020.0	7.077135432810493e+17
19021.0	7.075841025856851e+17
19022.0	7.074532340094291e+17
19023.0	7.073329294868479e+17
19024.0	7.072086059821738e+17
19025.0	7.070725412225023e+17
19026.0	7.069384023474175e+17
19027.0	7.067570637111293e+17
19028.0	7.066837839074646e+17
19029.0	7.065517729426089e+17
19030.0	7.064220688449535e+17
19031.0	7.062903451899219e+17
19032.0	7.061583184265215e+17
19033.0	7.060185242315434e+17
19034.0	7.058901006548992e+17
19035.0	7.057329746171219e+17
19036.0	7.018902188632733e+17
19037.0	7.054782373385556e+17
19038.0	7.053626195312637e+17
19039.0	7.05235279483153e+17
19040.0	7.051042383811923e+17
19041.0	7.049727146546516e+17
19042.0	7.048285560067412e+17
19043.0	7.0470933165725e+17
19044.0	7.045762236022783e+17
19045.0	7.044430287252138e+17
19046.0	7.043094198703444e+17
19047.0	7.041798502700372e+17
19048.0	7.040318311847252e+17
19049.0	7.039003492614143e+17
19050.0	7.037775078839638e+17
19051.0	7.030490203335328e+17
19052.0	7.034094853903699e+17
19053.0	7.033834574271827e+17
19054.0	7.032557553407316e+17
19055.0	7.031022459114836e+17
19056.0	7.029891421700093e+17
19057.0	7.028590011656874e+17
19058.0	7.027189588776276e+17
19059.0	7.025934352427689e+17
19060.0	7.024614223904767e+17
19061.0	7.023309110291114e+17
19062.0	7.021982132469759e+17
19063.0	7.020659810325844e+17
19064.0	7.019242272587775e+17
19065.0	7.0178704471709e+17
19066.0	7.016622810901161e+17
19067.0	7.015366355408211e+17
19068.0	7.014042317793961e+17
19069.0	7.012718636695551e+17
19070.0	7.011374809655978e+17
19071.0	7.010049041192276e+17
19072.0	7.008720349298688e+17
19073.0	7.007415957105321e+17
19074.0	7.006094912826025e+17
19075.0	7.004769563093674e+17
19076.0	7.003428193217194e+17
19077.0	7.002107817929385e+17
19078.0	7.000772573833898e+17
19079.0	6.99946564059136e+17
19080.0	6.99812794282803e+17
19081.0	6.996777819439101e+17
19082.0	6.995452570370047e+17
19083.0	6.994067274246825e+17
19084.0	6.992637847754068e+17
19085.0	6.991490499390121e+17
19086.0	6.989753430485673e+17
19087.0	6.987840494414506e+17
19088.0	6.987236405586602e+17
19089.0	6.985509215666175e+17
19090.0	6.9847656445597e+17
19091.0	6.983481812844541e+17
19092.0	6.981895004880895e+17
19093.0	6.980872175616e+17
19094.0	6.979559692610217e+17
19095.0	6.978235560624128e+17
19096.0	6.976899430831444e+17
19097.0	6.975584025094825e+17
19098.0	6.974236632896852e+17
19099.0	6.972905292300288e+17
19100.0	6.971537970866857e+17
19101.0	6.970251495342079e+17
19102.0	6.968871050630484e+17
19103.0	6.967618953718442e+17
19104.0	6.966288139507027e+17
19105.0	6.964897243987967e+17
19106.0	6.963438743977983e+17
19107.0	6.962249073688575e+17
19108.0	6.960888590368768e+17
19109.0	6.956613745945254e+17
19110.0	6.958031134785535e+17
19111.0	6.956936276038995e+17
19112.0	6.95563655979554e+17
19113.0	6.95433189986577e+17
19114.0	6.952991936479231e+17
19115.0	6.951552351382185e+17
19116.0	6.95032615150114e+17
19117.0	6.948984700534783e+17
19118.0	6.947452017967104e+17
19119.0	6.943309487756623e+17
19120.0	6.944674588306089e+17
19121.0	6.943452492551507e+17
19122.0	6.942371083539795e+17
19123.0	6.941043221419348e+17
19124.0	6.939491569412777e+17
19125.0	6.938365328184659e+17
19126.0	6.93703759888384e+17
19127.0	6.93438593053491e+17
19128.0	6.933744499119443e+17
19129.0	6.932992516336297e+17
19130.0	6.931719413650771e+17
19131.0	6.930380895901011e+17
19132.0	6.9290684331677e+17
19133.0	6.927588411484842e+17
19134.0	6.92610712731648e+17
19135.0	6.925064061932884e+17
19136.0	6.923746569530025e+17
19137.0	6.922292427401897e+17
19138.0	6.921061837482666e+17
19139.0	6.919751771794089e+17
19140.0	6.918423126037844e+17
19141.0	6.917091695263743e+17
19142.0	6.915727202189311e+17
19143.0	6.914385212254889e+17
19144.0	6.913064529384787e+17
19145.0	6.91175842451729e+17
19146.0	6.909938836875946e+17
19147.0	6.909026242308778e+17
19148.0	6.906701431177217e+17
19149.0	6.904899461709823e+17
19150.0	6.903594844422143e+17
19151.0	6.902267116519423e+17
19152.0	6.900890118826666e+17
19153.0	6.899547136939347e+17
19154.0	6.898160414752767e+17
19155.0	6.896905851589971e+17
19156.0	6.895558812412585e+17
19157.0	6.894029879552681e+17
19158.0	6.891035258344787e+17
19159.0	6.891448054054911e+17
19160.0	6.890159562468009e+17
19161.0	6.888754522357759e+17
19162.0	6.882904820241751e+17
19163.0	6.885829618171903e+17
19164.0	6.884867740532735e+17
19165.0	6.883441440194559e+17
19166.0	6.882037632510634e+17
19167.0	6.880449994074793e+17
19168.0	6.87951621198097e+17
19169.0	6.8781514700445e+17
19170.0	6.876878758827348e+17
19171.0	6.875317963937108e+17
19172.0	6.874167530662569e+17
19173.0	6.872872862963028e+17
19174.0	6.871516245393407e+17
19175.0	6.870222321483775e+17
19176.0	6.868881947055443e+17
19177.0	6.86741155549457e+17
19178.0	6.866041565085696e+17
19179.0	6.864514888062294e+17
19180.0	6.86347525361937e+17
19181.0	6.862092229410815e+17
19182.0	6.860823240638461e+17
19183.0	6.859504285122557e+17
19184.0	6.858148994351103e+17
19185.0	6.8568214929408e+17
19186.0	6.855481767231487e+17
19187.0	6.854067951938218e+17
19188.0	6.852780160101033e+17
19189.0	6.851420404492969e+17
19190.0	6.85004802822417e+17
19191.0	6.84867230769698e+17
19192.0	6.847396013146111e+17
19193.0	6.846019704717311e+17
19194.0	6.844650730728105e+17
19195.0	6.843295344186708e+17
19196.0	6.841868954370047e+17
19197.0	6.84034246259507e+17
19198.0	6.83824254235443e+17
19199.0	6.809468631952035e+17
19200.0	6.815283650669235e+17
19201.0	6.834318815701674e+17
19202.0	6.833632942140074e+17
19203.0	6.832372056063997e+17
19204.0	6.831136505681236e+17
19205.0	6.82984421265681e+17
19206.0	6.828513103446015e+17
19207.0	6.827105150391635e+17
19208.0	6.82567583085363e+17
19209.0	6.824481195906387e+17
19210.0	6.823134448233129e+17
19211.0	6.821788070357674e+17
19212.0	6.820424741901652e+17
19213.0	6.818774009249791e+17
19214.0	6.817285980640598e+17
19215.0	6.816169050068308e+17
19216.0	6.813137990145364e+17
19217.0	6.811783986326185e+17
19218.0	6.809803020741289e+17
19219.0	6.808941183543978e+17
19220.0	6.807685724198227e+17
19221.0	6.806114357564756e+17
19222.0	6.804988692354387e+17
19223.0	6.803620839642452e+17
19224.0	6.802237783976617e+17
19225.0	6.800806005178365e+17
19226.0	6.799529801504084e+17
19227.0	6.798162952628906e+17
19228.0	6.796820197933055e+17
19229.0	6.795452078882815e+17
19230.0	6.794058006178473e+17
19231.0	6.792686976980307e+17
19232.0	6.79133265928738e+17
19233.0	6.789908634359124e+17
19234.0	6.788581713859923e+17
19235.0	6.787207459241984e+17
19236.0	6.785849842029907e+17
19237.0	6.783591164586665e+17
19238.0	6.781796962271232e+17
19239.0	6.780530181799936e+17
19240.0	6.779132658581504e+17
19241.0	6.777743414919167e+17
19242.0	6.776369375608832e+17
19243.0	6.774862133592061e+17
19244.0	6.773610668621823e+17
19245.0	6.772216754601983e+17
19246.0	6.77081771933696e+17
19247.0	6.767995275706368e+17
19248.0	6.765730514425172e+17
19249.0	6.764329616190122e+17
19250.0	6.762927019961002e+17
19251.0	6.761462162784255e+17
19252.0	6.759924947572052e+17
19253.0	6.758741259758249e+17
19254.0	6.757357076523689e+17
19255.0	6.755803229498025e+17
19256.0	6.75451421991458e+17
19257.0	6.753146801313107e+17
19258.0	6.751739893339476e+17
19259.0	6.750267869495295e+17
19260.0	6.748220574487891e+17
19261.0	6.747492939639465e+17
19262.0	6.746043007893503e+17
19263.0	6.744622477519529e+17
19264.0	6.742849151653204e+17
19265.0	6.741682451469651e+17
19266.0	6.740265606490794e+17
19267.0	6.737992429338623e+17
19268.0	6.736151152951295e+17
19269.0	6.734721444741119e+17
19270.0	6.733284318904319e+17
19271.0	6.73160394440704e+17
19272.0	6.730386803523583e+17
19273.0	6.728322511798271e+17
19274.0	6.726990175753555e+17
19275.0	6.726089047015423e+17
19276.0	6.724628010150569e+17
19277.0	6.723181094808233e+17
19278.0	6.720315275083771e+17
19279.0	6.718555807896916e+17
19280.0	6.717069180185257e+17
19281.0	6.715645062283263e+17
19282.0	6.71416155303663e+17
19283.0	6.712355766053546e+17
19284.0	6.710961426311849e+17
19285.0	6.709606575942314e+17
19286.0	6.708217344163839e+17
19287.0	6.706714478204244e+17
19288.0	6.695303596649121e+17
19289.0	6.67946598094161e+17
19290.0	6.702211296570025e+17
19291.0	6.700563037159424e+17
19292.0	6.699272332378111e+17
19293.0	6.697759156819284e+17
19294.0	6.696240245549737e+17
19295.0	6.694728923174228e+17
19296.0	6.693179770273791e+17
19297.0	6.691641866496681e+17
19298.0	6.690119608871594e+17
19299.0	6.687475969818621e+17
19300.0	6.684781955077459e+17
19301.0	6.683217593630719e+17
19302.0	6.681644092096511e+17
19303.0	6.680011803197439e+17
19304.0	6.678475612793514e+17
19305.0	6.676898826420223e+17
19306.0	6.675292470203731e+17
19307.0	6.673648355464532e+17
19308.0	6.672039921669459e+17
19309.0	6.669517052007763e+17
19310.0	6.667515006550013e+17
19311.0	6.667074696205651e+17
19312.0	6.66561094422801e+17
19313.0	6.662198511621457e+17
19314.0	6.630316250060111e+17
19315.0	6.630902320158079e+17
19316.0	6.655821287697066e+17
19317.0	6.654316573447507e+17
19318.0	6.652630277292031e+17
19319.0	6.650943363874815e+17
19320.0	6.649216093563562e+17
19321.0	6.647474589881684e+17
19322.0	6.645610767712255e+17
19323.0	6.640893508801875e+17
19324.0	6.638383867275945e+17
19325.0	6.635875189041834e+17
19326.0	6.634799633181353e+17
19327.0	6.633038035987114e+17
19328.0	6.631192751942313e+17
19329.0	6.629405459043668e+17
19330.0	6.626770759450619e+17
19331.0	6.621023879299071e+17
19332.0	6.619128334909439e+17
19333.0	6.617183704580093e+17
19334.0	6.615256204487338e+17
19335.0	6.613211551192404e+17
19336.0	6.610878612897787e+17
19337.0	6.603706786469204e+17
19338.0	6.601476347177642e+17
19339.0	6.599526756384767e+17
19340.0	6.597361283366911e+17
19341.0	6.59501815710788e+17
19342.0	6.589474137265491e+17
19343.0	6.58757073904162e+17
19344.0	6.585293654895272e+17
19345.0	6.58163674539622e+17
19346.0	6.580167576474963e+17
19347.0	6.57836121137698e+17
19348.0	6.57611055833634e+17
19349.0	6.573704322482176e+17
19350.0	6.571299679764479e+17
19351.0	6.568892199600127e+17
19352.0	6.566367059421865e+17
19353.0	6.563970590703615e+17
19354.0	6.561416992871764e+17
19355.0	6.558763185427796e+17
19356.0	6.556224640953001e+17
19357.0	6.553592603344895e+17
19358.0	6.550916162038442e+17
19359.0	6.548198150285994e+17
19360.0	6.545475499633321e+17
19361.0	6.542771620588201e+17
19362.0	6.540045853567657e+17
19363.0	6.537261416622761e+17
19364.0	6.534453868363776e+17
19365.0	6.531624278338217e+17
19366.0	6.528771175044436e+17
19367.0	6.525895602864128e+17
19368.0	6.522997662460586e+17
19369.0	6.520023933080915e+17
19370.0	6.517060349023572e+17
19371.0	6.514136145286484e+17
19372.0	6.511194554062164e+17
19373.0	6.508106624969385e+17
19374.0	6.504950548922368e+17
19375.0	6.501729406637395e+17
19376.0	6.498473046878889e+17
19377.0	6.49517269586193e+17
19378.0	6.491836827478698e+17
19379.0	6.488439995585876e+17
19380.0	6.484910645357225e+17
19381.0	6.481442647310333e+17
19382.0	6.477891022531242e+17
19383.0	6.47433345372433e+17
19384.0	6.470824893262506e+17
19385.0	6.467201629072041e+17
19386.0	6.463534880434857e+17
19387.0	6.459819270253225e+17
19388.0	6.456055242424319e+17
19389.0	6.452232127337812e+17
19390.0	6.44828322926865e+17
19391.0	6.415160522571732e+17
19392.0	6.439839538173266e+17
19393.0	6.436433735363242e+17
19394.0	6.432368496388777e+17
19395.0	6.428192938830505e+17
19396.0	6.423706455419561e+17
19397.0	6.419502614271316e+17
19398.0	6.415181194199037e+17
19399.0	6.410386134444713e+17
19400.0	6.406392290912938e+17
19401.0	6.401959637199529e+17
19402.0	6.397396559506089e+17
19403.0	6.392311779601065e+17
19404.0	6.387209254993919e+17
19405.0	6.382342018258259e+17
19406.0	6.377398776539817e+17
19407.0	6.37209431506944e+17
19408.0	6.365360919237972e+17
19409.0	6.360486473891839e+17
19410.0	6.354578757561004e+17
19411.0	6.347513644012884e+17
19412.0	6.34172271038737e+17
19413.0	6.333426516885504e+17
19414.0	6.326887344592211e+17
19415.0	6.317569371100503e+17
19416.0	6.309555138286926e+17
19417.0	6.298252288021843e+17
19418.0	6.287051913691141e+17
19419.0	6.273833928141476e+17
19420.0	6.258437007955286e+17
19421.0	6.240568929681404e+17
19422.0	6.219610750364333e+17
19423.0	6.200411351766351e+17
19424.0	6.188053917160788e+17
19425.0	6.175666123483818e+17
19426.0	6.16276831712051e+17
19427.0	6.149231089811455e+17
19428.0	6.134991780752041e+17
19429.0	6.120417669764435e+17
19430.0	6.104852572667905e+17
19431.0	6.084384232133979e+17
19432.0	6.072658790361769e+17
19433.0	6.053997286785025e+17
19434.0	6.034125395154258e+17
19435.0	6.011011807750825e+17
19436.0	5.983707280179196e+17
19437.0	5.955329860829181e+17
19438.0	5.883431370096645e+17
19439.0	5.876705826701311e+17
19440.0	5.828033783005188e+17
19441.0	5.779735502127098e+17
19442.0	5.735092764803073e+17
19443.0	5.684840927417686e+17
19444.0	5.625461667965607e+17
19445.0	5.5519601974312966e+17
19446.0	5.462419714692436e+17
19447.0	5.349342349798054e+17
19448.0	5.203996637659141e+17
19449.0	5.0039913422957216e+17
19450.0	4.693007843808562e+17
19451.0	4.5363319471254234e+17
19452.0	4.865598529994756e+17
19453.0	5.113022506161502e+17
19454.0	5.27851023219643e+17
19455.0	5.403198564422996e+17
19456.0	5.501419838068057e+17
19457.0	5.579824030547963e+17
19458.0	5.5960429595198246e+17
19459.0	5.694394902511627e+17
19460.0	5.740356283574951e+17
19461.0	5.783251485108905e+17
19462.0	5.83228788799352e+17
19463.0	5.875318962607441e+17
19464.0	5.911843960083799e+17
19465.0	5.942014708634963e+17
19466.0	5.967657694833316e+17
19467.0	5.98951286940194e+17
19468.0	6.008459034099712e+17
19469.0	6.024837998138708e+17
19470.0	6.040209518318931e+17
19471.0	6.054415762281812e+17
19472.0	6.06754760241971e+17
19473.0	6.079896173761875e+17
19474.0	6.092082465385129e+17
19475.0	6.103125189809491e+17
19476.0	6.114399289518761e+17
19477.0	6.124707969499136e+17
19478.0	6.134492950080169e+17
19479.0	6.147093725620905e+17
19480.0	6.165720405289638e+17
19481.0	6.183144133405356e+17
19482.0	6.197137677221887e+17
19483.0	6.209334764983639e+17
19484.0	6.219054694705832e+17
19485.0	6.227055330284882e+17
19486.0	6.234066787500031e+17
19487.0	6.24074021736721e+17
19488.0	6.245624591329961e+17
19489.0	6.251001439496872e+17
19490.0	6.254489347904852e+17
19491.0	6.259191777853439e+17
19492.0	6.263706521086634e+17
19493.0	6.266713427410943e+17
19494.0	6.270017385529341e+17
19495.0	6.273563092844544e+17
19496.0	6.275892153505107e+17
19497.0	6.278566815028563e+17
19498.0	6.277844979504471e+17
19499.0	6.237870029974156e+17
19500.0	6.286168217878527e+17
19501.0	6.288392242681171e+17
19502.0	6.290426241045844e+17
19503.0	6.292430159260329e+17
19504.0	6.294326371942397e+17
19505.0	6.296169512697855e+17
19506.0	6.298126978296489e+17
19507.0	6.300007365170516e+17
19508.0	6.301685265727488e+17
19509.0	6.303279252242431e+17
19510.0	6.30460990357504e+17
19511.0	6.251191716194949e+17
19512.0	6.300566902101317e+17
19513.0	6.296042223960042e+17
19514.0	6.300912295346162e+17
19515.0	6.311108497375232e+17
19516.0	6.313067780505597e+17
19517.0	6.314248993680042e+17
19518.0	6.315439591609684e+17
19519.0	6.316526734934015e+17
19520.0	6.317574906183679e+17
19521.0	6.318648707426986e+17
19522.0	6.319610499781972e+17
19523.0	6.320641891019434e+17
19524.0	6.321564806370643e+17
19525.0	6.322434422603775e+17
19526.0	6.323256018949462e+17
19527.0	6.324027239606953e+17
19528.0	6.324755198115839e+17
19529.0	6.32542638252578e+17
19530.0	6.325976385104553e+17
19531.0	6.326485145092096e+17
19532.0	6.326972374319103e+17
19533.0	6.327437487680169e+17
19534.0	6.327877653321043e+17
19535.0	6.328288660859561e+17
19536.0	6.328662762018132e+17
19537.0	6.329061081087999e+17
19538.0	6.329305993489066e+17
19539.0	6.329344855113728e+17
19540.0	6.330004199003476e+17
19541.0	6.330295419316905e+17
19542.0	6.330537742434304e+17
19543.0	6.330728437863764e+17
19544.0	6.330949729342804e+17
19545.0	6.330794424751443e+17
19546.0	6.330630251304275e+17
19547.0	6.331378965326505e+17
19548.0	6.331471145642665e+17
19549.0	6.331448076970665e+17
19550.0	6.331513912164351e+17
19551.0	6.331478823316137e+17
19552.0	6.331413099271507e+17
19553.0	6.33130509734161e+17
19554.0	6.331175841475241e+17
19555.0	6.331048269621929e+17
19556.0	6.330890286967466e+17
19557.0	6.330693422415872e+17
19558.0	6.330476305667412e+17
19559.0	6.330234645250047e+17
19560.0	6.330226435599021e+17
19561.0	6.332689098822995e+17
19562.0	6.332352578628266e+17
19563.0	6.33199967408401e+17
19564.0	6.331615574403753e+17
19565.0	6.331213138624511e+17
19566.0	6.335521113156262e+17
19567.0	6.335379239425364e+17
19568.0	6.334848359377578e+17
19569.0	6.334336477429759e+17
19570.0	6.333802367767892e+17
19571.0	6.333245671778985e+17
19572.0	6.334936518754303e+17
19573.0	6.336236943136084e+17
19574.0	6.335542631333887e+17
19575.0	6.334976084322985e+17
19576.0	6.334326179714388e+17
19577.0	6.33365346648064e+17
19578.0	6.332963351778644e+17
19579.0	6.332286986005161e+17
19580.0	6.33359541381803e+17
19581.0	6.334238817255423e+17
19582.0	6.333509273998676e+17
19583.0	6.332758137765887e+17
19584.0	6.331981864370175e+17
19585.0	6.331140669439997e+17
19586.0	6.330318989208233e+17
19587.0	6.329512513328468e+17
19588.0	6.328528947642368e+17
19589.0	6.328049071030272e+17
19590.0	6.327274331351721e+17
19591.0	6.329067906618708e+17
19592.0	6.328227980465492e+17
19593.0	6.327364889870335e+17
19594.0	6.326327739853482e+17
19595.0	6.325642230497279e+17
19596.0	6.323432731967489e+17
19597.0	6.323898436026367e+17
19598.0	6.322790879024467e+17
19599.0	6.322158288502783e+17
19600.0	6.32127600267537e+17
19601.0	6.320327603432106e+17
19602.0	6.319432724905983e+17
19603.0	6.317837626201427e+17
19604.0	6.317552315662335e+17
19605.0	6.316516098179072e+17
19606.0	6.317163077959677e+17
19607.0	6.316878029564586e+17
19608.0	6.315926457330346e+17
19609.0	6.314957254339242e+17
19610.0	6.314035753167529e+17
19611.0	6.313075193937919e+17
19612.0	6.312148363203924e+17
19613.0	6.311181532790783e+17
19614.0	6.310195206553599e+17
19615.0	6.309252845010944e+17
19616.0	6.307987918422015e+17
19617.0	6.307289802386089e+17
19618.0	6.305917428913491e+17
19619.0	6.304824879131305e+17
19620.0	6.303873359325865e+17
19621.0	6.303358722419369e+17
19622.0	6.302403310299817e+17
19623.0	6.301410299740159e+17
19624.0	6.300404888720723e+17
19625.0	6.299409434279935e+17
19626.0	6.298399057204564e+17
19627.0	6.297524401515177e+17
19628.0	6.29586278674159e+17
19629.0	6.295245940239018e+17
19630.0	6.292379707375616e+17
19631.0	6.264900880607914e+17
19632.0	6.293575199358975e+17
19633.0	6.292790373078356e+17
19634.0	6.291883265359871e+17
19635.0	6.290841206609235e+17
19636.0	6.289823340604074e+17
19637.0	6.288500027905364e+17
19638.0	6.2877900224157e+17
19639.0	6.287744038163798e+17
19640.0	6.286860100479657e+17
19641.0	6.285294663892992e+17
19642.0	6.284838895441235e+17
19643.0	6.283786134923946e+17
19644.0	6.282706797199359e+17
19645.0	6.281505921127764e+17
19646.0	6.280623951271252e+17
19647.0	6.279611758062249e+17
19648.0	6.278561354743807e+17
19649.0	6.277505918959615e+17
19650.0	6.2764528187037e+17
19651.0	6.275390899923626e+17
19652.0	6.274335926910973e+17
19653.0	6.273262319304701e+17
19654.0	6.272209555292159e+17
19655.0	6.27115050471697e+17
19656.0	6.270084667058857e+17
19657.0	6.269024470739625e+17
19658.0	6.26795544191522e+17
19659.0	6.266888327091539e+17
19660.0	6.265820107068755e+17
19661.0	6.264749212478121e+17
19662.0	6.264725975334912e+17
19663.0	6.264475968951638e+17
19664.0	6.263331540522324e+17
19665.0	6.262379930539348e+17
