# Flux units: erg / (cm m2 s)
# Wavelength units: Angstrom
wave	flux
19000.0	4.989117460905983e+17
19001.0	4.988039192029866e+17
19002.0	4.987288840131923e+17
19003.0	4.9863669600747514e+17
19004.0	4.985449419025066e+17
19005.0	4.9845168854357325e+17
19006.0	4.983611558199295e+17
19007.0	4.982703838112426e+17
19008.0	4.981675243776681e+17
19009.0	4.9807175772187296e+17
19010.0	4.9790439548518374e+17
19011.0	4.9789721875141965e+17
19012.0	4.9779135822342816e+17
19013.0	4.9771903024715085e+17
19014.0	4.976196552316245e+17
19015.0	4.975277156685141e+17
19016.0	4.97433415061777e+17
19017.0	4.9735324205929805e+17
19018.0	4.972593413095423e+17
19019.0	4.971689268652714e+17
19020.0	4.9707616787496954e+17
19021.0	4.969873932637524e+17
19022.0	4.9689519092749645e+17
19023.0	4.967986987270143e+17
19024.0	4.9670827400669856e+17
19025.0	4.9662122758853965e+17
19026.0	4.965256546396842e+17
19027.0	4.964323011067903e+17
19028.0	4.963478273348949e+17
19029.0	4.9625358328135674e+17
19030.0	4.961664473148075e+17
19031.0	4.960757878532779e+17
19032.0	4.95983002718481e+17
19033.0	4.958776527071914e+17
19034.0	4.9579946759509325e+17
19035.0	4.957041229561855e+17
19036.0	4.9496143027677843e+17
19037.0	4.9552594899217056e+17
19038.0	4.954337835657898e+17
19039.0	4.953459250604714e+17
19040.0	4.952557331939328e+17
19041.0	4.9516339622051834e+17
19042.0	4.9503271722680314e+17
19043.0	4.9498272657571834e+17
19044.0	4.948898712562346e+17
19045.0	4.9480036278162765e+17
19046.0	4.946982766379008e+17
19047.0	4.946160521314302e+17
19048.0	4.944841288974336e+17
19049.0	4.9437387979926176e+17
19050.0	4.9433674154420896e+17
19051.0	4.9415808306817696e+17
19052.0	4.941501357009578e+17
19053.0	4.940736510995113e+17
19054.0	4.9398242477779616e+17
19055.0	4.938428765787477e+17
19056.0	4.937937010906453e+17
19057.0	4.937095151179093e+17
19058.0	4.9359105951443616e+17
19059.0	4.935178314405204e+17
19060.0	4.934344497954815e+17
19061.0	4.9334798100288845e+17
19062.0	4.932564103288148e+17
19063.0	4.931661629576532e+17
19064.0	4.9305467982533965e+17
19065.0	4.9295819936890874e+17
19066.0	4.928760760150697e+17
19067.0	4.9280221795669325e+17
19068.0	4.9271361125744634e+17
19069.0	4.926233643756202e+17
19070.0	4.925278393816405e+17
19071.0	4.9244128768163834e+17
19072.0	4.923415069371049e+17
19073.0	4.9226019692871674e+17
19074.0	4.92171187786001e+17
19075.0	4.9208079368410445e+17
19076.0	4.91986881749538e+17
19077.0	4.9189699215250765e+17
19078.0	4.9180188337329485e+17
19079.0	4.9171887579026765e+17
19080.0	4.9162659313309005e+17
19081.0	4.9153122535560525e+17
19082.0	4.9144116071628794e+17
19083.0	4.913443612830378e+17
19084.0	4.912352555521366e+17
19085.0	4.911754459654826e+17
19086.0	4.910190861571413e+17
19087.0	4.909601440923647e+17
19088.0	4.9088255261409274e+17
19089.0	4.9078270525003085e+17
19090.0	4.9072290447141536e+17
19091.0	4.9063075533291514e+17
19092.0	4.9051656491717965e+17
19093.0	4.904569990195882e+17
19094.0	4.903666393109845e+17
19095.0	4.902770192678911e+17
19096.0	4.9018408866065056e+17
19097.0	4.900966483973461e+17
19098.0	4.899950968875689e+17
19099.0	4.8990297857720314e+17
19100.0	4.898226183689556e+17
19101.0	4.8973637068608845e+17
19102.0	4.896242577790291e+17
19103.0	4.895565874375338e+17
19104.0	4.894678263179946e+17
19105.0	4.893532322704042e+17
19106.0	4.892852937031679e+17
19107.0	4.891890373623807e+17
19108.0	4.890995210584064e+17
19109.0	4.889821155688446e+17
19110.0	4.8892796242056525e+17
19111.0	4.8883257905425056e+17
19112.0	4.8874166353046176e+17
19113.0	4.886592967671807e+17
19114.0	4.885651184244053e+17
19115.0	4.884707930712746e+17
19116.0	4.8838783407226874e+17
19117.0	4.8829781605963085e+17
19118.0	4.8819593564651514e+17
19119.0	4.862674493330744e+17
19120.0	4.8802515120728736e+17
19121.0	4.87939483317043e+17
19122.0	4.8785397208405325e+17
19123.0	4.8776453204650656e+17
19124.0	4.8767255927848954e+17
19125.0	4.875852920302249e+17
19126.0	4.8749464480208205e+17
19127.0	4.870888695179944e+17
19128.0	4.8731310959274656e+17
19129.0	4.8721544962812576e+17
19130.0	4.871360912992938e+17
19131.0	4.8704874750498125e+17
19132.0	4.869593711509504e+17
19133.0	4.8686119682484896e+17
19134.0	4.867802368311296e+17
19135.0	4.866914993395029e+17
19136.0	4.8660307802849274e+17
19137.0	4.864855977405098e+17
19138.0	4.8642231813625165e+17
19139.0	4.863355801392469e+17
19140.0	4.86246639014161e+17
19141.0	4.861575057899519e+17
19142.0	4.8606407927616845e+17
19143.0	4.8596877762887686e+17
19144.0	4.8588420983466656e+17
19145.0	4.8580058771619834e+17
19146.0	4.856100334250667e+17
19147.0	4.8560547890025805e+17
19148.0	4.85524497375778e+17
19149.0	4.854335942950911e+17
19150.0	4.853548412742314e+17
19151.0	4.8526636368964256e+17
19152.0	4.8517717600938656e+17
19153.0	4.850678328109738e+17
19154.0	4.849767588123989e+17
19155.0	4.849115719183017e+17
19156.0	4.8482234641940474e+17
19157.0	4.8472657584892576e+17
19158.0	4.8460751284032845e+17
19159.0	4.8455266001223674e+17
19160.0	4.8446569384509434e+17
19161.0	4.8437837270002336e+17
19162.0	4.8423121016149325e+17
19163.0	4.84199641382912e+17
19164.0	4.841124162174976e+17
19165.0	4.840008770912255e+17
19166.0	4.839101636629844e+17
19167.0	4.8384131416282445e+17
19168.0	4.837569646122323e+17
19169.0	4.8366741223724365e+17
19170.0	4.835807728762879e+17
19171.0	4.8348799368342176e+17
19172.0	4.834035053013674e+17
19173.0	4.8331516612881056e+17
19174.0	4.832158544472747e+17
19175.0	4.831375356067839e+17
19176.0	4.830491833619796e+17
19177.0	4.8293577874909856e+17
19178.0	4.828714541339989e+17
19179.0	4.8277907696517114e+17
19180.0	4.8269451000982176e+17
19181.0	4.8257997887679123e+17
19182.0	4.8251624523912525e+17
19183.0	4.824310503964671e+17
19184.0	4.823418845964971e+17
19185.0	4.82252214641186e+17
19186.0	4.8216569754419194e+17
19187.0	4.820682784724309e+17
19188.0	4.819889037159082e+17
19189.0	4.819016323432447e+17
19190.0	4.818131876839423e+17
19191.0	4.817199729126058e+17
19192.0	4.816368437646676e+17
19193.0	4.8154533125160954e+17
19194.0	4.8145461202124794e+17
19195.0	4.8137205595504614e+17
19196.0	4.812810036969472e+17
19197.0	4.8119406577145165e+17
19198.0	4.8110523998972576e+17
19199.0	4.806696342563497e+17
19200.0	4.806959103825237e+17
19201.0	4.808414544789504e+17
19202.0	4.807554685206528e+17
19203.0	4.8066679967580154e+17
19204.0	4.8057527325163514e+17
19205.0	4.804903941701632e+17
19206.0	4.8040091911017805e+17
19207.0	4.8029748288989856e+17
19208.0	4.8018336433657146e+17
19209.0	4.801383134571178e+17
19210.0	4.8005081076858874e+17
19211.0	4.7996509974691834e+17
19212.0	4.798767081455615e+17
19213.0	4.7977388079841274e+17
19214.0	4.7968109964820474e+17
19215.0	4.796125477339134e+17
19216.0	4.7952598212280314e+17
19217.0	4.7943694613654176e+17
19218.0	4.792113868832765e+17
19219.0	4.792403686151508e+17
19220.0	4.7917115085509965e+17
19221.0	4.7903191240540154e+17
19222.0	4.7899864598227616e+17
19223.0	4.789083124880724e+17
19224.0	4.7881747861340154e+17
19225.0	4.787116949809833e+17
19226.0	4.7864552654984525e+17
19227.0	4.7855857114808314e+17
19228.0	4.7847461865826976e+17
19229.0	4.7838693358742176e+17
19230.0	4.782980388793002e+17
19231.0	4.7820996185074336e+17
19232.0	4.7812330801943885e+17
19233.0	4.7802607426600954e+17
19234.0	4.77945448698129e+17
19235.0	4.778568216565077e+17
19236.0	4.7777446873442976e+17
19237.0	4.7768399962439674e+17
19238.0	4.775836381784746e+17
19239.0	4.775127199077716e+17
19240.0	4.774242134523902e+17
19241.0	4.7733445709441696e+17
19242.0	4.772481063714815e+17
19243.0	4.7713863895176525e+17
19244.0	4.77076172902673e+17
19245.0	4.7698795858056525e+17
19246.0	4.7689862270156794e+17
19247.0	4.7681292705901216e+17
19248.0	4.7672720869730976e+17
19249.0	4.7663882946914976e+17
19250.0	4.765457411560789e+17
19251.0	4.764435704272212e+17
19252.0	4.763356230931796e+17
19253.0	4.762862770367146e+17
19254.0	4.7620399227207674e+17
19255.0	4.760883187504467e+17
19256.0	4.760247592463019e+17
19257.0	4.759424152720725e+17
19258.0	4.7585554669240314e+17
19259.0	4.7575768540119034e+17
19260.0	4.7566428195607885e+17
19261.0	4.755923168570026e+17
19262.0	4.7549801548130976e+17
19263.0	4.754090008160938e+17
19264.0	4.7523297195895443e+17
19265.0	4.75208772292881e+17
19266.0	4.750968128274432e+17
19267.0	4.750725946365268e+17
19268.0	4.7498455829271885e+17
19269.0	4.74898089709841e+17
19270.0	4.748112440590334e+17
19271.0	4.746625703826775e+17
19272.0	4.746319133758804e+17
19273.0	4.744812269229395e+17
19274.0	4.74389132030771e+17
19275.0	4.743773410732714e+17
19276.0	4.742871671723349e+17
19277.0	4.74201390789427e+17
19278.0	4.741145974975146e+17
19279.0	4.740259071219029e+17
19280.0	4.739268740120575e+17
19281.0	4.738534876031658e+17
19282.0	4.737695841867093e+17
19283.0	4.736777060701525e+17
19284.0	4.735918392300883e+17
19285.0	4.734817014207829e+17
19286.0	4.7341631851287885e+17
19287.0	4.73335290990865e+17
19288.0	4.7307161159598054e+17
19289.0	4.72721409232076e+17
19290.0	4.7307518626146976e+17
19291.0	4.729492508857685e+17
19292.0	4.7290226049023994e+17
19293.0	4.728144098142889e+17
19294.0	4.727272711214422e+17
19295.0	4.72642252509457e+17
19296.0	4.725434632284842e+17
19297.0	4.7246282395921056e+17
19298.0	4.723723391904425e+17
19299.0	4.722741417956693e+17
19300.0	4.721979892432895e+17
19301.0	4.721124958360917e+17
19302.0	4.720245114317482e+17
19303.0	4.71927387848704e+17
19304.0	4.718479255710378e+17
19305.0	4.7176361733434016e+17
19306.0	4.7167849162779296e+17
19307.0	4.7158495410476365e+17
19308.0	4.715019745536682e+17
19309.0	4.7140495415050234e+17
19310.0	4.713120826130432e+17
19311.0	4.7123969738451616e+17
19312.0	4.711578313512277e+17
19313.0	4.710728968350377e+17
19314.0	4.6942663349370874e+17
19315.0	4.694735959971178e+17
19316.0	4.7079645130697376e+17
19317.0	4.7072412822405114e+17
19318.0	4.706375719802197e+17
19319.0	4.7055331652184736e+17
19320.0	4.7046195402506234e+17
19321.0	4.7037043612931405e+17
19322.0	4.702816451603114e+17
19323.0	4.702004760805376e+17
19324.0	4.7011894650033485e+17
19325.0	4.700212278154581e+17
19326.0	4.6994646665352525e+17
19327.0	4.698568150832468e+17
19328.0	4.697514052332202e+17
19329.0	4.6968632298700794e+17
19330.0	4.695926636893525e+17
19331.0	4.6950482727403514e+17
19332.0	4.6942518149556896e+17
19333.0	4.6933672809813325e+17
19334.0	4.692507412310699e+17
19335.0	4.691212982987434e+17
19336.0	4.690764676901546e+17
19337.0	4.689894999151955e+17
19338.0	4.688683228375721e+17
19339.0	4.688153971523583e+17
19340.0	4.6868497764625056e+17
19341.0	4.686141847852372e+17
19342.0	4.68483931583283e+17
19343.0	4.6846599708890445e+17
19344.0	4.6836191844106234e+17
19345.0	4.6790730503072346e+17
19346.0	4.6804027767958163e+17
19347.0	4.680740852378282e+17
19348.0	4.680126015646378e+17
19349.0	4.679171487825919e+17
19350.0	4.678225684856832e+17
19351.0	4.677402426867711e+17
19352.0	4.676255281927508e+17
19353.0	4.6757123789073056e+17
19354.0	4.674838505455615e+17
19355.0	4.673796040556543e+17
19356.0	4.673069953406293e+17
19357.0	4.672191237630634e+17
19358.0	4.671303355902634e+17
19359.0	4.670296844577449e+17
19360.0	4.6692942947723936e+17
19361.0	4.6685796580720634e+17
19362.0	4.6677587985257805e+17
19363.0	4.666867262859946e+17
19364.0	4.665883991474175e+17
19365.0	4.6649308715417594e+17
19366.0	4.6640427046010874e+17
19367.0	4.6631470249629005e+17
19368.0	4.662250610622463e+17
19369.0	4.661271627213481e+17
19370.0	4.660373973456213e+17
19371.0	4.659454890300757e+17
19372.0	4.6586345536443725e+17
19373.0	4.6576948680676685e+17
19374.0	4.6567929200421536e+17
19375.0	4.6558027825807354e+17
19376.0	4.6548921789098656e+17
19377.0	4.6539535160442874e+17
19378.0	4.653035954722132e+17
19379.0	4.6521140858497696e+17
19380.0	4.651184655346345e+17
19381.0	4.650241123592874e+17
19382.0	4.649196189646847e+17
19383.0	4.648183320455851e+17
19384.0	4.647396136277332e+17
19385.0	4.646462353484457e+17
19386.0	4.645511610324309e+17
19387.0	4.644547286007808e+17
19388.0	4.6434427677791565e+17
19389.0	4.642456725356544e+17
19390.0	4.641468078271147e+17
19391.0	4.6343556445852915e+17
19392.0	4.63939248988706e+17
19393.0	4.6384721463432525e+17
19394.0	4.637443266095785e+17
19395.0	4.636357039226879e+17
19396.0	4.6353718594327885e+17
19397.0	4.634350786882217e+17
19398.0	4.633190578782208e+17
19399.0	4.630703087375699e+17
19400.0	4.6307479678266016e+17
19401.0	4.629794923391658e+17
19402.0	4.628629609425579e+17
19403.0	4.627373476894036e+17
19404.0	4.6262464142813856e+17
19405.0	4.6250425686425594e+17
19406.0	4.62359505211665e+17
19407.0	4.6222600554850976e+17
19408.0	4.619592689953453e+17
19409.0	4.6197775196487674e+17
19410.0	4.618173292740606e+17
19411.0	4.6167221432483834e+17
19412.0	4.615327263839573e+17
19413.0	4.613372903423998e+17
19414.0	4.6117994403375776e+17
19415.0	4.609910227249833e+17
19416.0	4.607770620504745e+17
19417.0	4.60562159964433e+17
19418.0	4.603469049277098e+17
19419.0	4.6007846702503226e+17
19420.0	4.597360078356479e+17
19421.0	4.594646276287146e+17
19422.0	4.5924587964552525e+17
19423.0	4.5903295650201594e+17
19424.0	4.588043210762921e+17
19425.0	4.584996543834794e+17
19426.0	4.58238581608721e+17
19427.0	4.579508576671059e+17
19428.0	4.5757234102490445e+17
19429.0	4.572147757700435e+17
19430.0	4.5676668708891315e+17
19431.0	4.561185540844204e+17
19432.0	4.555300607273645e+17
19433.0	4.546145191723004e+17
19434.0	4.533109580103672e+17
19435.0	4.513317963956221e+17
19436.0	4.496661333497172e+17
19437.0	4.487832406065151e+17
19438.0	4.465610038356651e+17
19439.0	4.4662492398004915e+17
19440.0	4.4541071687243085e+17
19441.0	4.437727099486208e+17
19442.0	4.4097334750303514e+17
19443.0	4.349446573785088e+17
19444.0	4.306418507885225e+17
19445.0	4.267615718124204e+17
19446.0	4.225314216127147e+17
19447.0	4.1820725168483e+17
19448.0	4.104768011457877e+17
19449.0	3.942466651335337e+17
19450.0	3.5796165947556077e+17
19451.0	3.3707940873502976e+17
19452.0	3.8191653237118086e+17
19453.0	4.0245607925459616e+17
19454.0	4.152424240163495e+17
19455.0	4.1986353242221216e+17
19456.0	4.239749961919148e+17
19457.0	4.2792185946439654e+17
19458.0	4.2663422910792454e+17
19459.0	4.3705811452559635e+17
19460.0	4.412507663193421e+17
19461.0	4.431049355777362e+17
19462.0	4.443258957944149e+17
19463.0	4.4532691768442874e+17
19464.0	4.462019066112683e+17
19465.0	4.470356793709909e+17
19466.0	4.479341881371306e+17
19467.0	4.498832682734938e+17
19468.0	4.512584250163194e+17
19469.0	4.521302162057899e+17
19470.0	4.5279202669581664e+17
19471.0	4.532281911803904e+17
19472.0	4.5351792908697594e+17
19473.0	4.537856812209492e+17
19474.0	4.5394823224142515e+17
19475.0	4.539737916309502e+17
19476.0	4.5422660288511994e+17
19477.0	4.543536762454015e+17
19478.0	4.544577088957098e+17
19479.0	4.5449908234922656e+17
19480.0	4.545558891637418e+17
19481.0	4.5462549923102714e+17
19482.0	4.5475657626419174e+17
19483.0	4.5489498536017914e+17
19484.0	4.549895803371519e+17
19485.0	4.5503835988295674e+17
19486.0	4.5504814435532806e+17
19487.0	4.5511887199491405e+17
19488.0	4.55113386893858e+17
19489.0	4.5510468203533645e+17
19490.0	4.5483637716200064e+17
19491.0	4.5508231003723085e+17
19492.0	4.5507786078945274e+17
19493.0	4.5505876307476474e+17
19494.0	4.5501723729810765e+17
19495.0	4.5497347763514016e+17
19496.0	4.548521167770964e+17
19497.0	4.5490395991244794e+17
19498.0	4.548018460863147e+17
19499.0	4.538055934694734e+17
19500.0	4.5475101321898656e+17
19501.0	4.5470647026974714e+17
19502.0	4.5465271222490445e+17
19503.0	4.5460965014459725e+17
19504.0	4.5455516424820045e+17
19505.0	4.5449336355553274e+17
19506.0	4.544323194454015e+17
19507.0	4.5436386903326714e+17
19508.0	4.5430411040740685e+17
19509.0	4.5423801062304416e+17
19510.0	4.5413141693071354e+17
19511.0	4.5160907728923117e+17
19512.0	4.538909051234983e+17
19513.0	4.536338855144102e+17
19514.0	4.536947132683603e+17
19515.0	4.537410963286699e+17
19516.0	4.5376318912593914e+17
19517.0	4.5368670116904954e+17
19518.0	4.536254672666623e+17
19519.0	4.5355228337274874e+17
19520.0	4.5346515362775034e+17
19521.0	4.53412669952273e+17
19522.0	4.5333170087089485e+17
19523.0	4.532615885357055e+17
19524.0	4.531806960702805e+17
19525.0	4.5311499138935443e+17
19526.0	4.5304295596578125e+17
19527.0	4.5296576714069325e+17
19528.0	4.528898915521877e+17
19529.0	4.528151126343679e+17
19530.0	4.5275013112135674e+17
19531.0	4.5267422323671034e+17
19532.0	4.5259809759778125e+17
19533.0	4.5252176056593056e+17
19534.0	4.524447086149631e+17
19535.0	4.523655157514239e+17
19536.0	4.522847714148351e+17
19537.0	4.5221403804303354e+17
19538.0	4.521059204901547e+17
19539.0	4.5195567059435546e+17
19540.0	4.519787754771797e+17
19541.0	4.519020758477482e+17
19542.0	4.5183583031132154e+17
19543.0	4.51746602086127e+17
19544.0	4.5168301273251834e+17
19545.0	4.515202258523475e+17
19546.0	4.513607296133803e+17
19547.0	4.51450289468211e+17
19548.0	4.513719799250944e+17
19549.0	4.512780914786304e+17
19550.0	4.5121494287646714e+17
19551.0	4.511367632169642e+17
19552.0	4.510578887710036e+17
19553.0	4.5097509621596154e+17
19554.0	4.508921931410091e+17
19555.0	4.508173838144853e+17
19556.0	4.507416039260159e+17
19557.0	4.5066276030818976e+17
19558.0	4.505837761811796e+17
19559.0	4.5050508705355085e+17
19560.0	4.504167803169449e+17
19561.0	4.5034252219187194e+17
19562.0	4.502613603822249e+17
19563.0	4.5018873321226234e+17
19564.0	4.5010943269492045e+17
19565.0	4.5002964486935885e+17
19566.0	4.499453948635818e+17
19567.0	4.498711845535743e+17
19568.0	4.4979649651234125e+17
19569.0	4.49718278754577e+17
19570.0	4.496424590901247e+17
19571.0	4.495619986380118e+17
19572.0	4.4947813604611405e+17
19573.0	4.493989136127316e+17
19574.0	4.4930947462376096e+17
19575.0	4.4924428094887245e+17
19576.0	4.491635708657663e+17
19577.0	4.4907894281338874e+17
19578.0	4.4899772829532154e+17
19579.0	4.489217080033279e+17
19580.0	4.4884220007765325e+17
19581.0	4.487636148988585e+17
19582.0	4.4868921836175354e+17
19583.0	4.486147348627456e+17
19584.0	4.485343775905108e+17
19585.0	4.4843678948829856e+17
19586.0	4.4835265314816e+17
19587.0	4.4829322489364474e+17
19588.0	4.4813149945200646e+17
19589.0	4.481324803599018e+17
19590.0	4.4803229808066554e+17
19591.0	4.4797516445996365e+17
19592.0	4.4789595698626554e+17
19593.0	4.4781246174549325e+17
19594.0	4.476948865264297e+17
19595.0	4.4765171406602234e+17
19596.0	4.4756949333442554e+17
19597.0	4.4749552258908154e+17
19598.0	4.473136537927678e+17
19599.0	4.473370024345599e+17
19600.0	4.4725874972426234e+17
19601.0	4.4716762553384954e+17
19602.0	4.4709078406703776e+17
19603.0	4.469405934507348e+17
19604.0	4.46932506972433e+17
19605.0	4.468093717839872e+17
19606.0	4.467787713303893e+17
19607.0	4.4670010289466016e+17
19608.0	4.4661780016442016e+17
19609.0	4.465316135086761e+17
19610.0	4.4645353542123514e+17
19611.0	4.4636861104128e+17
19612.0	4.463018419159038e+17
19613.0	4.4622046039463245e+17
19614.0	4.4613622821464736e+17
19615.0	4.460626057363455e+17
19616.0	4.4597014069684896e+17
19617.0	4.458887468722859e+17
19618.0	4.457155648989865e+17
19619.0	4.456078209187837e+17
19620.0	4.455360841296553e+17
19621.0	4.4556871294866765e+17
19622.0	4.455050159412565e+17
19623.0	4.454246905457321e+17
19624.0	4.4534225604444154e+17
19625.0	4.4526619234140154e+17
19626.0	4.4518543374417914e+17
19627.0	4.4510684884500474e+17
19628.0	4.450175014316714e+17
19629.0	4.4489552750619296e+17
19630.0	4.4484693376805536e+17
19631.0	4.4439079356115616e+17
19632.0	4.4470736795293e+17
19633.0	4.446224727932927e+17
19634.0	4.445499404845055e+17
19635.0	4.4446296327236256e+17
19636.0	4.4437301125010765e+17
19637.0	4.4424462877764256e+17
19638.0	4.442281806746964e+17
19639.0	4.4415080317583354e+17
19640.0	4.4405409007534086e+17
19641.0	4.4372693065837286e+17
19642.0	4.439118043239765e+17
19643.0	4.438318027287211e+17
19644.0	4.437446643154943e+17
19645.0	4.43625432556066e+17
19646.0	4.435784114722132e+17
19647.0	4.435171131872597e+17
19648.0	4.4343771522225485e+17
19649.0	4.433577699005781e+17
19650.0	4.4327943791793485e+17
19651.0	4.4319951881065805e+17
19652.0	4.4311993384959994e+17
19653.0	4.430415779594239e+17
19654.0	4.4296138118922234e+17
