# Flux units: erg / (cm m2 s)
# Wavelength units: Angstrom
wave	flux
19000.0	6.42205860565265e+17
19001.0	6.420504487395327e+17
19002.0	6.419668823354025e+17
19003.0	6.418448315143508e+17
19004.0	6.417243771153065e+17
19005.0	6.41602825556241e+17
19006.0	6.41483307815185e+17
19007.0	6.413549468035753e+17
19008.0	6.412194664502612e+17
19009.0	6.411141790040064e+17
19010.0	6.408113542397947e+17
19011.0	6.408723221534038e+17
19012.0	6.407197840550569e+17
19013.0	6.406392081197738e+17
19014.0	6.40498456015667e+17
19015.0	6.403860412585302e+17
19016.0	6.40261527192644e+17
19017.0	6.401428637614079e+17
19018.0	6.400339866899795e+17
19019.0	6.399151649237673e+17
19020.0	6.397836665727657e+17
19021.0	6.396721037486761e+17
19022.0	6.395574402154496e+17
19023.0	6.394235929843028e+17
19024.0	6.393094086503081e+17
19025.0	6.39196910985762e+17
19026.0	6.390672866497876e+17
19027.0	6.389463573157203e+17
19028.0	6.388371772058282e+17
19029.0	6.387110902060372e+17
19030.0	6.386008679514111e+17
19031.0	6.384828101776723e+17
19032.0	6.383614660968447e+17
19033.0	6.382075819764393e+17
19034.0	6.381163236382036e+17
19035.0	6.379895751966719e+17
19036.0	6.367134412876447e+17
19037.0	6.377583263700308e+17
19038.0	6.376342018850815e+17
19039.0	6.375208886381225e+17
19040.0	6.37402895946001e+17
19041.0	6.372811599074644e+17
19042.0	6.371302266896381e+17
19043.0	6.370429081310548e+17
19044.0	6.369200882144595e+17
19045.0	6.36804160168482e+17
19046.0	6.366609722922324e+17
19047.0	6.365646088568831e+17
19048.0	6.363627263797928e+17
19049.0	6.362993019322367e+17
19050.0	6.361872780143274e+17
19051.0	6.358787540997457e+17
19052.0	6.359544816992255e+17
19053.0	6.358434862246569e+17
19054.0	6.357243280053588e+17
19055.0	6.355135464734723e+17
19056.0	6.354772908397908e+17
19057.0	6.35365616587025e+17
19058.0	6.352407841734655e+17
19059.0	6.351277392221524e+17
19060.0	6.350006821497514e+17
19061.0	6.348908477983401e+17
19062.0	6.347686742239913e+17
19063.0	6.346514813856426e+17
19064.0	6.344834258305024e+17
19065.0	6.343465831672489e+17
19066.0	6.342708240405843e+17
19067.0	6.341691722869417e+17
19068.0	6.340540163424255e+17
19069.0	6.339352597976403e+17
19070.0	6.338053024339284e+17
19071.0	6.336949251298644e+17
19072.0	6.335778319062356e+17
19073.0	6.334555705311231e+17
19074.0	6.333398587714218e+17
19075.0	6.33220977795618e+17
19076.0	6.330931991631188e+17
19077.0	6.329786722942975e+17
19078.0	6.328450772806312e+17
19079.0	6.327435320623104e+17
19080.0	6.326199520679252e+17
19081.0	6.324874132499113e+17
19082.0	6.323659535461033e+17
19083.0	6.322296111934121e+17
19084.0	6.320623486413482e+17
19085.0	6.320245592205994e+17
19086.0	6.317707116238163e+17
19087.0	6.31755969134592e+17
19088.0	6.316465565903529e+17
19089.0	6.314683582294698e+17
19090.0	6.31422252552465e+17
19091.0	6.313074970940758e+17
19092.0	6.311661967944361e+17
19093.0	6.3107643211776e+17
19094.0	6.309575281431892e+17
19095.0	6.308400115744767e+17
19096.0	6.307145746918057e+17
19097.0	6.306028431168852e+17
19098.0	6.304825846617428e+17
19099.0	6.3036309649053e+17
19100.0	6.302432941659476e+17
19101.0	6.301278136522067e+17
19102.0	6.299722448196946e+17
19103.0	6.29888444932642e+17
19104.0	6.297704674099197e+17
19105.0	6.295921170754218e+17
19106.0	6.294683621785599e+17
19107.0	6.293496791039999e+17
19108.0	6.292387131293695e+17
19109.0	6.29015197271108e+17
19110.0	6.290010379299497e+17
19111.0	6.288824263682729e+17
19112.0	6.287647927784788e+17
19113.0	6.286452031750144e+17
19114.0	6.285261263252137e+17
19115.0	6.28390109450513e+17
19116.0	6.282827191200425e+17
19117.0	6.281663431223978e+17
19118.0	6.280213730164735e+17
19119.0	6.266035487375338e+17
19120.0	6.278017257046015e+17
19121.0	6.276930388448596e+17
19122.0	6.275815415218176e+17
19123.0	6.274609222167209e+17
19124.0	6.273379792672084e+17
19125.0	6.272249522115923e+17
19126.0	6.271057603679572e+17
19127.0	6.263621766785697e+17
19128.0	6.268040120019625e+17
19129.0	6.267205910702761e+17
19130.0	6.266308583402153e+17
19131.0	6.265149792277843e+17
19132.0	6.263984296558591e+17
19133.0	6.261664903768746e+17
19134.0	6.26129178058206e+17
19135.0	6.260436138371753e+17
19136.0	6.259281589785939e+17
19137.0	6.257499142007466e+17
19138.0	6.256832066617344e+17
19139.0	6.255739746123775e+17
19140.0	6.254560557400063e+17
19141.0	6.253381349801983e+17
19142.0	6.252104025549482e+17
19143.0	6.250788988212566e+17
19144.0	6.249721075073023e+17
19145.0	6.248655787567785e+17
19146.0	6.245314546281132e+17
19147.0	6.245973913938602e+17
19148.0	6.245119155328339e+17
19149.0	6.243931636017833e+17
19150.0	6.242736357244927e+17
19151.0	6.241583378726911e+17
19152.0	6.240394026505556e+17
19153.0	6.239165518359208e+17
19154.0	6.23760744067891e+17
19155.0	6.236899794485247e+17
19156.0	6.235712475103231e+17
19157.0	6.234521526250153e+17
19158.0	6.232633207947263e+17
19159.0	6.232119874770259e+17
19160.0	6.230945294887593e+17
19161.0	6.22977196490752e+17
19162.0	6.227016094668118e+17
19163.0	6.22748063900194e+17
19164.0	6.226323389983401e+17
19165.0	6.225085771808767e+17
19166.0	6.223538541297663e+17
19167.0	6.22264436461841e+17
19168.0	6.221347230668115e+17
19169.0	6.220275114835968e+17
19170.0	6.219277373800447e+17
19171.0	6.217992100642815e+17
19172.0	6.216910105127594e+17
19173.0	6.215758903596372e+17
19174.0	6.21436646457344e+17
19175.0	6.213406519110313e+17
19176.0	6.212222673311059e+17
19177.0	6.210518035464191e+17
19178.0	6.209875586930003e+17
19179.0	6.208574377514324e+17
19180.0	6.207435842082132e+17
19181.0	6.205936888010067e+17
19182.0	6.205079544310442e+17
19183.0	6.204029044523008e+17
19184.0	6.202616616845311e+17
19185.0	6.201632876396544e+17
19186.0	6.200515807412223e+17
19187.0	6.19906587566626e+17
19188.0	6.198161213227005e+17
19189.0	6.196983161858729e+17
19190.0	6.195811227882835e+17
19191.0	6.194539032565076e+17
19192.0	6.193501756020052e+17
19193.0	6.192273927350953e+17
19194.0	6.191072720628394e+17
19195.0	6.18997027508497e+17
19196.0	6.188745277571071e+17
19197.0	6.187611610327722e+17
19198.0	6.186461690156372e+17
19199.0	6.175517257149096e+17
19200.0	6.178037767514797e+17
19201.0	6.18296310305041e+17
19202.0	6.181805208109055e+17
19203.0	6.180618648595114e+17
19204.0	6.179362742555988e+17
19205.0	6.178253796540415e+17
19206.0	6.177060740049577e+17
19207.0	6.175640748643668e+17
19208.0	6.173943678020265e+17
19209.0	6.173554543078057e+17
19210.0	6.172406845188777e+17
19211.0	6.171289012142079e+17
19212.0	6.170110024744959e+17
19213.0	6.168556941082623e+17
19214.0	6.167349342240769e+17
19215.0	6.166591167965866e+17
19216.0	6.165413565388116e+17
19217.0	6.164256709236052e+17
19218.0	6.1601336580724e+17
19219.0	6.161381278963027e+17
19220.0	6.160689116741632e+17
19221.0	6.158388962525183e+17
19222.0	6.158437352210431e+17
19223.0	6.157182721938771e+17
19224.0	6.155883269237417e+17
19225.0	6.154375630159871e+17
19226.0	6.153671717595818e+17
19227.0	6.152508217666218e+17
19228.0	6.151434129812137e+17
19229.0	6.150267479960234e+17
19230.0	6.149040235697492e+17
19231.0	6.147866420576255e+17
19232.0	6.146698768285696e+17
19233.0	6.145335205647699e+17
19234.0	6.144330654460585e+17
19235.0	6.143129658851327e+17
19236.0	6.142103502804308e+17
19237.0	6.140864194325162e+17
19238.0	6.139431856985428e+17
19239.0	6.138608782846634e+17
19240.0	6.136903329906685e+17
19241.0	6.136057670838954e+17
19242.0	6.135024077591892e+17
19243.0	6.133292839469053e+17
19244.0	6.132760798997161e+17
19245.0	6.131577893421053e+17
19246.0	6.130367739549011e+17
19247.0	6.129216792472234e+17
19248.0	6.1280955152029e+17
19249.0	6.126923254071296e+17
19250.0	6.1256842622621e+17
19251.0	6.124279519248381e+17
19252.0	6.122221886679721e+17
19253.0	6.122165537603583e+17
19254.0	6.121008271807827e+17
19255.0	6.119154562804392e+17
19256.0	6.11868341244177e+17
19257.0	6.117570704135508e+17
19258.0	6.116409012649983e+17
19259.0	6.114946277791059e+17
19260.0	6.113828732054185e+17
19261.0	6.112856095326207e+17
19262.0	6.111508948495018e+17
19263.0	6.110375051263999e+17
19264.0	6.107460426618193e+17
19265.0	6.107480961930579e+17
19266.0	6.106384620497578e+17
19267.0	6.105881718554623e+17
19268.0	6.104681819056809e+17
19269.0	6.103510841382227e+17
19270.0	6.102348831129599e+17
19271.0	6.099948464504836e+17
19272.0	6.099875803780436e+17
19273.0	6.08453347315983e+17
19274.0	6.09040532190002e+17
19275.0	6.096511089770495e+17
19276.0	6.095263296913405e+17
19277.0	6.09409662259473e+17
19278.0	6.092937261045075e+17
19279.0	6.091648687669245e+17
19280.0	6.090247795725652e+17
19281.0	6.089390767297876e+17
19282.0	6.088262761665875e+17
19283.0	6.086946313644714e+17
19284.0	6.085624974366036e+17
19285.0	6.08396144489267e+17
19286.0	6.083426649462099e+17
19287.0	6.082376911639892e+17
19288.0	6.078649230251348e+17
19289.0	6.071702326869997e+17
19290.0	6.078830561198079e+17
19291.0	6.076695431872516e+17
19292.0	6.076461531616595e+17
19293.0	6.075251816748372e+17
19294.0	6.074052057060692e+17
19295.0	6.072907746071892e+17
19296.0	6.071695447512406e+17
19297.0	6.070422513997139e+17
19298.0	6.069223110825302e+17
19299.0	6.068142220509183e+17
19300.0	6.066947712789161e+17
19301.0	6.065731019298132e+17
19302.0	6.064530668213588e+17
19303.0	6.063030109820244e+17
19304.0	6.061986178312876e+17
19305.0	6.060900514179754e+17
19306.0	6.059730133494441e+17
19307.0	6.058365877398185e+17
19308.0	6.057258639163391e+17
19309.0	6.055795744920915e+17
19310.0	6.054395786209962e+17
19311.0	6.053599404621823e+17
19312.0	6.052476823622996e+17
19313.0	6.051215559360511e+17
19314.0	6.041788608064148e+17
19315.0	6.041384074433894e+17
19316.0	6.047697660280831e+17
19317.0	6.046448210673663e+17
19318.0	6.045219006971903e+17
19319.0	6.044060131262463e+17
19320.0	6.042810640411306e+17
19321.0	6.041617619572052e+17
19322.0	6.040016400678912e+17
19323.0	6.038974838953302e+17
19324.0	6.037386375637674e+17
19325.0	6.035497405120512e+17
19326.0	6.034548271874047e+17
19327.0	6.033255197310976e+17
19328.0	6.032084678912682e+17
19329.0	6.030839080375635e+17
19330.0	6.029433687244799e+17
19331.0	6.028180875203924e+17
19332.0	6.027079316056746e+17
19333.0	6.025768123498495e+17
19334.0	6.024514587940179e+17
19335.0	6.023291798727337e+17
19336.0	6.022019606904832e+17
19337.0	6.020734946814633e+17
19338.0	6.018713990638248e+17
19339.0	6.018184352803497e+17
19340.0	6.016585165351593e+17
19341.0	6.015587399849299e+17
19342.0	6.012871509016572e+17
19343.0	6.013027072955732e+17
19344.0	6.011667247442602e+17
19345.0	6.00235267273521e+17
19346.0	6.007220644872197e+17
19347.0	6.007541116261715e+17
19348.0	6.006456166558378e+17
19349.0	6.004994012610559e+17
19350.0	6.003688854257663e+17
19351.0	6.002282743201791e+17
19352.0	6.000826169076394e+17
19353.0	5.999743031312383e+17
19354.0	5.998375022712148e+17
19355.0	5.996635637153793e+17
19356.0	5.995613296525312e+17
19357.0	5.994207453904895e+17
19358.0	5.992705530265599e+17
19359.0	5.990627147776e+17
19360.0	5.989840206168064e+17
19361.0	5.988387931903315e+17
19362.0	5.987130978686292e+17
19363.0	5.984976450704726e+17
19364.0	5.983001509538473e+17
19365.0	5.981516851052544e+17
19366.0	5.98004249797154e+17
19367.0	5.978539346799274e+17
19368.0	5.977022398463999e+17
19369.0	5.975147661317459e+17
19370.0	5.972248971531603e+17
19371.0	5.972173764165631e+17
19372.0	5.970797093628586e+17
19373.0	5.969096766827177e+17
19374.0	5.96755085402658e+17
19375.0	5.965928734916608e+17
19376.0	5.96427201839104e+17
19377.0	5.962559489660244e+17
19378.0	5.959807897610921e+17
19379.0	5.957627417373354e+17
19380.0	5.955877475450879e+17
19381.0	5.954069236897107e+17
19382.0	5.951953795634518e+17
19383.0	5.950049614473897e+17
19384.0	5.948569192235008e+17
19385.0	5.94665184095983e+17
19386.0	5.944210261803007e+17
19387.0	5.940859944741545e+17
19388.0	5.938818514769236e+17
19389.0	5.936763230311764e+17
19390.0	5.93465318711842e+17
19391.0	5.922048149465754e+17
19392.0	5.928815047300435e+17
19393.0	5.925735699054591e+17
19394.0	5.923381353032362e+17
19395.0	5.9209855008768e+17
19396.0	5.917128388859222e+17
19397.0	5.913344375171754e+17
19398.0	5.9106484303517e+17
19399.0	5.904224674119676e+17
19400.0	5.901588589008212e+17
19401.0	5.898822695081299e+17
19402.0	5.892976084866388e+17
19403.0	5.889031192357545e+17
19404.0	5.882984270572202e+17
19405.0	5.878235695590057e+17
19406.0	5.872622836034217e+17
19407.0	5.868722580706644e+17
19408.0	5.862281900457989e+17
19409.0	5.860716591098538e+17
19410.0	5.856735145230335e+17
19411.0	5.852395142993236e+17
19412.0	5.847864161512106e+17
19413.0	5.843185797081769e+17
19414.0	5.838147873843882e+17
19415.0	5.83308858761762e+17
19416.0	5.82670100935475e+17
19417.0	5.821350778940073e+17
19418.0	5.815644941451263e+17
19419.0	5.809498218299391e+17
19420.0	5.803130897825791e+17
19421.0	5.796029535005354e+17
19422.0	5.788114761722537e+17
19423.0	5.780775679732393e+17
19424.0	5.772401363124221e+17
19425.0	5.7632238435915085e+17
19426.0	5.753563475782316e+17
19427.0	5.742887509688319e+17
19428.0	5.731174708849324e+17
19429.0	5.7181457270265146e+17
19430.0	5.702792242353495e+17
19431.0	5.681945007270576e+17
19432.0	5.6612948184924154e+17
19433.0	5.631878893666305e+17
19434.0	5.6049264884012365e+17
19435.0	5.585128521378474e+17
19436.0	5.563144081156777e+17
19437.0	5.540787954996564e+17
19438.0	5.5012739357081555e+17
19439.0	5.4881772787903136e+17
19440.0	5.457313571099987e+17
19441.0	5.421000388771837e+17
19442.0	5.374417536286724e+17
19443.0	5.306236204832078e+17
19444.0	5.239068013800104e+17
19445.0	5.1753979030623584e+17
19446.0	5.0976918468908365e+17
19447.0	4.985959031854412e+17
19448.0	4.847914994106375e+17
19449.0	4.649475147213477e+17
19450.0	4.259165796390216e+17
19451.0	4.143229148594163e+17
19452.0	4.470893454207667e+17
19453.0	4.76411537688713e+17
19454.0	4.914338155812174e+17
19455.0	5.042908864446462e+17
19456.0	5.131181501360814e+17
19457.0	5.198551416045564e+17
19458.0	5.243566768346474e+17
19459.0	5.3298830588422784e+17
19460.0	5.383113070171476e+17
19461.0	5.421479273431038e+17
19462.0	5.452410441607851e+17
19463.0	5.4794727711921485e+17
19464.0	5.503237838864383e+17
19465.0	5.525535254555307e+17
19466.0	5.545075242521938e+17
19467.0	5.5637029735628794e+17
19468.0	5.583048792517283e+17
19469.0	5.6096308728954797e+17
19470.0	5.635113307428178e+17
19471.0	5.653444755630763e+17
19472.0	5.667706568529233e+17
19473.0	5.6796938138637677e+17
19474.0	5.6900802695222605e+17
19475.0	5.695769635280209e+17
19476.0	5.706921810766504e+17
19477.0	5.71354928853811e+17
19478.0	5.720729830730409e+17
19479.0	5.726135007226539e+17
19480.0	5.731210452708009e+17
19481.0	5.7369231758458874e+17
19482.0	5.741247501172735e+17
19483.0	5.7454053734481914e+17
19484.0	5.749116225890985e+17
19485.0	5.752466338829652e+17
19486.0	5.756191997165567e+17
19487.0	5.7595714094148256e+17
19488.0	5.7624169035421e+17
19489.0	5.764956144271359e+17
19490.0	5.762386378795681e+17
19491.0	5.769450473127935e+17
19492.0	5.7716298495645e+17
19493.0	5.773481386617513e+17
19494.0	5.775169849131007e+17
19495.0	5.776645610100052e+17
19496.0	5.777915483171498e+17
19497.0	5.781544441828692e+17
19498.0	5.785132375998461e+17
19499.0	5.770627237543914e+17
19500.0	5.790272889815041e+17
19501.0	5.792785189830655e+17
19502.0	5.793413937670826e+17
19503.0	5.796600188938922e+17
19504.0	5.797548007271081e+17
19505.0	5.798107930776916e+17
19506.0	5.799911826827949e+17
19507.0	5.801123172581376e+17
19508.0	5.801362381428052e+17
19509.0	5.801433537096361e+17
19510.0	5.801334494199808e+17
19511.0	5.785848290563395e+17
19512.0	5.801603933492554e+17
19513.0	5.797475809318218e+17
19514.0	5.800112483030353e+17
19515.0	5.801212946765151e+17
19516.0	5.80325082066671e+17
19517.0	5.804054199052969e+17
19518.0	5.803994562341546e+17
19519.0	5.80362667364625e+17
19520.0	5.803138421009066e+17
19521.0	5.802847204889939e+17
19522.0	5.802259310968832e+17
19523.0	5.801951742656512e+17
19524.0	5.801458456155475e+17
19525.0	5.800826508061354e+17
19526.0	5.80180040028433e+17
19527.0	5.801219911406932e+17
19528.0	5.800656814211071e+17
19529.0	5.800047597147476e+17
19530.0	5.799459773830484e+17
19531.0	5.798850549077331e+17
19532.0	5.798193925193727e+17
19533.0	5.797539230689961e+17
19534.0	5.796862023259476e+17
19535.0	5.796082446150313e+17
19536.0	5.795318292196009e+17
19537.0	5.794731095927465e+17
19538.0	5.793891817095168e+17
19539.0	5.791067883088566e+17
19540.0	5.792404316968276e+17
19541.0	5.791742708853418e+17
19542.0	5.790941582808404e+17
19543.0	5.790333531062272e+17
19544.0	5.790464200409087e+17
19545.0	5.788454079518026e+17
19546.0	5.785232735906477e+17
19547.0	5.788033547414185e+17
19548.0	5.787214890576554e+17
19549.0	5.785989627423401e+17
19550.0	5.78552943747618e+17
19551.0	5.784685973427539e+17
19552.0	5.783816810878292e+17
19553.0	5.782890832986112e+17
19554.0	5.781918928863232e+17
19555.0	5.781153573240831e+17
19556.0	5.780318037824851e+17
19557.0	5.77942420717568e+17
19558.0	5.778528520546985e+17
19559.0	5.777585702524244e+17
19560.0	5.776638475588948e+17
19561.0	5.77572482196002e+17
19562.0	5.774888869909843e+17
19563.0	5.77399567819298e+17
19564.0	5.773074384639316e+17
19565.0	5.772141324664831e+17
19566.0	5.77111133921826e+17
19567.0	5.770292308388522e+17
19568.0	5.769255540053332e+17
19569.0	5.768333330743295e+17
19570.0	5.767472677038761e+17
19571.0	5.766531367567359e+17
19572.0	5.76544289394961e+17
19573.0	5.7645853712930125e+17
19574.0	5.763305863905279e+17
19575.0	5.7627043273113594e+17
19576.0	5.7617469774233594e+17
19577.0	5.760583380325715e+17
19578.0	5.7596781901032096e+17
19579.0	5.758760591032319e+17
19580.0	5.757813881394516e+17
19581.0	5.756866116190206e+17
19582.0	5.7559615669971616e+17
19583.0	5.754983328077141e+17
19584.0	5.754003642122239e+17
19585.0	5.7526042468461203e+17
19586.0	5.7515255627339104e+17
19587.0	5.750976083744085e+17
19588.0	5.7483439587546477e+17
19589.0	5.7490048070014285e+17
19590.0	5.747767069988179e+17
19591.0	5.747087884244308e+17
19592.0	5.746115203476138e+17
19593.0	5.7450548911144954e+17
19594.0	5.7431964572276026e+17
19595.0	5.743056366075903e+17
19596.0	5.7406638085461325e+17
19597.0	5.7410882336631456e+17
19598.0	5.738940528416083e+17
19599.0	5.7391199313810765e+17
19600.0	5.7381484278142285e+17
19601.0	5.736905316499456e+17
19602.0	5.736000442247849e+17
19603.0	5.7335393616745786e+17
19604.0	5.7339821375706445e+17
19605.0	5.732000008066391e+17
19606.0	5.732086253442389e+17
19607.0	5.73109580210722e+17
19608.0	5.730053546224298e+17
19609.0	5.728883445858303e+17
19610.0	5.728093097077418e+17
19611.0	5.727040965006676e+17
19612.0	5.726080048562175e+17
19613.0	5.7250195355729914e+17
19614.0	5.7239032229614925e+17
19615.0	5.723035380918954e+17
19616.0	5.721937344288084e+17
19617.0	5.720997445500926e+17
19618.0	5.7181970562198163e+17
19619.0	5.7164415596407405e+17
19620.0	5.7156536344685184e+17
19621.0	5.7169111476251296e+17
19622.0	5.715926822770004e+17
19623.0	5.7149187938058214e+17
19624.0	5.71386287427857e+17
19625.0	5.7128811254251514e+17
19626.0	5.71181950444066e+17
19627.0	5.711491368659626e+17
19628.0	5.710344359335254e+17
19629.0	5.709259436195838e+17
19630.0	5.70846155444497e+17
19631.0	5.696913970036727e+17
19632.0	5.7065012297291085e+17
19633.0	5.7053306554067616e+17
19634.0	5.7044783672415565e+17
19635.0	5.703314016567294e+17
19636.0	5.7023979267467936e+17
19637.0	5.7000174152581146e+17
19638.0	5.7003404158129485e+17
19639.0	5.699334222555818e+17
19640.0	5.698121654162772e+17
19641.0	5.6944966940754035e+17
19642.0	5.696255987198634e+17
19643.0	5.6951802488859296e+17
19644.0	5.6940220952958285e+17
19645.0	5.692234269720574e+17
19646.0	5.6921988082783565e+17
19647.0	5.691179704254463e+17
19648.0	5.690135686064809e+17
19649.0	5.689100936587945e+17
19650.0	5.6881004545747616e+17
19651.0	5.687050230213289e+17
19652.0	5.686016716658005e+17
19653.0	5.685017077699926e+17
19654.0	5.683961365091668e+17
19655.0	5.682909302925994e+17
19656.0	5.6819164209916576e+17
19657.0	5.680887700826794e+17
19658.0	5.679886361078442e+17
19659.0	5.6788517409259514e+17
19660.0	5.677847678375252e+17
19661.0	5.6768049471378765e+17
19662.0	5.6757945924321274e+17
19663.0	5.674598778186409e+17
