# Flux units: erg / (cm m2 s)
# Wavelength units: Angstrom
wave	flux
19000.0	3.954172249156265e+17
19001.0	3.953320653051221e+17
19002.0	3.9527222349223245e+17
19003.0	3.951990251279699e+17
19004.0	3.9512607275963725e+17
19005.0	3.950523141761706e+17
19006.0	3.9498055480770554e+17
19007.0	3.9490778964514125e+17
19008.0	3.9482689060863994e+17
19009.0	3.947443413232297e+17
19010.0	3.9462462861694285e+17
19011.0	3.9461160851865594e+17
19012.0	3.9452939561642656e+17
19013.0	3.944709533029717e+17
19014.0	3.943921629528064e+17
19015.0	3.9431926895520416e+17
19016.0	3.9424390451254605e+17
19017.0	3.9418031529874765e+17
19018.0	3.941062824777045e+17
19019.0	3.9403409361250976e+17
19020.0	3.939606079384234e+17
19021.0	3.938901790730922e+17
19022.0	3.9381698630123526e+17
19023.0	3.937408168318293e+17
19024.0	3.936693227530921e+17
19025.0	3.935991539346091e+17
19026.0	3.9352398152116896e+17
19027.0	3.9344987907467936e+17
19028.0	3.9338274965858976e+17
19029.0	3.9330804833539405e+17
19030.0	3.9323867356856314e+17
19031.0	3.9316689259943245e+17
19032.0	3.9309316764030285e+17
19033.0	3.9300974272402765e+17
19034.0	3.9294781739062624e+17
19035.0	3.9287249433176736e+17
19036.0	3.922581222588416e+17
19037.0	3.927313095152981e+17
19038.0	3.9265734506141e+17
19039.0	3.925876363580757e+17
19040.0	3.9251595444442445e+17
19041.0	3.924421967697236e+17
19042.0	3.9235124412634445e+17
19043.0	3.9229927180642976e+17
19044.0	3.9222558361736525e+17
19045.0	3.9215449463848954e+17
19046.0	3.920736400616106e+17
19047.0	3.9200610128145056e+17
19048.0	3.9190725160250016e+17
19049.0	3.918407706258091e+17
19050.0	3.917869383417855e+17
19051.0	3.916519450170708e+17
19052.0	3.9163322206344525e+17
19053.0	3.915778090860544e+17
19054.0	3.9150491215243936e+17
19055.0	3.913986925920255e+17
19056.0	3.9135686342737914e+17
19057.0	3.912886655123455e+17
19058.0	3.91207218909457e+17
19059.0	3.911411496037034e+17
19060.0	3.910704502057642e+17
19061.0	3.910017201034581e+17
19062.0	3.90929032745233e+17
19063.0	3.908571467087872e+17
19064.0	3.907688562600619e+17
19065.0	3.906928616232277e+17
19066.0	3.906322542100479e+17
19067.0	3.9056818446882125e+17
19068.0	3.9049809681012045e+17
19069.0	3.904264006358357e+17
19070.0	3.903508445134847e+17
19071.0	3.902820390535167e+17
19072.0	3.902074064470015e+17
19073.0	3.9013865292649805e+17
19074.0	3.9006758764544e+17
19075.0	3.8999583533738656e+17
19076.0	3.899215021342719e+17
19077.0	3.8984945119177376e+17
19078.0	3.8977477209838925e+17
19079.0	3.8970830202688845e+17
19080.0	3.896349467956565e+17
19081.0	3.8956013026891085e+17
19082.0	3.8948845157089274e+17
19083.0	3.8941116690595834e+17
19084.0	3.8932519877345274e+17
19085.0	3.892771722450261e+17
19086.0	3.8916154751713274e+17
19087.0	3.891146959530666e+17
19088.0	3.890502990561279e+17
19089.0	3.889669466314069e+17
19090.0	3.8891834527361696e+17
19091.0	3.888449757817515e+17
19092.0	3.8876478411461965e+17
19093.0	3.8870686126571514e+17
19094.0	3.88635089174528e+17
19095.0	3.8856392462827514e+17
19096.0	3.884903598915583e+17
19097.0	3.884205440237567e+17
19098.0	3.883451848938836e+17
19099.0	3.882730962725546e+17
19100.0	3.880659103077716e+17
19101.0	3.8799468235762336e+17
19102.0	3.879074103558142e+17
19103.0	3.8785295402926074e+17
19104.0	3.8778250167582714e+17
19105.0	3.8770274237153274e+17
19106.0	3.8763768053759994e+17
19107.0	3.87564136632593e+17
19108.0	3.8749469580547405e+17
19109.0	3.873965272115882e+17
19110.0	3.873539660010836e+17
19111.0	3.872817678385151e+17
19112.0	3.8721030927155194e+17
19113.0	3.871411944117588e+17
19114.0	3.870685477382827e+17
19115.0	3.869923582760277e+17
19116.0	3.869259409828523e+17
19117.0	3.868542153785344e+17
19118.0	3.867714052074155e+17
19119.0	3.851927334944751e+17
19120.0	3.8663938263831885e+17
19121.0	3.865702846955519e+17
19122.0	3.8650248377139194e+17
19123.0	3.8643149937049594e+17
19124.0	3.863588215193599e+17
19125.0	3.8628925031929165e+17
19126.0	3.862181303724714e+17
19127.0	3.858955440051542e+17
19128.0	3.860722878513151e+17
19129.0	3.85997174018321e+17
19130.0	3.859322286462293e+17
19131.0	3.8586355929142605e+17
19132.0	3.8579275923019085e+17
19133.0	3.857117960208383e+17
19134.0	3.856493896007679e+17
19135.0	3.8558026201825274e+17
19136.0	3.855102302137002e+17
19137.0	3.854175349069142e+17
19138.0	3.8536621934510074e+17
19139.0	3.852978532384767e+17
19140.0	3.85227367120896e+17
19141.0	3.8515655636418554e+17
19142.0	3.8508275402014714e+17
19143.0	3.8500758412328954e+17
19144.0	3.849394147295231e+17
19145.0	3.848734479745023e+17
19146.0	3.847267837192874e+17
19147.0	3.847152666498389e+17
19148.0	3.846582984245247e+17
19149.0	3.845868780257279e+17
19150.0	3.845194111778816e+17
19151.0	3.844494931088725e+17
19152.0	3.8437841685271885e+17
19153.0	3.843010185221461e+17
19154.0	3.8422038002182816e+17
19155.0	3.8416813570129914e+17
19156.0	3.840973190026581e+17
19157.0	3.840242957505877e+17
19158.0	3.8393147307677e+17
19159.0	3.838837804848469e+17
19160.0	3.838143780356095e+17
19161.0	3.837447757277866e+17
19162.0	3.836273776481621e+17
19163.0	3.8360278210969594e+17
19164.0	3.8353398853358925e+17
19165.0	3.834549740677802e+17
19166.0	3.833736472122708e+17
19167.0	3.833188707904171e+17
19168.0	3.832513420066816e+17
19169.0	3.8318032097553056e+17
19170.0	3.8311231138474656e+17
19171.0	3.830386348698283e+17
19172.0	3.8297173012862285e+17
19173.0	3.829015543196329e+17
19174.0	3.82822812483584e+17
19175.0	3.8276062158083405e+17
19176.0	3.826906043864404e+17
19177.0	3.826008561374549e+17
19178.0	3.8254939083898874e+17
19179.0	3.824762656653312e+17
19180.0	3.8240909598392314e+17
19181.0	3.823202188219733e+17
19182.0	3.8226557018658125e+17
19183.0	3.8220007906563405e+17
19184.0	3.8212856813977594e+17
19185.0	3.8205830355135136e+17
19186.0	3.8198954933179725e+17
19187.0	3.819125890263722e+17
19188.0	3.8184921155502074e+17
19189.0	3.8178007048082765e+17
19190.0	3.8170987656642554e+17
19191.0	3.8163621361309e+17
19192.0	3.8156979422276256e+17
19193.0	3.814983224437418e+17
19194.0	3.814274294087679e+17
19195.0	3.813599507469653e+17
19196.0	3.8128804017384096e+17
19197.0	3.8121921052671994e+17
19198.0	3.8115022610978125e+17
19199.0	3.8081010601383245e+17
19200.0	3.808214139273216e+17
19201.0	3.8094076061067936e+17
19202.0	3.808710852520619e+17
19203.0	3.8080056564995405e+17
19204.0	3.8072801977958394e+17
19205.0	3.8066021305330336e+17
19206.0	3.805891493800617e+17
19207.0	3.8050471866968736e+17
19208.0	3.804201189288617e+17
19209.0	3.8038090791867725e+17
19210.0	3.8031156230225914e+17
19211.0	3.802433797663402e+17
19212.0	3.801733334215338e+17
19213.0	3.800928474540714e+17
19214.0	3.8001725407232e+17
19215.0	3.7995923894872736e+17
19216.0	3.797671287805269e+17
19217.0	3.796969837996714e+17
19218.0	3.795595746257577e+17
19219.0	3.7954191115332256e+17
19220.0	3.794859534057472e+17
19221.0	3.7937707353811616e+17
19222.0	3.793473859048788e+17
19223.0	3.7927729873551354e+17
19224.0	3.792050200423083e+17
19225.0	3.791210717467989e+17
19226.0	3.7906897010251085e+17
19227.0	3.7899983420129274e+17
19228.0	3.789328732564138e+17
19229.0	3.788633703535957e+17
19230.0	3.7879289024785056e+17
19231.0	3.787231290458112e+17
19232.0	3.786538046805333e+17
19233.0	3.7857733273190394e+17
19234.0	3.78513229156625e+17
19235.0	3.784430691461802e+17
19236.0	3.7837739864883194e+17
19237.0	3.7830568332055885e+17
19238.0	3.782265124771157e+17
19239.0	3.7816948888698874e+17
19240.0	3.780980188555946e+17
19241.0	3.7802776950647456e+17
19242.0	3.779590676458154e+17
19243.0	3.7787400841898656e+17
19244.0	3.778232063797931e+17
19245.0	3.777533622004395e+17
19246.0	3.7768238534929056e+17
19247.0	3.776142834838186e+17
19248.0	3.7754628577689594e+17
19249.0	3.7747618735281485e+17
19250.0	3.7740412012243616e+17
19251.0	3.773200579515734e+17
19252.0	3.772394059595776e+17
19253.0	3.771964625081685e+17
19254.0	3.771307216863232e+17
19255.0	3.770421699324586e+17
19256.0	3.769862897096021e+17
19257.0	3.769233472574804e+17
19258.0	3.768543067067733e+17
19259.0	3.767777745698815e+17
19260.0	3.767021625234772e+17
19261.0	3.766452520397482e+17
19262.0	3.7657097007704736e+17
19263.0	3.764981252227072e+17
19264.0	3.763617360336212e+17
19265.0	3.763396341486932e+17
19266.0	3.7625398170746874e+17
19267.0	3.7623268960283296e+17
19268.0	3.7616280278138874e+17
19269.0	3.760940643603797e+17
19270.0	3.760249272707755e+17
19271.0	3.759077212203691e+17
19272.0	3.7588282718726816e+17
19273.0	3.7571955236973203e+17
19274.0	3.7567059393686163e+17
19275.0	3.756804293001216e+17
19276.0	3.7560883938153805e+17
19277.0	3.7554067592970234e+17
19278.0	3.7547169395944096e+17
19279.0	3.7540132136768845e+17
19280.0	3.753230592202069e+17
19281.0	3.752640966732459e+17
19282.0	3.7519759612313594e+17
19283.0	3.7512414665987405e+17
19284.0	3.75055990198545e+17
19285.0	3.7496930833530874e+17
19286.0	3.749170710751914e+17
19287.0	3.74852512907264e+17
19288.0	3.7461134224479546e+17
19289.0	3.7437791559570726e+17
19290.0	3.74645921415168e+17
19291.0	3.74546640212241e+17
19292.0	3.7450782444530336e+17
19293.0	3.744381692892502e+17
19294.0	3.743689081880576e+17
19295.0	3.743011901713066e+17
19296.0	3.742280944276821e+17
19297.0	3.741593248989183e+17
19298.0	3.740906674279765e+17
19299.0	3.740213605389653e+17
19300.0	3.739544062350678e+17
19301.0	3.7388665249682765e+17
19302.0	3.738154441900032e+17
19303.0	3.7374011812522656e+17
19304.0	3.7367577330756256e+17
19305.0	3.736088875106304e+17
19306.0	3.735412731630932e+17
19307.0	3.7346707774286496e+17
19308.0	3.734004304620201e+17
19309.0	3.733230308731561e+17
19310.0	3.7324943495877965e+17
19311.0	3.731917851590655e+17
19312.0	3.731266894211754e+17
19313.0	3.730589152007508e+17
19314.0	3.717302122621622e+17
19315.0	3.717353053356039e+17
19316.0	3.728456834263722e+17
19317.0	3.727812087949995e+17
19318.0	3.7271202102422176e+17
19319.0	3.726444061873493e+17
19320.0	3.7244865627204243e+17
19321.0	3.72355517906944e+17
19322.0	3.7227950886966605e+17
19323.0	3.7221535538216954e+17
19324.0	3.7215039281343136e+17
19325.0	3.720721005368661e+17
19326.0	3.720126281023487e+17
19327.0	3.7194104524417696e+17
19328.0	3.7186700410443085e+17
19329.0	3.718050133398869e+17
19330.0	3.717306764318037e+17
19331.0	3.716603796171434e+17
19332.0	3.7159597328302074e+17
19333.0	3.7152562403956045e+17
19334.0	3.714570066242219e+17
19335.0	3.713744427985578e+17
19336.0	3.7131769449458336e+17
19337.0	3.712481983725568e+17
19338.0	3.7115208848288416e+17
19339.0	3.7110897320482125e+17
19340.0	3.7100755171846816e+17
19341.0	3.7095102319602336e+17
19342.0	3.708472896694954e+17
19343.0	3.708291418947584e+17
19344.0	3.7075372705054714e+17
19345.0	3.70416926746214e+17
19346.0	3.7047520785858534e+17
19347.0	3.7053343493434016e+17
19348.0	3.704787653973332e+17
19349.0	3.7040437396329805e+17
19350.0	3.703317560907093e+17
19351.0	3.7026237664023885e+17
19352.0	3.701801596835157e+17
19353.0	3.701254233871701e+17
19354.0	3.7005516502029645e+17
19355.0	3.699719646390954e+17
19356.0	3.6991284235905696e+17
19357.0	3.698418617330346e+17
19358.0	3.697695489960618e+17
19359.0	3.696895078345386e+17
19360.0	3.6953809996130976e+17
19361.0	3.693824614334463e+17
19362.0	3.693155133510997e+17
19363.0	3.6924307555396256e+17
19364.0	3.69170394976529e+17
19365.0	3.6909823330440525e+17
19366.0	3.690257660772351e+17
19367.0	3.6895294492071245e+17
19368.0	3.6888003540418554e+17
19369.0	3.6879974223489696e+17
19370.0	3.687227137720319e+17
19371.0	3.6865285889720314e+17
19372.0	3.685849631817728e+17
19373.0	3.684729470233258e+17
19374.0	3.6828487366301e+17
19375.0	3.6820973026017274e+17
19376.0	3.6808916240520525e+17
19377.0	3.6796155511002445e+17
19378.0	3.678854731617621e+17
19379.0	3.6780900296075936e+17
19380.0	3.677315857558185e+17
19381.0	3.676532957162154e+17
19382.0	3.675673273739946e+17
19383.0	3.674820875124736e+17
19384.0	3.6741472293573965e+17
19385.0	3.67336474210031e+17
19386.0	3.672564045272406e+17
19387.0	3.671749364634965e+17
19388.0	3.670927386607614e+17
19389.0	3.670096106313045e+17
19390.0	3.669257341282986e+17
19391.0	3.66354275936938e+17
19392.0	3.667346361854633e+17
19393.0	3.666332481137323e+17
19394.0	3.663976475568811e+17
19395.0	3.663055442061995e+17
19396.0	3.6621575275588256e+17
19397.0	3.661240555536383e+17
19398.0	3.6602469354045434e+17
19399.0	3.658274018689023e+17
19400.0	3.6581995844730874e+17
19401.0	3.6573457632897696e+17
19402.0	3.655340716807508e+17
19403.0	3.65310927577634e+17
19404.0	3.6520397184696314e+17
19405.0	3.650905560492714e+17
19406.0	3.6497679589922125e+17
19407.0	3.647815469935273e+17
19408.0	3.6437246324244486e+17
19409.0	3.643532948537344e+17
19410.0	3.642230482927615e+17
19411.0	3.6386346117365766e+17
19412.0	3.6364545530265594e+17
19413.0	3.634370716543663e+17
19414.0	3.629909607273813e+17
19415.0	3.627726305667755e+17
19416.0	3.6223654168275616e+17
19417.0	3.619396090768044e+17
19418.0	3.6161388879544314e+17
19419.0	3.6137036862368416e+17
19420.0	3.6111221809042765e+17
19421.0	3.608363211773269e+17
19422.0	3.6053634245809485e+17
19423.0	3.6022480088159565e+17
19424.0	3.598872474200746e+17
19425.0	3.5952405012370765e+17
19426.0	3.5913212624895994e+17
19427.0	3.58708875956497e+17
19428.0	3.5825523793155405e+17
19429.0	3.577760901496831e+17
19430.0	3.572411447028395e+17
19431.0	3.566106984491691e+17
19432.0	3.5607186502232736e+17
19433.0	3.554129451068074e+17
19434.0	3.5471143378179405e+17
19435.0	3.539550039179263e+17
19436.0	3.5314510800267936e+17
19437.0	3.523594374785706e+17
19438.0	3.5060799490403014e+17
19439.0	3.505748634326358e+17
19440.0	3.497535995554475e+17
19441.0	3.4884468888043514e+17
19442.0	3.479800971438763e+17
19443.0	3.469951115460605e+17
19444.0	3.458215672370514e+17
19445.0	3.433020246720516e+17
19446.0	3.368763171449515e+17
19447.0	3.3218802360866106e+17
19448.0	3.271290034410841e+17
19449.0	3.143813376070984e+17
19450.0	2.7319947150841184e+17
19451.0	2.5482286508714592e+17
19452.0	2.98197584410489e+17
19453.0	3.231576518994614e+17
19454.0	3.294492296391335e+17
19455.0	3.340575137857536e+17
19456.0	3.397517991826786e+17
19457.0	3.441872992206841e+17
19458.0	3.417263960664782e+17
19459.0	3.461818538612068e+17
19460.0	3.473159207518207e+17
19461.0	3.480734703200938e+17
19462.0	3.488540810106197e+17
19463.0	3.4959698627133434e+17
19464.0	3.5032993324072954e+17
19465.0	3.5103804594585594e+17
19466.0	3.5170596823586125e+17
19467.0	3.5234577970626554e+17
19468.0	3.529365445585578e+17
19469.0	3.534384360936788e+17
19470.0	3.5398379243219616e+17
19471.0	3.544431588278272e+17
19472.0	3.5485196806171296e+17
19473.0	3.5521110338437114e+17
19474.0	3.555488886510933e+17
19475.0	3.557345640579071e+17
19476.0	3.561176973705215e+17
19477.0	3.5637018230783994e+17
19478.0	3.5658961962489165e+17
19479.0	3.5677717960239776e+17
19480.0	3.5695018597416954e+17
19481.0	3.570956093445461e+17
19482.0	3.5723565666577056e+17
19483.0	3.573560203280384e+17
19484.0	3.574572706867882e+17
19485.0	3.577107640745984e+17
19486.0	3.578726198891859e+17
19487.0	3.5822394108368205e+17
19488.0	3.582980263335256e+17
19489.0	3.5858697696925e+17
19490.0	3.5843449968831136e+17
19491.0	3.5874605223990605e+17
19492.0	3.5893233393336314e+17
19493.0	3.5893135015935994e+17
19494.0	3.5892544681629e+17
19495.0	3.590713250589355e+17
19496.0	3.590751124455422e+17
19497.0	3.591181851514197e+17
19498.0	3.5900449889102496e+17
19499.0	3.583150345158655e+17
19500.0	3.590552276697087e+17
19501.0	3.592246265905151e+17
19502.0	3.591906178454869e+17
19503.0	3.591558820178602e+17
19504.0	3.5911926609346554e+17
19505.0	3.5908055392583674e+17
19506.0	3.5904158842224634e+17
19507.0	3.589971971670016e+17
19508.0	3.5895840125310285e+17
19509.0	3.5891464913988256e+17
19510.0	3.5884051097190394e+17
19511.0	3.569963263939922e+17
19512.0	3.5880566672151885e+17
19513.0	3.586386979804498e+17
19514.0	3.5867341563275923e+17
19515.0	3.5873822741626886e+17
19516.0	3.5874640602944845e+17
19517.0	3.5868928254498125e+17
19518.0	3.5864602521982285e+17
19519.0	3.585923890894165e+17
19520.0	3.585329575493632e+17
19521.0	3.5848788213323085e+17
19522.0	3.584288921135786e+17
19523.0	3.5837750566802765e+17
19524.0	3.5832072611648845e+17
19525.0	3.5826660239824205e+17
19526.0	3.5821275683225594e+17
19527.0	3.5815504174120954e+17
19528.0	3.580982124871679e+17
19529.0	3.580409861723478e+17
19530.0	3.580188884817237e+17
19531.0	3.580182543029589e+17
19532.0	3.5796052970482336e+17
19533.0	3.5790254268306765e+17
19534.0	3.5784368324607994e+17
19535.0	3.577837010638165e+17
19536.0	3.5772175615699616e+17
19537.0	3.5766785277951994e+17
19538.0	3.57582622425088e+17
19539.0	3.574751932274006e+17
19540.0	3.5757280845277856e+17
19541.0	3.5756886447882234e+17
19542.0	3.5750895492792314e+17
19543.0	3.574444066865151e+17
19544.0	3.573886703282858e+17
19545.0	3.5725258075231565e+17
19546.0	3.5714632987443194e+17
19547.0	3.5720793944664736e+17
19548.0	3.57146264932625e+17
19549.0	3.5707492464503456e+17
19550.0	3.570248394123946e+17
19551.0	3.5696409533480954e+17
19552.0	3.5690260383225165e+17
19553.0	3.56837568282624e+17
19554.0	3.5677458745262074e+17
19555.0	3.567741235625984e+17
19556.0	3.568123077372586e+17
19557.0	3.5675054730990925e+17
19558.0	3.5668871977369594e+17
19559.0	3.5662698178587296e+17
19560.0	3.565607067495082e+17
19561.0	3.5650009507211936e+17
19562.0	3.5643894673353376e+17
19563.0	3.5637960942551034e+17
19564.0	3.5631753344669e+17
19565.0	3.562550671878827e+17
19566.0	3.561891411176106e+17
19567.0	3.56130639384849e+17
19568.0	3.560658994637482e+17
19569.0	3.560033591754752e+17
19570.0	3.5594384948155725e+17
19571.0	3.5588031563257165e+17
19572.0	3.558152326174036e+17
19573.0	3.5575270288479565e+17
19574.0	3.5568383961333754e+17
19575.0	3.5563096978227194e+17
19576.0	3.555682053783551e+17
19577.0	3.555011649514154e+17
19578.0	3.554369917506901e+17
19579.0	3.5537778775162874e+17
19580.0	3.5531483495355725e+17
19581.0	3.552535445678763e+17
19582.0	3.551931429552127e+17
19583.0	3.5513043265781754e+17
19584.0	3.5506609175483725e+17
19585.0	3.5499155575712416e+17
19586.0	3.549246977824085e+17
19587.0	3.548775497509546e+17
19588.0	3.5474987716444166e+17
19589.0	3.5475094873920845e+17
19590.0	3.546719964889087e+17
19591.0	3.546269218417321e+17
19592.0	3.545646000766976e+17
19593.0	3.544994942724778e+17
19594.0	3.5441021711373645e+17
19595.0	3.543692399520427e+17
19596.0	3.5430215247899296e+17
19597.0	3.542484435774122e+17
19598.0	3.541048605977258e+17
19599.0	3.5412408931450874e+17
19600.0	3.5406216265291085e+17
19601.0	3.539907114958848e+17
19602.0	3.539277881977514e+17
19603.0	3.538142688007508e+17
19604.0	3.5380358045586765e+17
19605.0	3.5371019420740256e+17
19606.0	3.5368379539783674e+17
19607.0	3.5362175870566394e+17
19608.0	3.5355666639312205e+17
19609.0	3.5348925525961376e+17
19610.0	3.5343044657370445e+17
19611.0	3.5336519858257914e+17
19612.0	3.533074500070058e+17
19613.0	3.5324331944837114e+17
19614.0	3.5317698946662394e+17
19615.0	3.531183124119551e+17
19616.0	3.530490803213653e+17
19617.0	3.5298652640160416e+17
19618.0	3.528426935812094e+17
19619.0	3.5276351945222803e+17
19620.0	3.5270664259283616e+17
19621.0	3.527361679764138e+17
19622.0	3.526785901090133e+17
19623.0	3.526154726845099e+17
19624.0	3.525510590103552e+17
19625.0	3.5248993835417594e+17
19626.0	3.524262120565418e+17
19627.0	3.523641622222165e+17
19628.0	3.522934155684523e+17
19629.0	3.522152288485374e+17
19630.0	3.5214698546025805e+17
19631.0	3.518009818742784e+17
19632.0	3.5204949952430074e+17
19633.0	3.51981931593728e+17
19634.0	3.5192415799214074e+17
19635.0	3.5185626661082445e+17
19636.0	3.51792465514769e+17
19637.0	3.5169222703185914e+17
19638.0	3.5167020399984634e+17
19639.0	3.516083749257215e+17
19640.0	3.51515937533679e+17
19641.0	3.512880696306349e+17
19642.0	3.5142055975976954e+17
19643.0	3.5135729889006925e+17
19644.0	3.51287498051857e+17
19645.0	3.511944299413503e+17
19646.0	3.5116524852565325e+17
19647.0	3.5110795761855136e+17
19648.0	3.5104525364756474e+17
19649.0	3.5098203772682234e+17
19650.0	3.509201542316031e+17
19651.0	3.5085703824015354e+17
19652.0	3.5079399994818554e+17
19653.0	3.5073192631118496e+17
19654.0	3.5066872063153485e+17
