# Flux units: erg / (cm m2 s)
# Wavelength units: Angstrom
wave	flux
19000.0	5.847880027865087e+17
19001.0	5.846716376241492e+17
19002.0	5.845701284768426e+17
19003.0	5.844605232742399e+17
19004.0	5.843511383425023e+17
19005.0	5.842432319029247e+17
19006.0	5.841342584324095e+17
19007.0	5.840137945262761e+17
19008.0	5.839118644805631e+17
19009.0	5.837975446705492e+17
19010.0	5.836653460105897e+17
19011.0	5.835830858525354e+17
19012.0	5.834390993808041e+17
19013.0	5.83370992132642e+17
19014.0	5.832580989452287e+17
19015.0	5.831505755155112e+17
19016.0	5.830405051645951e+17
19017.0	5.82935281541666e+17
19018.0	5.828243228371625e+17
19019.0	5.82717390524689e+17
19020.0	5.826072547426303e+17
19021.0	5.824999847187795e+17
19022.0	5.823916585691818e+17
19023.0	5.822806011587241e+17
19024.0	5.821724231379626e+17
19025.0	5.820620900139007e+17
19026.0	5.819509489969834e+17
19027.0	5.818120184091988e+17
19028.0	5.817390077400404e+17
19029.0	5.81629700612642e+17
19030.0	5.815223723578708e+17
19031.0	5.814138350250666e+17
19032.0	5.81304806539264e+17
19033.0	5.811896841491795e+17
19034.0	5.810868075888639e+17
19035.0	5.809700366275924e+17
19036.0	5.784185913125548e+17
19037.0	5.807597626763946e+17
19038.0	5.806528161731924e+17
19039.0	5.805479737425919e+17
19040.0	5.804394375282687e+17
19041.0	5.803305963181396e+17
19042.0	5.802136921877161e+17
19043.0	5.801139498210644e+17
19044.0	5.800042543011156e+17
19045.0	5.798957468177748e+17
19046.0	5.79784546381551e+17
19047.0	5.796777024989866e+17
19048.0	5.795563553423359e+17
19049.0	5.794542085210112e+17
19050.0	5.793514804390569e+17
19051.0	5.789067089630546e+17
19052.0	5.790459618831017e+17
19053.0	5.790267820998655e+17
19054.0	5.78920945689122e+17
19055.0	5.78793566633984e+17
19056.0	5.787023712103082e+17
19057.0	5.7859543938717e+17
19058.0	5.784825095695018e+17
19059.0	5.783787991116458e+17
19060.0	5.782699489536682e+17
19061.0	5.781634158690304e+17
19062.0	5.780548174391978e+17
19063.0	5.779467435070804e+17
19064.0	5.778299617105236e+17
19065.0	5.777178419527679e+17
19066.0	5.776176753322665e+17
19067.0	5.775139294325418e+17
19068.0	5.774061881786367e+17
19069.0	5.772980706956628e+17
19070.0	5.771882864661844e+17
19071.0	5.770809731011924e+17
19072.0	5.769726992405844e+17
19073.0	5.768655781145257e+17
19074.0	5.767579726861652e+17
19075.0	5.766499805429759e+17
19076.0	5.76540553388578e+17
19077.0	5.7643268329963514e+17
19078.0	5.763240771103402e+17
19079.0	5.762179687688873e+17
19080.0	5.7610885422994765e+17
19081.0	5.759995297660926e+17
19082.0	5.7589131203925325e+17
19083.0	5.757788756814507e+17
19084.0	5.7566217350676474e+17
19085.0	5.7557079024817485e+17
19086.0	5.754341950488575e+17
19087.0	5.752839977216682e+17
19088.0	5.7523722249393485e+17
19089.0	5.75091102589474e+17
19090.0	5.7502944065836365e+17
19091.0	5.7492170947078816e+17
19092.0	5.7479546057086285e+17
19093.0	5.7470906385039354e+17
19094.0	5.746012919081642e+17
19095.0	5.744936045510655e+17
19096.0	5.743846815520085e+17
19097.0	5.7427826129414816e+17
19098.0	5.7417012857186976e+17
19099.0	5.7406233034533536e+17
19100.0	5.7395172137588045e+17
19101.0	5.73846568776499e+17
19102.0	5.737330925808298e+17
19103.0	5.736334814259881e+17
19104.0	5.73526001127697e+17
19105.0	5.734165079829162e+17
19106.0	5.7329775444404896e+17
19107.0	5.732018911095466e+17
19108.0	5.73095335235857e+17
19109.0	5.7279773056259386e+17
19110.0	5.728707590575443e+17
19111.0	5.727728168162643e+17
19112.0	5.7266600460069536e+17
19113.0	5.72559580078626e+17
19114.0	5.724516703535102e+17
19115.0	5.7233635733230925e+17
19116.0	5.7223611241813325e+17
19117.0	5.721285872407892e+17
19118.0	5.7200401885866656e+17
19119.0	5.715102672093179e+17
19120.0	5.717883350242643e+17
19121.0	5.71686028190242e+17
19122.0	5.7159466618279245e+17
19123.0	5.7148747822749e+17
19124.0	5.7136970231098016e+17
19125.0	5.7127066836227405e+17
19126.0	5.711652022386687e+17
19127.0	5.7092419130927776e+17
19128.0	5.708795808317439e+17
19129.0	5.708396373562708e+17
19130.0	5.7073621966083405e+17
19131.0	5.706286022088021e+17
19132.0	5.7052379284329805e+17
19133.0	5.70393347891746e+17
19134.0	5.7027916264898554e+17
19135.0	5.7020220017650336e+17
19136.0	5.7009653251659085e+17
19137.0	5.6997761043660794e+17
19138.0	5.698784762440362e+17
19139.0	5.697757821359443e+17
19140.0	5.696691757907967e+17
19141.0	5.6956230142962336e+17
19142.0	5.6945314725451085e+17
19143.0	5.6934481802909e+17
19144.0	5.692390722852182e+17
19145.0	5.691345584084308e+17
19146.0	5.6898473472382285e+17
19147.0	5.689121885738324e+17
19148.0	5.6881327437250554e+17
19149.0	5.687067945555284e+17
19150.0	5.686011642948266e+17
19151.0	5.68495006949922e+17
19152.0	5.6838576497404576e+17
19153.0	5.682793596059647e+17
19154.0	5.68165461603123e+17
19155.0	5.68068063502882e+17
19156.0	5.679619752241834e+17
19157.0	5.678519347227306e+17
19158.0	5.676152515461117e+17
19159.0	5.6764083211687245e+17
19160.0	5.6753325779626656e+17
19161.0	5.6742364098942285e+17
19162.0	5.670265683968001e+17
19163.0	5.672006885659989e+17
19164.0	5.671101960377684e+17
19165.0	5.6699631837730125e+17
19166.0	5.6688071490054816e+17
19167.0	5.6676281699969696e+17
19168.0	5.6668135459826336e+17
19169.0	5.665712768374101e+17
19170.0	5.6647179745361914e+17
19171.0	5.6634696853531296e+17
19172.0	5.6625762091226445e+17
19173.0	5.661519788376063e+17
19174.0	5.660427185466026e+17
19175.0	5.659406494597119e+17
19176.0	5.658346312957952e+17
19177.0	5.6571706516439034e+17
19178.0	5.6561335750273696e+17
19179.0	5.654909164716032e+17
19180.0	5.65404121571874e+17
19181.0	5.652948684111871e+17
19182.0	5.651940923583145e+17
19183.0	5.6509040378074445e+17
19184.0	5.649822819636564e+17
19185.0	5.648784990142463e+17
19186.0	5.6477275879287456e+17
19187.0	5.646613470336341e+17
19188.0	5.6455945417741645e+17
19189.0	5.64451336135202e+17
19190.0	5.643440159195135e+17
19191.0	5.6423712429178874e+17
19192.0	5.6413611202969594e+17
19193.0	5.640279965739689e+17
19194.0	5.6392197498470394e+17
19195.0	5.638178634814804e+17
19196.0	5.637112885237077e+17
19197.0	5.636048591781887e+17
19198.0	5.6349686577670816e+17
19199.0	5.616789789955406e+17
19200.0	5.620470367911942e+17
19201.0	5.631796392405675e+17
19202.0	5.630760052588543e+17
19203.0	5.629657698620756e+17
19204.0	5.628623263017641e+17
19205.0	5.627581583851519e+17
19206.0	5.6265190534021114e+17
19207.0	5.625385649700863e+17
19208.0	5.624264317905577e+17
19209.0	5.623349525523113e+17
19210.0	5.622300697864874e+17
19211.0	5.621242037359958e+17
19212.0	5.6201837529442976e+17
19213.0	5.618921258352639e+17
19214.0	5.617767043213994e+17
19215.0	5.6169350065466016e+17
19216.0	5.6159487704869536e+17
19217.0	5.614893683529043e+17
19218.0	5.613203132252158e+17
19219.0	5.612667082025641e+17
19220.0	5.611692436226046e+17
19221.0	5.6104239332939085e+17
19222.0	5.6095884419181216e+17
19223.0	5.608530757986986e+17
19224.0	5.607451180488021e+17
19225.0	5.606321644634111e+17
19226.0	5.605358481440766e+17
19227.0	5.604299323910826e+17
19228.0	5.603259170772309e+17
19229.0	5.602201755975679e+17
19230.0	5.601116871284052e+17
19231.0	5.6000592684427936e+17
19232.0	5.599015572515498e+17
19233.0	5.597916831940607e+17
19234.0	5.596897520997718e+17
19235.0	5.595841661588819e+17
19236.0	5.594799233040383e+17
19237.0	5.593729644276393e+17
19238.0	5.5925908641764685e+17
19239.0	5.5916259966976e+17
19240.0	5.5905298768636576e+17
19241.0	5.589481903445332e+17
19242.0	5.5884369618097485e+17
19243.0	5.587281940665685e+17
19244.0	5.58633951690752e+17
19245.0	5.585282401304575e+17
19246.0	5.5842130865684474e+17
19247.0	5.583165309583358e+17
19248.0	5.5821085435057485e+17
19249.0	5.5810378628246176e+17
19250.0	5.5799736148077216e+17
19251.0	5.5788235855844685e+17
19252.0	5.577688009932798e+17
19253.0	5.576798328149332e+17
19254.0	5.5757513515772576e+17
19255.0	5.5745785060392954e+17
19256.0	5.5735820848114323e+17
19257.0	5.572577532925268e+17
19258.0	5.5715211352473594e+17
19259.0	5.5704144401749325e+17
19260.0	5.568915877571241e+17
19261.0	5.568331448844288e+17
19262.0	5.5672397449134074e+17
19263.0	5.566161927624021e+17
19264.0	5.564754547092137e+17
19265.0	5.5639433463289165e+17
19266.0	5.562877710696447e+17
19267.0	5.5619789873916576e+17
19268.0	5.560917514605909e+17
19269.0	5.559855754510334e+17
19270.0	5.5587891437021856e+17
19271.0	5.557476376881834e+17
19272.0	5.5566416943076685e+17
19273.0	5.55430241841971e+17
19274.0	5.5536656496721894e+17
19275.0	5.553478040551423e+17
19276.0	5.552399278145536e+17
19277.0	5.5513386386281805e+17
19278.0	5.5502743255995706e+17
19279.0	5.5491771040617805e+17
19280.0	5.5480898202282656e+17
19281.0	5.545560715733672e+17
19282.0	5.5429010488470176e+17
19283.0	5.541551676238506e+17
19284.0	5.5405202465532576e+17
19285.0	5.5395556363250336e+17
19286.0	5.538598779267753e+17
19287.0	5.5375525744476154e+17
19288.0	5.528593932571979e+17
19289.0	5.5205146908426106e+17
19290.0	5.534337980170239e+17
19291.0	5.5330807878778874e+17
19292.0	5.532190725810858e+17
19293.0	5.531112470216704e+17
19294.0	5.5300353030444365e+17
19295.0	5.5289670445738656e+17
19296.0	5.5278798683941536e+17
19297.0	5.526787606620841e+17
19298.0	5.5257134579493536e+17
19299.0	5.524642684993535e+17
19300.0	5.52356662092322e+17
19301.0	5.522485458676394e+17
19302.0	5.5213902497054714e+17
19303.0	5.5202688431117645e+17
19304.0	5.519207068336128e+17
19305.0	5.5181339535605754e+17
19306.0	5.517042971049983e+17
19307.0	5.5159176085285536e+17
19308.0	5.5148426251905696e+17
19309.0	5.5131236903594656e+17
19310.0	5.511872022664531e+17
19311.0	5.511483504984062e+17
19312.0	5.510499576490666e+17
19313.0	5.5094042892260685e+17
19314.0	5.481338130574019e+17
19315.0	5.481478876037131e+17
19316.0	5.506037968797696e+17
19317.0	5.5050026083505485e+17
19318.0	5.5038950177942176e+17
19319.0	5.5027995117267616e+17
19320.0	5.5016848341947725e+17
19321.0	5.500572429975551e+17
19322.0	5.4993521503546016e+17
19323.0	5.498085904657066e+17
19324.0	5.4972169371429536e+17
19325.0	5.495495050919936e+17
19326.0	5.494985386360831e+17
19327.0	5.49385552265216e+17
19328.0	5.4927227124449274e+17
19329.0	5.4905093866127334e+17
19330.0	5.4868336873308154e+17
19331.0	5.485685832155134e+17
19332.0	5.4845684416075085e+17
19333.0	5.483414153767593e+17
19334.0	5.4822689109442554e+17
19335.0	5.4810850343867725e+17
19336.0	5.479944998791849e+17
19337.0	5.478790563452244e+17
19338.0	5.4774719092271776e+17
19339.0	5.476448970211326e+17
19340.0	5.4752062818222074e+17
19341.0	5.4740499590458016e+17
19342.0	5.4726033212265786e+17
19343.0	5.4717217449355936e+17
19344.0	5.470517720339796e+17
19345.0	5.4679483575173094e+17
19346.0	5.467356878864382e+17
19347.0	5.466848663437311e+17
19348.0	5.4657028781506554e+17
19349.0	5.4644422961616224e+17
19350.0	5.4590643106392755e+17
19351.0	5.4577984752844794e+17
19352.0	5.456491074377044e+17
19353.0	5.455294582751231e+17
19354.0	5.454024103602858e+17
19355.0	5.4526725821125965e+17
19356.0	5.4514511189988685e+17
19357.0	5.450152820430164e+17
19358.0	5.4488220250931194e+17
19359.0	5.4474484457581216e+17
19360.0	5.446150959486292e+17
19361.0	5.4443398904763725e+17
19362.0	5.4411073844237645e+17
19363.0	5.4395680685643085e+17
19364.0	5.4381282639653536e+17
19365.0	5.436728619128149e+17
19366.0	5.435312882843647e+17
19367.0	5.4338830376195405e+17
19368.0	5.432438316597247e+17
19369.0	5.4309137947470496e+17
19370.0	5.4293511026333005e+17
19371.0	5.4279659099695776e+17
19372.0	5.4264870794690554e+17
19373.0	5.424938345299967e+17
19374.0	5.4234008868181325e+17
19375.0	5.4218244989037216e+17
19376.0	5.420230040529578e+17
19377.0	5.418607525756928e+17
19378.0	5.416965067068756e+17
19379.0	5.415295578887509e+17
19380.0	5.413598807457791e+17
19381.0	5.4118738377222803e+17
19382.0	5.4100671790230176e+17
19383.0	5.408248894412117e+17
19384.0	5.4065081666764794e+17
19385.0	5.4046603576606714e+17
19386.0	5.4027755003576314e+17
19387.0	5.400849327063039e+17
19388.0	5.3988833267548154e+17
19389.0	5.396875075824298e+17
19390.0	5.3948174159926605e+17
19391.0	5.370851537627793e+17
19392.0	5.389421480946342e+17
19393.0	5.3883798402280083e+17
19394.0	5.3861130181454496e+17
19395.0	5.383770166613332e+17
19396.0	5.381399225827328e+17
19397.0	5.379019806255785e+17
19398.0	5.376498798865066e+17
19399.0	5.3734492881988256e+17
19400.0	5.371242792091647e+17
19401.0	5.368605788427605e+17
19402.0	5.365819723393706e+17
19403.0	5.3629250140023456e+17
19404.0	5.359966477090815e+17
19405.0	5.356891869107541e+17
19406.0	5.353736845131775e+17
19407.0	5.350470862940841e+17
19408.0	5.346536946226517e+17
19409.0	5.343594532918613e+17
19410.0	5.3400351528714234e+17
19411.0	5.3363258600106656e+17
19412.0	5.332489510496938e+17
19413.0	5.328517187239936e+17
19414.0	5.32439237796386e+17
19415.0	5.3201622476171936e+17
19416.0	5.315556424373588e+17
19417.0	5.3106917664358394e+17
19418.0	5.305973235952298e+17
19419.0	5.3011221528794445e+17
19420.0	5.296157309796351e+17
19421.0	5.291001384009728e+17
19422.0	5.285647909300906e+17
19423.0	5.2801727871931725e+17
19424.0	5.273512897238357e+17
19425.0	5.267579940285097e+17
19426.0	5.261528280334336e+17
19427.0	5.253892870067542e+17
19428.0	5.2471085651722234e+17
19429.0	5.238333385648809e+17
19430.0	5.228783317549056e+17
19431.0	5.214932488421381e+17
19432.0	5.20625163809587e+17
19433.0	5.189462588566191e+17
19434.0	5.1669498841442886e+17
19435.0	5.133873778961067e+17
19436.0	5.1074009511144083e+17
19437.0	5.0906858995930445e+17
19438.0	5.0361244896460934e+17
19439.0	5.045468574078293e+17
19440.0	5.0247283587590816e+17
19441.0	4.999205011587069e+17
19442.0	4.970513190704471e+17
19443.0	4.935158362101079e+17
19444.0	4.8799355453658477e+17
19445.0	4.7915805477000525e+17
19446.0	4.7245985788723194e+17
19447.0	4.647419273456295e+17
19448.0	4.5190279118629466e+17
19449.0	4.317184921348776e+17
19450.0	3.818115874597528e+17
19451.0	3.6568981835175085e+17
19452.0	4.104969422635019e+17
19453.0	4.4283333146487565e+17
19454.0	4.593625840571735e+17
19455.0	4.682395022262271e+17
19456.0	4.751228215667373e+17
19457.0	4.826082941337608e+17
19458.0	4.839103175939456e+17
19459.0	4.933984956623549e+17
19460.0	4.969828706156543e+17
19461.0	4.9951250988400634e+17
19462.0	5.017473485111296e+17
19463.0	5.0386925885849594e+17
19464.0	5.0577372586093216e+17
19465.0	5.074999481554262e+17
19466.0	5.0918297464122e+17
19467.0	5.1234831912140774e+17
19468.0	5.148151037384024e+17
19469.0	5.164553438494713e+17
19470.0	5.1775769600327725e+17
19471.0	5.1870117532794874e+17
19472.0	5.1951758227101005e+17
19473.0	5.2015214914874003e+17
19474.0	5.2071133976985594e+17
19475.0	5.211992874112338e+17
19476.0	5.21728224727313e+17
19477.0	5.2213115592376314e+17
19478.0	5.2256817164233376e+17
19479.0	5.2297573453878605e+17
19480.0	5.233177702432767e+17
19481.0	5.236439078578857e+17
19482.0	5.2395373948654925e+17
19483.0	5.242473708257279e+17
19484.0	5.245230628470783e+17
19485.0	5.248346827871572e+17
19486.0	5.250840867285674e+17
19487.0	5.2531936152780794e+17
19488.0	5.2553719340509856e+17
19489.0	5.2572486005773645e+17
19490.0	5.258322529746943e+17
19491.0	5.261033547497471e+17
19492.0	5.2627021779435514e+17
19493.0	5.264225179358549e+17
19494.0	5.265642665366868e+17
19495.0	5.26694420193826e+17
19496.0	5.2678475033258656e+17
19497.0	5.26922401517841e+17
19498.0	5.265258015533733e+17
19499.0	5.237346839909717e+17
19500.0	5.271988985659392e+17
19501.0	5.2727322631645856e+17
19502.0	5.273380843771221e+17
19503.0	5.2739888186217805e+17
19504.0	5.2744938358920525e+17
19505.0	5.274955434426367e+17
19506.0	5.2753457808233805e+17
19507.0	5.275660141111978e+17
19508.0	5.27594748449041e+17
19509.0	5.276162940993536e+17
19510.0	5.276166815831379e+17
19511.0	5.2275385564747014e+17
19512.0	5.269784645424468e+17
19513.0	5.2668118338983136e+17
19514.0	5.2687794308382605e+17
19515.0	5.275868678411605e+17
19516.0	5.276332024572585e+17
19517.0	5.276170769661952e+17
19518.0	5.276041957692758e+17
19519.0	5.275821198191273e+17
19520.0	5.275576852021248e+17
19521.0	5.2753450971518285e+17
19522.0	5.275030718687913e+17
19523.0	5.274731783651326e+17
19524.0	5.2743791566301856e+17
19525.0	5.2740075084404045e+17
19526.0	5.2736257379969696e+17
19527.0	5.273208593492649e+17
19528.0	5.2727686466546336e+17
19529.0	5.27231590998562e+17
19530.0	5.2718448665777485e+17
19531.0	5.271350924367188e+17
19532.0	5.270839394740906e+17
19533.0	5.270311089296725e+17
19534.0	5.269763766878207e+17
19535.0	5.2691998000633165e+17
19536.0	5.268603372830719e+17
19537.0	5.2680449711581856e+17
19538.0	5.267314571564373e+17
19539.0	5.266455686458026e+17
19540.0	5.266182489767935e+17
19541.0	5.2655618516145485e+17
19542.0	5.2649107781932365e+17
19543.0	5.26424048017954e+17
19544.0	5.26524100203861e+17
19545.0	5.264723841559211e+17
19546.0	5.263796079689728e+17
19547.0	5.2637166269890554e+17
19548.0	5.2629948012516685e+17
19549.0	5.262211522669226e+17
19550.0	5.261544024353449e+17
19551.0	5.260806589513726e+17
19552.0	5.260059610535253e+17
19553.0	5.259286365427027e+17
19554.0	5.258521118856532e+17
19555.0	5.2577713702393165e+17
19556.0	5.2570109652937376e+17
19557.0	5.2562304493595296e+17
19558.0	5.255448729660073e+17
19559.0	5.257177851057488e+17
19560.0	5.257681498188458e+17
19561.0	5.256875419369472e+17
19562.0	5.2560777899758925e+17
19563.0	5.255264615093589e+17
19564.0	5.2544427538077005e+17
19565.0	5.2536168478146554e+17
19566.0	5.2527650741507405e+17
19567.0	5.2519517119228576e+17
19568.0	5.2510991308554234e+17
19569.0	5.250269640130559e+17
19570.0	5.2494332162211834e+17
19571.0	5.24858139082752e+17
19572.0	5.247717223694335e+17
19573.0	5.246864834166784e+17
19574.0	5.246127727880874e+17
19575.0	5.245360347807743e+17
19576.0	5.244501502547285e+17
19577.0	5.243616332436819e+17
19578.0	5.242738403792212e+17
19579.0	5.2418843092800845e+17
19580.0	5.2410127496861005e+17
19581.0	5.2401513647745696e+17
19582.0	5.239288839012351e+17
19583.0	5.2384125587292154e+17
19584.0	5.237515260788736e+17
19585.0	5.2365774395801594e+17
19586.0	5.2356600229614925e+17
19587.0	5.234779434429098e+17
19588.0	5.233647399469055e+17
19589.0	5.2330916695681696e+17
19590.0	5.232145001174357e+17
19591.0	5.2313344694026234e+17
19592.0	5.232185936882346e+17
19593.0	5.232789340640596e+17
19594.0	5.2317338090864634e+17
19595.0	5.230958385736361e+17
19596.0	5.22865810149649e+17
19597.0	5.229078089738922e+17
19598.0	5.227997704836436e+17
19599.0	5.227389585981439e+17
19600.0	5.226490688613034e+17
19601.0	5.225533681958911e+17
19602.0	5.224624091212457e+17
19603.0	5.223208929547604e+17
19604.0	5.2227637482181965e+17
19605.0	5.221738487655081e+17
19606.0	5.22103529091891e+17
19607.0	5.2201271220415136e+17
19608.0	5.219199460136277e+17
19609.0	5.2182632754053114e+17
19610.0	5.2173799228265805e+17
19611.0	5.216458877435904e+17
19612.0	5.2155571845638816e+17
19613.0	5.214633673621503e+17
19614.0	5.2136959684553376e+17
19615.0	5.2127926565819725e+17
19616.0	5.2116915734882976e+17
19617.0	5.210957820548436e+17
19618.0	5.209603096707071e+17
19619.0	5.208600997090644e+17
19620.0	5.2077092097665696e+17
19621.0	5.207282472189951e+17
19622.0	5.20637349311283e+17
19623.0	5.2054523694284794e+17
19624.0	5.204523645665279e+17
19625.0	5.203606857493162e+17
19626.0	5.202685377992021e+17
19627.0	5.2017554889113594e+17
19628.0	5.200405382299648e+17
19629.0	5.1998159658461856e+17
19630.0	5.1969322231616845e+17
19631.0	5.1794506786624896e+17
19632.0	5.1971291338506234e+17
19633.0	5.196165067483819e+17
19634.0	5.1952917183201274e+17
19635.0	5.194337897938942e+17
19636.0	5.193429464121343e+17
19637.0	5.192247570071551e+17
19638.0	5.1915795404772685e+17
19639.0	5.1906510592846496e+17
19640.0	5.189604461598037e+17
19641.0	5.1881573057822726e+17
19642.0	5.1878837644602016e+17
19643.0	5.1869853843892896e+17
19644.0	5.1860197325755725e+17
19645.0	5.184937848209406e+17
19646.0	5.1842022651549e+17
19647.0	5.183287444111359e+17
19648.0	5.182360851753641e+17
19649.0	5.181430583787519e+17
19650.0	5.1805042298060794e+17
19651.0	5.1795716535746554e+17
19652.0	5.1786447746061645e+17
19653.0	5.1777078307061754e+17
19654.0	5.176789352229546e+17
19655.0	5.175856901827242e+17
19656.0	5.1749265199158605e+17
