# Flux units: erg / (cm m2 s)
# Wavelength units: Angstrom
wave	flux
19000.0	6.150812262727679e+17
19001.0	6.149581038070441e+17
19002.0	6.148554902295892e+17
19003.0	6.1474239152128e+17
19004.0	6.146294349299712e+17
19005.0	6.145157944573951e+17
19006.0	6.144037664849919e+17
19007.0	6.142905512449364e+17
19008.0	6.141719168942079e+17
19009.0	6.140496800557737e+17
19010.0	6.139104423051263e+17
19011.0	6.138354638782463e+17
19012.0	6.137152033259519e+17
19013.0	6.136126755220137e+17
19014.0	6.134946468986879e+17
19015.0	6.133831903302995e+17
19016.0	6.132705680250196e+17
19017.0	6.131617826690388e+17
19018.0	6.130483493950804e+17
19019.0	6.129362931810303e+17
19020.0	6.128223029035007e+17
19021.0	6.127114564665343e+17
19022.0	6.125982742216704e+17
19023.0	6.12482183017267e+17
19024.0	6.123714389213183e+17
19025.0	6.122604822440618e+17
19026.0	6.121460322009087e+17
19027.0	6.120322377274708e+17
19028.0	6.119227656241151e+17
19029.0	6.118087053716138e+17
19030.0	6.116991363798356e+17
19031.0	6.115865593031337e+17
19032.0	6.114733716755795e+17
19033.0	6.113517398654976e+17
19034.0	6.112460933169151e+17
19035.0	6.111219904326314e+17
19036.0	6.107272345638227e+17
19037.0	6.109022482595839e+17
19038.0	6.107955793494015e+17
19039.0	6.106862258749439e+17
19040.0	6.105747254061737e+17
19041.0	6.104617227474259e+17
19042.0	6.103348891615231e+17
19043.0	6.102380555446953e+17
19044.0	6.101245964058623e+17
19045.0	6.100132549711188e+17
19046.0	6.098955823742976e+17
19047.0	6.097842352073386e+17
19048.0	6.096573649212756e+17
19049.0	6.095447528221353e+17
19050.0	6.094456390418431e+17
19051.0	6.092925439399252e+17
19052.0	6.092119780010666e+17
19053.0	6.091152432300031e+17
19054.0	6.09003914797602e+17
19055.0	6.088641944922796e+17
19056.0	6.087764141408256e+17
19057.0	6.086673290319188e+17
19058.0	6.085487631182506e+17
19059.0	6.084408958255101e+17
19060.0	6.083303773132116e+17
19061.0	6.08220172325137e+17
19062.0	6.081077972041727e+17
19063.0	6.079957070861652e+17
19064.0	6.078733450477567e+17
19065.0	6.077546426094932e+17
19066.0	6.076522616761002e+17
19067.0	6.075475624809812e+17
19068.0	6.074371061841919e+17
19069.0	6.073253878213289e+17
19070.0	6.072107800024403e+17
19071.0	6.07101290283008e+17
19072.0	6.069879061523113e+17
19073.0	6.068781567355561e+17
19074.0	6.067668400472063e+17
19075.0	6.0665511818909e+17
19076.0	6.065419517427711e+17
19077.0	6.064298821069482e+17
19078.0	6.063166439380307e+17
19079.0	6.062083514826751e+17
19080.0	6.060956938753364e+17
19081.0	6.059806432078505e+17
19082.0	6.05870729863714e+17
19083.0	6.057518048477183e+17
19084.0	6.056282512075433e+17
19085.0	6.055379832143871e+17
19086.0	6.053871459063124e+17
19087.0	6.053063220177578e+17
19088.0	6.051924738572287e+17
19089.0	6.050726149095423e+17
19090.0	6.049784049696768e+17
19091.0	6.048680362639359e+17
19092.0	6.047490081379667e+17
19093.0	6.046482273315497e+17
19094.0	6.045372009589417e+17
19095.0	6.044259733995519e+17
19096.0	6.043134900655443e+17
19097.0	6.04203092349201e+17
19098.0	6.04089748553728e+17
19099.0	6.03977544770082e+17
19100.0	6.038683373972137e+17
19101.0	6.037577709999444e+17
19102.0	6.036371963641855e+17
19103.0	6.035361114707284e+17
19104.0	6.034254818792788e+17
19105.0	6.033085188887892e+17
19106.0	6.032022433344169e+17
19107.0	6.030887262442835e+17
19108.0	6.029775535603712e+17
19109.0	6.02855509659921e+17
19110.0	6.027550526537727e+17
19111.0	6.026462317860179e+17
19112.0	6.025353875860138e+17
19113.0	6.024262075460266e+17
19114.0	6.023142263401129e+17
19115.0	6.021997381287935e+17
19116.0	6.02091044278545e+17
19117.0	6.01979671945762e+17
19118.0	6.01854457221393e+17
19119.0	6.011436942404257e+17
19120.0	6.01641393918225e+17
19121.0	6.015366799032319e+17
19122.0	6.014288325334356e+17
19123.0	6.013183272331946e+17
19124.0	6.012056151698089e+17
19125.0	6.010956780579497e+17
19126.0	6.009779821128361e+17
19127.0	6.007175927300095e+17
19128.0	6.007545136502099e+17
19129.0	6.006447954111145e+17
19130.0	6.005424671162367e+17
19131.0	6.00433556070946e+17
19132.0	6.003229176015529e+17
19133.0	6.002078430265344e+17
19134.0	6.001017469883731e+17
19135.0	5.999916013497001e+17
19136.0	5.998809695212884e+17
19137.0	5.997579466702847e+17
19138.0	5.996585866144425e+17
19139.0	5.9955043907229e+17
19140.0	5.994404651204607e+17
19141.0	5.993301835164329e+17
19142.0	5.99217218326801e+17
19143.0	5.991047412143444e+17
19144.0	5.989946953302015e+17
19145.0	5.988889434346835e+17
19146.0	5.987149187558058e+17
19147.0	5.986611342868479e+17
19148.0	5.985562114654207e+17
19149.0	5.98445136998127e+17
19150.0	5.983376891357866e+17
19151.0	5.982272846386516e+17
19152.0	5.98117603798767e+17
19153.0	5.980006464705875e+17
19154.0	5.978868069083818e+17
19155.0	5.977864003736916e+17
19156.0	5.976766977933312e+17
19157.0	5.975634825532756e+17
19158.0	5.974455884972031e+17
19159.0	5.973440773925546e+17
19160.0	5.972355756414292e+17
19161.0	5.971250528649215e+17
19162.0	5.969936820906665e+17
19163.0	5.969012782181033e+17
19164.0	5.967969319037609e+17
19165.0	5.966816055306921e+17
19166.0	5.965662741943635e+17
19167.0	5.964656222928895e+17
19168.0	5.963578509798057e+17
19169.0	5.962481434361855e+17
19170.0	5.96138927464994e+17
19171.0	5.960284055972521e+17
19172.0	5.959195165021524e+17
19173.0	5.958099575067988e+17
19174.0	5.956955196970324e+17
19175.0	5.955901980671999e+17
19176.0	5.954806784983039e+17
19177.0	5.953559694671872e+17
19178.0	5.952607696016724e+17
19179.0	5.95150546997521e+17
19180.0	5.950413905854463e+17
19181.0	5.94921102909986e+17
19182.0	5.948212618373801e+17
19183.0	5.947141816057855e+17
19184.0	5.94602315673327e+17
19185.0	5.944920211368618e+17
19186.0	5.943834376667135e+17
19187.0	5.942674417429162e+17
19188.0	5.941642843739476e+17
19189.0	5.940553246048255e+17
19190.0	5.939456952849748e+17
19191.0	5.938330941609299e+17
19192.0	5.937267513578836e+17
19193.0	5.936159156163924e+17
19194.0	5.935048802959359e+17
19195.0	5.933969013648041e+17
19196.0	5.932843865735167e+17
19197.0	5.931722266902527e+17
19198.0	5.930471825342464e+17
19199.0	5.927876243226623e+17
19200.0	5.927056172908543e+17
19201.0	5.927220910489599e+17
19202.0	5.926271252955136e+17
19203.0	5.925210654681769e+17
19204.0	5.924119911945556e+17
19205.0	5.923042170852692e+17
19206.0	5.921958982057983e+17
19207.0	5.920744855481002e+17
19208.0	5.919589916824916e+17
19209.0	5.918688416191827e+17
19210.0	5.917599746839892e+17
19211.0	5.91652439929651e+17
19212.0	5.915432111658324e+17
19213.0	5.914242597956265e+17
19214.0	5.913153313439741e+17
19215.0	5.912149365533354e+17
19216.0	5.91106399150626e+17
19217.0	5.90993203274274e+17
19218.0	5.908212690365097e+17
19219.0	5.907589462228991e+17
19220.0	5.906670987946665e+17
19221.0	5.905366808264703e+17
19222.0	5.90448362136098e+17
19223.0	5.903420237370708e+17
19224.0	5.902300205809663e+17
19225.0	5.901149994134185e+17
19226.0	5.900154895510185e+17
19227.0	5.899070581243903e+17
19228.0	5.898009992058198e+17
19229.0	5.896920415338495e+17
19230.0	5.895830554105172e+17
19231.0	5.894730943212201e+17
19232.0	5.893648125613396e+17
19233.0	5.892499358176595e+17
19234.0	5.891463455266132e+17
19235.0	5.890362033831935e+17
19236.0	5.889303580945066e+17
19237.0	5.888203747054934e+17
19238.0	5.887039411759786e+17
19239.0	5.886044177519956e+17
19240.0	5.884954755989503e+17
19241.0	5.883847753334783e+17
19242.0	5.882766575009792e+17
19243.0	5.881533174906879e+17
19244.0	5.880610186854399e+17
19245.0	5.879516305380692e+17
19246.0	5.878422488918698e+17
19247.0	5.877341704159231e+17
19248.0	5.876262251790335e+17
19249.0	5.875173815222271e+17
19250.0	5.874057945109843e+17
19251.0	5.872895258875219e+17
19252.0	5.871609457235284e+17
19253.0	5.87080258289664e+17
19254.0	5.869741128286207e+17
19255.0	5.868453590204415e+17
19256.0	5.867548503441408e+17
19257.0	5.866481594138623e+17
19258.0	5.865394048860159e+17
19259.0	5.864228838353577e+17
19260.0	5.863137480452778e+17
19261.0	5.862116156943017e+17
19262.0	5.860979464907433e+17
19263.0	5.859851540365311e+17
19264.0	5.858366191916371e+17
19265.0	5.857573026660351e+17
19266.0	5.856448146483882e+17
19267.0	5.855606958544212e+17
19268.0	5.854514839377238e+17
19269.0	5.853429391949823e+17
19270.0	5.852318602537641e+17
19271.0	5.85095946768657e+17
19272.0	5.850129594580991e+17
19273.0	5.848780581983572e+17
19274.0	5.847547563562324e+17
19275.0	5.84690099622161e+17
19276.0	5.845770714480639e+17
19277.0	5.844688708479657e+17
19278.0	5.843604002745001e+17
19279.0	5.842491599923881e+17
19280.0	5.841357403499177e+17
19281.0	5.840323743143252e+17
19282.0	5.839254236168191e+17
19283.0	5.838149005606911e+17
19284.0	5.837031259941545e+17
19285.0	5.835860217255252e+17
19286.0	5.834840969226921e+17
19287.0	5.833778981240831e+17
19288.0	5.831744522900819e+17
19289.0	5.829692592488445e+17
19290.0	5.830504983035903e+17
19291.0	5.829181839507456e+17
19292.0	5.828354584346623e+17
19293.0	5.827261519364095e+17
19294.0	5.826162987106304e+17
19295.0	5.825083035615232e+17
19296.0	5.823955583631359e+17
19297.0	5.822874153648127e+17
19298.0	5.821770288332799e+17
19299.0	5.8206768346781e+17
19300.0	5.819606239980201e+17
19301.0	5.818513004429311e+17
19302.0	5.817404455474516e+17
19303.0	5.81624828858641e+17
19304.0	5.815200357111124e+17
19305.0	5.814095829794815e+17
19306.0	5.812999147924137e+17
19307.0	5.811835496999593e+17
19308.0	5.810728685884756e+17
19309.0	5.809591231184896e+17
19310.0	5.808453670229332e+17
19311.0	5.807404128840361e+17
19312.0	5.806334521901055e+17
19313.0	5.805225220767744e+17
19314.0	5.799308770497873e+17
19315.0	5.798633306499759e+17
19316.0	5.80186329457186e+17
19317.0	5.800812729073663e+17
19318.0	5.799710007405225e+17
19319.0	5.798623825974612e+17
19320.0	5.797502877259092e+17
19321.0	5.796374173275476e+17
19322.0	5.795229712689834e+17
19323.0	5.794148247055018e+17
19324.0	5.793047105940138e+17
19325.0	5.79186657923345e+17
19326.0	5.790755698245631e+17
19327.0	5.789634505561428e+17
19328.0	5.788475943026687e+17
19329.0	5.787408662527999e+17
19330.0	5.786257063935999e+17
19331.0	5.785109434553684e+17
19332.0	5.784036080702803e+17
19333.0	5.782896700118356e+17
19334.0	5.781779021561855e+17
19335.0	5.780546506457087e+17
19336.0	5.779510102327295e+17
19337.0	5.778326119514112e+17
19338.0	5.776978640633855e+17
19339.0	5.776044743196672e+17
19340.0	5.774760275345407e+17
19341.0	5.773642530379092e+17
19342.0	5.77228442243345e+17
19343.0	5.771430645989376e+17
19344.0	5.77020874596898e+17
19345.0	5.767351604259496e+17
19346.0	5.766943718681257e+17
19347.0	5.766689111146496e+17
19348.0	5.765656244213075e+17
19349.0	5.764426764386303e+17
19350.0	5.763249939851945e+17
19351.0	5.762078372877651e+17
19352.0	5.760820905159337e+17
19353.0	5.7597507305908896e+17
19354.0	5.7585612553366176e+17
19355.0	5.757269242631509e+17
19356.0	5.756171047316138e+17
19357.0	5.7549713372610554e+17
19358.0	5.753761590935551e+17
19359.0	5.7525069264104096e+17
19360.0	5.751251246863699e+17
19361.0	5.750080757126485e+17
19362.0	5.748882298372094e+17
19363.0	5.747647456127657e+17
19364.0	5.746404070085973e+17
19365.0	5.745145546801151e+17
19366.0	5.743831193135786e+17
19367.0	5.742566242080084e+17
19368.0	5.741293107238228e+17
19369.0	5.739969970001236e+17
19370.0	5.7386889065267194e+17
19371.0	5.737364241864021e+17
19372.0	5.7361118555450016e+17
19373.0	5.734773451041449e+17
19374.0	5.733455446234453e+17
19375.0	5.7320463432417274e+17
19376.0	5.730662305409706e+17
19377.0	5.7292867568489805e+17
19378.0	5.7279110279331834e+17
19379.0	5.7265215773518496e+17
19380.0	5.725115725643774e+17
19381.0	5.7236864193877325e+17
19382.0	5.722083309562539e+17
19383.0	5.720543509260969e+17
19384.0	5.719143182150315e+17
19385.0	5.717662794863956e+17
19386.0	5.71615081538082e+17
19387.0	5.7145402760451405e+17
19388.0	5.7127890835210234e+17
19389.0	5.7111815494041594e+17
19390.0	5.709526099558399e+17
19391.0	5.705224554195622e+17
19392.0	5.705724423656787e+17
19393.0	5.704226122498047e+17
19394.0	5.70249735901457e+17
19395.0	5.7003765853934925e+17
19396.0	5.698532273029119e+17
19397.0	5.696701778799274e+17
19398.0	5.69430267535906e+17
19399.0	5.6916982020177914e+17
19400.0	5.690047160385536e+17
19401.0	5.688033656788309e+17
19402.0	5.686006207130281e+17
19403.0	5.6838748505811616e+17
19404.0	5.681717669003263e+17
19405.0	5.67945463996962e+17
19406.0	5.6769535841839763e+17
19407.0	5.6745311450344096e+17
19408.0	5.6714047527758496e+17
19409.0	5.669437320811862e+17
19410.0	5.6666056846650016e+17
19411.0	5.663691533975551e+17
19412.0	5.660806558165674e+17
19413.0	5.657688265108138e+17
19414.0	5.654210778147498e+17
19415.0	5.651000681562111e+17
19416.0	5.647137756938239e+17
19417.0	5.643510264889342e+17
19418.0	5.639534592480596e+17
19419.0	5.635025628299263e+17
19420.0	5.630418680982185e+17
19421.0	5.6253130148413434e+17
19422.0	5.61985601352499e+17
19423.0	5.614402982117375e+17
19424.0	5.607571260615337e+17
19425.0	5.6007980755189734e+17
19426.0	5.5940847284606266e+17
19427.0	5.5870344354856954e+17
19428.0	5.5801758515636896e+17
19429.0	5.5733094138074445e+17
19430.0	5.564883696003754e+17
19431.0	5.5562373661982726e+17
19432.0	5.546606882805076e+17
19433.0	5.53629845168674e+17
19434.0	5.524236512089427e+17
19435.0	5.5102583292122445e+17
19436.0	5.495668076445693e+17
19437.0	5.479988411935403e+17
19438.0	5.4568960449140045e+17
19439.0	5.4403095019738445e+17
19440.0	5.418054863989417e+17
19441.0	5.3919916406865894e+17
19442.0	5.361577962941101e+17
19443.0	5.3284184456342176e+17
19444.0	5.288114839530152e+17
19445.0	5.2399786671035757e+17
19446.0	5.179438087361878e+17
19447.0	5.102850150847826e+17
19448.0	4.998935728881668e+17
19449.0	4.843914893372075e+17
19450.0	4.548149969769818e+17
19451.0	4.3256437238224506e+17
19452.0	4.726558176575486e+17
19453.0	4.9294081446816486e+17
19454.0	5.05132911916919e+17
19455.0	5.138014644731904e+17
19456.0	5.2026813137114477e+17
19457.0	5.2548091856814054e+17
19458.0	5.283099471861098e+17
19459.0	5.3299917521332954e+17
19460.0	5.360684485312508e+17
19461.0	5.386298913193983e+17
19462.0	5.409129434710016e+17
19463.0	5.428788833812479e+17
19464.0	5.445736655224829e+17
19465.0	5.460852473855999e+17
19466.0	5.4743486193554746e+17
19467.0	5.486179974993238e+17
19468.0	5.4968204796450125e+17
19469.0	5.506033704588628e+17
19470.0	5.514154576183296e+17
19471.0	5.5212049565395616e+17
19472.0	5.527527027463508e+17
19473.0	5.5329441178801485e+17
19474.0	5.5375928034153805e+17
19475.0	5.541795773546494e+17
19476.0	5.5469905036356256e+17
19477.0	5.55239005626914e+17
19478.0	5.556799525268138e+17
19479.0	5.56056150487859e+17
19480.0	5.564422442800469e+17
19481.0	5.5671578231657805e+17
19482.0	5.5702474768165536e+17
19483.0	5.572452901978111e+17
19484.0	5.574873560645631e+17
19485.0	5.5763451014458016e+17
19486.0	5.578226364929365e+17
19487.0	5.579553631458643e+17
19488.0	5.580750075549011e+17
19489.0	5.5818109848999245e+17
19490.0	5.581693414364499e+17
19491.0	5.5836229780548256e+17
19492.0	5.584636189081599e+17
19493.0	5.585260225320276e+17
19494.0	5.585699143155711e+17
19495.0	5.5860420974127776e+17
19496.0	5.58600997253939e+17
19497.0	5.586641907351551e+17
19498.0	5.586201048252414e+17
19499.0	5.5827007827258e+17
19500.0	5.586866884225705e+17
19501.0	5.586872500398761e+17
19502.0	5.58707668890419e+17
19503.0	5.5870161161639245e+17
19504.0	5.5871033129478803e+17
19505.0	5.5871298153567565e+17
19506.0	5.586882032653652e+17
19507.0	5.58678184960546e+17
19508.0	5.586649039765503e+17
19509.0	5.5862715342301856e+17
19510.0	5.585675253798228e+17
19511.0	5.5777782678596186e+17
19512.0	5.584441757226323e+17
19513.0	5.583320842764285e+17
19514.0	5.583318586228735e+17
19515.0	5.583701378684245e+17
19516.0	5.583538370554537e+17
19517.0	5.5829561634106016e+17
19518.0	5.582429806919679e+17
19519.0	5.581827009238356e+17
19520.0	5.5812420324556794e+17
19521.0	5.580737369604096e+17
19522.0	5.580044132941824e+17
19523.0	5.579409280292179e+17
19524.0	5.578709063609002e+17
19525.0	5.578036156039166e+17
19526.0	5.5773362329572685e+17
19527.0	5.576631359897599e+17
19528.0	5.5759689038342816e+17
19529.0	5.5752240751356576e+17
19530.0	5.57449311490321e+17
19531.0	5.5737323436550816e+17
19532.0	5.5729620156852896e+17
19533.0	5.572182604251135e+17
19534.0	5.571392566547796e+17
19535.0	5.5705798243778554e+17
19536.0	5.569751264788479e+17
19537.0	5.568986563477503e+17
19538.0	5.568016167206912e+17
19539.0	5.5669210700840954e+17
19540.0	5.56652528087859e+17
19541.0	5.5657130916577274e+17
19542.0	5.56487034413602e+17
19543.0	5.563989378116266e+17
19544.0	5.563153653956607e+17
19545.0	5.5617762368334496e+17
19546.0	5.560647021843796e+17
19547.0	5.560564234671443e+17
19548.0	5.5597122722638496e+17
19549.0	5.558735214739455e+17
19550.0	5.5579597885931514e+17
19551.0	5.5570775314268154e+17
19552.0	5.5561875672268794e+17
19553.0	5.555272293897557e+17
19554.0	5.5543665367449594e+17
19555.0	5.553491425274537e+17
19556.0	5.5526229659702605e+17
19557.0	5.551738503299071e+17
19558.0	5.5508293466630816e+17
19559.0	5.5499219187793914e+17
19560.0	5.5489695705989114e+17
19561.0	5.5480666606796794e+17
19562.0	5.5471649027959456e+17
19563.0	5.546258961093972e+17
19564.0	5.545365214330879e+17
19565.0	5.5444560080622925e+17
19566.0	5.5435021359513594e+17
19567.0	5.542622572227241e+17
19568.0	5.541684366540799e+17
19569.0	5.540756183143764e+17
19570.0	5.539844240091817e+17
19571.0	5.5389067698066765e+17
19572.0	5.537931970914986e+17
19573.0	5.537013969190911e+17
19574.0	5.5359916928750925e+17
19575.0	5.5351504776724474e+17
19576.0	5.5342025719589536e+17
19577.0	5.533240073562794e+17
19578.0	5.53228095787281e+17
19579.0	5.5313386634390176e+17
19580.0	5.530426672152575e+17
19581.0	5.529515976207018e+17
19582.0	5.528580043134292e+17
19583.0	5.527628870757034e+17
19584.0	5.526675120979967e+17
19585.0	5.525603569980756e+17
19586.0	5.524621805049173e+17
19587.0	5.5237838509178874e+17
19588.0	5.522439856106154e+17
19589.0	5.521852941555028e+17
19590.0	5.5208328588602016e+17
19591.0	5.5199748734320634e+17
19592.0	5.5190238611374086e+17
19593.0	5.518041689358335e+17
19594.0	5.516841631875071e+17
19595.0	5.516119251790506e+17
19596.0	5.51514497089536e+17
19597.0	5.5142013230994765e+17
19598.0	5.512826241504595e+17
19599.0	5.5122782822509216e+17
19600.0	5.511328743555071e+17
19601.0	5.510312785259177e+17
19602.0	5.509347264167935e+17
19603.0	5.508110612780372e+17
19604.0	5.507439721971711e+17
19605.0	5.5062538726932474e+17
19606.0	5.505566835212287e+17
19607.0	5.5046124814554445e+17
19608.0	5.503629398114302e+17
19609.0	5.50263000731921e+17
19610.0	5.5016900246459725e+17
19611.0	5.500705234922153e+17
19612.0	5.499775348637694e+17
19613.0	5.4987953222451194e+17
19614.0	5.4977952764395514e+17
19615.0	5.4968631343185914e+17
19616.0	5.4958505629231776e+17
19617.0	5.494877759122089e+17
19618.0	5.4933693238258323e+17
19619.0	5.492246793857705e+17
19620.0	5.4914064273025696e+17
19621.0	5.490994789919402e+17
19622.0	5.4900826811924474e+17
19623.0	5.4891161576625485e+17
19624.0	5.4881364304636576e+17
19625.0	5.487174352895998e+17
19626.0	5.486195722507604e+17
19627.0	5.4852190760250003e+17
19628.0	5.484198453663059e+17
19629.0	5.483049449947135e+17
19630.0	5.4818201609611936e+17
19631.0	5.479639881351166e+17
19632.0	5.480258441226921e+17
19633.0	5.47933515817506e+17
19634.0	5.478418684575744e+17
19635.0	5.4774118488910496e+17
19636.0	5.4764357763290445e+17
19637.0	5.475120142701909e+17
19638.0	5.474528998195199e+17
19639.0	5.4735552387918496e+17
19640.0	5.4724495727220045e+17
19641.0	5.470603688891735e+17
19642.0	5.4706311636800845e+17
19643.0	5.469659732115455e+17
19644.0	5.4686206925646496e+17
19645.0	5.467491305608531e+17
19646.0	5.4667113202537805e+17
19647.0	5.465799374405631e+17
19648.0	5.464844980103851e+17
19649.0	5.463866307772415e+17
19650.0	5.462901009678335e+17
19651.0	5.4619220150845434e+17
19652.0	5.4609482039514445e+17
19653.0	5.459982562623488e+17
19654.0	5.459003073800874e+17
19655.0	5.458027407387305e+17
19656.0	5.4570610229684896e+17
19657.0	5.456092006623913e+17
19658.0	5.4551202709722445e+17
19659.0	5.4541490330446496e+17
19660.0	5.4531781579243514e+17
19661.0	5.4522057686603085e+17
