# Flux units: erg / (cm m2 s)
# Wavelength units: Angstrom
wave	flux
19000.0	4.9361549839564794e+17
19001.0	4.9352234297371296e+17
19002.0	4.934322263949311e+17
19003.0	4.9334056715113805e+17
19004.0	4.93248940413201e+17
19005.0	4.931573851881471e+17
19006.0	4.9306580731385165e+17
19007.0	4.9297423167651834e+17
19008.0	4.9288172783970976e+17
19009.0	4.927893949207893e+17
19010.0	4.926918345009834e+17
19011.0	4.9260746460801696e+17
19012.0	4.9251430408301216e+17
19013.0	4.9242509270493856e+17
19014.0	4.9233362108634445e+17
19015.0	4.9224191500615674e+17
19016.0	4.921495653100202e+17
19017.0	4.920592344023038e+17
19018.0	4.919678213641555e+17
19019.0	4.918764829147136e+17
19020.0	4.9178506456378016e+17
19021.0	4.916937001096531e+17
19022.0	4.916023807442943e+17
19023.0	4.9151103076051616e+17
19024.0	4.914195025188181e+17
19025.0	4.91328373854481e+17
19026.0	4.912366182815061e+17
19027.0	4.9114459804794874e+17
19028.0	4.9105458933268474e+17
19029.0	4.909633322527402e+17
19030.0	4.9087212151985485e+17
19031.0	4.9078090855000723e+17
19032.0	4.9068970942136314e+17
19033.0	4.905971481924949e+17
19034.0	4.905073528973993e+17
19035.0	4.904160827452074e+17
19036.0	4.902288714541738e+17
19037.0	4.902338949720746e+17
19038.0	4.901428650835968e+17
19039.0	4.9005179241321805e+17
19040.0	4.899607289703082e+17
19041.0	4.89869654831923e+17
19042.0	4.897758432810324e+17
19043.0	4.8968763825629856e+17
19044.0	4.895966031249407e+17
19045.0	4.8950565292823885e+17
19046.0	4.894138372369065e+17
19047.0	4.893233963685204e+17
19048.0	4.892293267980287e+17
19049.0	4.891379387858943e+17
19050.0	4.8905026930387616e+17
19051.0	4.889480084673876e+17
19052.0	4.888667427089066e+17
19053.0	4.887783944486911e+17
19054.0	4.886875434472789e+17
19055.0	4.885924982816768e+17
19056.0	4.8850577985809056e+17
19057.0	4.88415181283874e+17
19058.0	4.88322746233651e+17
19059.0	4.882330003614377e+17
19060.0	4.8814258612688205e+17
19061.0	4.8805223760308896e+17
19062.0	4.8796145937285114e+17
19063.0	4.878708126340437e+17
19064.0	4.877784273562281e+17
19065.0	4.8768770260336634e+17
19066.0	4.8759753779008845e+17
19067.0	4.8750829048081043e+17
19068.0	4.8741773287096314e+17
19069.0	4.8732717651940685e+17
19070.0	4.87236473786641e+17
19071.0	4.871460881432575e+17
19072.0	4.8705493808797005e+17
19073.0	4.8696498991049376e+17
19074.0	4.8687458986666656e+17
19075.0	4.867841229236906e+17
19076.0	4.8669336307848525e+17
19077.0	4.8660294492924576e+17
19078.0	4.864160716292095e+17
19079.0	4.863237104686421e+17
19080.0	4.8623336432162125e+17
19081.0	4.861428862637396e+17
19082.0	4.8605207643641165e+17
19083.0	4.8596218411308365e+17
19084.0	4.858690808403285e+17
19085.0	4.857818746890922e+17
19086.0	4.8568582855284045e+17
19087.0	4.8559781115330554e+17
19088.0	4.855093485284009e+17
19089.0	4.8541768040666445e+17
19090.0	4.853308179087359e+17
19091.0	4.852401023833429e+17
19092.0	4.851483344371711e+17
19093.0	4.850604577565355e+17
19094.0	4.849703351659178e+17
19095.0	4.848802440325802e+17
19096.0	4.8478995702524576e+17
19097.0	4.847001179695787e+17
19098.0	4.846094377462442e+17
19099.0	4.845193254316713e+17
19100.0	4.844298396063059e+17
19101.0	4.8434007465000954e+17
19102.0	4.842482442087082e+17
19103.0	4.8416026784344736e+17
19104.0	4.840703455308457e+17
19105.0	4.8397895835757216e+17
19106.0	4.838901450888532e+17
19107.0	4.838000745775103e+17
19108.0	4.8371028403595936e+17
19109.0	4.836153814067882e+17
19110.0	4.8353099054230176e+17
19111.0	4.834409560320682e+17
19112.0	4.833511130617172e+17
19113.0	4.832618514219007e+17
19114.0	4.831721047108266e+17
19115.0	4.830818543337472e+17
19116.0	4.829926527423829e+17
19117.0	4.829026554915498e+17
19118.0	4.828117238196906e+17
19119.0	4.825692624999763e+17
19120.0	4.826332789735423e+17
19121.0	4.8254383788741965e+17
19122.0	4.8245478722109446e+17
19123.0	4.823652036684458e+17
19124.0	4.8227563668329805e+17
19125.0	4.8218608102277114e+17
19126.0	4.820964630768298e+17
19127.0	4.8197804452304205e+17
19128.0	4.819174188646398e+17
19129.0	4.8182698240027296e+17
19130.0	4.817384360990037e+17
19131.0	4.8164911664769696e+17
19132.0	4.8155966234951674e+17
19133.0	4.8146976177739085e+17
19134.0	4.813809399103488e+17
19135.0	4.812915417459371e+17
19136.0	4.8120220314064205e+17
19137.0	4.8111029314737485e+17
19138.0	4.8102327937488205e+17
19139.0	4.8093422549292365e+17
19140.0	4.8084496259481594e+17
19141.0	4.807556959218347e+17
19142.0	4.8066640806761805e+17
19143.0	4.8057634971975674e+17
19144.0	4.8048778559269536e+17
19145.0	4.8039879238833485e+17
19146.0	4.803005912885929e+17
19147.0	4.8021878928834554e+17
19148.0	4.8013070526928205e+17
19149.0	4.800415187075071e+17
19150.0	4.799529210260139e+17
19151.0	4.798639531971924e+17
19152.0	4.797748647821311e+17
19153.0	4.7968476470094496e+17
19154.0	4.795945937360213e+17
19155.0	4.795077343838207e+17
19156.0	4.794186830883497e+17
19157.0	4.7932920697978874e+17
19158.0	4.7923617473058125e+17
19159.0	4.791514744662697e+17
19160.0	4.7906275976369485e+17
19161.0	4.789738695294976e+17
19162.0	4.7887616559458976e+17
19163.0	4.7879582635786234e+17
19164.0	4.787072023920639e+17
19165.0	4.786169671843839e+17
19166.0	4.785271825148587e+17
19167.0	4.784398791955796e+17
19168.0	4.7835176889221114e+17
19169.0	4.7826280742475085e+17
19170.0	4.781742984527872e+17
19171.0	4.7808497851214496e+17
19172.0	4.7799681032738125e+17
19173.0	4.779080692006911e+17
19174.0	4.7781842902493856e+17
19175.0	4.777306906165247e+17
19176.0	4.7764201401221114e+17
19177.0	4.775510265561087e+17
19178.0	4.77464453185536e+17
19179.0	4.7737528941281274e+17
19180.0	4.7728735813631994e+17
19181.0	4.771965283860479e+17
19182.0	4.7710984134983674e+17
19183.0	4.7702167896719354e+17
19184.0	4.76933011939874e+17
19185.0	4.768444936006314e+17
19186.0	4.767560260124671e+17
19187.0	4.7666746936524794e+17
19188.0	4.7657900646072314e+17
19189.0	4.764906165370879e+17
19190.0	4.7640212105680205e+17
19191.0	4.7631360495452154e+17
19192.0	4.7622527256275616e+17
19193.0	4.761368481759232e+17
19194.0	4.760484517511166e+17
19195.0	4.759600427433982e+17
19196.0	4.7587149364592634e+17
19197.0	4.757831479022932e+17
19198.0	4.7569479670606496e+17
19199.0	4.755553590968319e+17
19200.0	4.754826779601578e+17
19201.0	4.7542988516447565e+17
19202.0	4.753417348055039e+17
19203.0	4.7525349503795194e+17
19204.0	4.7516481738506234e+17
19205.0	4.75076985094144e+17
19206.0	4.749885528080383e+17
19207.0	4.7489926802964474e+17
19208.0	4.7480856830279674e+17
19209.0	4.7472419442524154e+17
19210.0	4.746360217665536e+17
19211.0	4.7454785917419514e+17
19212.0	4.7445971419791354e+17
19213.0	4.743702127837183e+17
19214.0	4.7428131297252685e+17
19215.0	4.7419515413899936e+17
19216.0	4.741072555081727e+17
19217.0	4.7401917400569165e+17
19218.0	4.739183274885119e+17
19219.0	4.738410273745578e+17
19220.0	4.7375501471252474e+17
19221.0	4.7366201993243296e+17
19222.0	4.735787678913877e+17
19223.0	4.734908853387264e+17
19224.0	4.734029188999849e+17
19225.0	4.732540503283027e+17
19226.0	4.7314377082142726e+17
19227.0	4.730558806491134e+17
19228.0	4.729679734898687e+17
19229.0	4.7288005703325e+17
19230.0	4.727921198148266e+17
19231.0	4.727043201695742e+17
19232.0	4.726163050070015e+17
19233.0	4.725275762535081e+17
19234.0	4.7244038051812685e+17
19235.0	4.723528985914025e+17
19236.0	4.722650621760853e+17
19237.0	4.721770019946496e+17
19238.0	4.720879683152553e+17
19239.0	4.7200165422257485e+17
19240.0	4.7191367184547834e+17
19241.0	4.718260252224169e+17
19242.0	4.7173825346928634e+17
19243.0	4.716484388803924e+17
19244.0	4.715628027969534e+17
19245.0	4.71475051246387e+17
19246.0	4.713870694285311e+17
19247.0	4.712995545066155e+17
19248.0	4.712118357415253e+17
19249.0	4.711240788082687e+17
19250.0	4.7103605043363834e+17
19251.0	4.70946588725521e+17
19252.0	4.7085727151117645e+17
19253.0	4.707730415681536e+17
19254.0	4.706855362232319e+17
19255.0	4.705954111160319e+17
19256.0	4.705095186907134e+17
19257.0	4.7042249841704954e+17
19258.0	4.7033480558673914e+17
19259.0	4.702461814811306e+17
19260.0	4.701573443747839e+17
19261.0	4.700717731632468e+17
19262.0	4.699840915177472e+17
19263.0	4.698957413001898e+17
19264.0	4.6979995751765325e+17
19265.0	4.697176287827285e+17
19266.0	4.696282392865451e+17
19267.0	4.6954573117521914e+17
19268.0	4.694580582678528e+17
19269.0	4.693703801875113e+17
19270.0	4.692826521949523e+17
19271.0	4.6918944182763514e+17
19272.0	4.6910678370003616e+17
19273.0	4.690102420067668e+17
19274.0	4.689238303965183e+17
19275.0	4.688442452257449e+17
19276.0	4.687565526750549e+17
19277.0	4.6866884257819296e+17
19278.0	4.685811263296853e+17
19279.0	4.684933656215551e+17
19280.0	4.6840443994548896e+17
19281.0	4.68317863289378e+17
19282.0	4.682301613015039e+17
19283.0	4.681416476459006e+17
19284.0	4.6805449392346445e+17
19285.0	4.6796447402338976e+17
19286.0	4.6787901521919994e+17
19287.0	4.6779119907635194e+17
19288.0	4.6767516638248954e+17
19289.0	4.675544096440318e+17
19290.0	4.67527673192994e+17
19291.0	4.6743617270360736e+17
19292.0	4.6735191661608954e+17
19293.0	4.6726389998551034e+17
19294.0	4.6717607650263034e+17
19295.0	4.6708811817287674e+17
19296.0	4.6699947868815354e+17
19297.0	4.669119181881343e+17
19298.0	4.668240976412671e+17
19299.0	4.6673525277545805e+17
19300.0	4.666477230336682e+17
19301.0	4.665597159800831e+17
19302.0	4.6647137268312736e+17
19303.0	4.663823515866453e+17
19304.0	4.6629471181428045e+17
19305.0	4.662069650172585e+17
19306.0	4.661187140648959e+17
19307.0	4.6603001585991674e+17
19308.0	4.6594197651019085e+17
19309.0	4.6585156234554016e+17
19310.0	4.657623239142057e+17
19311.0	4.6567586595689805e+17
19312.0	4.655880800829439e+17
19313.0	4.654994038281557e+17
19314.0	4.652122187147947e+17
19315.0	4.651371674468352e+17
19316.0	4.6523220848803834e+17
19317.0	4.651444992999423e+17
19318.0	4.650555922186239e+17
19319.0	4.6496665109353805e+17
19320.0	4.6487728089115296e+17
19321.0	4.6478791865794554e+17
19322.0	4.6469813559623674e+17
19323.0	4.6460929555387725e+17
19324.0	4.6452072625384096e+17
19325.0	4.644294635814911e+17
19326.0	4.643417838933332e+17
19327.0	4.64251917504785e+17
19328.0	4.6416118408369485e+17
19329.0	4.640727147479039e+17
19330.0	4.6392064382511795e+17
19331.0	4.637920872890368e+17
19332.0	4.637026824836437e+17
19333.0	4.63612621689105e+17
19334.0	4.6352225533951994e+17
19335.0	4.634294037250047e+17
19336.0	4.633413367627775e+17
19337.0	4.6325070736042656e+17
19338.0	4.630808597889023e+17
19339.0	4.629492818859348e+17
19340.0	4.6285478855092896e+17
19341.0	4.627643154563072e+17
19342.0	4.626688192632149e+17
19343.0	4.625829026507434e+17
19344.0	4.624899395376468e+17
19345.0	4.623661315129343e+17
19346.0	4.6229083599667194e+17
19347.0	4.622111877715284e+17
19348.0	4.621205385161387e+17
19349.0	4.62027374006545e+17
19350.0	4.619334605340671e+17
19351.0	4.618398333228372e+17
19352.0	4.6174445638778874e+17
19353.0	4.616520040011093e+17
19354.0	4.615575328959145e+17
19355.0	4.6146136778123936e+17
19356.0	4.6136744948531194e+17
19357.0	4.611823226934612e+17
19358.0	4.610542343116117e+17
19359.0	4.6095728220569594e+17
19360.0	4.6086035589474976e+17
19361.0	4.6076439364457805e+17
19362.0	4.606677225570304e+17
19363.0	4.605699894717098e+17
19364.0	4.604717783755434e+17
19365.0	4.603731282755584e+17
19366.0	4.6027393207719245e+17
19367.0	4.6017421194035194e+17
19368.0	4.60073934730035e+17
19369.0	4.598542721089536e+17
19370.0	4.596590565479764e+17
19371.0	4.594668611654997e+17
19372.0	4.5936341515851085e+17
19373.0	4.5925921550499834e+17
19374.0	4.5915424312087885e+17
19375.0	4.590483643476651e+17
19376.0	4.589417292016297e+17
19377.0	4.588340537982976e+17
19378.0	4.5871769807312205e+17
19379.0	4.5844249035407354e+17
19380.0	4.5833236624616096e+17
19381.0	4.582211340031317e+17
19382.0	4.5794537088832864e+17
19383.0	4.5779722450589005e+17
19384.0	4.576650447902035e+17
19385.0	4.574622912959829e+17
19386.0	4.5734282150980256e+17
19387.0	4.572216698077183e+17
19388.0	4.5709880508197536e+17
19389.0	4.569158743577943e+17
19390.0	4.5660766837145594e+17
19391.0	4.563903075844095e+17
19392.0	4.5633924074482336e+17
19393.0	4.5620464580908365e+17
19394.0	4.560237289799678e+17
19395.0	4.5563428540689056e+17
19396.0	4.554841698686292e+17
19397.0	4.553306658220714e+17
19398.0	4.5504951463444474e+17
19399.0	4.5465664354604365e+17
19400.0	4.5449459661100365e+17
19401.0	4.541502367727618e+17
19402.0	4.5373334588402336e+17
19403.0	4.535146710215339e+17
19404.0	4.5309880934509216e+17
19405.0	4.5287885459073696e+17
19406.0	4.52650913042705e+17
19407.0	4.5241331802439674e+17
19408.0	4.521543823873365e+17
19409.0	4.519098501300223e+17
19410.0	4.5164196105202336e+17
19411.0	4.5136209975268685e+17
19412.0	4.5106957403204256e+17
19413.0	4.5076311797923834e+17
19414.0	4.504424665142612e+17
19415.0	4.501081344879275e+17
19416.0	4.4975558855666336e+17
19417.0	4.493892842597033e+17
19418.0	4.490041666218666e+17
19419.0	4.4859855533506554e+17
19420.0	4.481724106233173e+17
19421.0	4.4772473731809274e+17
19422.0	4.4725471410476365e+17
19423.0	4.467660784577194e+17
19424.0	4.4625360196730874e+17
19425.0	4.4571722318697805e+17
19426.0	4.4515667724642976e+17
19427.0	4.445722742445398e+17
19428.0	4.439675876584106e+17
19429.0	4.433494767828991e+17
19430.0	4.427101606947499e+17
19431.0	4.4204223393082016e+17
19432.0	4.413646627842729e+17
19433.0	4.4066437689507834e+17
19434.0	4.3996028502452896e+17
19435.0	4.3926911182001485e+17
19436.0	4.385916041472682e+17
19437.0	4.3786737039005005e+17
19438.0	4.3696056130600954e+17
19439.0	4.362991621373954e+17
19440.0	4.3537213902465664e+17
19441.0	4.340597048825168e+17
19442.0	4.317250100832949e+17
19443.0	4.266140838658047e+17
19444.0	4.228070008771923e+17
19445.0	4.193350920612524e+17
19446.0	4.1559062373990406e+17
19447.0	4.111153562473811e+17
19448.0	3.9897579413395046e+17
19449.0	3.856752119032481e+17
19450.0	3.418387979960337e+17
19451.0	3.212640077392541e+17
19452.0	3.696716476841989e+17
19453.0	3.9242243593557376e+17
19454.0	4.059280151237937e+17
19455.0	4.130749155027625e+17
19456.0	4.167937063649281e+17
19457.0	4.2029087425822694e+17
19458.0	4.227617769826995e+17
19459.0	4.283241405437261e+17
19460.0	4.317564888940542e+17
19461.0	4.332657738863957e+17
19462.0	4.341618252098217e+17
19463.0	4.3487611560045216e+17
19464.0	4.354652841006421e+17
19465.0	4.360775147716607e+17
19466.0	4.365984797644117e+17
19467.0	4.371186188987051e+17
19468.0	4.3765561703792634e+17
19469.0	4.3819333002635936e+17
19470.0	4.387325895944874e+17
19471.0	4.3924125548980896e+17
19472.0	4.3972375535943674e+17
19473.0	4.4018613913736525e+17
19474.0	4.406313814239915e+17
19475.0	4.410478862270463e+17
19476.0	4.4146614711528096e+17
19477.0	4.4184824450471245e+17
19478.0	4.422054055684778e+17
19479.0	4.425372765869397e+17
19480.0	4.4284930267545594e+17
19481.0	4.4313906686634656e+17
19482.0	4.4340795397898234e+17
19483.0	4.436556244145493e+17
19484.0	4.438827617746944e+17
19485.0	4.4409020659793914e+17
19486.0	4.4427977991127034e+17
19487.0	4.4445514578875725e+17
19488.0	4.446145925349375e+17
19489.0	4.447569919519402e+17
19490.0	4.4486711018782714e+17
19491.0	4.450078261510143e+17
19492.0	4.451134370480127e+17
19493.0	4.4520770109439994e+17
19494.0	4.452913873857194e+17
19495.0	4.4536519336482125e+17
19496.0	4.454225699056298e+17
19497.0	4.4548505699614714e+17
19498.0	4.455637527647571e+17
19499.0	4.4565431561748474e+17
19500.0	4.458170320333482e+17
19501.0	4.461259585312082e+17
19502.0	4.4622310231681696e+17
19503.0	4.462266718792362e+17
19504.0	4.464618989333164e+17
19505.0	4.465363920792234e+17
19506.0	4.4652139380735994e+17
19507.0	4.465029157311828e+17
19508.0	4.466837685272573e+17
19509.0	4.467247482754389e+17
19510.0	4.46690332053777e+17
19511.0	4.463434166261075e+17
19512.0	4.46601245176627e+17
19513.0	4.4660769986095776e+17
19514.0	4.467404500019881e+17
19515.0	4.4671749863069005e+17
19516.0	4.466787219406847e+17
19517.0	4.466302018125823e+17
19518.0	4.4660831041181005e+17
19519.0	4.466275168987818e+17
19520.0	4.4657505076947616e+17
19521.0	4.4652319351330125e+17
19522.0	4.466301560946688e+17
19523.0	4.4659414974245536e+17
19524.0	4.465358105389738e+17
19525.0	4.466122951404204e+17
19526.0	4.465816264594772e+17
19527.0	4.4652119737412256e+17
19528.0	4.464601729073151e+17
19529.0	4.463982899363839e+17
19530.0	4.4633561123607885e+17
19531.0	4.462722161486506e+17
19532.0	4.462081462676139e+17
19533.0	4.461434234732543e+17
19534.0	4.46112929345263e+17
19535.0	4.4614890612763296e+17
19536.0	4.46082455839266e+17
19537.0	4.460694221094912e+17
19538.0	4.46088100323874e+17
19539.0	4.4601363178455034e+17
19540.0	4.459534693870249e+17
19541.0	4.45884083015953e+17
19542.0	4.458142496718847e+17
19543.0	4.4574317565269325e+17
19544.0	4.4567339194122234e+17
19545.0	4.455941515422378e+17
19546.0	4.4551677635024205e+17
19547.0	4.4545961770352634e+17
19548.0	4.4538766176201376e+17
19549.0	4.453142063568212e+17
19550.0	4.4524304684373325e+17
19551.0	4.452246404202496e+17
19552.0	4.452093331679914e+17
19553.0	4.451357395604821e+17
19554.0	4.450620840170836e+17
19555.0	4.449890873988436e+17
19556.0	4.449152185051818e+17
19557.0	4.4484107886919674e+17
19558.0	4.4476700088948045e+17
19559.0	4.446947528146944e+17
19560.0	4.4461977879183354e+17
19561.0	4.4454527914475514e+17
19562.0	4.444699565752318e+17
19563.0	4.443951285141502e+17
19564.0	4.44319821673267e+17
19565.0	4.442443590139904e+17
19566.0	4.44168430157824e+17
19567.0	4.440930046181375e+17
19568.0	4.4401715650232314e+17
19569.0	4.4394100129355085e+17
19570.0	4.438650520251051e+17
19571.0	4.4378882921813325e+17
19572.0	4.437124752692565e+17
19573.0	4.436357069231444e+17
19574.0	4.435587372504404e+17
19575.0	4.4348287515361274e+17
19576.0	4.4340614357756576e+17
19577.0	4.4332914517387936e+17
19578.0	4.432517151763114e+17
19579.0	4.431750877588137e+17
19580.0	4.4309801071192736e+17
19581.0	4.430209445003263e+17
19582.0	4.4294400034297165e+17
19583.0	4.428667184043348e+17
19584.0	4.4278923674692256e+17
19585.0	4.4271033930219514e+17
19586.0	4.4263239885783034e+17
19587.0	4.425565944326825e+17
19588.0	4.4247170619364685e+17
19589.0	4.4240164635716256e+17
19590.0	4.423223471680169e+17
19591.0	4.42246242570513e+17
19592.0	4.422286596986197e+17
19593.0	4.421971747362132e+17
19594.0	4.4211569681585485e+17
19595.0	4.420406723215359e+17
19596.0	4.4196145457179296e+17
19597.0	4.418848349836629e+17
19598.0	4.4179861756968954e+17
19599.0	4.4181402017245875e+17
19600.0	4.4173888914281805e+17
19601.0	4.416600154658132e+17
19602.0	4.4158143189483514e+17
19603.0	4.4149667325979296e+17
19604.0	4.414252188871338e+17
19605.0	4.413429826366121e+17
19606.0	4.4126880427322016e+17
19607.0	4.411904355205119e+17
19608.0	4.411119145844736e+17
19609.0	4.410331243741183e+17
19610.0	4.4095454401877325e+17
19611.0	4.408757510821204e+17
19612.0	4.407980172072276e+17
19613.0	4.407194778861568e+17
19614.0	4.4064092556274336e+17
19615.0	4.4056232269796685e+17
19616.0	4.4048254402996896e+17
19617.0	4.404042432249855e+17
19618.0	4.403167273243989e+17
19619.0	4.4023607064876365e+17
19620.0	4.4015791482688845e+17
19621.0	4.4008981421970765e+17
19622.0	4.400120525925034e+17
19623.0	4.399333984174079e+17
19624.0	4.398547385800021e+17
19625.0	4.3977606615968403e+17
19626.0	4.3969739122278394e+17
19627.0	4.3961869489493325e+17
19628.0	4.3953866282106874e+17
19629.0	4.394577206531413e+17
19630.0	4.393784729840297e+17
19631.0	4.39245503271185e+17
19632.0	4.3922514404966394e+17
19633.0	4.3914629819487565e+17
19634.0	4.390678172445355e+17
19635.0	4.3898893189338445e+17
19636.0	4.389094295601151e+17
19637.0	4.3882608999792634e+17
19638.0	4.387526637431466e+17
19639.0	4.386742997439827e+17
19640.0	4.3859350535536634e+17
19641.0	4.38495321592081e+17
19642.0	4.3843818119058765e+17
19643.0	4.383594689243817e+17
19644.0	4.38280225030144e+17
19645.0	4.381974969275732e+17
19646.0	4.3812227900593485e+17
19647.0	4.3804463614743885e+17
19648.0	4.3796601391895885e+17
19649.0	4.378872901184169e+17
19650.0	4.378086516719615e+17
19651.0	4.3772997547677e+17
19652.0	4.37651308089617e+17
19653.0	4.3757261546673485e+17
19654.0	4.374939815641087e+17
19655.0	4.3741525224106656e+17
