# Flux units: erg / (cm m2 s)
# Wavelength units: Angstrom
wave	flux
19000.0	5.906172513790633e+17
19001.0	5.905048117357225e+17
19002.0	5.903956188332031e+17
19003.0	5.902847775692116e+17
19004.0	5.901739369343657e+17
19005.0	5.900631787874986e+17
19006.0	5.899524229474986e+17
19007.0	5.89841144287505e+17
19008.0	5.897298352887124e+17
19009.0	5.896198275727359e+17
19010.0	5.895011390455805e+17
19011.0	5.89398249972258e+17
19012.0	5.892862076693161e+17
19013.0	5.891771720531967e+17
19014.0	5.890654873845759e+17
19015.0	5.889552044523519e+17
19016.0	5.888444193221289e+17
19017.0	5.887330282547882e+17
19018.0	5.886237741853354e+17
19019.0	5.885133546586112e+17
19020.0	5.884018212645546e+17
19021.0	5.882919951619411e+17
19022.0	5.881818720326996e+17
19023.0	5.880706521628671e+17
19024.0	5.879603193883306e+17
19025.0	5.878502860870995e+17
19026.0	5.877393338138624e+17
19027.0	5.876287565114025e+17
19028.0	5.875188101021695e+17
19029.0	5.874083233267711e+17
19030.0	5.872981278457855e+17
19031.0	5.871877338344106e+17
19032.0	5.870773854710442e+17
19033.0	5.869655338691241e+17
19034.0	5.868564530943316e+17
19035.0	5.867457489141759e+17
19036.0	5.865852963039913e+17
19037.0	5.865256871351635e+17
19038.0	5.86415028113681e+17
19039.0	5.863052050169855e+17
19040.0	5.861949684318208e+17
19041.0	5.860847249260544e+17
19042.0	5.859733344878591e+17
19043.0	5.858643681476608e+17
19044.0	5.85754132750882e+17
19045.0	5.856438849809065e+17
19046.0	5.855329155110228e+17
19047.0	5.854236062165673e+17
19048.0	5.853100462047231e+17
19049.0	5.852024074316458e+17
19050.0	5.850927342114131e+17
19051.0	5.849750295281663e+17
19052.0	5.848730045513728e+17
19053.0	5.847633667031039e+17
19054.0	5.846534029574143e+17
19055.0	5.84539296427759e+17
19056.0	5.844330913376938e+17
19057.0	5.843234848767999e+17
19058.0	5.841977778110463e+17
19059.0	5.840759536921257e+17
19060.0	5.839659497510228e+17
19061.0	5.838568154289492e+17
19062.0	5.837469326333267e+17
19063.0	5.836371997840724e+17
19064.0	5.835255474814976e+17
19065.0	5.834147800372564e+17
19066.0	5.833069572041385e+17
19067.0	5.83198287471138e+17
19068.0	5.830885799275178e+17
19069.0	5.829789369761791e+17
19070.0	5.828689333146963e+17
19071.0	5.827596621185023e+17
19072.0	5.826500656540329e+17
19073.0	5.825403920143699e+17
19074.0	5.824309215887359e+17
19075.0	5.823213744073386e+17
19076.0	5.822114696615252e+17
19077.0	5.821021952496979e+17
19078.0	5.819921622979924e+17
19079.0	5.8188340658176e+17
19080.0	5.817740426215423e+17
19081.0	5.816638223941631e+17
19082.0	5.815540929702569e+17
19083.0	5.814440498124116e+17
19084.0	5.813324711198719e+17
19085.0	5.812270507141801e+17
19086.0	5.811114973593599e+17
19087.0	5.81007010046498e+17
19088.0	5.808981088578217e+17
19089.0	5.807861470156115e+17
19090.0	5.806976638386175e+17
19091.0	5.805995443879935e+17
19092.0	5.804895301009407e+17
19093.0	5.803815221592063e+17
19094.0	5.80271858446063e+17
19095.0	5.801626024891731e+17
19096.0	5.800537034675539e+17
19097.0	5.799449564894548e+17
19098.0	5.798358844527956e+17
19099.0	5.797267786519894e+17
19100.0	5.79617707663906e+17
19101.0	5.795087462869674e+17
19102.0	5.793982219026432e+17
19103.0	5.792907706848595e+17
19104.0	5.791818068612436e+17
19105.0	5.790728665257299e+17
19106.0	5.78963676069888e+17
19107.0	5.788548047306751e+17
19108.0	5.787461661753344e+17
19109.0	5.786325370273791e+17
19110.0	5.785284574707712e+17
19111.0	5.784196555472895e+17
19112.0	5.783108603346944e+17
19113.0	5.782020829478911e+17
19114.0	5.780933376475136e+17
19115.0	5.779840976988842e+17
19116.0	5.778754892726272e+17
19117.0	5.777669676684628e+17
19118.0	5.776570034334378e+17
19119.0	5.774974133818707e+17
19120.0	5.774406756335615e+17
19121.0	5.773323605289642e+17
19122.0	5.772240427679744e+17
19123.0	5.771153405990228e+17
19124.0	5.770067044903593e+17
19125.0	5.768983770125652e+17
19126.0	5.767897049726973e+17
19127.0	5.76653824762402e+17
19128.0	5.765702821958995e+17
19129.0	5.764630078379348e+17
19130.0	5.7635589048674976e+17
19131.0	5.762476266225664e+17
19132.0	5.7613921868404045e+17
19133.0	5.76020625227776e+17
19134.0	5.7591650253974176e+17
19135.0	5.758096409711956e+17
19136.0	5.757014236637866e+17
19137.0	5.7559042252690765e+17
19138.0	5.7548417731133434e+17
19139.0	5.753765330157568e+17
19140.0	5.7526832773201914e+17
19141.0	5.7516012496486394e+17
19142.0	5.750515238087338e+17
19143.0	5.7494284918237856e+17
19144.0	5.7483523319835296e+17
19145.0	5.747275462606847e+17
19146.0	5.746100752001705e+17
19147.0	5.745100073555284e+17
19148.0	5.7440328301062816e+17
19149.0	5.742952647229439e+17
19150.0	5.7418708663227725e+17
19151.0	5.7407926631574176e+17
19152.0	5.7397025530620576e+17
19153.0	5.7386097418349216e+17
19154.0	5.7375135709702816e+17
19155.0	5.7364551586283514e+17
19156.0	5.735375732823379e+17
19157.0	5.7342968543750816e+17
19158.0	5.7331853393483085e+17
19159.0	5.732137005219839e+17
19160.0	5.731058791568726e+17
19161.0	5.729981163023018e+17
19162.0	5.728831237259263e+17
19163.0	5.7278286056652794e+17
19164.0	5.7267526835022496e+17
19165.0	5.725675784066388e+17
19166.0	5.72458183828002e+17
19167.0	5.723516448014334e+17
19168.0	5.722425879341737e+17
19169.0	5.721358927396863e+17
19170.0	5.7202937929837216e+17
19171.0	5.719213645059411e+17
19172.0	5.7181419794158925e+17
19173.0	5.7170662012573005e+17
19174.0	5.715981516494164e+17
19175.0	5.7149154083034445e+17
19176.0	5.7138401740062714e+17
19177.0	5.7127409378044576e+17
19178.0	5.711689487308115e+17
19179.0	5.710609485485397e+17
19180.0	5.7095330152666445e+17
19181.0	5.7084493825747616e+17
19182.0	5.7073835763739296e+17
19183.0	5.7063204922763936e+17
19184.0	5.705229232242687e+17
19185.0	5.704172463368874e+17
19186.0	5.703100152501588e+17
19187.0	5.702014949741908e+17
19188.0	5.700953573425151e+17
19189.0	5.699880413211305e+17
19190.0	5.6988133431268685e+17
19191.0	5.6978431621638816e+17
19192.0	5.696775341998079e+17
19193.0	5.695698845914452e+17
19194.0	5.694627694772223e+17
19195.0	5.693558305237673e+17
19196.0	5.6924856070963194e+17
19197.0	5.6914139966778016e+17
19198.0	5.690343862654292e+17
19199.0	5.688828227136169e+17
19200.0	5.687924653118805e+17
19201.0	5.687130539950078e+17
19202.0	5.686059984399018e+17
19203.0	5.684989361040042e+17
19204.0	5.683914520308394e+17
19205.0	5.6828496773993805e+17
19206.0	5.681776260633941e+17
19207.0	5.6806964223890746e+17
19208.0	5.679600960361813e+17
19209.0	5.678566521263443e+17
19210.0	5.677498116691285e+17
19211.0	5.676428153236137e+17
19212.0	5.675359643806377e+17
19213.0	5.674274271177385e+17
19214.0	5.673202997002239e+17
19215.0	5.672150671993513e+17
19216.0	5.671078570841428e+17
19217.0	5.6700142864738976e+17
19218.0	5.6688229699201696e+17
19219.0	5.6678548532538016e+17
19220.0	5.666804623299924e+17
19221.0	5.6656977443771725e+17
19222.0	5.664676292941141e+17
19223.0	5.6636420677522765e+17
19224.0	5.6625596437189965e+17
19225.0	5.661480537380179e+17
19226.0	5.6604344576901114e+17
19227.0	5.65935826080017e+17
19228.0	5.6582954877801805e+17
19229.0	5.657227734024192e+17
19230.0	5.656159534273876e+17
19231.0	5.6550911164197536e+17
19232.0	5.65401854410752e+17
19233.0	5.652946729566207e+17
19234.0	5.65188722111283e+17
19235.0	5.650820666927786e+17
19236.0	5.6497575737425894e+17
19237.0	5.6486881702270285e+17
19238.0	5.647339464512852e+17
19239.0	5.646193608622079e+17
19240.0	5.64508615577873e+17
19241.0	5.6440462598908576e+17
19242.0	5.6429893071667194e+17
19243.0	5.641897707394387e+17
19244.0	5.64085953536546e+17
19245.0	5.639793656463358e+17
19246.0	5.638725065943722e+17
19247.0	5.637660726351189e+17
19248.0	5.636645358753109e+17
19249.0	5.635665810511188e+17
19250.0	5.6345969047197e+17
19251.0	5.633520670780073e+17
19252.0	5.632412285403135e+17
19253.0	5.63139790835985e+17
19254.0	5.63032901095697e+17
19255.0	5.6292345996028576e+17
19256.0	5.6282004932526074e+17
19257.0	5.627136455649962e+17
19258.0	5.626023525045589e+17
19259.0	5.6248440021756576e+17
19260.0	5.623784182644735e+17
19261.0	5.622724532983124e+17
19262.0	5.621649166565375e+17
19263.0	5.6205832890613754e+17
19264.0	5.619442587271166e+17
19265.0	5.618426840088575e+17
19266.0	5.617365299494911e+17
19267.0	5.616325326012415e+17
19268.0	5.6152584474678605e+17
19269.0	5.614191550747988e+17
19270.0	5.613124278637908e+17
19271.0	5.6120046532253005e+17
19272.0	5.610984132924756e+17
19273.0	5.6088225396381e+17
19274.0	5.6083313726586854e+17
19275.0	5.6077868583266976e+17
19276.0	5.6067155016635725e+17
19277.0	5.605648445560147e+17
19278.0	5.6045834125093536e+17
19279.0	5.603509386870783e+17
19280.0	5.602433033393492e+17
19281.0	5.601373376741375e+17
19282.0	5.600306415708842e+17
19283.0	5.5992298560116045e+17
19284.0	5.5981544504470176e+17
19285.0	5.597062452215807e+17
19286.0	5.596022580794709e+17
19287.0	5.594957286298964e+17
19288.0	5.5937778039739725e+17
19289.0	5.592464473019732e+17
19290.0	5.591754679342421e+17
19291.0	5.590639730578773e+17
19292.0	5.589609984906581e+17
19293.0	5.588535736270847e+17
19294.0	5.587446287477417e+17
19295.0	5.5863664247657805e+17
19296.0	5.5852894008989005e+17
19297.0	5.584215474525524e+17
19298.0	5.583136583494313e+17
19299.0	5.5820523859694925e+17
19300.0	5.580946554224639e+17
19301.0	5.5798682559883936e+17
19302.0	5.5787908937809914e+17
19303.0	5.577697375114581e+17
19304.0	5.5766247643545594e+17
19305.0	5.5755527128350714e+17
19306.0	5.5744819951042554e+17
19307.0	5.573394992289108e+17
19308.0	5.572318175341226e+17
19309.0	5.5712275402588154e+17
19310.0	5.5701332379566074e+17
19311.0	5.5690656729442976e+17
19312.0	5.567983975224662e+17
19313.0	5.56688637689856e+17
19314.0	5.565525107146751e+17
19315.0	5.5644633547407366e+17
19316.0	5.5636370600755194e+17
19317.0	5.562546362777599e+17
19318.0	5.561454231027711e+17
19319.0	5.560364459971924e+17
19320.0	5.559267178315775e+17
19321.0	5.5579545338292896e+17
19322.0	5.5565824609484794e+17
19323.0	5.555498831052799e+17
19324.0	5.5544071543848954e+17
19325.0	5.553294262228309e+17
19326.0	5.5522041493367456e+17
19327.0	5.551097204703232e+17
19328.0	5.5499699491525965e+17
19329.0	5.5488529745401165e+17
19330.0	5.547743337862483e+17
19331.0	5.5466348119763616e+17
19332.0	5.5455291619846816e+17
19333.0	5.544414079003305e+17
19334.0	5.543292450810537e+17
19335.0	5.542166591264084e+17
19336.0	5.541051920023551e+17
19337.0	5.539926777004032e+17
19338.0	5.5389572867031034e+17
19339.0	5.538025935208447e+17
19340.0	5.536885576652117e+17
19341.0	5.5357600533490336e+17
19342.0	5.534559533793279e+17
19343.0	5.533482251976703e+17
19344.0	5.5323381283334816e+17
19345.0	5.530835773379924e+17
19346.0	5.5299564613140474e+17
19347.0	5.528874830703274e+17
19348.0	5.5277282575865165e+17
19349.0	5.5265623759912954e+17
19350.0	5.525398481797119e+17
19351.0	5.5242268805693434e+17
19352.0	5.523044437764777e+17
19353.0	5.521876334586537e+17
19354.0	5.5206908837669536e+17
19355.0	5.5194860468742816e+17
19356.0	5.518220209422334e+17
19357.0	5.516935302567252e+17
19358.0	5.5157244734122643e+17
19359.0	5.514463025299455e+17
19360.0	5.513252456191317e+17
19361.0	5.511942459009706e+17
19362.0	5.5101905373757434e+17
19363.0	5.508947493868884e+17
19364.0	5.5076990117478394e+17
19365.0	5.506444501013845e+17
19366.0	5.5051769627716256e+17
19367.0	5.503901768526505e+17
19368.0	5.5026151238314656e+17
19369.0	5.5014273472703136e+17
19370.0	5.500292992161108e+17
19371.0	5.4990953149453645e+17
19372.0	5.497774012716372e+17
19373.0	5.4964284240691194e+17
19374.0	5.4950318697349114e+17
19375.0	5.4936400528670714e+17
19376.0	5.492257299191124e+17
19377.0	5.490381895150251e+17
19378.0	5.488707916267519e+17
19379.0	5.4871760781530445e+17
19380.0	5.485721773146111e+17
19381.0	5.484246479841961e+17
19382.0	5.4828555367874554e+17
19383.0	5.4817224749219834e+17
19384.0	5.480136981872639e+17
19385.0	5.478564062647636e+17
19386.0	5.476130512786772e+17
19387.0	5.4744975024674125e+17
19388.0	5.472863601557504e+17
19389.0	5.471024234277545e+17
19390.0	5.4696419014301005e+17
19391.0	5.467496182185982e+17
19392.0	5.4652846766817274e+17
19393.0	5.463462945751039e+17
19394.0	5.4616103181789856e+17
19395.0	5.4597676569722874e+17
19396.0	5.456938772288852e+17
19397.0	5.454857971083945e+17
19398.0	5.45276126437922e+17
19399.0	5.450013526196221e+17
19400.0	5.4471375576541856e+17
19401.0	5.4445816152064e+17
19402.0	5.441342244476244e+17
19403.0	5.438987506985642e+17
19404.0	5.435092708447569e+17
19405.0	5.4329143155752954e+17
19406.0	5.429232498201941e+17
19407.0	5.4274407243885216e+17
19408.0	5.4245237467381754e+17
19409.0	5.421809854491305e+17
19410.0	5.418463463997439e+17
19411.0	5.4147402530379085e+17
19412.0	5.4107521724798285e+17
19413.0	5.4071670394060794e+17
19414.0	5.4034074002172576e+17
19415.0	5.399433618041515e+17
19416.0	5.3955209524674554e+17
19417.0	5.390106182899027e+17
19418.0	5.385474482197845e+17
19419.0	5.380371820576768e+17
19420.0	5.3740594126301856e+17
19421.0	5.3685095480251725e+17
19422.0	5.361181025894398e+17
19423.0	5.3543356938758816e+17
19424.0	5.345548612315817e+17
19425.0	5.33642972705587e+17
19426.0	5.3259766882194765e+17
19427.0	5.314371591514798e+17
19428.0	5.301498430881792e+17
19429.0	5.2873233792587117e+17
19430.0	5.270148885774336e+17
19431.0	5.2572920116237696e+17
19432.0	5.249437193120422e+17
19433.0	5.237230565414228e+17
19434.0	5.2198695002002765e+17
19435.0	5.202807029585236e+17
19436.0	5.184039730981546e+17
19437.0	5.1623508025453203e+17
19438.0	5.134192311184037e+17
19439.0	5.105763574524589e+17
19440.0	5.069971242265255e+17
19441.0	5.021858425121441e+17
19442.0	4.98067116864307e+17
19443.0	4.947296616360615e+17
19444.0	4.892598788773202e+17
19445.0	4.830070642311169e+17
19446.0	4.7454544122784486e+17
19447.0	4.657245727315277e+17
19448.0	4.5423234160175814e+17
19449.0	4.3740736457277446e+17
19450.0	4.045699997324617e+17
19451.0	3.9502473327192666e+17
19452.0	4.222669711649454e+17
19453.0	4.4688062720682726e+17
19454.0	4.602160013290148e+17
19455.0	4.694796461408246e+17
19456.0	4.785017556653405e+17
19457.0	4.852946216943614e+17
19458.0	4.9097401150996486e+17
19459.0	4.953060558241788e+17
19460.0	4.9821890229480006e+17
19461.0	5.030600658386943e+17
19462.0	5.069696497177942e+17
19463.0	5.099028910615208e+17
19464.0	5.1257467955664224e+17
19465.0	5.1484534767616006e+17
19466.0	5.166117119765161e+17
19467.0	5.1815826217151136e+17
19468.0	5.19719635456273e+17
19469.0	5.2104185882432826e+17
19470.0	5.217458124925614e+17
19471.0	5.225087967952897e+17
19472.0	5.2394636499135206e+17
19473.0	5.252860047873367e+17
19474.0	5.264302510440447e+17
19475.0	5.27394830653849e+17
19476.0	5.283427054693037e+17
19477.0	5.290875440944467e+17
19478.0	5.297905225170943e+17
19479.0	5.303044059168767e+17
19480.0	5.3086342359285766e+17
19481.0	5.3128095397314534e+17
19482.0	5.316711381904042e+17
19483.0	5.3203523530478925e+17
19484.0	5.3231720144568314e+17
19485.0	5.326093083650729e+17
19486.0	5.3287879729042765e+17
19487.0	5.33060674265634e+17
19488.0	5.332512934286676e+17
19489.0	5.3340742366877005e+17
19490.0	5.335288136073215e+17
19491.0	5.3377008234659834e+17
19492.0	5.338988762103807e+17
19493.0	5.3403704147749536e+17
19494.0	5.34080686076723e+17
19495.0	5.341651370595666e+17
19496.0	5.341435255586815e+17
19497.0	5.343095662400851e+17
19498.0	5.343255961709223e+17
19499.0	5.3441868972687334e+17
19500.0	5.345221191663613e+17
19501.0	5.3463537837670394e+17
19502.0	5.3465859818345805e+17
19503.0	5.3474992719571616e+17
19504.0	5.3481298219499514e+17
19505.0	5.348220442684073e+17
19506.0	5.348131877158911e+17
19507.0	5.348919774369109e+17
19508.0	5.348738347652436e+17
19509.0	5.348554453286911e+17
19510.0	5.3482887322446496e+17
19511.0	5.347838137466878e+17
19512.0	5.348644649697279e+17
19513.0	5.347734192127998e+17
19514.0	5.34740837020467e+17
19515.0	5.347192426463232e+17
19516.0	5.346841933643775e+17
19517.0	5.346466132393983e+17
19518.0	5.3467189098141e+17
19519.0	5.346216104340138e+17
19520.0	5.345752731615232e+17
19521.0	5.3450914450636794e+17
19522.0	5.344179909558272e+17
19523.0	5.343604244829524e+17
19524.0	5.343006028726272e+17
19525.0	5.342383225612971e+17
19526.0	5.3417956001273165e+17
19527.0	5.341318095394133e+17
19528.0	5.341263875626324e+17
19529.0	5.3405679902610765e+17
19530.0	5.339872467004074e+17
19531.0	5.339193551093759e+17
19532.0	5.3385251384197114e+17
19533.0	5.3378005549274445e+17
19534.0	5.337066939001513e+17
19535.0	5.3363249302732794e+17
19536.0	5.3355706951488845e+17
19537.0	5.334698396658345e+17
19538.0	5.333666121820842e+17
19539.0	5.332800642569557e+17
19540.0	5.3321102440529914e+17
19541.0	5.3313263538012154e+17
19542.0	5.3305298904241485e+17
19543.0	5.3297273830550176e+17
19544.0	5.3289182416950605e+17
19545.0	5.328051979507028e+17
19546.0	5.327125730383188e+17
19547.0	5.326520070089385e+17
19548.0	5.326168811809451e+17
19549.0	5.3253161978866336e+17
19550.0	5.324492532350975e+17
19551.0	5.3236487299618125e+17
19552.0	5.322798852123306e+17
19553.0	5.321942248718335e+17
19554.0	5.3210795481934496e+17
19555.0	5.320220790314325e+17
19556.0	5.3193555298658976e+17
19557.0	5.3185062588033696e+17
19558.0	5.317762600315562e+17
19559.0	5.3168910463139834e+17
19560.0	5.3160524854067194e+17
19561.0	5.3151721995632634e+17
19562.0	5.314292043743232e+17
19563.0	5.313404716362409e+17
19564.0	5.3125161915077965e+17
19565.0	5.311624501351766e+17
19566.0	5.310728391098366e+17
19567.0	5.309833463638698e+17
19568.0	5.3089308752827725e+17
19569.0	5.3080339492372474e+17
19570.0	5.307132606589611e+17
19571.0	5.306227902207315e+17
19572.0	5.3053163394389325e+17
19573.0	5.3044111520126285e+17
19574.0	5.303486891687936e+17
19575.0	5.302591939062442e+17
19576.0	5.3016792298509645e+17
19577.0	5.300748673875967e+17
19578.0	5.299838611270313e+17
19579.0	5.2989240670508365e+17
19580.0	5.298006513418239e+17
19581.0	5.2970862013317114e+17
19582.0	5.2961679402598394e+17
19583.0	5.2952453772301645e+17
19584.0	5.294321804072276e+17
19585.0	5.2933787924125005e+17
19586.0	5.2924476415453856e+17
19587.0	5.291539300002474e+17
19588.0	5.2905381951351456e+17
19589.0	5.2896840523885216e+17
19590.0	5.2887421696955725e+17
19591.0	5.2878224853565434e+17
19592.0	5.286890861931178e+17
19593.0	5.285955337104042e+17
19594.0	5.2849859118148256e+17
19595.0	5.284089050781012e+17
19596.0	5.283069640572926e+17
19597.0	5.2822203324607136e+17
19598.0	5.281239363747839e+17
19599.0	5.2802130441229645e+17
19600.0	5.2791348724148896e+17
19601.0	5.2781866703039136e+17
19602.0	5.2772532342401696e+17
19603.0	5.2762510933797536e+17
19604.0	5.275375236022271e+17
19605.0	5.2743936752134816e+17
19606.0	5.2735014950229325e+17
19607.0	5.272562918839636e+17
19608.0	5.2716207341568e+17
19609.0	5.27067221397777e+17
19610.0	5.2697396615140685e+17
19611.0	5.268796777780564e+17
19612.0	5.2678555633800525e+17
19613.0	5.266910853027157e+17
19614.0	5.2659632527988045e+17
19615.0	5.265026815710547e+17
19616.0	5.2640794307898003e+17
19617.0	5.2631391181646496e+17
19618.0	5.2621132333492896e+17
19619.0	5.2611340115640314e+17
19620.0	5.260182698677588e+17
19621.0	5.259339827423913e+17
19622.0	5.258394789915306e+17
19623.0	5.257449613994666e+17
19624.0	5.256505197243049e+17
19625.0	5.255558367368532e+17
19626.0	5.2546126615674874e+17
19627.0	5.253666634902185e+17
19628.0	5.252710434253481e+17
19629.0	5.2517601678458874e+17
19630.0	5.2508231638275405e+17
19631.0	5.249396993512788e+17
19632.0	5.2489341359882234e+17
19633.0	5.247981947890345e+17
19634.0	5.2470405265708365e+17
19635.0	5.2460870291510605e+17
19636.0	5.245146576016723e+17
19637.0	5.2441367539875834e+17
19638.0	5.243250576545108e+17
19639.0	5.2423028959259296e+17
19640.0	5.2413468539617274e+17
19641.0	5.240296970736982e+17
19642.0	5.239463282911913e+17
19643.0	5.2385107802412365e+17
19644.0	5.2375571863524685e+17
19645.0	5.236576440636757e+17
19646.0	5.235671776100351e+17
19647.0	5.234724112957439e+17
19648.0	5.233776462397439e+17
19649.0	5.2328283252981754e+17
19650.0	5.231880936183124e+17
19651.0	5.230933045848747e+17
19652.0	5.229985554672298e+17
19653.0	5.2290375280230394e+17
19654.0	5.2280901808510285e+17
19655.0	5.227141900446377e+17
19656.0	5.2261936291293856e+17
19657.0	5.225247224277674e+17
