# Flux units: erg / (cm m2 s)
# Wavelength units: Angstrom
wave	flux
19000.0	6.803182475455146e+17
19001.0	6.801848398075219e+17
19002.0	6.800662375432191e+17
19003.0	6.79939996193041e+17
19004.0	6.798137836437503e+17
19005.0	6.796878490370047e+17
19006.0	6.795616652886015e+17
19007.0	6.794318123630592e+17
19008.0	6.793046811213823e+17
19009.0	6.791768030838783e+17
19010.0	6.790218982096893e+17
19011.0	6.789274733816489e+17
19012.0	6.787852351657299e+17
19013.0	6.786767759867903e+17
19014.0	6.785462175793151e+17
19015.0	6.784214089334783e+17
19016.0	6.782940635725824e+17
19017.0	6.78171275043362e+17
19018.0	6.780436511107753e+17
19019.0	6.779180212901204e+17
19020.0	6.777901275239763e+17
19021.0	6.776652463166804e+17
19022.0	6.77539776438818e+17
19023.0	6.774101402888873e+17
19024.0	6.772846399324159e+17
19025.0	6.771588687637161e+17
19026.0	6.770299731181568e+17
19027.0	6.768927916250452e+17
19028.0	6.76779590296098e+17
19029.0	6.766527164448767e+17
19030.0	6.765273387018921e+17
19031.0	6.764007265752404e+17
19032.0	6.762740808941567e+17
19033.0	6.761406605732521e+17
19034.0	6.76019569828386e+17
19035.0	6.758957130099369e+17
19036.0	6.748287799394301e+17
19037.0	6.75650243535394e+17
19038.0	6.755235641600681e+17
19039.0	6.753988431052799e+17
19040.0	6.752721768022015e+17
19041.0	6.751454346521257e+17
19042.0	6.750111450617172e+17
19043.0	6.748920813540691e+17
19044.0	6.747651804495872e+17
19045.0	6.746385953761962e+17
19046.0	6.745080680764756e+17
19047.0	6.743839954610857e+17
19048.0	6.74242979115827e+17
19049.0	6.74125404386099e+17
19050.0	6.740014606057472e+17
19051.0	6.737301294022653e+17
19052.0	6.737268511342591e+17
19053.0	6.736235512987647e+17
19054.0	6.734977645412351e+17
19055.0	6.733520019914751e+17
19056.0	6.732426893415764e+17
19057.0	6.731169052404393e+17
19058.0	6.729885774337363e+17
19059.0	6.72863975846707e+17
19060.0	6.72735544021265e+17
19061.0	6.726105659954516e+17
19062.0	6.724834404859903e+17
19063.0	6.723568264719018e+17
19064.0	6.722216739034452e+17
19065.0	6.72090332069888e+17
19066.0	6.719722683542185e+17
19067.0	6.718498880705876e+17
19068.0	6.717232295269716e+17
19069.0	6.715965447689555e+17
19070.0	6.714679873241088e+17
19071.0	6.713431056274772e+17
19072.0	6.712163669027497e+17
19073.0	6.710892431409151e+17
19074.0	6.709629201416191e+17
19075.0	6.708361944891391e+17
19076.0	6.707079175034195e+17
19077.0	6.705817515808084e+17
19078.0	6.704540570441044e+17
19079.0	6.703292012123476e+17
19080.0	6.702013711297193e+17
19081.0	6.700730274545663e+17
19082.0	6.699458707674452e+17
19083.0	6.698143211061247e+17
19084.0	6.696783963663017e+17
19085.0	6.695690403752617e+17
19086.0	6.694135129265491e+17
19087.0	6.692881727225855e+17
19088.0	6.691818216707412e+17
19089.0	6.690347655976276e+17
19090.0	6.689329421571411e+17
19091.0	6.688067823861759e+17
19092.0	6.686721471851177e+17
19093.0	6.685557714670931e+17
19094.0	6.684289514427732e+17
19095.0	6.683022699702953e+17
19096.0	6.681747836108799e+17
19097.0	6.680492702520659e+17
19098.0	6.679225529881939e+17
19099.0	6.677958837491027e+17
19100.0	6.676677736267775e+17
19101.0	6.675429143696723e+17
19102.0	6.674091384416938e+17
19103.0	6.672899402366975e+17
19104.0	6.671633520874836e+17
19105.0	6.670359462587049e+17
19106.0	6.669052263006207e+17
19107.0	6.667821422127785e+17
19108.0	6.666563758675284e+17
19109.0	6.664521267544061e+17
19110.0	6.664008729886719e+17
19111.0	6.662771416498175e+17
19112.0	6.661507150512127e+17
19113.0	6.660244880315732e+17
19114.0	6.658978378066601e+17
19115.0	6.657662808752128e+17
19116.0	6.656432545289556e+17
19117.0	6.655167586544297e+17
19118.0	6.653817136698708e+17
19119.0	6.649583497816741e+17
19120.0	6.651299428827135e+17
19121.0	6.650065856757759e+17
19122.0	6.648860966737236e+17
19123.0	6.647595856997034e+17
19124.0	6.646282764419071e+17
19125.0	6.645060773522089e+17
19126.0	6.643796130747731e+17
19127.0	6.64124776391202e+17
19128.0	6.641050929419603e+17
19129.0	6.639947567420755e+17
19130.0	6.638730453800275e+17
19131.0	6.63747882595123e+17
19132.0	6.636213608557225e+17
19133.0	6.634830946456916e+17
19134.0	6.633583979877716e+17
19135.0	6.6324178417309e+17
19136.0	6.631160868940457e+17
19137.0	6.629777069484714e+17
19138.0	6.628616331504297e+17
19139.0	6.627368191219027e+17
19140.0	6.626105816165034e+17
19141.0	6.624841991979007e+17
19142.0	6.623559673009492e+17
19143.0	6.622274536865791e+17
19144.0	6.621022676232873e+17
19145.0	6.619785192975017e+17
19146.0	6.618083076603904e+17
19147.0	6.617186436470099e+17
19148.0	6.615988443283455e+17
19149.0	6.614725718704127e+17
19150.0	6.613461704376319e+17
19151.0	6.612204516278271e+17
19152.0	6.610927835152383e+17
19153.0	6.609657105743871e+17
19154.0	6.608318223788714e+17
19155.0	6.607148999333203e+17
19156.0	6.605881661718527e+17
19157.0	6.604595753822889e+17
19158.0	6.602832449546921e+17
19159.0	6.602070485019306e+17
19160.0	6.600816389521405e+17
19161.0	6.599539785990141e+17
19162.0	6.597088152387584e+17
19163.0	6.596994278271657e+17
19164.0	6.595773463177897e+17
19165.0	6.594481974061737e+17
19166.0	6.593136041481555e+17
19167.0	6.591868956923219e+17
19168.0	6.590701071848788e+17
19169.0	6.589424538222591e+17
19170.0	6.588190679542442e+17
19171.0	6.586857294222676e+17
19172.0	6.585661421256703e+17
19173.0	6.584398794544468e+17
19174.0	6.583096036731562e+17
19175.0	6.581874606473215e+17
19176.0	6.580610260096339e+17
19177.0	6.579232669608617e+17
19178.0	6.57804700557858e+17
19179.0	6.576716888320682e+17
19180.0	6.575535681437695e+17
19181.0	6.57420216120115e+17
19182.0	6.573006599312723e+17
19183.0	6.571755215432362e+17
19184.0	6.570473166296404e+17
19185.0	6.569218067660799e+17
19186.0	6.567955708684969e+17
19187.0	6.566637036983636e+17
19188.0	6.565423441685162e+17
19189.0	6.564152768200704e+17
19190.0	6.562879898998099e+17
19191.0	6.561592454589097e+17
19192.0	6.560361108996095e+17
19193.0	6.559087399534592e+17
19194.0	6.557815132913663e+17
19195.0	6.556557770751999e+17
19196.0	6.5552780899997e+17
19197.0	6.554000009374378e+17
19198.0	6.552683108368381e+17
19199.0	6.544242878971901e+17
19200.0	6.545163864943276e+17
19201.0	6.548890592826708e+17
19202.0	6.547671778415956e+17
19203.0	6.546397012688895e+17
19204.0	6.545132810316457e+17
19205.0	6.543876329657684e+17
19206.0	6.542607449937236e+17
19207.0	6.541275179603284e+17
19208.0	6.539925274318163e+17
19209.0	6.538802252218367e+17
19210.0	6.537542592277161e+17
19211.0	6.536133552198995e+17
19212.0	6.532481024349523e+17
19213.0	6.5311023314589e+17
19214.0	6.529787758291626e+17
19215.0	6.528634869951146e+17
19216.0	6.527389746768553e+17
19217.0	6.526117290704896e+17
19218.0	6.524243658058408e+17
19219.0	6.523454947153235e+17
19220.0	6.522278103045459e+17
19221.0	6.520785300619263e+17
19222.0	6.51974009753873e+17
19223.0	6.518460481798143e+17
19224.0	6.51715712000546e+17
19225.0	6.515810273766057e+17
19226.0	6.514621674422271e+17
19227.0	6.513341784653823e+17
19228.0	6.512084110016511e+17
19229.0	6.510804652960425e+17
19230.0	6.509514273936723e+17
19231.0	6.508229219581951e+17
19232.0	6.506956681729363e+17
19233.0	6.505630517602985e+17
19234.0	6.50438355451904e+17
19235.0	6.503101998213802e+17
19236.0	6.501835092612436e+17
19237.0	6.500539468611583e+17
19238.0	6.499190227424596e+17
19239.0	6.49798251323938e+17
19240.0	6.496667072550228e+17
19241.0	6.495384030063274e+17
19242.0	6.494109437700777e+17
19243.0	6.492710480030377e+17
19244.0	6.49154615312384e+17
19245.0	6.490256224987817e+17
19246.0	6.488953919460691e+17
19247.0	6.48767327961088e+17
19248.0	6.486381640198825e+17
19249.0	6.485086217524563e+17
19250.0	6.483778650243071e+17
19251.0	6.48240819286835e+17
19252.0	6.480994311864317e+17
19253.0	6.479886940110847e+17
19254.0	6.478602064013993e+17
19255.0	6.477170972382548e+17
19256.0	6.475978863804415e+17
19257.0	6.474705420681216e+17
19258.0	6.473402080559103e+17
19259.0	6.472045313392637e+17
19260.0	6.470614202886825e+17
19261.0	6.469483494724948e+17
19262.0	6.468135344756052e+17
19263.0	6.466824857539923e+17
19264.0	6.465166391989588e+17
19265.0	6.464104656360788e+17
19266.0	6.462794035625983e+17
19267.0	6.461620656712361e+17
19268.0	6.460304658879828e+17
19269.0	6.45813796601856e+17
19270.0	6.454575249402537e+17
19271.0	6.453007512939178e+17
19272.0	6.451896111158612e+17
19273.0	6.44963540087603e+17
19274.0	6.44860798513971e+17
19275.0	6.447928380664489e+17
19276.0	6.446579457545556e+17
19277.0	6.445245847830527e+17
19278.0	6.443909485953023e+17
19279.0	6.442559157043199e+17
19280.0	6.441169068228607e+17
19281.0	6.439873191870463e+17
19282.0	6.438536597209087e+17
19283.0	6.437082933930666e+17
19284.0	6.435741723437737e+17
19285.0	6.434338930076329e+17
19286.0	6.433094520624468e+17
19287.0	6.431759240178346e+17
19288.0	6.427789756465147e+17
19289.0	6.422928266625012e+17
19290.0	6.427662601945087e+17
19291.0	6.426104468340736e+17
19292.0	6.424921551579817e+17
19293.0	6.423538939112106e+17
19294.0	6.422156116929194e+17
19295.0	6.420781243651412e+17
19296.0	6.4174637959523e+17
19297.0	6.414238547443711e+17
19298.0	6.412829230541482e+17
19299.0	6.411433807970303e+17
19300.0	6.410019567654227e+17
19301.0	6.408598575906816e+17
19302.0	6.407170591555583e+17
19303.0	6.405701851152383e+17
19304.0	6.404299945585322e+17
19305.0	6.402878422559402e+17
19306.0	6.40144412578065e+17
19307.0	6.399965675563689e+17
19308.0	6.39853203169826e+17
19309.0	6.396847285338111e+17
19310.0	6.39530180944418e+17
19311.0	6.394131344173737e+17
19312.0	6.391833221398528e+17
19313.0	6.386747220251988e+17
19314.0	6.377442753118209e+17
19315.0	6.376446134758067e+17
19316.0	6.382201994215423e+17
19317.0	6.380708173272404e+17
19318.0	6.379176536484521e+17
19319.0	6.377656000621226e+17
19320.0	6.376111753658367e+17
19321.0	6.374561687098708e+17
19322.0	6.372934402703359e+17
19323.0	6.371333240433321e+17
19324.0	6.367439953941841e+17
19325.0	6.365398746267647e+17
19326.0	6.36401108525602e+17
19327.0	6.362390522931882e+17
19328.0	6.360769868333055e+17
19329.0	6.359140539913556e+17
19330.0	6.357465518746281e+17
19331.0	6.355803186047657e+17
19332.0	6.35416391852578e+17
19333.0	6.352486885490687e+17
19334.0	6.35079573512738e+17
19335.0	6.349084729627988e+17
19336.0	6.347381162726739e+17
19337.0	6.345652140594516e+17
19338.0	6.343765848140457e+17
19339.0	6.342160334979071e+17
19340.0	6.340336685154303e+17
19341.0	6.338590588010496e+17
19342.0	6.336536895291391e+17
19343.0	6.335001438890666e+17
19344.0	6.333169327756628e+17
19345.0	6.329951670239227e+17
19346.0	6.328868332546729e+17
19347.0	6.327540357879123e+17
19348.0	6.325701487624191e+17
19349.0	6.32376834199825e+17
19350.0	6.321832430927871e+17
19351.0	6.319880206112083e+17
19352.0	6.317866133487616e+17
19353.0	6.315930523009023e+17
19354.0	6.313915413692415e+17
19355.0	6.311807810884948e+17
19356.0	6.309813244570281e+17
19357.0	6.307730016960511e+17
19358.0	6.305620201657684e+17
19359.0	6.303445942271999e+17
19360.0	6.301316289309353e+17
19361.0	6.29914693865745e+17
19362.0	6.296970466077353e+17
19363.0	6.294737022266025e+17
19364.0	6.292473647202303e+17
19365.0	6.290181499912191e+17
19366.0	6.287858184749055e+17
19367.0	6.285504047742975e+17
19368.0	6.283117564963498e+17
19369.0	6.280652896163156e+17
19370.0	6.278142826818217e+17
19371.0	6.275713529981609e+17
19372.0	6.273223512205993e+17
19373.0	6.270645736308735e+17
19374.0	6.268055724228608e+17
19375.0	6.265410391375871e+17
19376.0	6.262728806454612e+17
19377.0	6.260017616038569e+17
19378.0	6.257276922888191e+17
19379.0	6.254490553068202e+17
19380.0	6.251488619790335e+17
19381.0	6.24855417496098e+17
19382.0	6.245572376439466e+17
19383.0	6.242571060423337e+17
19384.0	6.23962386141457e+17
19385.0	6.236546702595412e+17
19386.0	6.233423071586985e+17
19387.0	6.230243060744192e+17
19388.0	6.22700775149841e+17
19389.0	6.223716054029652e+17
19390.0	6.220363230871551e+17
19391.0	6.209120738039113e+17
19392.0	6.213342456709117e+17
19393.0	6.20989514846481e+17
19394.0	6.206267048241834e+17
19395.0	6.202591790759935e+17
19396.0	6.198877740160339e+17
19397.0	6.195141024240982e+17
19398.0	6.191114215576915e+17
19399.0	6.186478377194835e+17
19400.0	6.183025193429674e+17
19401.0	6.179139672692051e+17
19402.0	6.175164538552319e+17
19403.0	6.171127012742484e+17
19404.0	6.16700136600371e+17
19405.0	6.162698734316202e+17
19406.0	6.157401006101844e+17
19407.0	6.152948430143487e+17
19408.0	6.147898461563562e+17
19409.0	6.143755204340393e+17
19410.0	6.138004805866836e+17
19411.0	6.132685443432448e+17
19412.0	6.127698327896064e+17
19413.0	6.121052040069119e+17
19414.0	6.115128659410943e+17
19415.0	6.108251676475388e+17
19416.0	6.101045154065065e+17
19417.0	6.092364358964566e+17
19418.0	6.08364508951347e+17
19419.0	6.073427476960602e+17
19420.0	6.061144721238701e+17
19421.0	6.04629291307281e+17
19422.0	6.028395299209221e+17
19423.0	6.007003310019922e+17
19424.0	5.988538306090324e+17
19425.0	5.976844481680724e+17
19426.0	5.964280355968339e+17
19427.0	5.951181986376364e+17
19428.0	5.93783758590225e+17
19429.0	5.924132764691113e+17
19430.0	5.909992411845972e+17
19431.0	5.893544889111894e+17
19432.0	5.878895705675091e+17
19433.0	5.862157310754815e+17
19434.0	5.844461613481981e+17
19435.0	5.824677429641213e+17
19436.0	5.802008294457345e+17
19437.0	5.775799639954774e+17
19438.0	5.7302363801299635e+17
19439.0	5.691355381978459e+17
19440.0	5.636221497769981e+17
19441.0	5.59685496489028e+17
19442.0	5.5550735349186586e+17
19443.0	5.5080617372549114e+17
19444.0	5.45359952189849e+17
19445.0	5.382125449292458e+17
19446.0	5.278873894431396e+17
19447.0	5.1656986100148845e+17
19448.0	5.0273667940788986e+17
19449.0	4.8134882880826016e+17
19450.0	4.4343772018551245e+17
19451.0	4.300100457201638e+17
19452.0	4.641955617876658e+17
19453.0	4.9340018226189754e+17
19454.0	5.099751814288719e+17
19455.0	5.215920875459926e+17
19456.0	5.327529551680851e+17
19457.0	5.410657732831913e+17
19458.0	5.455172376111806e+17
19459.0	5.517056978627247e+17
19460.0	5.5593319859049786e+17
19461.0	5.5973793144067405e+17
19462.0	5.641211789792606e+17
19463.0	5.694697379637933e+17
19464.0	5.7335268493667046e+17
19465.0	5.761836857862832e+17
19466.0	5.783551194693633e+17
19467.0	5.801897429914963e+17
19468.0	5.818061437971114e+17
19469.0	5.833256571589971e+17
19470.0	5.847208776346282e+17
19471.0	5.860980835745791e+17
19472.0	5.873072588455935e+17
19473.0	5.884650846508372e+17
19474.0	5.895949633890986e+17
19475.0	5.906375448199167e+17
19476.0	5.917459608851795e+17
19477.0	5.927304845503148e+17
19478.0	5.938760610305366e+17
19479.0	5.957955483249326e+17
19480.0	5.975773544448003e+17
19481.0	5.989056989102084e+17
19482.0	5.999691069478227e+17
19483.0	6.008322852039341e+17
19484.0	6.016102822488746e+17
19485.0	6.02244872474897e+17
19486.0	6.026990241622696e+17
19487.0	6.032972699052713e+17
19488.0	6.036091228389373e+17
19489.0	6.040576381506902e+17
19490.0	6.042885024994642e+17
19491.0	6.046406557739689e+17
19492.0	6.050031387803647e+17
19493.0	6.052743638679551e+17
19494.0	6.055021128974333e+17
19495.0	6.057204612333567e+17
19496.0	6.059426125447168e+17
19497.0	6.06219712663825e+17
19498.0	6.063219126130006e+17
19499.0	6.053310225536334e+17
19500.0	6.067531385842346e+17
19501.0	6.069168015147007e+17
19502.0	6.070742180779348e+17
19503.0	6.072285865705472e+17
19504.0	6.074223609686698e+17
19505.0	6.075722738521428e+17
19506.0	6.07711570043426e+17
19507.0	6.078446655853908e+17
19508.0	6.079760510397097e+17
19509.0	6.081011110641663e+17
19510.0	6.08205954753058e+17
19511.0	6.068392163977889e+17
19512.0	6.082354486094502e+17
19513.0	6.081645734701733e+17
19514.0	6.08360198604936e+17
19515.0	6.086633285047638e+17
19516.0	6.087825631302995e+17
19517.0	6.088540344898899e+17
19518.0	6.089277010782889e+17
19519.0	6.089911576821759e+17
19520.0	6.090486002133674e+17
19521.0	6.09105453584657e+17
19522.0	6.091528557210281e+17
19523.0	6.092092783372969e+17
19524.0	6.092610546434047e+17
19525.0	6.092964876342612e+17
19526.0	6.093310561091583e+17
19527.0	6.093608901935103e+17
19528.0	6.093864014184447e+17
19529.0	6.094088389175978e+17
19530.0	6.094274515610282e+17
19531.0	6.094419575614121e+17
19532.0	6.094528607245652e+17
19533.0	6.094602564709033e+17
19534.0	6.094640407117823e+17
19535.0	6.094641217317545e+17
19536.0	6.094595979651754e+17
19537.0	6.094568771201705e+17
19538.0	6.094406555795455e+17
19539.0	6.093986401178964e+17
19540.0	6.094202522479274e+17
19541.0	6.094048910988628e+17
19542.0	6.093847914348544e+17
19543.0	6.093620770417321e+17
19544.0	6.093375921629866e+17
19545.0	6.092780299703635e+17
19546.0	6.092198005178367e+17
19547.0	6.092510667472895e+17
19548.0	6.092175886516223e+17
19549.0	6.091752345698303e+17
19550.0	6.091444682315092e+17
19551.0	6.091049567693481e+17
19552.0	6.090632191803391e+17
19553.0	6.090180217099604e+17
19554.0	6.089716158605993e+17
19555.0	6.089260654395391e+17
19556.0	6.088782140932095e+17
19557.0	6.088272851763199e+17
19558.0	6.087751715782655e+17
19559.0	6.087213010561705e+17
19560.0	6.086641527554047e+17
19561.0	6.086072491922771e+17
19562.0	6.085511350670676e+17
19563.0	6.084914998935551e+17
19564.0	6.084305535806122e+17
19565.0	6.083682791413076e+17
19566.0	6.083025242685439e+17
19567.0	6.082398880705193e+17
19568.0	6.08172117205538e+17
19569.0	6.081063537344511e+17
19570.0	6.080390356445866e+17
19571.0	6.079696784938324e+17
19572.0	6.078977249290921e+17
19573.0	6.078271766659071e+17
19574.0	6.077499948313258e+17
19575.0	6.0768346701824e+17
19576.0	6.07609461809698e+17
19577.0	6.075336633264809e+17
19578.0	6.07455674437905e+17
19579.0	6.07379794235665e+17
19580.0	6.073023232737279e+17
19581.0	6.07326099944243e+17
19582.0	6.073842355142655e+17
19583.0	6.07303018549521e+17
19584.0	6.072206930302291e+17
19585.0	6.071305291956223e+17
19586.0	6.070448105542995e+17
19587.0	6.069668638184788e+17
19588.0	6.068534995408212e+17
19589.0	6.068000104906751e+17
19590.0	6.067094526012073e+17
19591.0	6.066293597099348e+17
19592.0	6.065423229386751e+17
19593.0	6.064534855527081e+17
19594.0	6.064520476054872e+17
19595.0	6.066745206199636e+17
19596.0	6.065379050782719e+17
19597.0	6.064933159217834e+17
19598.0	6.063786299490304e+17
19599.0	6.063115166810112e+17
19600.0	6.062197440512e+17
19601.0	6.06122021032209e+17
19602.0	6.060301313813161e+17
19603.0	6.059005953354408e+17
19604.0	6.058414995494227e+17
19605.0	6.057305747488767e+17
19606.0	6.056573703727785e+17
19607.0	6.055627166056447e+17
19608.0	6.054667193330346e+17
19609.0	6.053679252985172e+17
19610.0	6.052757013615956e+17
19611.0	6.051789567339177e+17
19612.0	6.050832462118912e+17
19613.0	6.049856869804714e+17
19614.0	6.048863772562771e+17
19615.0	6.049937571708927e+17
19616.0	6.05014566511138e+17
19617.0	6.049224105219411e+17
19618.0	6.047830556104019e+17
19619.0	6.046740257264979e+17
19620.0	6.045769237441193e+17
19621.0	6.045251351347199e+17
19622.0	6.044257315979263e+17
19623.0	6.043256164974591e+17
19624.0	6.042245532745728e+17
19625.0	6.041247068192767e+17
19626.0	6.040239543943167e+17
19627.0	6.039227791835133e+17
19628.0	6.038044998107136e+17
19629.0	6.037119958340948e+17
19630.0	6.035706357656234e+17
19631.0	6.027378853675007e+17
19632.0	6.034134720490153e+17
19633.0	6.033102115001684e+17
19634.0	6.032118542325076e+17
19635.0	6.031068703839571e+17
19636.0	6.030070797129044e+17
19637.0	6.02877327310848e+17
19638.0	6.02801788035618e+17
19639.0	6.027015443098282e+17
19640.0	6.02602891972881e+17
19641.0	6.024490045669376e+17
19642.0	6.024037435528531e+17
19643.0	6.02299620794914e+17
19644.0	6.021924365445801e+17
19645.0	6.020735707381759e+17
19646.0	6.019893909170857e+17
19647.0	6.018861918147924e+17
19648.0	6.017823574851583e+17
19649.0	6.01678195790097e+17
19650.0	6.015743258088788e+17
19651.0	6.014701603389439e+17
19652.0	6.01365898400017e+17
19653.0	6.012614018596863e+17
19654.0	6.012633341056337e+17
19655.0	6.013142398140413e+17
19656.0	6.012090361839615e+17
19657.0	6.011044403085312e+17
19658.0	6.009992514983252e+17
19659.0	6.008938712181417e+17
19660.0	6.007886618558463e+17
19661.0	6.006832585069908e+17
19662.0	6.005777745575935e+17
19663.0	6.004687919295146e+17
19664.0	6.003637679554559e+17
19665.0	6.002609737433087e+17
