# Flux units: erg / (cm m2 s)
# Wavelength units: Angstrom
wave	flux
19000.0	5.804770759540736e+17
19001.0	5.803617554530304e+17
19002.0	5.802669779539284e+17
19003.0	5.801616662506154e+17
19004.0	5.80056816689698e+17
19005.0	5.799505603592191e+17
19006.0	5.798455396706986e+17
19007.0	5.797408134922239e+17
19008.0	5.796312348535465e+17
19009.0	5.795123761075542e+17
19010.0	5.79395381100544e+17
19011.0	5.793153358146218e+17
19012.0	5.792004721431891e+17
19013.0	5.79110408622353e+17
19014.0	5.790010373920084e+17
19015.0	5.788969914597375e+17
19016.0	5.787939397173247e+17
19017.0	5.786914076491775e+17
19018.0	5.785860343595005e+17
19019.0	5.784815789932544e+17
19020.0	5.783760952535721e+17
19021.0	5.782729567589716e+17
19022.0	5.781676631610708e+17
19023.0	5.780590773840554e+17
19024.0	5.779548293562367e+17
19025.0	5.778517897074004e+17
19026.0	5.777451284168703e+17
19027.0	5.776372421798569e+17
19028.0	5.775380949150378e+17
19029.0	5.774328374580563e+17
19030.0	5.773304245780479e+17
19031.0	5.772258368116052e+17
19032.0	5.77119656607744e+17
19033.0	5.770045343574697e+17
19034.0	5.769000710220457e+17
19035.0	5.767426465595391e+17
19036.0	5.761463401928019e+17
19037.0	5.765488792917334e+17
19038.0	5.764826416545791e+17
19039.0	5.7638631638739616e+17
19040.0	5.7628443604418554e+17
19041.0	5.761801645981694e+17
19042.0	5.76028773921587e+17
19043.0	5.759732669218815e+17
19044.0	5.7586792348166816e+17
19045.0	5.757632907662677e+17
19046.0	5.756556329091071e+17
19047.0	5.755494234849279e+17
19048.0	5.7543182149222394e+17
19049.0	5.752551551707817e+17
19050.0	5.7522831484081485e+17
19051.0	5.750588354592768e+17
19052.0	5.7499005341750605e+17
19053.0	5.7492465520039245e+17
19054.0	5.748252336280916e+17
19055.0	5.746863553292971e+17
19056.0	5.7461245392977914e+17
19057.0	5.7451454559245645e+17
19058.0	5.743683217391615e+17
19059.0	5.742908502878889e+17
19060.0	5.7420240192361805e+17
19061.0	5.74099379401523e+17
19062.0	5.739951113109502e+17
19063.0	5.738905777209343e+17
19064.0	5.737793079388842e+17
19065.0	5.736680505300309e+17
19066.0	5.735588789485566e+17
19067.0	5.7347489213535565e+17
19068.0	5.7337245234189645e+17
19069.0	5.732686840026451e+17
19070.0	5.7316254308543136e+17
19071.0	5.730601401319422e+17
19072.0	5.7294194939876685e+17
19073.0	5.728536128826025e+17
19074.0	5.727500812419071e+17
19075.0	5.7264628724749645e+17
19076.0	5.725416761327615e+17
19077.0	5.7243698595539616e+17
19078.0	5.7233191996839245e+17
19079.0	5.722313800548351e+17
19080.0	5.7212680564026016e+17
19081.0	5.720195691009364e+17
19082.0	5.7191874844863136e+17
19083.0	5.7180762784399354e+17
19084.0	5.716921164322132e+17
19085.0	5.7160746433249274e+17
19086.0	5.7144712126354765e+17
19087.0	5.713607854303913e+17
19088.0	5.712662362412372e+17
19089.0	5.7117453750108154e+17
19090.0	5.710874164243113e+17
19091.0	5.7098352924644685e+17
19092.0	5.708471758487552e+17
19093.0	5.7078234183543456e+17
19094.0	5.706796694678186e+17
19095.0	5.705766042337279e+17
19096.0	5.704727242560851e+17
19097.0	5.703699182998868e+17
19098.0	5.702497471561728e+17
19099.0	5.701425653525162e+17
19100.0	5.7005810926660256e+17
19101.0	5.6995507451112096e+17
19102.0	5.698460846828202e+17
19103.0	5.697505073998507e+17
19104.0	5.69647854465843e+17
19105.0	5.695062542734677e+17
19106.0	5.694397388335786e+17
19107.0	5.693259248566271e+17
19108.0	5.692153553835349e+17
19109.0	5.691142028918783e+17
19110.0	5.690197596788052e+17
19111.0	5.689131603241642e+17
19112.0	5.6880959799514445e+17
19113.0	5.6872005463790925e+17
19114.0	5.686093432575315e+17
19115.0	5.6850832337578656e+17
19116.0	5.6840801974135456e+17
19117.0	5.683024505776811e+17
19118.0	5.681692475916288e+17
19119.0	5.674690588704759e+17
19120.0	5.679780515020798e+17
19121.0	5.678900980656809e+17
19122.0	5.6779360076212896e+17
19123.0	5.6769176306100896e+17
19124.0	5.675842120187903e+17
19125.0	5.674834491779753e+17
19126.0	5.6736643970061645e+17
19127.0	5.6716884722756256e+17
19128.0	5.6715744655005005e+17
19129.0	5.670653267017726e+17
19130.0	5.669722622263294e+17
19131.0	5.668718756844884e+17
19132.0	5.66769522643217e+17
19133.0	5.666635783689555e+17
19134.0	5.665644659867647e+17
19135.0	5.6646224751274656e+17
19136.0	5.6635902170671776e+17
19137.0	5.66249300042274e+17
19138.0	5.661527723999231e+17
19139.0	5.6605311021438285e+17
19140.0	5.659513430474751e+17
19141.0	5.6584911282940576e+17
19142.0	5.657442150339924e+17
19143.0	5.6564107073727136e+17
19144.0	5.655376764600319e+17
19145.0	5.654396571134634e+17
19146.0	5.65276244443136e+17
19147.0	5.652302668322132e+17
19148.0	5.6511942270211405e+17
19149.0	5.6501459180584954e+17
19150.0	5.649288485579434e+17
19151.0	5.6482618695570765e+17
19152.0	5.6472338722106016e+17
19153.0	5.645906619662334e+17
19154.0	5.6451083450449914e+17
19155.0	5.6441558808221e+17
19156.0	5.6431365468105363e+17
19157.0	5.6419963077918714e+17
19158.0	5.6408212930996896e+17
19159.0	5.6400372273861965e+17
19160.0	5.6390257164506445e+17
19161.0	5.637966569406463e+17
19162.0	5.636740283542185e+17
19163.0	5.6358643003555834e+17
19164.0	5.6349548710898336e+17
19165.0	5.633640710362452e+17
19166.0	5.6328582286977696e+17
19167.0	5.6319044698330445e+17
19168.0	5.630914172289023e+17
19169.0	5.629905949687807e+17
19170.0	5.62889319653922e+17
19171.0	5.627872304343722e+17
19172.0	5.6268562397921274e+17
19173.0	5.625844829519871e+17
19174.0	5.62479784735539e+17
19175.0	5.623809050673152e+17
19176.0	5.622796923873962e+17
19177.0	5.621636366947668e+17
19178.0	5.6207556539842554e+17
19179.0	5.619735250425173e+17
19180.0	5.618721083796137e+17
19181.0	5.617626042597375e+17
19182.0	5.616672370414932e+17
19183.0	5.6156935722543776e+17
19184.0	5.6146794447721805e+17
19185.0	5.6136575962753696e+17
19186.0	5.6126493855580154e+17
19187.0	5.611574741958656e+17
19188.0	5.6106147468629325e+17
19189.0	5.609600169192105e+17
19190.0	5.6085793678731936e+17
19191.0	5.6075294503949645e+17
19192.0	5.6065354534748154e+17
19193.0	5.6054609035482445e+17
19194.0	5.604387657351167e+17
19195.0	5.6034033912162976e+17
19196.0	5.602290840196437e+17
19197.0	5.601091605495807e+17
19198.0	5.599540766485161e+17
19199.0	5.5968193419673594e+17
19200.0	5.5960186332555936e+17
19201.0	5.596561808905556e+17
19202.0	5.596051092275198e+17
19203.0	5.5952071598626125e+17
19204.0	5.594284517141162e+17
19205.0	5.5933158153693856e+17
19206.0	5.5923377980484256e+17
19207.0	5.5912038260189856e+17
19208.0	5.5902044219419296e+17
19209.0	5.589336048620884e+17
19210.0	5.588337456840703e+17
19211.0	5.5873452473931085e+17
19212.0	5.5863293722842445e+17
19213.0	5.5852232735020365e+17
19214.0	5.584239196809898e+17
19215.0	5.5832904774014285e+17
19216.0	5.582285332021247e+17
19217.0	5.581207266568874e+17
19218.0	5.57984657842722e+17
19219.0	5.579032173215742e+17
19220.0	5.578211443692885e+17
19221.0	5.5771044123770874e+17
19222.0	5.576199519251113e+17
19223.0	5.575231563366399e+17
19224.0	5.5741946174723405e+17
19225.0	5.5731775106362016e+17
19226.0	5.572219096793088e+17
19227.0	5.5712232774478496e+17
19228.0	5.570244650554708e+17
19229.0	5.569238834085887e+17
19230.0	5.568228455612415e+17
19231.0	5.567215290023935e+17
19232.0	5.5662164752465894e+17
19233.0	5.5651579950967456e+17
19234.0	5.564202598356308e+17
19235.0	5.563174703071231e+17
19236.0	5.562202097800532e+17
19237.0	5.561188606454441e+17
19238.0	5.560115203670015e+17
19239.0	5.5591918024785914e+17
19240.0	5.558190217363455e+17
19241.0	5.5571673153972896e+17
19242.0	5.556168032255999e+17
19243.0	5.555025391998292e+17
19244.0	5.554178124414974e+17
19245.0	5.553167940976639e+17
19246.0	5.552163287728126e+17
19247.0	5.551157575417856e+17
19248.0	5.550165770021547e+17
19249.0	5.5491481738499405e+17
19250.0	5.5480790974900896e+17
19251.0	5.547013100448425e+17
19252.0	5.5458628650052256e+17
19253.0	5.545131737000618e+17
19254.0	5.544152060133375e+17
19255.0	5.5429581906466125e+17
19256.0	5.542134304210943e+17
19257.0	5.541146592455339e+17
19258.0	5.540142923470164e+17
19259.0	5.5390559660933114e+17
19260.0	5.5379671604264954e+17
19261.0	5.5371110379683834e+17
19262.0	5.5360568604753914e+17
19263.0	5.5349932800518816e+17
19264.0	5.5337397018514765e+17
19265.0	5.5329235280418125e+17
19266.0	5.531894147274068e+17
19267.0	5.5311222904804685e+17
19268.0	5.530122172672683e+17
19269.0	5.5291211705658016e+17
19270.0	5.528078051355306e+17
19271.0	5.5269118873436154e+17
19272.0	5.5260852012100256e+17
19273.0	5.5249212406060365e+17
19274.0	5.5237358904497485e+17
19275.0	5.523132218955092e+17
19276.0	5.5221169058829645e+17
19277.0	5.52112334517043e+17
19278.0	5.520115692295508e+17
19279.0	5.519099120233129e+17
19280.0	5.5180777911309645e+17
19281.0	5.517106662255273e+17
19282.0	5.516122891747326e+17
19283.0	5.515107205382143e+17
19284.0	5.5140702378175136e+17
19285.0	5.513035023471957e+17
19286.0	5.5120281570290336e+17
19287.0	5.510955355428179e+17
19288.0	5.5077836884541414e+17
19289.0	5.505523143147517e+17
19290.0	5.5079242493678925e+17
19291.0	5.506837626137258e+17
19292.0	5.506117866793643e+17
19293.0	5.505130979917823e+17
19294.0	5.5041265335883085e+17
19295.0	5.5031473698242554e+17
19296.0	5.5019557484844365e+17
19297.0	5.50110166585617e+17
19298.0	5.50012506411281e+17
19299.0	5.498942698203817e+17
19300.0	5.498148217334443e+17
19301.0	5.4971558533966496e+17
19302.0	5.496141502917289e+17
19303.0	5.495092346006185e+17
19304.0	5.4941417111988896e+17
19305.0	5.4931354571243514e+17
19306.0	5.492138835268947e+17
19307.0	5.4910970141955405e+17
19308.0	5.490094777565183e+17
19309.0	5.48903565988113e+17
19310.0	5.4879900219910816e+17
19311.0	5.48703433724177e+17
19312.0	5.486044519246505e+17
19313.0	5.484878366419626e+17
19314.0	5.470551460020221e+17
19315.0	5.4705751948875226e+17
19316.0	5.4816215711525536e+17
19317.0	5.481042928467968e+17
19318.0	5.480095033939283e+17
19319.0	5.479131979098793e+17
19320.0	5.478061276048042e+17
19321.0	5.476959900052138e+17
19322.0	5.476094440374271e+17
19323.0	5.4750996842850976e+17
19324.0	5.4741029065413965e+17
19325.0	5.473095598997503e+17
19326.0	5.4721156991330976e+17
19327.0	5.471119735084373e+17
19328.0	5.469789814259711e+17
19329.0	5.469130356424704e+17
19330.0	5.4681104170352634e+17
19331.0	5.467074964313428e+17
19332.0	5.466119866067625e+17
19333.0	5.465099642863615e+17
19334.0	5.464101493582506e+17
19335.0	5.4624129912231245e+17
19336.0	5.4620800417792e+17
19337.0	5.4610750515882656e+17
19338.0	5.459869200373076e+17
19339.0	5.459045594955775e+17
19340.0	5.457888032762538e+17
19341.0	5.4566564823476896e+17
19342.0	5.4557139467414176e+17
19343.0	5.454930100529834e+17
19344.0	5.453583438140757e+17
19345.0	5.451502715928575e+17
19346.0	5.450920416509951e+17
19347.0	5.4504721313955834e+17
19348.0	5.449883628601343e+17
19349.0	5.448859378865492e+17
19350.0	5.4477309426182816e+17
19351.0	5.446822157877247e+17
19352.0	5.445438405257898e+17
19353.0	5.444820991126186e+17
19354.0	5.4438007958842016e+17
19355.0	5.4426780205492896e+17
19356.0	5.4417429508041376e+17
19357.0	5.4407058818771616e+17
19358.0	5.4396625662334285e+17
19359.0	5.4385260769225376e+17
19360.0	5.4372882930728954e+17
19361.0	5.436532959040852e+17
19362.0	5.4355115474507085e+17
19363.0	5.4344706784843085e+17
19364.0	5.433424518403411e+17
19365.0	5.4323753859590816e+17
19366.0	5.4313235901317114e+17
19367.0	5.430268419986773e+17
19368.0	5.4292090583340365e+17
19369.0	5.4281183547446605e+17
19370.0	5.4270586848105805e+17
19371.0	5.4259614346117114e+17
19372.0	5.4249450988284576e+17
19373.0	5.42385209676049e+17
19374.0	5.4227703452139514e+17
19375.0	5.421678175016276e+17
19376.0	5.420589870568788e+17
19377.0	5.4194852307053216e+17
19378.0	5.4183854520401914e+17
19379.0	5.417281253976747e+17
19380.0	5.416168426132821e+17
19381.0	5.415040633012223e+17
19382.0	5.413835227092308e+17
19383.0	5.41271330459921e+17
19384.0	5.4115898952253434e+17
19385.0	5.410445536701097e+17
19386.0	5.4092772349924685e+17
19387.0	5.408102253854719e+17
19388.0	5.4069079355774285e+17
19389.0	5.405672986378239e+17
19390.0	5.40423689933073e+17
19391.0	5.398428553052156e+17
19392.0	5.4010181422066323e+17
19393.0	5.4006916645737805e+17
19394.0	5.399520176592213e+17
19395.0	5.3981751297092256e+17
19396.0	5.396927749292032e+17
19397.0	5.3956188677952845e+17
19398.0	5.3941467502783136e+17
19399.0	5.3923831160504314e+17
19400.0	5.3912665895294285e+17
19401.0	5.390036369407999e+17
19402.0	5.3886299130210976e+17
19403.0	5.3871667286725965e+17
19404.0	5.385669092311039e+17
19405.0	5.3841114857908896e+17
19406.0	5.382570820064596e+17
19407.0	5.380846804533247e+17
19408.0	5.378896843942571e+17
19409.0	5.377580545518249e+17
19410.0	5.375969658754388e+17
19411.0	5.3742092261785594e+17
19412.0	5.3723708872021325e+17
19413.0	5.3703405840192845e+17
19414.0	5.368438414726485e+17
19415.0	5.366298395541503e+17
19416.0	5.364003560401578e+17
19417.0	5.361887073359188e+17
19418.0	5.3595786507714554e+17
19419.0	5.357038959154517e+17
19420.0	5.3545152499329696e+17
19421.0	5.3518668943851514e+17
19422.0	5.348882099732478e+17
19423.0	5.345789167534079e+17
19424.0	5.3425808710041594e+17
19425.0	5.3390331574135456e+17
19426.0	5.335252305532244e+17
19427.0	5.331272604494506e+17
19428.0	5.3267480514833056e+17
19429.0	5.322102562007721e+17
19430.0	5.3169037983962445e+17
19431.0	5.310982647010645e+17
19432.0	5.3057403646989645e+17
19433.0	5.2994381761740794e+17
19434.0	5.2921316028361376e+17
19435.0	5.2839253051528525e+17
19436.0	5.274954659179179e+17
19437.0	5.26522340413713e+17
19438.0	5.2458373918665395e+17
19439.0	5.240465344080553e+17
19440.0	5.228557645119487e+17
19441.0	5.212545784042836e+17
19442.0	5.1942504005632e+17
19443.0	5.17292936012322e+17
19444.0	5.1470747677928083e+17
19445.0	5.115946791687509e+17
19446.0	5.078146899858773e+17
19447.0	5.029031077827922e+17
19448.0	4.9632219818011334e+17
19449.0	4.86437533253632e+17
19450.0	4.6717963446080755e+17
19451.0	4.509177111467366e+17
19452.0	4.7889531308168506e+17
19453.0	4.9175532596974976e+17
19454.0	4.9945659359013523e+17
19455.0	5.0486317391981216e+17
19456.0	5.0894488036092595e+17
19457.0	5.121078027004585e+17
19458.0	5.1071497850061306e+17
19459.0	5.1654802615391654e+17
19460.0	5.1870234442028365e+17
19461.0	5.202594635623081e+17
19462.0	5.2158074286243834e+17
19463.0	5.227029970550783e+17
19464.0	5.2365851165545805e+17
19465.0	5.244767034845866e+17
19466.0	5.251941653282814e+17
19467.0	5.258442527386281e+17
19468.0	5.2640399400195405e+17
19469.0	5.268580805378047e+17
19470.0	5.2730759975621965e+17
19471.0	5.2769102429334176e+17
19472.0	5.280132059103232e+17
19473.0	5.2828530187523405e+17
19474.0	5.2852551987145376e+17
19475.0	5.287175423787007e+17
19476.0	5.289585608578387e+17
19477.0	5.291492680313513e+17
19478.0	5.29293380751633e+17
19479.0	5.2938980598306125e+17
19480.0	5.295277330137088e+17
19481.0	5.2960970159773e+17
19482.0	5.2967826931056634e+17
19483.0	5.2973919353350816e+17
19484.0	5.297903524380672e+17
19485.0	5.2982289862929056e+17
19486.0	5.2982537585513805e+17
19487.0	5.2987163595243514e+17
19488.0	5.298851232262826e+17
19489.0	5.2985220891497805e+17
19490.0	5.2979509221130234e+17
19491.0	5.2986221722337274e+17
19492.0	5.298547551371262e+17
19493.0	5.298348631610708e+17
19494.0	5.298053781826219e+17
19495.0	5.2976809284730874e+17
19496.0	5.296965826904062e+17
19497.0	5.2966454477892256e+17
19498.0	5.294139930662227e+17
19499.0	5.28848189076275e+17
19500.0	5.2951890365426336e+17
19501.0	5.2950469489022285e+17
19502.0	5.294692044374015e+17
19503.0	5.2941727965293216e+17
19504.0	5.2935954890315085e+17
19505.0	5.292984964743167e+17
19506.0	5.292413513891838e+17
19507.0	5.2917685410856954e+17
19508.0	5.2910941550237005e+17
19509.0	5.290306106119508e+17
19510.0	5.288969054278996e+17
19511.0	5.2682707442510374e+17
19512.0	5.285628626687315e+17
19513.0	5.284803291119613e+17
19514.0	5.2846300565777056e+17
19515.0	5.285750055982422e+17
19516.0	5.2853124313907194e+17
19517.0	5.2846275295095456e+17
19518.0	5.2838657292588365e+17
19519.0	5.283123151503359e+17
19520.0	5.282157598954836e+17
19521.0	5.281646895606442e+17
19522.0	5.280778967580671e+17
19523.0	5.2799825391561376e+17
19524.0	5.2790465417707514e+17
19525.0	5.278412754474325e+17
19526.0	5.277603674630825e+17
19527.0	5.276769884045311e+17
19528.0	5.275914532640085e+17
19529.0	5.275075102113792e+17
19530.0	5.274290170975572e+17
19531.0	5.273445429062313e+17
19532.0	5.272596836078932e+17
19533.0	5.2717443563738445e+17
19534.0	5.2708862353298765e+17
19535.0	5.270006710752598e+17
19536.0	5.269124430517588e+17
19537.0	5.2682740060214605e+17
19538.0	5.267003905059498e+17
19539.0	5.266252128496298e+17
19540.0	5.265664726706858e+17
19541.0	5.264776410169343e+17
19542.0	5.263931230650367e+17
19543.0	5.262817015889919e+17
19544.0	5.262135845541204e+17
19545.0	5.2608221245166925e+17
19546.0	5.2598305847596365e+17
19547.0	5.259501319312725e+17
19548.0	5.2586751392918176e+17
19549.0	5.2577015231938554e+17
19550.0	5.256915313491967e+17
19551.0	5.2560273199158605e+17
19552.0	5.255133653543593e+17
19553.0	5.254221839816021e+17
19554.0	5.2533229277675514e+17
19555.0	5.252407878134442e+17
19556.0	5.251537961309525e+17
19557.0	5.25065491980834e+17
19558.0	5.249758441854292e+17
19559.0	5.248862086933162e+17
19560.0	5.247846044052138e+17
19561.0	5.247035050207913e+17
19562.0	5.246061881502377e+17
19563.0	5.2452586282461856e+17
19564.0	5.244354986420906e+17
19565.0	5.243449763343017e+17
19566.0	5.2425247284701856e+17
19567.0	5.2416361127389856e+17
19568.0	5.2407101746926925e+17
19569.0	5.2398087733247994e+17
19570.0	5.238917268417194e+17
19571.0	5.2380083396717216e+17
19572.0	5.237068713514325e+17
19573.0	5.2361549158809594e+17
19574.0	5.2351825098397e+17
19575.0	5.234378992342357e+17
19576.0	5.233446514677076e+17
19577.0	5.2324860952576e+17
19578.0	5.231622929864021e+17
19579.0	5.230705811040939e+17
19580.0	5.229797865160704e+17
19581.0	5.2289050663103136e+17
19582.0	5.2280027841385805e+17
19583.0	5.2270908641553056e+17
19584.0	5.22617657299217e+17
19585.0	5.225147932519081e+17
19586.0	5.224206017669802e+17
19587.0	5.2233827645740365e+17
19588.0	5.2222233359155194e+17
19589.0	5.221535934928212e+17
19590.0	5.220585809029802e+17
19591.0	5.2197718218506234e+17
19592.0	5.218870658859007e+17
19593.0	5.217915428492628e+17
19594.0	5.2167747595578003e+17
19595.0	5.2161093220433914e+17
19596.0	5.215177748949674e+17
19597.0	5.214275875722581e+17
19598.0	5.21298159669521e+17
19599.0	5.2124421204213754e+17
19600.0	5.2115510146717e+17
19601.0	5.210578123489279e+17
19602.0	5.209610781371049e+17
19603.0	5.2085407480108365e+17
19604.0	5.207799395691177e+17
19605.0	5.2067337635539616e+17
19606.0	5.206055355853483e+17
19607.0	5.205159095304191e+17
19608.0	5.204232665126228e+17
19609.0	5.203294446856874e+17
19610.0	5.202296029140309e+17
19611.0	5.201320389989717e+17
19612.0	5.2005908432377165e+17
19613.0	5.1996651862097914e+17
19614.0	5.1987193853378554e+17
19615.0	5.197829440012287e+17
19616.0	5.196753129876138e+17
19617.0	5.1957652091043834e+17
19618.0	5.194549694911828e+17
19619.0	5.1934807003409043e+17
19620.0	5.1927304127556256e+17
19621.0	5.1920366895540896e+17
19622.0	5.1914252061682336e+17
19623.0	5.190505790963711e+17
19624.0	5.189555704911189e+17
19625.0	5.1886856601599994e+17
19626.0	5.1877522296886605e+17
19627.0	5.1868022736595616e+17
19628.0	5.1857894002742605e+17
19629.0	5.184055564479146e+17
19630.0	5.182888158953471e+17
19631.0	5.18088253645346e+17
19632.0	5.181798078218239e+17
19633.0	5.1811885018426003e+17
19634.0	5.180412221456383e+17
19635.0	5.1794742625348256e+17
19636.0	5.178354981754195e+17
19637.0	5.177139997442047e+17
19638.0	5.1768073478908576e+17
19639.0	5.1759065903486285e+17
19640.0	5.1747764148633594e+17
19641.0	5.173185936883713e+17
19642.0	5.1731409676533754e+17
19643.0	5.172239832623785e+17
19644.0	5.171276486279167e+17
19645.0	5.1702915602404685e+17
19646.0	5.1692369821914445e+17
19647.0	5.168637897168212e+17
19648.0	5.1677312752899405e+17
19649.0	5.1668206534437536e+17
19650.0	5.1659163503165434e+17
19651.0	5.1649999046792525e+17
19652.0	5.1640886641732256e+17
19653.0	5.163184923082751e+17
19654.0	5.162267441452372e+17
19655.0	5.161355092951039e+17
