# Flux units: erg / (cm m2 s)
# Wavelength units: Angstrom
wave	flux
19000.0	5.659423867404287e+17
19001.0	5.6583272183889914e+17
19002.0	5.657314205193556e+17
19003.0	5.656254473743017e+17
19004.0	5.655143263502335e+17
19005.0	5.654052394237951e+17
19006.0	5.6530002111365114e+17
19007.0	5.651775165388116e+17
19008.0	5.6503418885242906e+17
19009.0	5.6465016452983443e+17
19010.0	5.64594940645649e+17
19011.0	5.6443332488506016e+17
19012.0	5.643747277318831e+17
19013.0	5.6422513934772896e+17
19014.0	5.641176975671296e+17
19015.0	5.6401328763917645e+17
19016.0	5.6390753735147514e+17
19017.0	5.638033648211285e+17
19018.0	5.636967721773737e+17
19019.0	5.635938951277226e+17
19020.0	5.6348758902483616e+17
19021.0	5.633833620384426e+17
19022.0	5.6327878993073485e+17
19023.0	5.631721133309951e+17
19024.0	5.63067677118737e+17
19025.0	5.6296071957053434e+17
19026.0	5.6285383262644896e+17
19027.0	5.627231121790292e+17
19028.0	5.626485234728958e+17
19029.0	5.625422885333674e+17
19030.0	5.6243869013333325e+17
19031.0	5.623339320082432e+17
19032.0	5.6222857822208e+17
19033.0	5.621200510255103e+17
19034.0	5.62018461487377e+17
19035.0	5.619084149740883e+17
19036.0	5.597607271333862e+17
19037.0	5.616773332205568e+17
19038.0	5.615709206522537e+17
19039.0	5.614670445892947e+17
19040.0	5.613623396619604e+17
19041.0	5.61257268781602e+17
19042.0	5.6114849936397645e+17
19043.0	5.6104811708634445e+17
19044.0	5.6094274309761683e+17
19045.0	5.608373972107264e+17
19046.0	5.6073132382180685e+17
19047.0	5.606288471184724e+17
19048.0	5.6051520077387085e+17
19049.0	5.6041668929563296e+17
19050.0	5.6031374793332045e+17
19051.0	5.599285330575352e+17
19052.0	5.60082353913856e+17
19053.0	5.5999781596910925e+17
19054.0	5.598972985649834e+17
19055.0	5.597821764545194e+17
19056.0	5.5968705963622394e+17
19057.0	5.5958326941668685e+17
19058.0	5.594800501817343e+17
19059.0	5.5940769319485434e+17
19060.0	5.593022808981503e+17
19061.0	5.591991393976319e+17
19062.0	5.590945026976426e+17
19063.0	5.589902193677652e+17
19064.0	5.588804631702185e+17
19065.0	5.587742074688852e+17
19066.0	5.5867453913169914e+17
19067.0	5.5857220636289696e+17
19068.0	5.584684299146579e+17
19069.0	5.583641560219647e+17
19070.0	5.5825858636895565e+17
19071.0	5.5815404837492045e+17
19072.0	5.580510280897877e+17
19073.0	5.579469121825449e+17
19074.0	5.5784292119565645e+17
19075.0	5.5773874041651194e+17
19076.0	5.576335931998207e+17
19077.0	5.57529880924433e+17
19078.0	5.574230334068052e+17
19079.0	5.5731887863234554e+17
19080.0	5.5721428576283296e+17
19081.0	5.5718542608520506e+17
19082.0	5.571935157092351e+17
19083.0	5.5708759219677856e+17
19084.0	5.569780093637972e+17
19085.0	5.568831397298175e+17
19086.0	5.5676225660299936e+17
19087.0	5.56596436541986e+17
19088.0	5.5656659581665274e+17
19089.0	5.564274761356628e+17
19090.0	5.56361738948881e+17
19091.0	5.5625853572218874e+17
19092.0	5.561381225671337e+17
19093.0	5.5605161637533005e+17
19094.0	5.5594748599773856e+17
19095.0	5.5584353702379514e+17
19096.0	5.5573822594962765e+17
19097.0	5.5563603907269965e+17
19098.0	5.5553186437529594e+17
19099.0	5.554281929943721e+17
19100.0	5.553213242256041e+17
19101.0	5.5521967023499936e+17
19102.0	5.5511292247190176e+17
19103.0	5.550132492413609e+17
19104.0	5.549099113775103e+17
19105.0	5.548057103258964e+17
19106.0	5.546908224673108e+17
19107.0	5.545980101394432e+17
19108.0	5.544950043945641e+17
19109.0	5.542101770392913e+17
19110.0	5.542839602992468e+17
19111.0	5.541836031874388e+17
19112.0	5.54080773673233e+17
19113.0	5.539773198368768e+17
19114.0	5.5387353569908045e+17
19115.0	5.537637373487786e+17
19116.0	5.5366605047070714e+17
19117.0	5.535628686349652e+17
19118.0	5.5344544545942176e+17
19119.0	5.5316735527485395e+17
19120.0	5.532339179705685e+17
19121.0	5.5313879926483616e+17
19122.0	5.53046587281681e+17
19123.0	5.52943150502161e+17
19124.0	5.5282905844285434e+17
19125.0	5.527356316494505e+17
19126.0	5.526312480757076e+17
19127.0	5.524554346659839e+17
19128.0	5.5232140036887866e+17
19129.0	5.5231995494181536e+17
19130.0	5.522198095724543e+17
19131.0	5.521136182536873e+17
19132.0	5.520139119580499e+17
19133.0	5.518892682182656e+17
19134.0	5.5175523489983155e+17
19135.0	5.5170381951358285e+17
19136.0	5.516016538877951e+17
19137.0	5.51491676999953e+17
19138.0	5.5138849341658445e+17
19139.0	5.512924123277994e+17
19140.0	5.511895059879252e+17
19141.0	5.510865098899455e+17
19142.0	5.509818572516011e+17
19143.0	5.508778710881621e+17
19144.0	5.50776233734963e+17
19145.0	5.506740242087935e+17
19146.0	5.505442841100288e+17
19147.0	5.504642855206911e+17
19148.0	5.503647108562943e+17
19149.0	5.5026214593276576e+17
19150.0	5.5015994507482445e+17
19151.0	5.5005732373790714e+17
19152.0	5.4995248564142074e+17
19153.0	5.4985085933322234e+17
19154.0	5.4974389150897485e+17
19155.0	5.496459356362068e+17
19156.0	5.495437206574419e+17
19157.0	5.494389712005802e+17
19158.0	5.4920357532576403e+17
19159.0	5.4920720235014816e+17
19160.0	5.4910259969392634e+17
19161.0	5.489933803672918e+17
19162.0	5.486226562525867e+17
19163.0	5.487918033054377e+17
19164.0	5.486953665396735e+17
19165.0	5.4858699865675085e+17
19166.0	5.484785741507242e+17
19167.0	5.483614204592126e+17
19168.0	5.482824710051156e+17
19169.0	5.4817665549598714e+17
19170.0	5.4808040418836474e+17
19171.0	5.479606983327742e+17
19172.0	5.47874273300753e+17
19173.0	5.4777261602461005e+17
19174.0	5.476686996963326e+17
19175.0	5.475687252448596e+17
19176.0	5.4746621100250445e+17
19177.0	5.4735785031980365e+17
19178.0	5.4725874492811936e+17
19179.0	5.471331849426262e+17
19180.0	5.470457853640704e+17
19181.0	5.4694997760409594e+17
19182.0	5.468511524618239e+17
19183.0	5.467494521241598e+17
19184.0	5.4664482171562656e+17
19185.0	5.4654592058654714e+17
19186.0	5.464441581032789e+17
19187.0	5.4633843815437645e+17
19188.0	5.462383958949887e+17
19189.0	5.4613325126478496e+17
19190.0	5.460296549619028e+17
19191.0	5.459286544438613e+17
19192.0	5.458310496343381e+17
19193.0	5.4572402036353696e+17
19194.0	5.4562418096865274e+17
19195.0	5.455241169687892e+17
19196.0	5.454223525980842e+17
19197.0	5.453203708925269e+17
19198.0	5.452175413084158e+17
19199.0	5.4346756002938816e+17
19200.0	5.439735248628401e+17
19201.0	5.44918036685346e+17
19202.0	5.4482420003853645e+17
19203.0	5.447183362250068e+17
19204.0	5.4461884523697485e+17
19205.0	5.4451834467997005e+17
19206.0	5.444160985934505e+17
19207.0	5.4431141813288954e+17
19208.0	5.4420391273867936e+17
19209.0	5.441097809526783e+17
19210.0	5.4400896009065805e+17
19211.0	5.4391034620149754e+17
19212.0	5.438105244925951e+17
19213.0	5.436904203878399e+17
19214.0	5.4355931462369274e+17
19215.0	5.434429585489919e+17
19216.0	5.4334660867522554e+17
19217.0	5.4324481102970874e+17
19218.0	5.4310814760304634e+17
19219.0	5.4303544940953594e+17
19220.0	5.429379330299221e+17
19221.0	5.4282364810253645e+17
19222.0	5.427360334959956e+17
19223.0	5.426344430490964e+17
19224.0	5.425313604785492e+17
19225.0	5.4242564388509005e+17
19226.0	5.423292259936938e+17
19227.0	5.4222778752040954e+17
19228.0	5.42127256904226e+17
19229.0	5.4202564995973114e+17
19230.0	5.4192009855194445e+17
19231.0	5.418191099177642e+17
19232.0	5.4171987939601043e+17
19233.0	5.416157897730729e+17
19234.0	5.4151649214245536e+17
19235.0	5.414144940092074e+17
19236.0	5.4131354319366816e+17
19237.0	5.41211042582801e+17
19238.0	5.411040932134911e+17
19239.0	5.410084664377343e+17
19240.0	5.4090227253248e+17
19241.0	5.40803598524962e+17
19242.0	5.407043580766889e+17
19243.0	5.4059726945648634e+17
19244.0	5.405074584327508e+17
19245.0	5.404067961154218e+17
19246.0	5.4030477463388154e+17
19247.0	5.4020371092165965e+17
19248.0	5.4010194487323296e+17
19249.0	5.399999514935294e+17
19250.0	5.3989836083691514e+17
19251.0	5.397945439835477e+17
19252.0	5.3968242387626656e+17
19253.0	5.395936894604628e+17
19254.0	5.394922245630634e+17
19255.0	5.393830769590271e+17
19256.0	5.3928674379257165e+17
19257.0	5.391881913499647e+17
19258.0	5.3908696189282976e+17
19259.0	5.389822468991658e+17
19260.0	5.388455337000958e+17
19261.0	5.387818114569556e+17
19262.0	5.386782958245204e+17
19263.0	5.385765610935636e+17
19264.0	5.3845546084160845e+17
19265.0	5.383651704089257e+17
19266.0	5.3826429739772576e+17
19267.0	5.3817117336316576e+17
19268.0	5.3806909148364794e+17
19269.0	5.379677315836585e+17
19270.0	5.3786585242883405e+17
19271.0	5.3775016499609594e+17
19272.0	5.376614193954815e+17
19273.0	5.374146909306876e+17
19274.0	5.3738056656267936e+17
19275.0	5.373578023272446e+17
19276.0	5.372551705744723e+17
19277.0	5.371534465389908e+17
19278.0	5.3705178632683514e+17
19279.0	5.3694601590647456e+17
19280.0	5.368561341388117e+17
19281.0	5.367620915516755e+17
19282.0	5.3666087376868685e+17
19283.0	5.36429097857843e+17
19284.0	5.3607195084499616e+17
19285.0	5.3599605687145805e+17
19286.0	5.3590066959045965e+17
19287.0	5.3579856359369376e+17
19288.0	5.3526430419517446e+17
19289.0	5.341116369644172e+17
19290.0	5.3549231557836794e+17
19291.0	5.3537957618210125e+17
19292.0	5.3528790477482656e+17
19293.0	5.3518539221019296e+17
19294.0	5.3508296751622816e+17
19295.0	5.3498109549172045e+17
19296.0	5.3487793924123296e+17
19297.0	5.3477345591296e+17
19298.0	5.3467196780707834e+17
19299.0	5.345704067203071e+17
19300.0	5.3446790946488314e+17
19301.0	5.343650110242815e+17
19302.0	5.3426228811530234e+17
19303.0	5.341553883086847e+17
19304.0	5.340548929945599e+17
19305.0	5.3395302034090656e+17
19306.0	5.3384808605504845e+17
19307.0	5.337421002571774e+17
19308.0	5.3364084975861754e+17
19309.0	5.3348284718120954e+17
19310.0	5.333545911670099e+17
19311.0	5.333277990715391e+17
19312.0	5.332291862309545e+17
19313.0	5.3312504942209696e+17
19314.0	5.311408638700128e+17
19315.0	5.3124619836238944e+17
19316.0	5.3280962839401805e+17
19317.0	5.327102658215935e+17
19318.0	5.326060141587113e+17
19319.0	5.3250225567607456e+17
19320.0	5.3259068628445843e+17
19321.0	5.3249516646345376e+17
19322.0	5.323848730454698e+17
19323.0	5.322579947203243e+17
19324.0	5.3217984791620256e+17
19325.0	5.320207963433642e+17
19326.0	5.3197052243694925e+17
19327.0	5.3186479773450234e+17
19328.0	5.3175971462075725e+17
19329.0	5.316544841471317e+17
19330.0	5.315468247520595e+17
19331.0	5.31440670413073e+17
19332.0	5.3133565126246394e+17
19333.0	5.312286263956819e+17
19334.0	5.3089917926550163e+17
19335.0	5.3061959409117856e+17
19336.0	5.3053298590788256e+17
19337.0	5.304429847423658e+17
19338.0	5.3032653814060365e+17
19339.0	5.3022649609093114e+17
19340.0	5.301139999642964e+17
19341.0	5.300088530971306e+17
19342.0	5.298818746679294e+17
19343.0	5.2978044493277856e+17
19344.0	5.296598013706239e+17
19345.0	5.294518770685266e+17
19346.0	5.2941969885757446e+17
19347.0	5.293255033880575e+17
19348.0	5.292178574147583e+17
19349.0	5.291041833178453e+17
19350.0	5.289919775069524e+17
19351.0	5.288798115419476e+17
19352.0	5.2876563105273165e+17
19353.0	5.286554576617472e+17
19354.0	5.285071769217706e+17
19355.0	5.281394893433515e+17
19356.0	5.2801785690412365e+17
19357.0	5.279418949828609e+17
19358.0	5.280262090915839e+17
19359.0	5.279031642204841e+17
19360.0	5.277912216720724e+17
19361.0	5.276483392809642e+17
19362.0	5.275166707111253e+17
19363.0	5.273967629697023e+17
19364.0	5.2727590773500576e+17
19365.0	5.271547800802645e+17
19366.0	5.2703262649876474e+17
19367.0	5.2690911612982605e+17
19368.0	5.2678542170084685e+17
19369.0	5.266462020556117e+17
19370.0	5.26479671829026e+17
19371.0	5.263672232378367e+17
19372.0	5.2624103599418016e+17
19373.0	5.2627777362329626e+17
19374.0	5.262630093935957e+17
19375.0	5.261314633673385e+17
19376.0	5.25999046393856e+17
19377.0	5.258526091902974e+17
19378.0	5.2563327980666874e+17
19379.0	5.2549574368515405e+17
19380.0	5.253565594817876e+17
19381.0	5.252152722543956e+17
19382.0	5.2528101824921626e+17
19383.0	5.2531373284174496e+17
19384.0	5.251749949822292e+17
19385.0	5.2502782706100896e+17
19386.0	5.2486269556490234e+17
19387.0	5.2467397425452365e+17
19388.0	5.246747022458883e+17
19389.0	5.2462648893112314e+17
19390.0	5.245050273398782e+17
19391.0	5.224099359315257e+17
19392.0	5.241731607254357e+17
19393.0	5.24245676466722e+17
19394.0	5.2407612955688954e+17
19395.0	5.238267734305448e+17
19396.0	5.23672482882082e+17
19397.0	5.2344323641617056e+17
19398.0	5.23251415654946e+17
19399.0	5.2304436915077094e+17
19400.0	5.228064018879828e+17
19401.0	5.226079540565332e+17
19402.0	5.224409253369172e+17
19403.0	5.220776207362731e+17
19404.0	5.2182323878516045e+17
19405.0	5.216709617123326e+17
19406.0	5.213079667212287e+17
19407.0	5.210617099758248e+17
19408.0	5.2060045698225485e+17
19409.0	5.20365195255262e+17
19410.0	5.198301696972117e+17
19411.0	5.194550115041279e+17
19412.0	5.1905258544168954e+17
19413.0	5.186627572509354e+17
19414.0	5.1826474869937485e+17
19415.0	5.177957395988478e+17
19416.0	5.1726509890600934e+17
19417.0	5.168071169802239e+17
19418.0	5.164616206254079e+17
19419.0	5.1613322549657594e+17
19420.0	5.155391126110207e+17
19421.0	5.1509820038403405e+17
19422.0	5.144709164957694e+17
19423.0	5.1396790333385376e+17
19424.0	5.1321041867243514e+17
19425.0	5.1237508185675117e+17
19426.0	5.115378647345831e+17
19427.0	5.1027507849898694e+17
19428.0	5.0897868701040634e+17
19429.0	5.074013927069014e+17
19430.0	5.050464657036626e+17
19431.0	5.0321281330271584e+17
19432.0	5.031718366303563e+17
19433.0	5.0266218241720365e+17
19434.0	5.013112557491549e+17
19435.0	4.990747269573289e+17
19436.0	4.9695623287057043e+17
19437.0	4.9533102171968826e+17
19438.0	4.9052728164351866e+17
19439.0	4.9171048466568525e+17
19440.0	4.89614710145024e+17
19441.0	4.868710609889959e+17
19442.0	4.834145839961447e+17
19443.0	4.762847352105637e+17
19444.0	4.682276684169204e+17
19445.0	4.661640196085084e+17
19446.0	4.595776040730616e+17
19447.0	4.514433204923026e+17
19448.0	4.362277154542946e+17
19449.0	4.192345275411125e+17
19450.0	3.7614163496796045e+17
19451.0	3.640676816956069e+17
19452.0	3.994580576545454e+17
19453.0	4.3044379449535155e+17
19454.0	4.430052756291575e+17
19455.0	4.55777550598144e+17
19456.0	4.623413488386051e+17
19457.0	4.665571521418569e+17
19458.0	4.66937394180918e+17
19459.0	4.7935980827224966e+17
19460.0	4.837702718106289e+17
19461.0	4.865848441307137e+17
19462.0	4.8889574324524397e+17
19463.0	4.907272423604219e+17
19464.0	4.922104180899839e+17
19465.0	4.937920305692672e+17
19466.0	4.9542555944441146e+17
19467.0	4.972933357240321e+17
19468.0	4.992144484510386e+17
19469.0	4.9972595361054726e+17
19470.0	4.998582028817748e+17
19471.0	5.005413876148921e+17
19472.0	5.025207100112896e+17
19473.0	5.042478413512692e+17
19474.0	5.055568557375488e+17
19475.0	5.0650799511961626e+17
19476.0	5.0731580471814816e+17
19477.0	5.079147679667542e+17
19478.0	5.0873664001802195e+17
19479.0	5.089102368778922e+17
19480.0	5.0946017018074477e+17
19481.0	5.0974291862923936e+17
19482.0	5.100107530414762e+17
19483.0	5.103674213444266e+17
19484.0	5.104786403054932e+17
19485.0	5.107030564012032e+17
19486.0	5.109107862973099e+17
19487.0	5.1130261132629344e+17
19488.0	5.115187117249877e+17
19489.0	5.1168033839076685e+17
19490.0	5.1183708694118374e+17
19491.0	5.121083683722582e+17
19492.0	5.122874657122985e+17
19493.0	5.126242442761556e+17
19494.0	5.126650591881895e+17
19495.0	5.128482281488384e+17
19496.0	5.129003474791081e+17
19497.0	5.130786742555989e+17
19498.0	5.128646918406143e+17
19499.0	5.099307107614681e+17
19500.0	5.132262246973439e+17
19501.0	5.132128215891968e+17
19502.0	5.132138561142783e+17
19503.0	5.1328237034973875e+17
19504.0	5.132665700570453e+17
19505.0	5.132564906551978e+17
19506.0	5.132786259547477e+17
19507.0	5.132437583560703e+17
19508.0	5.1330020935379616e+17
19509.0	5.1327886006681594e+17
19510.0	5.1311170188301626e+17
19511.0	5.091778103345116e+17
19512.0	5.1261579415169504e+17
19513.0	5.1195625187136704e+17
19514.0	5.122279521736014e+17
19515.0	5.1254228890419226e+17
19516.0	5.125191148153513e+17
19517.0	5.1247774730376525e+17
19518.0	5.124773368911188e+17
19519.0	5.124271468008788e+17
19520.0	5.1237628695019514e+17
19521.0	5.123145941210451e+17
19522.0	5.1190825554193043e+17
19523.0	5.1184791600496634e+17
19524.0	5.117915342831615e+17
19525.0	5.117329612472319e+17
19526.0	5.1167530340843514e+17
19527.0	5.116400330866687e+17
19528.0	5.1164191632916474e+17
19529.0	5.115787080280745e+17
19530.0	5.1151505792696314e+17
19531.0	5.1144955687949645e+17
19532.0	5.1129709504757734e+17
19533.0	5.110516944994304e+17
19534.0	5.1098393384058874e+17
19535.0	5.1091457550144845e+17
19536.0	5.108440258401619e+17
19537.0	5.107752776324436e+17
19538.0	5.1067056543498234e+17
19539.0	5.1056280775338675e+17
19540.0	5.1051397815555405e+17
19541.0	5.1044170924905805e+17
19542.0	5.10367347384866e+17
19543.0	5.102924647978325e+17
19544.0	5.1021731713078605e+17
19545.0	5.10128570901026e+17
19546.0	5.100215469430101e+17
19547.0	5.099886937287338e+17
19548.0	5.099159157735423e+17
19549.0	5.099032709256534e+17
19550.0	5.098376183939072e+17
19551.0	5.097585224187903e+17
19552.0	5.09678878457856e+17
19553.0	5.095981220276906e+17
19554.0	5.093384535059111e+17
19555.0	5.0933366927305363e+17
19556.0	5.0936973071045965e+17
19557.0	5.092879161972053e+17
19558.0	5.092056797369685e+17
19559.0	5.0912321231039136e+17
19560.0	5.090398488406697e+17
19561.0	5.0895698092796576e+17
19562.0	5.089292510560255e+17
19563.0	5.0885439062889805e+17
19564.0	5.087706380675754e+17
19565.0	5.0868630368638285e+17
19566.0	5.0860092848865274e+17
19567.0	5.0851756529855136e+17
19568.0	5.0843184253282976e+17
19569.0	5.083471428277588e+17
19570.0	5.082627635675135e+17
19571.0	5.0817729476689914e+17
19572.0	5.080902435951957e+17
19573.0	5.0800557898246816e+17
19574.0	5.0791643408411296e+17
19575.0	5.0783371968293536e+17
19576.0	5.0774771967371936e+17
19577.0	5.0766075686202016e+17
19578.0	5.0757683373233485e+17
19579.0	5.0749113473433594e+17
19580.0	5.074045378756607e+17
19581.0	5.073177691204266e+17
19582.0	5.0723144433227085e+17
19583.0	5.0714419260293114e+17
19584.0	5.0705587670876154e+17
19585.0	5.0696462270463994e+17
19586.0	5.068748602649257e+17
19587.0	5.0678305457001805e+17
19588.0	5.06685960486912e+17
19589.0	5.0661566465092256e+17
19590.0	5.065252994198185e+17
19591.0	5.0644192064088736e+17
19592.0	5.063539230943914e+17
19593.0	5.0626484013192525e+17
19594.0	5.0637266611077075e+17
19595.0	5.0644258383025485e+17
19596.0	5.061313693395626e+17
19597.0	5.0626110894899194e+17
19598.0	5.0616196986306554e+17
19599.0	5.060879446616746e+17
19600.0	5.0599930356913485e+17
19601.0	5.059073387003904e+17
19602.0	5.058187382226943e+17
19603.0	5.05687124947763e+17
19604.0	5.0563886668404045e+17
19605.0	5.055405115135318e+17
19606.0	5.0546338329613645e+17
19607.0	5.053743201168042e+17
19608.0	5.052739706945535e+17
19609.0	5.0515940321088845e+17
19610.0	5.050723618258942e+17
19611.0	5.0498223399239674e+17
19612.0	5.0489332795965434e+17
19613.0	5.048031445516287e+17
19614.0	5.0471231661888845e+17
19615.0	5.0462376577378976e+17
19616.0	5.045172665931091e+17
19617.0	5.044443533017088e+17
19618.0	5.0433362206829216e+17
19619.0	5.0423316827777696e+17
19620.0	5.041473821780649e+17
19621.0	5.040849988266666e+17
19622.0	5.039955581599743e+17
19623.0	5.039056566790826e+17
19624.0	5.0381532779861325e+17
19625.0	5.0372543533547514e+17
19626.0	5.0363542543182496e+17
19627.0	5.035453316420948e+17
19628.0	5.034155409320619e+17
19629.0	5.033610943922175e+17
19630.0	5.032103973836115e+17
19631.0	5.0136622930329434e+17
19632.0	5.0309460006010874e+17
19633.0	5.0300179437322234e+17
19634.0	5.0291501170687994e+17
19635.0	5.028233151337813e+17
19636.0	5.0273407872969376e+17
19637.0	5.026292316154538e+17
19638.0	5.0255397559555405e+17
19639.0	5.0246327866490874e+17
19640.0	5.023700260050261e+17
19641.0	5.022485584019456e+17
19642.0	5.0219371480132256e+17
19643.0	5.0210265387499514e+17
19644.0	5.020107883413504e+17
19645.0	5.019118675689471e+17
19646.0	5.018328812748798e+17
19647.0	5.017429567952213e+17
19648.0	5.016527267605162e+17
19649.0	5.0156229497978874e+17
19650.0	5.0147235826674336e+17
19651.0	5.013818765038931e+17
19652.0	5.0129165199168845e+17
19653.0	5.012011131863039e+17
19654.0	5.011119276731049e+17
19655.0	5.010213678262954e+17
