# Flux units: erg / (cm m2 s)
# Wavelength units: Angstrom
wave	flux
19000.0	7.074322219444905e+17
19001.0	7.072772015871316e+17
19002.0	7.071672603508735e+17
19003.0	7.07033578934545e+17
19004.0	7.069009922315603e+17
19005.0	7.067670531451561e+17
19006.0	7.066345099231232e+17
19007.0	7.064947327849812e+17
19008.0	7.063533193090387e+17
19009.0	7.062164314871123e+17
19010.0	7.060003785539581e+17
19011.0	7.059621207692628e+17
19012.0	7.058114694785705e+17
19013.0	7.057017796209322e+17
19014.0	7.055547856235177e+17
19015.0	7.054278731147945e+17
19016.0	7.052925840217428e+17
19017.0	7.051509555178152e+17
19018.0	7.050344882241533e+17
19019.0	7.049020248337066e+17
19020.0	7.047595890660692e+17
19021.0	7.046331482767359e+17
19022.0	7.045046981361663e+17
19023.0	7.043627655451987e+17
19024.0	7.042351946705577e+17
19025.0	7.041061229341353e+17
19026.0	7.039675580896598e+17
19027.0	7.038341404950527e+17
19028.0	7.037072804151296e+17
19029.0	7.035709339380393e+17
19030.0	7.034439904613715e+17
19031.0	7.033124947667625e+17
19032.0	7.031791235192148e+17
19033.0	7.03025200182067e+17
19034.0	7.029092979310592e+17
19035.0	7.027722547101695e+17
19036.0	7.019481052217343e+17
19037.0	7.025119723519999e+17
19038.0	7.023765044417876e+17
19039.0	7.022482706573993e+17
19040.0	7.021167228136105e+17
19041.0	7.019819744362493e+17
19042.0	7.018299679659348e+17
19043.0	7.017187090890751e+17
19044.0	7.015829013703338e+17
19045.0	7.014530822788436e+17
19046.0	7.013056035596969e+17
19047.0	7.011835656710825e+17
19048.0	7.010068900522665e+17
19049.0	7.009056754849108e+17
19050.0	7.00777673785344e+17
19051.0	7.005434553215654e+17
19052.0	7.005057097312938e+17
19053.0	7.00389105213986e+17
19054.0	7.0025779085312e+17
19055.0	7.000668320213674e+17
19056.0	6.999869786947583e+17
19057.0	6.998587258262868e+17
19058.0	6.997231323665748e+17
19059.0	6.995947222816084e+17
19060.0	6.994576037729619e+17
19061.0	6.993309847956137e+17
19062.0	6.991967867808426e+17
19063.0	6.990653398100649e+17
19064.0	6.98902310289408e+17
19065.0	6.987579742923434e+17
19066.0	6.986538159527252e+17
19067.0	6.985322638344191e+17
19068.0	6.984031935660032e+17
19069.0	6.982708328660991e+17
19070.0	6.981313886158847e+17
19071.0	6.980049547471529e+17
19072.0	6.978740619138387e+17
19073.0	6.977395094803796e+17
19074.0	6.976094079025151e+17
19075.0	6.974770942487209e+17
19076.0	6.973398908054186e+17
19077.0	6.972096883545428e+17
19078.0	6.970682791428095e+17
19079.0	6.969468771805865e+17
19080.0	6.968114500250281e+17
19081.0	6.966732638562985e+17
19082.0	6.965390975784276e+17
19083.0	6.963909734957055e+17
19084.0	6.962293441735338e+17
19085.0	6.961512429475156e+17
19086.0	6.959318149278378e+17
19087.0	6.958670791311359e+17
19088.0	6.957393629238612e+17
19089.0	6.955722267601578e+17
19090.0	6.954870705750015e+17
19091.0	6.953547070089897e+17
19092.0	6.952121728849235e+17
19093.0	6.950973327015935e+17
19094.0	6.949645800439808e+17
19095.0	6.948328751934121e+17
19096.0	6.946976783750484e+17
19097.0	6.945693456050857e+17
19098.0	6.944370414583807e+17
19099.0	6.943044982363475e+17
19100.0	6.941722368715434e+17
19101.0	6.940418809790461e+17
19102.0	6.938893156177236e+17
19103.0	6.937769969800531e+17
19104.0	6.936469234341204e+17
19105.0	6.935142762632532e+17
19106.0	6.933792711245823e+17
19107.0	6.932469145490771e+17
19108.0	6.931196385340074e+17
19109.0	6.929197994519208e+17
19110.0	6.928545815898794e+17
19111.0	6.927245300640426e+17
19112.0	6.925928606553428e+17
19113.0	6.924607314810196e+17
19114.0	6.923281023456596e+17
19115.0	6.921861644419071e+17
19116.0	6.920607030225577e+17
19117.0	6.919283390371155e+17
19118.0	6.917815236471466e+17
19119.0	6.910206743849633e+17
19120.0	6.915304026974889e+17
19121.0	6.914038780220755e+17
19122.0	6.912768431095807e+17
19123.0	6.911438759832234e+17
19124.0	6.910099275994452e+17
19125.0	6.908807754022911e+17
19126.0	6.907489065544361e+17
19127.0	6.902310159166121e+17
19128.0	6.904369939917481e+17
19129.0	6.903364860947113e+17
19130.0	6.902199849669972e+17
19131.0	6.900913897734143e+17
19132.0	6.899609813822121e+17
19133.0	6.897317574956374e+17
19134.0	6.89676277129762e+17
19135.0	6.895668829705556e+17
19136.0	6.894372480090111e+17
19137.0	6.892692233519104e+17
19138.0	6.891676584902655e+17
19139.0	6.890431135962452e+17
19140.0	6.889122741004969e+17
19141.0	6.887810380333055e+17
19142.0	6.88644144828689e+17
19143.0	6.885054048021162e+17
19144.0	6.883779948489385e+17
19145.0	6.88254916703027e+17
19146.0	6.879898289307648e+17
19147.0	6.879712901070847e+17
19148.0	6.878618822464852e+17
19149.0	6.87730041360657e+17
19150.0	6.875984129163261e+17
19151.0	6.874682907164672e+17
19152.0	6.873348096480596e+17
19153.0	6.872030476151465e+17
19154.0	6.870471693129043e+17
19155.0	6.869456764534783e+17
19156.0	6.868140097710762e+17
19157.0	6.866817444915881e+17
19158.0	6.865037183767891e+17
19159.0	6.86417450840883e+17
19160.0	6.862851845128191e+17
19161.0	6.861541737496575e+17
19162.0	6.859213521289216e+17
19163.0	6.858948960671059e+17
19164.0	6.857671456762538e+17
19165.0	6.856325027856383e+17
19166.0	6.854799191091881e+17
19167.0	6.853646673947305e+17
19168.0	6.852198726806185e+17
19169.0	6.850981568446461e+17
19170.0	6.849818167782057e+17
19171.0	6.848442245928275e+17
19172.0	6.847194735487657e+17
19173.0	6.845895345001812e+17
19174.0	6.844453209767935e+17
19175.0	6.843280148223316e+17
19176.0	6.841962275536896e+17
19177.0	6.840320814394025e+17
19178.0	6.839336144906921e+17
19179.0	6.837964348850175e+17
19180.0	6.836647741445459e+17
19181.0	6.835212092702719e+17
19182.0	6.833997914395987e+17
19183.0	6.832809803688617e+17
19184.0	6.831300347079336e+17
19185.0	6.830164757446655e+17
19186.0	6.828897714132308e+17
19187.0	6.827408556556287e+17
19188.0	6.826275949073748e+17
19189.0	6.824963382880936e+17
19190.0	6.823652729989801e+17
19191.0	6.822289864305321e+17
19192.0	6.821056864758441e+17
19193.0	6.819698143745363e+17
19194.0	6.818392551981055e+17
19195.0	6.817130075564714e+17
19196.0	6.815793823438164e+17
19197.0	6.81450543321361e+17
19198.0	6.813208868290559e+17
19199.0	6.805561915299155e+17
19200.0	6.806252353661612e+17
19201.0	6.809294825586687e+17
19202.0	6.808001407090687e+17
19203.0	6.806684390741331e+17
19204.0	6.805143281117865e+17
19205.0	6.803823586705407e+17
19206.0	6.802495670059007e+17
19207.0	6.800995210231807e+17
19208.0	6.799485303433897e+17
19209.0	6.798589446236841e+17
19210.0	6.797288316512937e+17
19211.0	6.79601020792559e+17
19212.0	6.794705503256575e+17
19213.0	6.793188059294376e+17
19214.0	6.7918083143325e+17
19215.0	6.790770099661481e+17
19216.0	6.789443740499968e+17
19217.0	6.788165263512915e+17
19218.0	6.78500282680388e+17
19219.0	6.785192073101311e+17
19220.0	6.784200437574314e+17
19221.0	6.782200938059094e+17
19222.0	6.781632759463935e+17
19223.0	6.780279587515049e+17
19224.0	6.778854972588031e+17
19225.0	6.777356055565652e+17
19226.0	6.776351634401962e+17
19227.0	6.7750411122333e+17
19228.0	6.773797545836543e+17
19229.0	6.772494713924266e+17
19230.0	6.771134740911444e+17
19231.0	6.769824415875072e+17
19232.0	6.768491052225876e+17
19233.0	6.767092000183636e+17
19234.0	6.765886821455187e+17
19235.0	6.764550481248255e+17
19236.0	6.763331189385898e+17
19237.0	6.761977830790484e+17
19238.0	6.760502457794559e+17
19239.0	6.759406187664724e+17
19240.0	6.757650348550825e+17
19241.0	6.756584708724052e+17
19242.0	6.755413586345983e+17
19243.0	6.753738688211625e+17
19244.0	6.752847860684115e+17
19245.0	6.751526467578537e+17
19246.0	6.750184681766911e+17
19247.0	6.748889981911039e+17
19248.0	6.747604582924287e+17
19249.0	6.746284247482367e+17
19250.0	6.744928971390975e+17
19251.0	6.743346352837972e+17
19252.0	6.741666785045161e+17
19253.0	6.740979617540777e+17
19254.0	6.739647238154921e+17
19255.0	6.737969462028969e+17
19256.0	6.736974769553407e+17
19257.0	6.735759552457385e+17
19258.0	6.73444425507362e+17
19259.0	6.732963049198932e+17
19260.0	6.731659238615721e+17
19261.0	6.730457171361791e+17
19262.0	6.729034003469652e+17
19263.0	6.727719040931155e+17
19264.0	6.725338207180115e+17
19265.0	6.72478813819153e+17
19266.0	6.723549046418089e+17
19267.0	6.722566159510185e+17
19268.0	6.721224547762175e+17
19269.0	6.719907667028649e+17
19270.0	6.718587871253844e+17
19271.0	6.716514921786028e+17
19272.0	6.715846046340436e+17
19273.0	6.702678063185908e+17
19274.0	6.706742861059404e+17
19275.0	6.711947541435731e+17
19276.0	6.71057221657122e+17
19277.0	6.709248911562067e+17
19278.0	6.707921947022675e+17
19279.0	6.70651982684706e+17
19280.0	6.705062365626367e+17
19281.0	6.703903285095082e+17
19282.0	6.702605972886868e+17
19283.0	6.701164939356841e+17
19284.0	6.699708068134911e+17
19285.0	6.698087908463956e+17
19286.0	6.697163650236415e+17
19287.0	6.695903174503081e+17
19288.0	6.692372085036369e+17
19289.0	6.688420604674042e+17
19290.0	6.691439433307476e+17
19291.0	6.689472486484652e+17
19292.0	6.688738360251732e+17
19293.0	6.687366610332329e+17
19294.0	6.686004446494719e+17
19295.0	6.6846751995549e+17
19296.0	6.683301864188585e+17
19297.0	6.681901983072255e+17
19298.0	6.680522497458175e+17
19299.0	6.679227761251668e+17
19300.0	6.677859505187497e+17
19301.0	6.676475718314665e+17
19302.0	6.675080140554237e+17
19303.0	6.673551039223123e+17
19304.0	6.672247232135168e+17
19305.0	6.670949155165523e+17
19306.0	6.669590537611946e+17
19307.0	6.668106812358655e+17
19308.0	6.666794422326612e+17
19309.0	6.66524584055057e+17
19310.0	6.663734735579817e+17
19311.0	6.662605045235711e+17
19312.0	6.661258249327956e+17
19313.0	6.65976806973986e+17
19314.0	6.654959529492481e+17
19315.0	6.653691178953389e+17
19316.0	6.655675239235583e+17
19317.0	6.654255867887615e+17
19318.0	6.652826090471423e+17
19319.0	6.651440211339946e+17
19320.0	6.649991344248147e+17
19321.0	6.648591017836543e+17
19322.0	6.646882244405929e+17
19323.0	6.645612198668969e+17
19324.0	6.644272170969769e+17
19325.0	6.642655961634131e+17
19326.0	6.641377075702441e+17
19327.0	6.639895489544191e+17
19328.0	6.638471708584618e+17
19329.0	6.637008072649385e+17
19330.0	6.635446621350569e+17
19331.0	6.633956408208042e+17
19332.0	6.632564345274367e+17
19333.0	6.631043817100628e+17
19334.0	6.629121817138518e+17
19335.0	6.627521439902378e+17
19336.0	6.626007599546367e+17
19337.0	6.624479090311167e+17
19338.0	6.622484280726867e+17
19339.0	6.621429158816425e+17
19340.0	6.619757453246464e+17
19341.0	6.618304471542441e+17
19342.0	6.615876368684371e+17
19343.0	6.61521346802483e+17
19344.0	6.613618487459839e+17
19345.0	6.607866106478583e+17
19346.0	6.60859025376324e+17
19347.0	6.608711140595028e+17
19348.0	6.607252458831871e+17
19349.0	6.60554744070144e+17
19350.0	6.603925427847167e+17
19351.0	6.602252982681597e+17
19352.0	6.600504750637055e+17
19353.0	6.598485353343657e+17
19354.0	6.596598338770259e+17
19355.0	6.594668090010282e+17
19356.0	6.593174069138772e+17
19357.0	6.591430260686847e+17
19358.0	6.589559466885119e+17
19359.0	6.587293518615892e+17
19360.0	6.586038622005929e+17
19361.0	6.584251916309843e+17
19362.0	6.582532708149929e+17
19363.0	6.580688669114367e+17
19364.0	6.578251150742868e+17
19365.0	6.576021971140607e+17
19366.0	6.574130479147689e+17
19367.0	6.572205772461396e+17
19368.0	6.569891937124351e+17
19369.0	6.567539019262633e+17
19370.0	6.564465580791124e+17
19371.0	6.563607022141437e+17
19372.0	6.56065294307601e+17
19373.0	6.558502247290195e+17
19374.0	6.556418628212052e+17
19375.0	6.554269133395284e+17
19376.0	6.552079210381311e+17
19377.0	6.549091095237972e+17
19378.0	6.546218700941993e+17
19379.0	6.543905619880617e+17
19380.0	6.541560908873728e+17
19381.0	6.538840849601876e+17
19382.0	6.53494694514961e+17
19383.0	6.532368572263082e+17
19384.0	6.530081586064041e+17
19385.0	6.526151173690707e+17
19386.0	6.522930862576979e+17
19387.0	6.519580402210134e+17
19388.0	6.515904609255423e+17
19389.0	6.512851127282345e+17
19390.0	6.509926725014867e+17
19391.0	6.501016552516257e+17
19392.0	6.503742979440637e+17
19393.0	6.500705407161683e+17
19394.0	6.497450281227604e+17
19395.0	6.493787538849791e+17
19396.0	6.489783258491561e+17
19397.0	6.486268952532308e+17
19398.0	6.482577587524948e+17
19399.0	6.477367309849939e+17
19400.0	6.474796485312511e+17
19401.0	6.469737625507156e+17
19402.0	6.465597987269289e+17
19403.0	6.461253787931988e+17
19404.0	6.45647626805794e+17
19405.0	6.450642741974356e+17
19406.0	6.445837002822996e+17
19407.0	6.439991474039466e+17
19408.0	6.432179139641347e+17
19409.0	6.427588305442131e+17
19410.0	6.420261086341801e+17
19411.0	6.413188222418945e+17
19412.0	6.405281607756458e+17
19413.0	6.395932166498985e+17
19414.0	6.386508251179689e+17
19415.0	6.375883341649233e+17
19416.0	6.363586480482984e+17
19417.0	6.351489748434945e+17
19418.0	6.341542088278015e+17
19419.0	6.332011597092179e+17
19420.0	6.322365401836201e+17
19421.0	6.312262540547412e+17
19422.0	6.301587374866431e+17
19423.0	6.290500785711785e+17
19424.0	6.278638096525994e+17
19425.0	6.265869386645503e+17
19426.0	6.252746052556115e+17
19427.0	6.238231404216319e+17
19428.0	6.22348403352098e+17
19429.0	6.206949916584617e+17
19430.0	6.189204638444202e+17
19431.0	6.168822911685975e+17
19432.0	6.148137278242815e+17
19433.0	6.122889848466089e+17
19434.0	6.093502143616344e+17
19435.0	6.057290488610813e+17
19436.0	6.019807815488854e+17
19437.0	5.989740644575914e+17
19438.0	5.950453600747519e+17
19439.0	5.920803642146817e+17
19440.0	5.881229799500454e+17
19441.0	5.835356263241042e+17
19442.0	5.780909963171159e+17
19443.0	5.711655031799809e+17
19444.0	5.639040701999783e+17
19445.0	5.564802244717229e+17
19446.0	5.4747797469702784e+17
19447.0	5.3603632526568e+17
19448.0	5.230602953424903e+17
19449.0	5.055581756151125e+17
19450.0	4.7615960800733504e+17
19451.0	4.6630069128396806e+17
19452.0	4.920265304353454e+17
19453.0	5.1510082580862355e+17
19454.0	5.295397297717241e+17
19455.0	5.4138028561530835e+17
19456.0	5.5141488341811226e+17
19457.0	5.592641154580478e+17
19458.0	5.657245452162396e+17
19459.0	5.7332562999814874e+17
19460.0	5.792004434122066e+17
19461.0	5.839204521082877e+17
19462.0	5.879358215072428e+17
19463.0	5.914822972189352e+17
19464.0	5.946549188864681e+17
19465.0	5.97579217834257e+17
19466.0	6.005658542757202e+17
19467.0	6.042652857685326e+17
19468.0	6.072243282335064e+17
19469.0	6.095268448217769e+17
19470.0	6.117717459337215e+17
19471.0	6.135878685906262e+17
19472.0	6.152135620165631e+17
19473.0	6.166575651138218e+17
19474.0	6.179591741068628e+17
19475.0	6.190795358994428e+17
19476.0	6.203163621195775e+17
19477.0	6.213639602175999e+17
19478.0	6.223748410288809e+17
19479.0	6.232693399704916e+17
19480.0	6.241063566049279e+17
19481.0	6.249003052171263e+17
19482.0	6.25641015878178e+17
19483.0	6.263616783952553e+17
19484.0	6.270312593926825e+17
19485.0	6.279144218296325e+17
19486.0	6.289105769289048e+17
19487.0	6.297964474881364e+17
19488.0	6.305969022347944e+17
19489.0	6.312198408241151e+17
19490.0	6.314977691784531e+17
19491.0	6.323757701748051e+17
19492.0	6.327724705928534e+17
19493.0	6.332560828618068e+17
19494.0	6.335425439683924e+17
19495.0	6.339822097880404e+17
19496.0	6.341576582933161e+17
19497.0	6.344749523577514e+17
19498.0	6.347425468557994e+17
19499.0	6.340636699525116e+17
19500.0	6.351839593234431e+17
19501.0	6.353781029601279e+17
19502.0	6.356086750358185e+17
19503.0	6.35745125671458e+17
19504.0	6.358660800315391e+17
19505.0	6.359803893557929e+17
19506.0	6.360846368243711e+17
19507.0	6.36237572612642e+17
19508.0	6.363443628081152e+17
19509.0	6.364170262588074e+17
19510.0	6.364410408162644e+17
19511.0	6.357224991490044e+17
19512.0	6.364353546682364e+17
19513.0	6.36300004268441e+17
19514.0	6.365022559141885e+17
19515.0	6.366969894098263e+17
19516.0	6.368523996277416e+17
19517.0	6.369559463679316e+17
19518.0	6.370903297709396e+17
19519.0	6.370951131649364e+17
19520.0	6.370897235542015e+17
19521.0	6.37206142263842e+17
19522.0	6.37225117225233e+17
19523.0	6.372220320350205e+17
19524.0	6.37205260341521e+17
19525.0	6.371992996762963e+17
19526.0	6.372835577211561e+17
19527.0	6.37254312726801e+17
19528.0	6.372230649522857e+17
19529.0	6.371872813875197e+17
19530.0	6.371519407412563e+17
19531.0	6.371387651041964e+17
19532.0	6.371718548073129e+17
19533.0	6.371260344827903e+17
19534.0	6.37075809509922e+17
19535.0	6.370203263478441e+17
19536.0	6.369620622923091e+17
19537.0	6.369291240734719e+17
19538.0	6.368701910963542e+17
19539.0	6.367202171857581e+17
19540.0	6.368479108136959e+17
19541.0	6.36789444313088e+17
19542.0	6.367222222727849e+17
19543.0	6.366537014662483e+17
19544.0	6.365852637069311e+17
19545.0	6.36410754446131e+17
19546.0	6.362514157731839e+17
19547.0	6.363667897516032e+17
19548.0	6.362922227859455e+17
19549.0	6.361918539300863e+17
19550.0	6.361373510467583e+17
19551.0	6.360584920498175e+17
19552.0	6.359963639218176e+17
19553.0	6.359564870658729e+17
19554.0	6.35869923971345e+17
19555.0	6.357915527719593e+17
19556.0	6.357099748174506e+17
19557.0	6.356229418210644e+17
19558.0	6.355357284696063e+17
19559.0	6.354442428699988e+17
19560.0	6.353533688698196e+17
19561.0	6.35263803073058e+17
19562.0	6.351783927130793e+17
19563.0	6.350884984324095e+17
19564.0	6.349965336335699e+17
19565.0	6.349030741945001e+17
19566.0	6.348040906473471e+17
19567.0	6.347164185089366e+17
19568.0	6.346151008316074e+17
19569.0	6.345221901473108e+17
19570.0	6.34430807867392e+17
19571.0	6.343337389501097e+17
19572.0	6.342295009886208e+17
19573.0	6.341347889206612e+17
19574.0	6.340203843857065e+17
19575.0	6.339423918620672e+17
19576.0	6.338436425667924e+17
19577.0	6.337752218643113e+17
19578.0	6.336836990752084e+17
19579.0	6.335873647902719e+17
19580.0	6.334866959717716e+17
19581.0	6.333886197923839e+17
19582.0	6.332905700371114e+17
19583.0	6.331884922120874e+17
19584.0	6.330845157654527e+17
19585.0	6.329577919305044e+17
19586.0	6.328464428062036e+17
19587.0	6.327699384216234e+17
19588.0	6.325646565310465e+17
19589.0	6.325616142625449e+17
19590.0	6.324460184054442e+17
19591.0	6.323576479853225e+17
19592.0	6.322540735627263e+17
19593.0	6.321440962554537e+17
19594.0	6.319890889004371e+17
19595.0	6.319274177418579e+17
19596.0	6.31716166308113e+17
19597.0	6.317185555234816e+17
19598.0	6.31553211376162e+17
19599.0	6.315106975612927e+17
19600.0	6.314052415040169e+17
19601.0	6.312828778577919e+17
19602.0	6.311797820751871e+17
19603.0	6.309883196473341e+17
19604.0	6.309625583719764e+17
19605.0	6.307984125373098e+17
19606.0	6.307566535573503e+17
19607.0	6.306511143829503e+17
19608.0	6.305387891742036e+17
19609.0	6.30421498958097e+17
19610.0	6.303253664890879e+17
19611.0	6.302146597224448e+17
19612.0	6.301079354474495e+17
19613.0	6.299957925511167e+17
19614.0	6.298796212355071e+17
19615.0	6.297798819446781e+17
19616.0	6.296652927205376e+17
19617.0	6.29559982694946e+17
19618.0	6.293275816929958e+17
19619.0	6.291914551372456e+17
19620.0	6.290850009754281e+17
19621.0	6.291190631279273e+17
19622.0	6.290098359719251e+17
19623.0	6.288999840743423e+17
19624.0	6.287871393311402e+17
19625.0	6.28678819193378e+17
19626.0	6.285656070291455e+17
19627.0	6.284573739231913e+17
19628.0	6.283305834687146e+17
19629.0	6.282154238192297e+17
19630.0	6.280885989714602e+17
19631.0	6.273455069943124e+17
19632.0	6.27900896387618e+17
19633.0	6.277805351720276e+17
19634.0	6.276793294826153e+17
19635.0	6.275584741780138e+17
19636.0	6.274539959528105e+17
19637.0	6.272520235078996e+17
19638.0	6.272309693601108e+17
19639.0	6.271176285705556e+17
19640.0	6.269883469092182e+17
19641.0	6.267609376183639e+17
19642.0	6.267838083192148e+17
19643.0	6.266687825379327e+17
19644.0	6.265481770041343e+17
19645.0	6.263906097954815e+17
19646.0	6.263388013330432e+17
19647.0	6.262267228891818e+17
19648.0	6.261134922700116e+17
19649.0	6.260006406062079e+17
19650.0	6.258901947252735e+17
19651.0	6.257764521213951e+17
19652.0	6.256633664154282e+17
19653.0	6.255528552431615e+17
19654.0	6.25438491812386e+17
19655.0	6.253248762260137e+17
19656.0	6.252144984326144e+17
19657.0	6.251018078999891e+17
19658.0	6.249905407044266e+17
19659.0	6.248775811071999e+17
19660.0	6.247660112926035e+17
19661.0	6.246527901106173e+17
19662.0	6.245408014947668e+17
19663.0	6.244171795573418e+17
19664.0	6.243113773301757e+17
19665.0	6.242028121751551e+17
