# Flux units: erg / (cm m2 s)
# Wavelength units: Angstrom
wave	flux
19000.0	3.8910627309158394e+17
19001.0	3.8903429464063994e+17
19002.0	3.88966064918801e+17
19003.0	3.888960381474132e+17
19004.0	3.8882599236184736e+17
19005.0	3.887555588128768e+17
19006.0	3.886835058431317e+17
19007.0	3.8861593973009056e+17
19008.0	3.885447707798186e+17
19009.0	3.884740055313066e+17
19010.0	3.883958301360127e+17
19011.0	3.8833538560163834e+17
19012.0	3.8826277527879674e+17
19013.0	3.8819624299178656e+17
19014.0	3.8812542461542394e+17
19015.0	3.880556311172436e+17
19016.0	3.8798483168515405e+17
19017.0	3.879167606478165e+17
19018.0	3.8784663314322765e+17
19019.0	3.877766701252608e+17
19020.0	3.8770731716881056e+17
19021.0	3.8763753744192845e+17
19022.0	3.875677655444138e+17
19023.0	3.87497731363089e+17
19024.0	3.874272647490218e+17
19025.0	3.8735842734243834e+17
19026.0	3.8728813737847456e+17
19027.0	3.8721750180386125e+17
19028.0	3.871494642510506e+17
19029.0	3.8707979958790816e+17
19030.0	3.870101535894187e+17
19031.0	3.869405176572586e+17
19032.0	3.8687058693543245e+17
19033.0	3.867997064134655e+17
19034.0	3.86731711992081e+17
19035.0	3.8666160979312634e+17
19036.0	3.8646033702802765e+17
19037.0	3.865230447389353e+17
19038.0	3.8645310674698234e+17
19039.0	3.863839488955732e+17
19040.0	3.86314425860096e+17
19041.0	3.862448793365163e+17
19042.0	3.861491280598356e+17
19043.0	3.8610611875785376e+17
19044.0	3.8603668596981754e+17
19045.0	3.8596715692250445e+17
19046.0	3.8589679642432845e+17
19047.0	3.8582823346503674e+17
19048.0	3.857507756452523e+17
19049.0	3.856381086706346e+17
19050.0	3.8561888799293434e+17
19051.0	3.8553358186141e+17
19052.0	3.854793590876842e+17
19053.0	3.85412467069201e+17
19054.0	3.8534317716712096e+17
19055.0	3.852622214376106e+17
19056.0	3.8520147526287354e+17
19057.0	3.851354335696212e+17
19058.0	3.8503962070657696e+17
19059.0	3.849863701026132e+17
19060.0	3.849273730924544e+17
19061.0	3.8485864012404045e+17
19062.0	3.847894829716821e+17
19063.0	3.84720335466223e+17
19064.0	3.846492436212393e+17
19065.0	3.8457929661153274e+17
19066.0	3.845020502545749e+17
19067.0	3.8444388826043725e+17
19068.0	3.8437484190760954e+17
19069.0	3.8430578674674336e+17
19070.0	3.84236750180625e+17
19071.0	3.8416771843795616e+17
19072.0	3.8408827098016416e+17
19073.0	3.840297244382549e+17
19074.0	3.839607508566015e+17
19075.0	3.838917841955498e+17
19076.0	3.838213182805333e+17
19077.0	3.837535045637461e+17
19078.0	3.8368436355945805e+17
19079.0	3.836160844846421e+17
19080.0	3.83547086995456e+17
19081.0	3.8347737983003296e+17
19082.0	3.8340868691722234e+17
19083.0	3.8333956702426445e+17
19084.0	3.8326861023586976e+17
19085.0	3.832028590680746e+17
19086.0	3.8311651841146874e+17
19087.0	3.8304132936062285e+17
19088.0	3.8298333360073376e+17
19089.0	3.8292396784134816e+17
19090.0	3.828591578753706e+17
19091.0	3.8278765352058874e+17
19092.0	3.827016203064661e+17
19093.0	3.826530415979178e+17
19094.0	3.8258436518270285e+17
19095.0	3.8251570512527354e+17
19096.0	3.8244672357444256e+17
19097.0	3.8237838116563616e+17
19098.0	3.8229907897057274e+17
19099.0	3.8222869113951565e+17
19100.0	3.8217188096955725e+17
19101.0	3.8210385928519674e+17
19102.0	3.820326251834027e+17
19103.0	3.819669684573525e+17
19104.0	3.818984256307199e+17
19105.0	3.81807114653969e+17
19106.0	3.817607483009706e+17
19107.0	3.8168727332235936e+17
19108.0	3.8161634239883936e+17
19109.0	3.815496772222976e+17
19110.0	3.814875293111638e+17
19111.0	3.8141286098315936e+17
19112.0	3.8134216605914445e+17
19113.0	3.812821447300436e+17
19114.0	3.812100515648853e+17
19115.0	3.811433671644501e+17
19116.0	3.810767256158208e+17
19117.0	3.8100871945038496e+17
19118.0	3.8093916153227936e+17
19119.0	3.805395433466533e+17
19120.0	3.80803173388561e+17
19121.0	3.807351598830933e+17
19122.0	3.806675702120448e+17
19123.0	3.805993306335914e+17
19124.0	3.805306856756565e+17
19125.0	3.8046284979896314e+17
19126.0	3.8039469872032416e+17
19127.0	3.8029010214584314e+17
19128.0	3.8025835350152525e+17
19129.0	3.8018908911479456e+17
19130.0	3.8012193886699514e+17
19131.0	3.800539472418133e+17
19132.0	3.799858400635561e+17
19133.0	3.799171932880895e+17
19134.0	3.7984967436096845e+17
19135.0	3.7978161206176416e+17
19136.0	3.797135660504404e+17
19137.0	3.796423225114623e+17
19138.0	3.7957747549579936e+17
19139.0	3.7950951672599885e+17
19140.0	3.794415309728425e+17
19141.0	3.7937355696373754e+17
19142.0	3.7930520218173434e+17
19143.0	3.7923651905563296e+17
19144.0	3.7916951931344205e+17
19145.0	3.7910182163906566e+17
19146.0	3.7902313356001274e+17
19147.0	3.789626126893055e+17
19148.0	3.788892229948758e+17
19149.0	3.788202043943595e+17
19150.0	3.787624441446399e+17
19151.0	3.786946239266816e+17
19152.0	3.7862675386641056e+17
19153.0	3.785411580482901e+17
19154.0	3.784864137827669e+17
19155.0	3.7842347797162656e+17
19156.0	3.7835572961607674e+17
19157.0	3.7828151811768314e+17
19158.0	3.7820375635066874e+17
19159.0	3.7815152027893754e+17
19160.0	3.78084841750528e+17
19161.0	3.7801717315665914e+17
19162.0	3.779397597265919e+17
19163.0	3.778818013659136e+17
19164.0	3.778139932415317e+17
19165.0	3.777269447961257e+17
19166.0	3.7767618337177594e+17
19167.0	3.7760946954130765e+17
19168.0	3.7754389530323616e+17
19169.0	3.774763426119679e+17
19170.0	3.774088019443712e+17
19171.0	3.7734062332313594e+17
19172.0	3.7727376003563514e+17
19173.0	3.772062655053824e+17
19174.0	3.7713757748592634e+17
19175.0	3.7707116291904845e+17
19176.0	3.7700386349383674e+17
19177.0	3.7693379519883936e+17
19178.0	3.768676650756778e+17
19179.0	3.7679921515287885e+17
19180.0	3.76734202462208e+17
19181.0	3.7666294927633056e+17
19182.0	3.765987293091157e+17
19183.0	3.765320678375423e+17
19184.0	3.7646424950702074e+17
19185.0	3.763974522798079e+17
19186.0	3.763301460738047e+17
19187.0	3.7626222910723405e+17
19188.0	3.761953095461547e+17
19189.0	3.7612831742361594e+17
19190.0	3.760610703572992e+17
19191.0	3.7599383943905274e+17
19192.0	3.7592662047457274e+17
19193.0	3.7585729044698445e+17
19194.0	3.757890320640682e+17
19195.0	3.7572505795297274e+17
19196.0	3.756578991767551e+17
19197.0	3.7559075424174074e+17
19198.0	3.7552362503536634e+17
19199.0	3.7539429891440634e+17
19200.0	3.753483851268096e+17
19201.0	3.753220641914879e+17
19202.0	3.7525525522022394e+17
19203.0	3.751881965480618e+17
19204.0	3.751206274291029e+17
19205.0	3.7505411317759994e+17
19206.0	3.7498708785015456e+17
19207.0	3.749183856399701e+17
19208.0	3.7484761060474874e+17
19209.0	3.747861725096618e+17
19210.0	3.747192210019669e+17
19211.0	3.74652279141171e+17
19212.0	3.7458535797227514e+17
19213.0	3.745167915876351e+17
19214.0	3.7444931928719354e+17
19215.0	3.7438444556779514e+17
19216.0	3.7431780709498874e+17
19217.0	3.7425095492239354e+17
19218.0	3.7416865701560314e+17
19219.0	3.74115159506944e+17
19220.0	3.740500392323754e+17
19221.0	3.7397758116276915e+17
19222.0	3.739168457534121e+17
19223.0	3.738501540828501e+17
19224.0	3.737828829691904e+17
19225.0	3.737140220045995e+17
19226.0	3.7364995142451194e+17
19227.0	3.7358324612246176e+17
19228.0	3.7351655696848205e+17
19229.0	3.734498818654206e+17
19230.0	3.733832194850816e+17
19231.0	3.7331657660825594e+17
19232.0	3.7324980741297485e+17
19233.0	3.7318217761641805e+17
19234.0	3.7311624609355085e+17
19235.0	3.730501295319722e+17
19236.0	3.729835555116372e+17
19237.0	3.729166576910336e+17
19238.0	3.728485654724608e+17
19239.0	3.7278391321231354e+17
19240.0	3.727174018269184e+17
19241.0	3.726509009272831e+17
19242.0	3.725843782871722e+17
19243.0	3.7251565468603725e+17
19244.0	3.7245148302322336e+17
19245.0	3.7238503860688205e+17
19246.0	3.723186107580415e+17
19247.0	3.722522009447082e+17
19248.0	3.7218578959346336e+17
19249.0	3.7211906660543136e+17
19250.0	3.7204961704017914e+17
19251.0	3.719815157339478e+17
19252.0	3.7191615959968416e+17
19253.0	3.7185368809799674e+17
19254.0	3.7178769743544314e+17
19255.0	3.7171856670719994e+17
19256.0	3.716545816210091e+17
19257.0	3.7158884422451194e+17
19258.0	3.715225877828948e+17
19259.0	3.714552574596437e+17
19260.0	3.713865913903787e+17
19261.0	3.713239082860544e+17
19262.0	3.7125705625326925e+17
19263.0	3.7119021869083296e+17
19264.0	3.7111373611663354e+17
19265.0	3.7105406039818234e+17
19266.0	3.7098314751016954e+17
19267.0	3.709262853308415e+17
19268.0	3.708601695382187e+17
19269.0	3.7079406430126074e+17
19270.0	3.707279697597781e+17
19271.0	3.7065474168586234e+17
19272.0	3.7059517466978976e+17
19273.0	3.705231402947925e+17
19274.0	3.7045636187204256e+17
19275.0	3.703977419997183e+17
19276.0	3.703313748284757e+17
19277.0	3.702657475324586e+17
19278.0	3.7019949507543034e+17
19279.0	3.7013379563738445e+17
19280.0	3.7006655150708045e+17
19281.0	3.700019248321876e+17
19282.0	3.6993601302254925e+17
19283.0	3.6986928115657376e+17
19284.0	3.698040985266858e+17
19285.0	3.6973564412996256e+17
19286.0	3.6967192034891085e+17
19287.0	3.6960663076427085e+17
19288.0	3.6950534482384205e+17
19289.0	3.6938643204123283e+17
19290.0	3.6940917369733114e+17
19291.0	3.6933943724168525e+17
19292.0	3.692776039033514e+17
19293.0	3.692118444867584e+17
19294.0	3.691460926199125e+17
19295.0	3.690803669674666e+17
19296.0	3.69004613992448e+17
19297.0	3.689466280891733e+17
19298.0	3.688829157725525e+17
19299.0	3.688058242553174e+17
19300.0	3.6875108649096525e+17
19301.0	3.6868624814353056e+17
19302.0	3.6862031704009376e+17
19303.0	3.685536464808619e+17
19304.0	3.684887652117163e+17
19305.0	3.68423786774528e+17
19306.0	3.6835820561585485e+17
19307.0	3.6829160524130976e+17
19308.0	3.6822658318335994e+17
19309.0	3.6815928173090125e+17
19310.0	3.6809292036177914e+17
19311.0	3.680296648747689e+17
19312.0	3.6796497975924045e+17
19313.0	3.6789937630085114e+17
19314.0	3.673114795136342e+17
19315.0	3.6727153792559846e+17
19316.0	3.676893543574186e+17
19317.0	3.676375630217216e+17
19318.0	3.6757232369882445e+17
19319.0	3.675069370160469e+17
19320.0	3.674369437990912e+17
19321.0	3.673671789619882e+17
19322.0	3.6730954041698976e+17
19323.0	3.6724454834831354e+17
19324.0	3.671801621468501e+17
19325.0	3.671127436733098e+17
19326.0	3.670495446695935e+17
19327.0	3.669835994453333e+17
19328.0	3.668984550042282e+17
19329.0	3.6685371918690976e+17
19330.0	3.667877438335658e+17
19331.0	3.66722515206144e+17
19332.0	3.6665794753112736e+17
19333.0	3.665928077530452e+17
19334.0	3.665265504026623e+17
19335.0	3.6642124380241914e+17
19336.0	3.6639654774046714e+17
19337.0	3.6633211232583674e+17
19338.0	3.662631966255786e+17
19339.0	3.6620184619144525e+17
19340.0	3.661289130470058e+17
19341.0	3.66055211995409e+17
19342.0	3.659946070289066e+17
19343.0	3.6594147302659405e+17
19344.0	3.658617768465749e+17
19345.0	3.6576051250681165e+17
19346.0	3.6572821951173965e+17
19347.0	3.656614193485142e+17
19348.0	3.6561629975237965e+17
19349.0	3.6555092684090016e+17
19350.0	3.654793894909268e+17
19351.0	3.6542060135710714e+17
19352.0	3.653348395144532e+17
19353.0	3.6529126195418445e+17
19354.0	3.65226527695394e+17
19355.0	3.65160074121489e+17
19356.0	3.650967036406442e+17
19357.0	3.650318116760234e+17
19358.0	3.649669213891242e+17
19359.0	3.6489638200388256e+17
19360.0	3.648218479635114e+17
19361.0	3.6477161474184525e+17
19362.0	3.6470753297694714e+17
19363.0	3.646426912041642e+17
19364.0	3.645778460060331e+17
19365.0	3.6451311195695776e+17
19366.0	3.6444832673737376e+17
19367.0	3.643835568969044e+17
19368.0	3.6431879733248e+17
19369.0	3.6425343630486176e+17
19370.0	3.641891080546985e+17
19371.0	3.641236781006847e+17
19372.0	3.6405986379257165e+17
19373.0	3.639951635076437e+17
19374.0	3.63930470842368e+17
19375.0	3.6386578572683936e+17
19376.0	3.6380111298450765e+17
19377.0	3.637364488404991e+17
19378.0	3.6367179602111136e+17
19379.0	3.6360715200976205e+17
19380.0	3.6354251806474234e+17
19381.0	3.6347776395291296e+17
19382.0	3.63412124143889e+17
19383.0	3.633466191817386e+17
19384.0	3.6328348337220256e+17
19385.0	3.6321946654911136e+17
19386.0	3.63154889576721e+17
19387.0	3.630903123946154e+17
19388.0	3.6302574178358605e+17
19389.0	3.62961136779264e+17
19390.0	3.6289661356386976e+17
19391.0	3.6270889441252666e+17
19392.0	3.6276630485729274e+17
19393.0	3.627029633870506e+17
19394.0	3.6263841892051616e+17
19395.0	3.6256808813199354e+17
19396.0	3.625075355243861e+17
19397.0	3.624447772022101e+17
19398.0	3.6237461006144845e+17
19399.0	3.622921640957268e+17
19400.0	3.6224584646656e+17
19401.0	3.6218655424730445e+17
19402.0	3.621220560579242e+17
19403.0	3.620574917383508e+17
19404.0	3.619929183311189e+17
19405.0	3.619283287758165e+17
19406.0	3.6186372475016525e+17
19407.0	3.617916188622847e+17
19408.0	3.6171688125835936e+17
19409.0	3.6166979537250976e+17
19410.0	3.616051283623936e+17
19411.0	3.615404122789205e+17
19412.0	3.614754964067669e+17
19413.0	3.614031761200469e+17
19414.0	3.6134527417275725e+17
19415.0	3.612811382314325e+17
19416.0	3.6121326306809165e+17
19417.0	3.6115061946013e+17
19418.0	3.6108605989410125e+17
19419.0	3.610208668483584e+17
19420.0	3.6095556496042656e+17
19421.0	3.6089014220663456e+17
19422.0	3.6082378195599354e+17
19423.0	3.6075884986586445e+17
19424.0	3.6069292847923194e+17
19425.0	3.6062672859081376e+17
19426.0	3.605603479278932e+17
19427.0	3.604936642265087e+17
19428.0	3.6042658695959885e+17
19429.0	3.6035906257988256e+17
19430.0	3.6028953367237965e+17
19431.0	3.602009731104768e+17
19432.0	3.601528735312554e+17
19433.0	3.600824567595008e+17
19434.0	3.600108402070868e+17
19435.0	3.599349739858602e+17
19436.0	3.5985065987713696e+17
19437.0	3.5978351494212256e+17
19438.0	3.594181226965675e+17
19439.0	3.5961057008680954e+17
19440.0	3.595249486834346e+17
19441.0	3.594246899979605e+17
19442.0	3.5931043918424736e+17
19443.0	3.591760268405418e+17
19444.0	3.590080374155946e+17
19445.0	3.587832984982869e+17
19446.0	3.5844775424819194e+17
19447.0	3.5787354864790176e+17
19448.0	3.566645456229717e+17
19449.0	3.516576774662822e+17
19450.0	3.064273770119147e+17
19451.0	2.734965255744164e+17
19452.0	3.228134327801165e+17
19453.0	3.539125866070021e+17
19454.0	3.566896808285524e+17
19455.0	3.575357645695658e+17
19456.0	3.5789974011903994e+17
19457.0	3.580716973555712e+17
19458.0	3.5607096611307846e+17
19459.0	3.581181601775622e+17
19460.0	3.581830006920533e+17
19461.0	3.581666967333546e+17
19462.0	3.581370345455615e+17
19463.0	3.580998250572458e+17
19464.0	3.580566487520597e+17
19465.0	3.5800968960409594e+17
19466.0	3.5795886204955296e+17
19467.0	3.5790678053792416e+17
19468.0	3.578531353897642e+17
19469.0	3.577774388281344e+17
19470.0	3.5774104673976314e+17
19471.0	3.576833272446976e+17
19472.0	3.5762349312136525e+17
19473.0	3.5756413365343565e+17
19474.0	3.5749064755991885e+17
19475.0	3.574251569982121e+17
19476.0	3.5738382968203936e+17
19477.0	3.573237328554666e+17
19478.0	3.572635456416427e+17
19479.0	3.5718761322031776e+17
19480.0	3.5714040674822816e+17
19481.0	3.5707697628883616e+17
19482.0	3.5701752133058554e+17
19483.0	3.5695589015770445e+17
19484.0	3.5689375168375456e+17
19485.0	3.5683067256722765e+17
19486.0	3.567534120894464e+17
19487.0	3.5670772290682886e+17
19488.0	3.5664558016866976e+17
19489.0	3.56581495677474e+17
19490.0	3.564879722053631e+17
19491.0	3.564580631128746e+17
19492.0	3.5639634420913485e+17
19493.0	3.5633394946321056e+17
19494.0	3.562715305301333e+17
19495.0	3.5620899478568954e+17
19496.0	3.561359468571306e+17
19497.0	3.560835503532714e+17
19498.0	3.56011300950289e+17
19499.0	3.5575649949887123e+17
19500.0	3.5589647125271885e+17
19501.0	3.5583902550589434e+17
19502.0	3.557793143455744e+17
19503.0	3.5571648954367994e+17
19504.0	3.5565367921213434e+17
19505.0	3.5559067405516794e+17
19506.0	3.5552805407511885e+17
19507.0	3.554647793642154e+17
19508.0	3.5540255301959674e+17
19509.0	3.553397734462804e+17
19510.0	3.552711103130282e+17
19511.0	3.544184490644815e+17
19512.0	3.5512218483862176e+17
19513.0	3.550269816176639e+17
19514.0	3.549847204397055e+17
19515.0	3.549531211825152e+17
19516.0	3.5489894063144954e+17
19517.0	3.5483630688010234e+17
19518.0	3.5477174081290234e+17
19519.0	3.5470903450009594e+17
19520.0	3.54636778246417e+17
19521.0	3.545878197436415e+17
19522.0	3.5452373028918605e+17
19523.0	3.5445902392251725e+17
19524.0	3.54390309409041e+17
19525.0	3.5433759574589434e+17
19526.0	3.5427528873082874e+17
19527.0	3.5421242715886925e+17
19528.0	3.54149402218769e+17
19529.0	3.540863963627519e+17
19530.0	3.540253740630016e+17
19531.0	3.5396293115248634e+17
19532.0	3.5390050005592736e+17
19533.0	3.5383808426857805e+17
19534.0	3.5377567875727354e+17
19535.0	3.537132887648938e+17
19536.0	3.5365033904264525e+17
19537.0	3.535884420907008e+17
19538.0	3.535111136651946e+17
19539.0	3.534516953371989e+17
19540.0	3.5340111231057914e+17
19541.0	3.5333673058303994e+17
19542.0	3.5327579007221754e+17
19543.0	3.5320109266370554e+17
19544.0	3.531514846030506e+17
19545.0	3.5308046944392525e+17
19546.0	3.530084912726016e+17
19547.0	3.529656435212287e+17
19548.0	3.5290338585914016e+17
19549.0	3.5283971618461e+17
19550.0	3.527790408936106e+17
19551.0	3.5271686292329805e+17
19552.0	3.5265470214963194e+17
19553.0	3.525923908004522e+17
19554.0	3.5252948833402874e+17
19555.0	3.5246691050673485e+17
19556.0	3.524052453599914e+17
19557.0	3.5234398021003936e+17
19558.0	3.522819812666026e+17
19559.0	3.5221993793344845e+17
19560.0	3.521527682520405e+17
19561.0	3.520958418998613e+17
19562.0	3.5202911534667085e+17
19563.0	3.519717955687765e+17
19564.0	3.519097964156246e+17
19565.0	3.5184780774823245e+17
19566.0	3.517854003145386e+17
19567.0	3.517238612066303e+17
19568.0	3.5166192301069645e+17
19569.0	3.5159977786081274e+17
19570.0	3.515379796847274e+17
19571.0	3.5147603939164154e+17
19572.0	3.5141382793680205e+17
19573.0	3.513507154406058e+17
19574.0	3.512885856698368e+17
19575.0	3.5122801555101005e+17
19576.0	3.511653159840426e+17
19577.0	3.5110210576056314e+17
19578.0	3.5104150065425056e+17
19579.0	3.5098021460268365e+17
19580.0	3.5091843645439994e+17
19581.0	3.508566627101354e+17
19582.0	3.5079526970381645e+17
19583.0	3.507335215098538e+17
19584.0	3.50671696630033e+17
19585.0	3.506081357277866e+17
19586.0	3.5054609183539194e+17
19587.0	3.504862583412053e+17
19588.0	3.50415074955537e+17
19589.0	3.5036309284891296e+17
19590.0	3.5029846285352954e+17
19591.0	3.5023996482573645e+17
19592.0	3.501783262079658e+17
19593.0	3.5011562276126714e+17
19594.0	3.5005006142068045e+17
19595.0	3.4999287634984954e+17
19596.0	3.499313619883349e+17
19597.0	3.49870431998225e+17
19598.0	3.497937181081599e+17
19599.0	3.497473656662698e+17
19600.0	3.496858490328405e+17
19601.0	3.4962308183272096e+17
19602.0	3.495619872860842e+17
19603.0	3.4949185611147936e+17
19604.0	3.4943915587010554e+17
19605.0	3.493732846054058e+17
19606.0	3.4931698778330445e+17
19607.0	3.492555584613034e+17
19608.0	3.4919413263455565e+17
19609.0	3.4913191209205754e+17
19610.0	3.4906429910766925e+17
19611.0	3.490000703673685e+17
19612.0	3.4894792489260365e+17
19613.0	3.488865766255274e+17
19614.0	3.4882461504634874e+17
19615.0	3.487638900528469e+17
19616.0	3.486945788297216e+17
19617.0	3.4863080475197434e+17
19618.0	3.4856740973445114e+17
19619.0	3.485013701033983e+17
19620.0	3.4843868595049805e+17
19621.0	3.4838277633256096e+17
19622.0	3.4833502197951136e+17
19623.0	3.482732300948821e+17
19624.0	3.482109860642816e+17
19625.0	3.4815138353643514e+17
19626.0	3.4809023306574496e+17
19627.0	3.4802906476926285e+17
19628.0	3.4796602619767456e+17
19629.0	3.4787085614667085e+17
19630.0	3.478433326694399e+17
19631.0	3.4771774262476794e+17
19632.0	3.4772343618273274e+17
19633.0	3.4766186778460154e+17
19634.0	3.476012774632106e+17
19635.0	3.4753730576383994e+17
19636.0	3.4746344074990925e+17
19637.0	3.4739813487738874e+17
19638.0	3.473550115252906e+17
19639.0	3.472960375838037e+17
19640.0	3.4723268992696314e+17
19641.0	3.471335137214464e+17
19642.0	3.4711217509498874e+17
19643.0	3.4705109921300474e+17
19644.0	3.469901750250154e+17
19645.0	3.4692433196701005e+17
19646.0	3.4685216204608845e+17
19647.0	3.468078845962922e+17
19648.0	3.4674763072798714e+17
19649.0	3.4668675480944634e+17
19650.0	3.4662589105438714e+17
19651.0	3.4656504019681274e+17
19652.0	3.4650420412415994e+17
19653.0	3.4644338671615994e+17
