# Flux units: erg / (cm m2 s)
# Wavelength units: Angstrom
wave	flux
19000.0	5.5668192246934176e+17
19001.0	5.5656830688296954e+17
19002.0	5.564798948693332e+17
19003.0	5.5637851826203296e+17
19004.0	5.5627764308377594e+17
19005.0	5.561753674274132e+17
19006.0	5.5607482213116576e+17
19007.0	5.559745031875242e+17
19008.0	5.558664780491434e+17
19009.0	5.557539819924137e+17
19010.0	5.556176425058303e+17
19011.0	5.5556591331573754e+17
19012.0	5.554520698388478e+17
19013.0	5.5536800179595936e+17
19014.0	5.552612999604906e+17
19015.0	5.5516103092906643e+17
19016.0	5.5506011877102925e+17
19017.0	5.5496489856314016e+17
19018.0	5.548630809247743e+17
19019.0	5.5476278267303245e+17
19020.0	5.5466113972742816e+17
19021.0	5.5456241077452794e+17
19022.0	5.544611105035604e+17
19023.0	5.5435611777706656e+17
19024.0	5.542561303232511e+17
19025.0	5.541582032513706e+17
19026.0	5.540552908297556e+17
19027.0	5.5395074661416954e+17
19028.0	5.538573101039615e+17
19029.0	5.537548347288234e+17
19030.0	5.5365737909671245e+17
19031.0	5.5355729950801914e+17
19032.0	5.534555754725375e+17
19033.0	5.533439147114494e+17
19034.0	5.5325082975382176e+17
19035.0	5.531317050889556e+17
19036.0	5.524525844267006e+17
19037.0	5.5293833704898554e+17
19038.0	5.528488162710868e+17
19039.0	5.527525575535273e+17
19040.0	5.5265340965956256e+17
19041.0	5.525524165514579e+17
19042.0	5.524053796323326e+17
19043.0	5.523530206674943e+17
19044.0	5.5225140218866336e+17
19045.0	5.52151848985122e+17
19046.0	5.520448308991315e+17
19047.0	5.519466121134079e+17
19048.0	5.518228349168298e+17
19049.0	5.516669852756649e+17
19050.0	5.5164233115675296e+17
19051.0	5.514609962953385e+17
19052.0	5.5142172621537274e+17
19053.0	5.513498160616787e+17
19054.0	5.512510585875113e+17
19055.0	5.5110975758882144e+17
19056.0	5.5104437426148685e+17
19057.0	5.509507450230099e+17
19058.0	5.5081167441537683e+17
19059.0	5.507360410479273e+17
19060.0	5.506496000076458e+17
19061.0	5.505518908997632e+17
19062.0	5.50451445567761e+17
19063.0	5.5035144357369165e+17
19064.0	5.502389289921194e+17
19065.0	5.501316082171903e+17
19066.0	5.5003169940657485e+17
19067.0	5.4995139533209594e+17
19068.0	5.498531715831126e+17
19069.0	5.497535330953898e+17
19070.0	5.496503935522132e+17
19071.0	5.4955310156786336e+17
19072.0	5.4943998007050234e+17
19073.0	5.4935443185773216e+17
19074.0	5.4925526690693114e+17
19075.0	5.491556074476885e+17
19076.0	5.4905410598993914e+17
19077.0	5.4895390106146125e+17
19078.0	5.488517912898217e+17
19079.0	5.487570300086954e+17
19080.0	5.486562921239892e+17
19081.0	5.485524647149568e+17
19082.0	5.484548562004651e+17
19083.0	5.483477482864638e+17
19084.0	5.4823438351947085e+17
19085.0	5.4815827955111245e+17
19086.0	5.479974022676478e+17
19087.0	5.4791887007689376e+17
19088.0	5.478301741787817e+17
19089.0	5.477362322549418e+17
19090.0	5.476585057200809e+17
19091.0	5.4755851407196154e+17
19092.0	5.4742743619993594e+17
19093.0	5.4736554609868794e+17
19094.0	5.472667805854377e+17
19095.0	5.471676571582464e+17
19096.0	5.4706690864797e+17
19097.0	5.4696883841051296e+17
19098.0	5.468537300713471e+17
19099.0	5.4675128391652685e+17
19100.0	5.466689322527402e+17
19101.0	5.465712457940991e+17
19102.0	5.464596665423188e+17
19103.0	5.4637422745135776e+17
19104.0	5.462756991959039e+17
19105.0	5.461411567588694e+17
19106.0	5.4607531177847456e+17
19107.0	5.459671869554687e+17
19108.0	5.458641072510292e+17
19109.0	5.457531644149758e+17
19110.0	5.456747580533418e+17
19111.0	5.4557232881554765e+17
19112.0	5.4547198260893005e+17
19113.0	5.45384737870097e+17
19114.0	5.4527878401884154e+17
19115.0	5.4517982787447456e+17
19116.0	5.450854009492821e+17
19117.0	5.449850829144062e+17
19118.0	5.4486662108938234e+17
19119.0	5.437594002609478e+17
19120.0	5.4467934779255456e+17
19121.0	5.4458939059732474e+17
19122.0	5.4449594835490125e+17
19123.0	5.4439767951714976e+17
19124.0	5.442955844255743e+17
19125.0	5.441991034099028e+17
19126.0	5.440929230662313e+17
19127.0	5.4380363618713594e+17
19128.0	5.438928275024554e+17
19129.0	5.437953611748692e+17
19130.0	5.437062355004074e+17
19131.0	5.4360954400058016e+17
19132.0	5.435109579336362e+17
19133.0	5.4340745684145485e+17
19134.0	5.433139316916223e+17
19135.0	5.432158402030251e+17
19136.0	5.4311733606481914e+17
19137.0	5.430029275452757e+17
19138.0	5.429187006081705e+17
19139.0	5.428230338467157e+17
19140.0	5.427251740934142e+17
19141.0	5.426269632768683e+17
19142.0	5.4252555360447136e+17
19143.0	5.4242432351819085e+17
19144.0	5.423269754699775e+17
19145.0	5.422335481173332e+17
19146.0	5.42059017465583e+17
19147.0	5.4202817758713165e+17
19148.0	5.419268831881899e+17
19149.0	5.418259981533183e+17
19150.0	5.4174297015801165e+17
19151.0	5.4164466154427725e+17
19152.0	5.415464103925076e+17
19153.0	5.4141982399092045e+17
19154.0	5.413358467547136e+17
19155.0	5.4125198639977805e+17
19156.0	5.411541567056553e+17
19157.0	5.4104437695010125e+17
19158.0	5.4092440454649165e+17
19159.0	5.4085648408466765e+17
19160.0	5.4076087324726605e+17
19161.0	5.4066184545020576e+17
19162.0	5.405235411419135e+17
19163.0	5.4045919164061005e+17
19164.0	5.40370593190161e+17
19165.0	5.402432832012287e+17
19166.0	5.401604125622271e+17
19167.0	5.4007411685457914e+17
19168.0	5.399801071927294e+17
19169.0	5.3988249287611725e+17
19170.0	5.3978559662434976e+17
19171.0	5.3968620182568954e+17
19172.0	5.395898438429354e+17
19173.0	5.3949297862901754e+17
19174.0	5.3938905314317645e+17
19175.0	5.392974137524224e+17
19176.0	5.3920012903819936e+17
19177.0	5.390843906446676e+17
19178.0	5.3900331404929696e+17
19179.0	5.389046019435178e+17
19180.0	5.388089334344362e+17
19181.0	5.3869643255425696e+17
19182.0	5.386126204338175e+17
19183.0	5.3851839217882445e+17
19184.0	5.384208104379733e+17
19185.0	5.383224654036991e+17
19186.0	5.3822611098610336e+17
19187.0	5.3812165100612256e+17
19188.0	5.3803110905501005e+17
19189.0	5.3793435575910406e+17
19190.0	5.378366576962218e+17
19191.0	5.3773556742007456e+17
19192.0	5.3764195181308576e+17
19193.0	5.3754012893184e+17
19194.0	5.374390328535722e+17
19195.0	5.373476996470101e+17
19196.0	5.3724620056603296e+17
19197.0	5.371442594753194e+17
19198.0	5.3702234720610976e+17
19199.0	5.3663706780794874e+17
19200.0	5.3659354253666976e+17
19201.0	5.367349248349524e+17
19202.0	5.366603354996735e+17
19203.0	5.36567734145297e+17
19204.0	5.364716527768915e+17
19205.0	5.363768355717118e+17
19206.0	5.362804120879102e+17
19207.0	5.361692307357694e+17
19208.0	5.360620754261332e+17
19209.0	5.359907122096809e+17
19210.0	5.3589408166707194e+17
19211.0	5.357989621224788e+17
19212.0	5.357014072950783e+17
19213.0	5.355923743353513e+17
19214.0	5.3549474932326394e+17
19215.0	5.354095340683264e+17
19216.0	5.353139737722879e+17
19217.0	5.352127692712617e+17
19218.0	5.350363885819219e+17
19219.0	5.3500100026040314e+17
19220.0	5.3492300843581434e+17
19221.0	5.347991569301504e+17
19222.0	5.347289879019519e+17
19223.0	5.3463509777776634e+17
19224.0	5.345349157082453e+17
19225.0	5.344300322433706e+17
19226.0	5.3434505508509005e+17
19227.0	5.342494557820245e+17
19228.0	5.3415593224000845e+17
19229.0	5.3405923948189005e+17
19230.0	5.339619502937428e+17
19231.0	5.3386476009117e+17
19232.0	5.337688353800191e+17
19233.0	5.336653014324564e+17
19234.0	5.3357475577637536e+17
19235.0	5.3347642374444365e+17
19236.0	5.333838572027903e+17
19237.0	5.3328553460804256e+17
19238.0	5.3318010099029325e+17
19239.0	5.330951081732778e+17
19240.0	5.329986766503936e+17
19241.0	5.3290004276838394e+17
19242.0	5.32804357202466e+17
19243.0	5.326910469614251e+17
19244.0	5.326138287063039e+17
19245.0	5.325167995650047e+17
19246.0	5.324196546609151e+17
19247.0	5.3232376154685446e+17
19248.0	5.322288917031594e+17
19249.0	5.3213138238395725e+17
19250.0	5.3202844458680314e+17
19251.0	5.319236596880724e+17
19252.0	5.3180904145332896e+17
19253.0	5.317448731459583e+17
19254.0	5.316519649083391e+17
19255.0	5.315325935484926e+17
19256.0	5.314575618539519e+17
19257.0	5.3136338889386656e+17
19258.0	5.3126752835556685e+17
19259.0	5.3116237876210336e+17
19260.0	5.3105837819822074e+17
19261.0	5.3097743707886925e+17
19262.0	5.308752780241577e+17
19263.0	5.3077439781273594e+17
19264.0	5.306272338761044e+17
19265.0	5.30568667271441e+17
19266.0	5.304619794868906e+17
19267.0	5.3040270453418656e+17
19268.0	5.3030593481058976e+17
19269.0	5.3021025225058976e+17
19270.0	5.301118220020393e+17
19271.0	5.299803964921173e+17
19272.0	5.299183830783317e+17
19273.0	5.29795920306722e+17
19274.0	5.296807036147027e+17
19275.0	5.2963576500278605e+17
19276.0	5.2953770532099405e+17
19277.0	5.2944266623713274e+17
19278.0	5.2934646043770874e+17
19279.0	5.2924877362954234e+17
19280.0	5.2914698639988045e+17
19281.0	5.2905822248413856e+17
19282.0	5.289645403275262e+17
19283.0	5.2886601857324365e+17
19284.0	5.2876798203002874e+17
19285.0	5.286618855025322e+17
19286.0	5.2857498308881056e+17
19287.0	5.284812246657706e+17
19288.0	5.281997440854697e+17
19289.0	5.278982113766053e+17
19290.0	5.2819342180133536e+17
19291.0	5.280724874341035e+17
19292.0	5.280077854015487e+17
19293.0	5.2791209032854176e+17
19294.0	5.2781554318267725e+17
19295.0	5.277216954908671e+17
19296.0	5.2760837916808525e+17
19297.0	5.2752471783287456e+17
19298.0	5.274310119784447e+17
19299.0	5.273199120657066e+17
19300.0	5.2724209122891085e+17
19301.0	5.2714729464572576e+17
19302.0	5.270502310412286e+17
19303.0	5.269472534680917e+17
19304.0	5.268575146562901e+17
19305.0	5.267626047569919e+17
19306.0	5.2666779237526176e+17
19307.0	5.265670443543209e+17
19308.0	5.26473116970735e+17
19309.0	5.263687635959806e+17
19310.0	5.2626770037309434e+17
19311.0	5.26182244365107e+17
19312.0	5.260907567382526e+17
19313.0	5.259912393261055e+17
19314.0	5.2453447415015994e+17
19315.0	5.245675469362538e+17
19316.0	5.2568012340155725e+17
19317.0	5.256124806725632e+17
19318.0	5.255183496555178e+17
19319.0	5.254255619342335e+17
19320.0	5.253230831337471e+17
19321.0	5.252185545768959e+17
19322.0	5.251304806940671e+17
19323.0	5.2503798552548685e+17
19324.0	5.249440403860138e+17
19325.0	5.248433096316245e+17
19326.0	5.247537337685332e+17
19327.0	5.2465793271944525e+17
19328.0	5.245327089773226e+17
19329.0	5.244683644392788e+17
19330.0	5.2436802794946554e+17
19331.0	5.2426919309038925e+17
19332.0	5.241795358578004e+17
19333.0	5.240822082917715e+17
19334.0	5.2398686407229434e+17
19335.0	5.23828486873634e+17
19336.0	5.2379452153965216e+17
19337.0	5.236983973194409e+17
19338.0	5.235772038141268e+17
19339.0	5.23505569575731e+17
19340.0	5.233848171014825e+17
19341.0	5.232795567783936e+17
19342.0	5.23170405818914e+17
19343.0	5.2311701002212685e+17
19344.0	5.229936141576873e+17
19345.0	5.226880426835965e+17
19346.0	5.227015166055764e+17
19347.0	5.2269329283372365e+17
19348.0	5.226355498505557e+17
19349.0	5.225358829114708e+17
19350.0	5.2242898023874554e+17
19351.0	5.2234114256513683e+17
19352.0	5.222098756698111e+17
19353.0	5.221524038483967e+17
19354.0	5.2205557771141114e+17
19355.0	5.219461753034069e+17
19356.0	5.218603049680894e+17
19357.0	5.2176284451252896e+17
19358.0	5.2166471667329696e+17
19359.0	5.215558379241471e+17
19360.0	5.2143919488914765e+17
19361.0	5.213667907163477e+17
19362.0	5.212722641764351e+17
19363.0	5.211738155428521e+17
19364.0	5.2107498802380794e+17
19365.0	5.209758260789247e+17
19366.0	5.2087612055224314e+17
19367.0	5.2077559608770554e+17
19368.0	5.2067535117352954e+17
19369.0	5.205706135306239e+17
19370.0	5.204721316222294e+17
19371.0	5.2036846548418554e+17
19372.0	5.20274640441617e+17
19373.0	5.2017165629740365e+17
19374.0	5.2007188142489594e+17
19375.0	5.1997067587529376e+17
19376.0	5.198692152421034e+17
19377.0	5.197657109342889e+17
19378.0	5.196633854356138e+17
19379.0	5.1956071677296634e+17
19380.0	5.194573796081664e+17
19381.0	5.193511961886719e+17
19382.0	5.192360119326037e+17
19383.0	5.191294235530581e+17
19384.0	5.190325563118931e+17
19385.0	5.189283716879699e+17
19386.0	5.1882189047289165e+17
19387.0	5.187141278979412e+17
19388.0	5.1860532681332045e+17
19389.0	5.1849317035540474e+17
19390.0	5.1837266387708563e+17
19391.0	5.1772436561701466e+17
19392.0	5.1811825997578214e+17
19393.0	5.180426034697557e+17
19394.0	5.1792955439404365e+17
19395.0	5.1779896410985805e+17
19396.0	5.176900002862421e+17
19397.0	5.175749408107179e+17
19398.0	5.1744091455269536e+17
19399.0	5.172284197874345e+17
19400.0	5.17174870479121e+17
19401.0	5.1707337363510605e+17
19402.0	5.169377508851711e+17
19403.0	5.1680395797026125e+17
19404.0	5.1667527190009165e+17
19405.0	5.16530695709218e+17
19406.0	5.1639440655428256e+17
19407.0	5.162434919312041e+17
19408.0	5.1601973587913395e+17
19409.0	5.159535796813823e+17
19410.0	5.15811881062673e+17
19411.0	5.156577962448213e+17
19412.0	5.15497728671744e+17
19413.0	5.153192165769215e+17
19414.0	5.1515205615615994e+17
19415.0	5.1497769914859514e+17
19416.0	5.147760869244927e+17
19417.0	5.145914729562111e+17
19418.0	5.143934658063017e+17
19419.0	5.1418265379580576e+17
19420.0	5.13945725112593e+17
19421.0	5.1370954930694816e+17
19422.0	5.134290244687188e+17
19423.0	5.1316149547171834e+17
19424.0	5.1286046202484045e+17
19425.0	5.125293756208468e+17
19426.0	5.121749254755668e+17
19427.0	5.117735687509332e+17
19428.0	5.1135520265557325e+17
19429.0	5.1093841655453005e+17
19430.0	5.104715931757225e+17
19431.0	5.099319278086826e+17
19432.0	5.094880156756649e+17
19433.0	5.089166165540864e+17
19434.0	5.082760960016384e+17
19435.0	5.0750329507020794e+17
19436.0	5.0660831252534605e+17
19437.0	5.056342801427115e+17
19438.0	5.033776423895039e+17
19439.0	5.0302624199256755e+17
19440.0	5.0156782328217594e+17
19441.0	4.999714782401876e+17
19442.0	4.9812385698938886e+17
19443.0	4.958200886809943e+17
19444.0	4.930215994895017e+17
19445.0	4.894922052206594e+17
19446.0	4.849101336914603e+17
19447.0	4.789849562633554e+17
19448.0	4.7056834282564256e+17
19449.0	4.5732705693859834e+17
19450.0	4.284289524258127e+17
19451.0	4.062527685481859e+17
19452.0	4.46324021535266e+17
19453.0	4.6473353817839e+17
19454.0	4.7481702206231866e+17
19455.0	4.815482253213692e+17
19456.0	4.865486207232684e+17
19457.0	4.903518086714705e+17
19458.0	4.888971440029769e+17
19459.0	4.954814268746416e+17
19460.0	4.9751193683667616e+17
19461.0	4.99031193227537e+17
19462.0	5.004189070174892e+17
19463.0	5.016850396086271e+17
19464.0	5.027703967186942e+17
19465.0	5.036743245955071e+17
19466.0	5.044064294535168e+17
19467.0	5.050259564658687e+17
19468.0	5.05528948097024e+17
19469.0	5.059126052083028e+17
19470.0	5.0631743250978125e+17
19471.0	5.0663974631724365e+17
19472.0	5.069037346226175e+17
19473.0	5.0713482001121274e+17
19474.0	5.073477407080446e+17
19475.0	5.074959159612755e+17
19476.0	5.077888152545961e+17
19477.0	5.079493106466815e+17
19478.0	5.080729547440127e+17
19479.0	5.081627525556906e+17
19480.0	5.082625365857619e+17
19481.0	5.0833173519182496e+17
19482.0	5.083854721253375e+17
19483.0	5.084285142127956e+17
19484.0	5.0844648589666976e+17
19485.0	5.084603195501226e+17
19486.0	5.0844338211170976e+17
19487.0	5.0846464206001485e+17
19488.0	5.084527011561471e+17
19489.0	5.084107147750057e+17
19490.0	5.082547943200083e+17
19491.0	5.08385733640192e+17
19492.0	5.0836160429861536e+17
19493.0	5.0832601632822605e+17
19494.0	5.0828825130434554e+17
19495.0	5.0824421306968736e+17
19496.0	5.081433187374419e+17
19497.0	5.0814095538694816e+17
19498.0	5.079826291490814e+17
19499.0	5.0716963196545664e+17
19500.0	5.0798762827011405e+17
19501.0	5.0794684229877754e+17
19502.0	5.0788792791640736e+17
19503.0	5.078284064085332e+17
19504.0	5.0777391890431994e+17
19505.0	5.0770846923707725e+17
19506.0	5.076427690999807e+17
19507.0	5.0757184831269536e+17
19508.0	5.0751043153865376e+17
19509.0	5.074357532142249e+17
19510.0	5.0732334041442976e+17
19511.0	5.0512631148052275e+17
19512.0	5.0703897904633146e+17
19513.0	5.068535626377894e+17
19514.0	5.0686694589289786e+17
19515.0	5.069448902519466e+17
19516.0	5.0691647922503674e+17
19517.0	5.068385548588372e+17
19518.0	5.0676357167841274e+17
19519.0	5.0668433106971296e+17
19520.0	5.0658714268467194e+17
19521.0	5.065339157086207e+17
19522.0	5.064488086667262e+17
19523.0	5.0637043564980896e+17
19524.0	5.062782075884885e+17
19525.0	5.06212624053043e+17
19526.0	5.0613249159550285e+17
19527.0	5.060492675164842e+17
19528.0	5.0596483086417914e+17
19529.0	5.0588076638644896e+17
19530.0	5.058022377608532e+17
19531.0	5.057189089640446e+17
19532.0	5.05635302014976e+17
19533.0	5.055516604628991e+17
19534.0	5.0546886636994554e+17
19535.0	5.0538223532769274e+17
19536.0	5.052950731467434e+17
19537.0	5.052140738663764e+17
19538.0	5.050902824091648e+17
19539.0	5.04985260322543e+17
19540.0	5.049570520902313e+17
19541.0	5.048704327920298e+17
19542.0	5.0478725009681043e+17
19543.0	5.0468083661974176e+17
19544.0	5.0461465959028045e+17
19545.0	5.044657470483114e+17
19546.0	5.043441134206974e+17
19547.0	5.043588293459966e+17
19548.0	5.042748235186175e+17
19549.0	5.041767952941054e+17
19550.0	5.041024676833961e+17
19551.0	5.040161811333119e+17
19552.0	5.0392932017329466e+17
19553.0	5.0383966182222496e+17
19554.0	5.0375128965447674e+17
19555.0	5.0366452054971725e+17
19556.0	5.035803529620138e+17
19557.0	5.0349430304058016e+17
19558.0	5.0340731170761376e+17
19559.0	5.0332054428057594e+17
19560.0	5.032222155341823e+17
19561.0	5.03142803308544e+17
19562.0	5.03049902690577e+17
19563.0	5.029716064993278e+17
19564.0	5.028841637893461e+17
19565.0	5.027966343970815e+17
19566.0	5.027057801101311e+17
19567.0	5.026212317495294e+17
19568.0	5.0253117906397856e+17
19569.0	5.024436761657342e+17
19570.0	5.023584149132628e+17
19571.0	5.022703670351187e+17
19572.0	5.0217876881844896e+17
19573.0	5.020910924857342e+17
19574.0	5.019953184899072e+17
19575.0	5.019199601289898e+17
19576.0	5.0183007081157965e+17
19577.0	5.017373676754261e+17
19578.0	5.0165135508329805e+17
19579.0	5.0156487398741325e+17
19580.0	5.01477185491217e+17
19581.0	5.013908435064149e+17
19582.0	5.013047603101696e+17
19583.0	5.012168231616511e+17
19584.0	5.0112869132752205e+17
19585.0	5.0102658449189536e+17
19586.0	5.009351630651392e+17
19587.0	5.008609041711103e+17
19588.0	5.0072362439147514e+17
19589.0	5.006834277897556e+17
19590.0	5.0058503270345376e+17
19591.0	5.0051144398929914e+17
19592.0	5.004242932727808e+17
19593.0	5.0033214707029325e+17
19594.0	5.002153064835753e+17
19595.0	5.001584237521577e+17
19596.0	5.0006891150267725e+17
19597.0	4.9998306549432314e+17
19598.0	4.998339015038292e+17
19599.0	4.9980723530738336e+17
19600.0	4.997210303365118e+17
19601.0	4.996249523235498e+17
19602.0	4.9953422547353594e+17
19603.0	4.9940901829891405e+17
19604.0	4.9936079848297805e+17
19605.0	4.992457664801451e+17
19606.0	4.991917878149119e+17
19607.0	4.991052703683924e+17
19608.0	4.9901538258889376e+17
19609.0	4.989234404392959e+17
19610.0	4.988301693943807e+17
19611.0	4.9873611702053536e+17
19612.0	4.9866548312364365e+17
19613.0	4.9857620638433274e+17
19614.0	4.984846501806079e+17
19615.0	4.9840082491801594e+17
19616.0	4.982973484324181e+17
19617.0	4.9820507024916474e+17
19618.0	4.9806052642433696e+17
19619.0	4.979524730443091e+17
19620.0	4.978772317044734e+17
19621.0	4.9784748325382816e+17
19622.0	4.9778499539435514e+17
19623.0	4.976963129180159e+17
19624.0	4.976051170050047e+17
19625.0	4.9752168537784314e+17
19626.0	4.9743255446050125e+17
19627.0	4.9734397740100256e+17
19628.0	4.9724738027301536e+17
19629.0	4.970959112328532e+17
19630.0	4.969986867068927e+17
19631.0	4.966780841754624e+17
19632.0	4.968890661950804e+17
19633.0	4.9680974806166163e+17
19634.0	4.96729803718656e+17
19635.0	4.966363387570858e+17
19636.0	4.965296269251924e+17
19637.0	4.964041917901483e+17
19638.0	4.9637735900992845e+17
19639.0	4.962914534424575e+17
19640.0	4.961866327523328e+17
19641.0	4.9596142686917997e+17
19642.0	4.960261377796778e+17
19643.0	4.9593867738371405e+17
19644.0	4.958445830668287e+17
19645.0	4.957361574423209e+17
19646.0	4.956517360992255e+17
19647.0	4.9559174315158176e+17
19648.0	4.955042808681812e+17
19649.0	4.954164616495103e+17
19650.0	4.953295562997759e+17
19651.0	4.9524149080555514e+17
19652.0	4.9515383782113274e+17
19653.0	4.950670507507711e+17
19654.0	4.949788021751807e+17
19655.0	4.948908734851755e+17
