# Flux units: erg / (cm m2 s)
# Wavelength units: Angstrom
wave	flux
19000.0	5.765279479671465e+17
19001.0	5.764064524020394e+17
19002.0	5.7631540098280096e+17
19003.0	5.7620746245679776e+17
19004.0	5.7610103248213344e+17
19005.0	5.7599353596586656e+17
19006.0	5.7588842747658234e+17
19007.0	5.7577999716843514e+17
19008.0	5.756702304851284e+17
19009.0	5.7555583601650336e+17
19010.0	5.7540168332083174e+17
19011.0	5.753511792869375e+17
19012.0	5.7513138349670374e+17
19013.0	5.751470585195177e+17
19014.0	5.7503551561837216e+17
19015.0	5.7493069618653856e+17
19016.0	5.748234248344917e+17
19017.0	5.7472400528943776e+17
19018.0	5.746132797882367e+17
19019.0	5.745117043010218e+17
19020.0	5.74404979466786e+17
19021.0	5.7430140119941114e+17
19022.0	5.7419493794993485e+17
19023.0	5.740824127427924e+17
19024.0	5.739739904038228e+17
19025.0	5.7386677455639885e+17
19026.0	5.7375357308764154e+17
19027.0	5.735647464303273e+17
19028.0	5.7355858401908045e+17
19029.0	5.7345050729076045e+17
19030.0	5.73348749910562e+17
19031.0	5.732436781214377e+17
19032.0	5.7313539265658874e+17
19033.0	5.730158027035988e+17
19034.0	5.729108821890388e+17
19035.0	5.7272573155956045e+17
19036.0	5.660432013808956e+17
19037.0	5.725387570369876e+17
19038.0	5.7248876505770656e+17
19039.0	5.7239408214016e+17
19040.0	5.7229140725596154e+17
19041.0	5.7218625116132685e+17
19042.0	5.718953249385127e+17
19043.0	5.7197916292382714e+17
19044.0	5.718716452263252e+17
19045.0	5.717631003437737e+17
19046.0	5.716548983455743e+17
19047.0	5.7155423721663136e+17
19048.0	5.713951754376532e+17
19049.0	5.709727932263077e+17
19050.0	5.7122087631148365e+17
19051.0	5.701168646848498e+17
19052.0	5.708109009911807e+17
19053.0	5.709179371126783e+17
19054.0	5.708195389505535e+17
19055.0	5.706325799469056e+17
19056.0	5.7059007298273274e+17
19057.0	5.705056070402047e+17
19058.0	5.702129349383506e+17
19059.0	5.702257775476735e+17
19060.0	5.701879965854377e+17
19061.0	5.7008609044725754e+17
19062.0	5.699813121196031e+17
19063.0	5.698764998180864e+17
19064.0	5.697555964187988e+17
19065.0	5.696445631255892e+17
19066.0	5.6948798115894605e+17
19067.0	5.694552781706581e+17
19068.0	5.6935242349062816e+17
19069.0	5.692477447077887e+17
19070.0	5.691390059784874e+17
19071.0	5.690328443693737e+17
19072.0	5.688632325876394e+17
19073.0	5.6882798253834234e+17
19074.0	5.6872385474723834e+17
19075.0	5.6861909403566074e+17
19076.0	5.6851186931029325e+17
19077.0	5.684072825924266e+17
19078.0	5.6829874588876794e+17
19079.0	5.681999029906089e+17
19080.0	5.680937064289621e+17
19081.0	5.679843958063102e+17
19082.0	5.678809004463443e+17
19083.0	5.6776878222650016e+17
19084.0	5.676484301684735e+17
19085.0	5.6756762641257805e+17
19086.0	5.6731039247455565e+17
19087.0	5.670600139167059e+17
19088.0	5.671188975408467e+17
19089.0	5.6704875605524474e+17
19090.0	5.670324467837609e+17
19091.0	5.669213411388074e+17
19092.0	5.666550017163267e+17
19093.0	5.667335548786005e+17
19094.0	5.666320817324031e+17
19095.0	5.6652831926517754e+17
19096.0	5.6642214779944954e+17
19097.0	5.663196701174441e+17
19098.0	5.661381976129536e+17
19099.0	5.660187085329749e+17
19100.0	5.6599462050529274e+17
19101.0	5.6589812292212045e+17
19102.0	5.657826266098345e+17
19103.0	5.6569400886558714e+17
19104.0	5.655900809330687e+17
19105.0	5.6531528900935706e+17
19106.0	5.6535069361875616e+17
19107.0	5.652274222552404e+17
19108.0	5.6509754821836794e+17
19109.0	5.646665743248037e+17
19110.0	5.649155948369235e+17
19111.0	5.648064133988351e+17
19112.0	5.6469837469887123e+17
19113.0	5.646528463678122e+17
19114.0	5.6451595078642323e+17
19115.0	5.644179857560917e+17
19116.0	5.6433896877370016e+17
19117.0	5.642321131470847e+17
19118.0	5.6409386371426976e+17
19119.0	5.62991816420009e+17
19120.0	5.6386372770638483e+17
19121.0	5.637792052805631e+17
19122.0	5.637192518292821e+17
19123.0	5.6361621847190176e+17
19124.0	5.6347773562606925e+17
19125.0	5.634065726177279e+17
19126.0	5.633011004123818e+17
19127.0	5.629691552945491e+17
19128.0	5.630640265363455e+17
19129.0	5.6298349198486176e+17
19130.0	5.6288911755837434e+17
19131.0	5.627867275373226e+17
19132.0	5.6268353011275085e+17
19133.0	5.625702212698111e+17
19134.0	5.624625978758485e+17
19135.0	5.6237138155055776e+17
19136.0	5.6226981668891296e+17
19137.0	5.621461797918037e+17
19138.0	5.620606410162175e+17
19139.0	5.61959851331857e+17
19140.0	5.618568053915647e+17
19141.0	5.6175347319002445e+17
19142.0	5.616449854199124e+17
19143.0	5.615391650174292e+17
19144.0	5.614382766970196e+17
19145.0	5.6133949978924365e+17
19146.0	5.61154645557248e+17
19147.0	5.6112163121179296e+17
19148.0	5.609672841101311e+17
19149.0	5.6085408075393696e+17
19150.0	5.6082288694613325e+17
19151.0	5.6071968833317536e+17
19152.0	5.6060955632599034e+17
19153.0	5.603868059981138e+17
19154.0	5.6038100695340365e+17
19155.0	5.603032404328446e+17
19156.0	5.601989661207209e+17
19157.0	5.600259812098049e+17
19158.0	5.596620818568533e+17
19159.0	5.5987298397498016e+17
19160.0	5.597773156057087e+17
19161.0	5.596663087366143e+17
19162.0	5.5896010118922285e+17
19163.0	5.5940804062303565e+17
19164.0	5.593697185256788e+17
19165.0	5.591234124272977e+17
19166.0	5.591375977731413e+17
19167.0	5.590087750385662e+17
19168.0	5.5895928253098656e+17
19169.0	5.588527472093866e+17
19170.0	5.5875870643978234e+17
19171.0	5.586228073551189e+17
19172.0	5.5854649751633914e+17
19173.0	5.5845149729969485e+17
19174.0	5.583448530660009e+17
19175.0	5.5824964655950496e+17
19176.0	5.5814662809190394e+17
19177.0	5.5802260182357325e+17
19178.0	5.579140772134911e+17
19179.0	5.577864666327722e+17
19180.0	5.5773162722645325e+17
19181.0	5.576147396635305e+17
19182.0	5.5752659461734394e+17
19183.0	5.574292514624853e+17
19184.0	5.5732659335550285e+17
19185.0	5.572225659480745e+17
19186.0	5.5711889442734074e+17
19187.0	5.570054444460713e+17
19188.0	5.5691149224618656e+17
19189.0	5.5680834172791456e+17
19190.0	5.567018352771071e+17
19191.0	5.5659222734820685e+17
19192.0	5.5649912652212896e+17
19193.0	5.5637657636918605e+17
19194.0	5.5626076869973325e+17
19195.0	5.5618103833613645e+17
19196.0	5.560647376262483e+17
19197.0	5.5593437054894074e+17
19198.0	5.5570463999044256e+17
19199.0	5.517743765848054e+17
19200.0	5.525993898202464e+17
19201.0	5.554170407594666e+17
19202.0	5.5542819600029e+17
19203.0	5.5533966899281914e+17
19204.0	5.552569804565161e+17
19205.0	5.55164775813393e+17
19206.0	5.550654267326462e+17
19207.0	5.549520634336596e+17
19208.0	5.5483497810930336e+17
19209.0	5.5476381419219616e+17
19210.0	5.5466215160326816e+17
19211.0	5.545623160531626e+17
19212.0	5.544585731593557e+17
19213.0	5.543136113721343e+17
19214.0	5.5419369698973005e+17
19215.0	5.541355277953706e+17
19216.0	5.540523574034431e+17
19217.0	5.5394867078321485e+17
19218.0	5.537443293254995e+17
19219.0	5.537266197157204e+17
19220.0	5.5364045004690765e+17
19221.0	5.535054729401685e+17
19222.0	5.534401506399573e+17
19223.0	5.53339163054353e+17
19224.0	5.5323418794393594e+17
19225.0	5.5312034313885e+17
19226.0	5.530340725970259e+17
19227.0	5.5293257533358074e+17
19228.0	5.528341225056937e+17
19229.0	5.527322968282453e+17
19230.0	5.526286787848873e+17
19231.0	5.525266296209407e+17
19232.0	5.524256637059071e+17
19233.0	5.5231564389635405e+17
19234.0	5.5222129882999456e+17
19235.0	5.5211813593852576e+17
19236.0	5.5202077740455245e+17
19237.0	5.519171269951487e+17
19238.0	5.51799767573026e+17
19239.0	5.517160435329706e+17
19240.0	5.516143093612543e+17
19241.0	5.5151006510830925e+17
19242.0	5.5140984871540045e+17
19243.0	5.5128974146491725e+17
19244.0	5.512090483687423e+17
19245.0	5.5110678019222176e+17
19246.0	5.510039594161494e+17
19247.0	5.50903356588032e+17
19248.0	5.508016730275839e+17
19249.0	5.506940094382079e+17
19250.0	5.505703586299904e+17
19251.0	5.504582676731219e+17
19252.0	5.503603905833641e+17
19253.0	5.502926201378132e+17
19254.0	5.501940528753321e+17
19255.0	5.5006864668098554e+17
19256.0	5.49988275917073e+17
19257.0	5.498901759000575e+17
19258.0	5.4978891945956685e+17
19259.0	5.496766505243989e+17
19260.0	5.4942565680196224e+17
19261.0	5.4948209801297914e+17
19262.0	5.4937343541029536e+17
19263.0	5.492700073689087e+17
19264.0	5.491078875927891e+17
19265.0	5.4905162184349005e+17
19266.0	5.4893925168578554e+17
19267.0	5.488770961549994e+17
19268.0	5.4877517407846394e+17
19269.0	5.486742399702356e+17
19270.0	5.485719785745066e+17
19271.0	5.484268829889878e+17
19272.0	5.483659034012329e+17
19273.0	5.48224518796083e+17
19274.0	5.4810922262200294e+17
19275.0	5.480669620731902e+17
19276.0	5.4796314528972794e+17
19277.0	5.47862590136866e+17
19278.0	5.4775750240938656e+17
19279.0	5.4765493671690234e+17
19280.0	5.4754795665926816e+17
19281.0	5.474548384268287e+17
19282.0	5.47352316355106e+17
19283.0	5.472063436008106e+17
19284.0	5.4713286170159763e+17
19285.0	5.47027656184081e+17
19286.0	5.4693899565793274e+17
19287.0	5.4682668904393376e+17
19288.0	5.448833841845576e+17
19289.0	5.4217094309696115e+17
19290.0	5.4651777778537805e+17
19291.0	5.464047813481814e+17
19292.0	5.463411710230528e+17
19293.0	5.4624098426989216e+17
19294.0	5.4613833671857485e+17
19295.0	5.460405809840126e+17
19296.0	5.4585721663870304e+17
19297.0	5.458118593653418e+17
19298.0	5.4572812141417805e+17
19299.0	5.4553719718543366e+17
19300.0	5.455262979369642e+17
19301.0	5.454271485050879e+17
19302.0	5.4532446257588896e+17
19303.0	5.452122014700883e+17
19304.0	5.451187026045611e+17
19305.0	5.4501806580258125e+17
19306.0	5.449140689436671e+17
19307.0	5.448027744851285e+17
19308.0	5.4470091672125434e+17
19309.0	5.444621770074793e+17
19310.0	5.4431111998778e+17
19311.0	5.4437318464197965e+17
19312.0	5.442943366201343e+17
19313.0	5.4417262763485856e+17
19314.0	5.335602877344413e+17
19315.0	5.3436312638369984e+17
19316.0	5.437375956123649e+17
19317.0	5.4378529792109216e+17
19318.0	5.436904563889492e+17
19319.0	5.435934948458494e+17
19320.0	5.434576428772009e+17
19321.0	5.433160862356821e+17
19322.0	5.432641743137451e+17
19323.0	5.431298630527658e+17
19324.0	5.4306435746146976e+17
19325.0	5.4285195196497914e+17
19326.0	5.4286514640650234e+17
19327.0	5.4277190073712634e+17
19328.0	5.42522094841583e+17
19329.0	5.425665029439487e+17
19330.0	5.42458918277393e+17
19331.0	5.4235499537803936e+17
19332.0	5.42256908013841e+17
19333.0	5.4215081078729376e+17
19334.0	5.4204778623795194e+17
19335.0	5.416470319551832e+17
19336.0	5.4183966473366176e+17
19337.0	5.417419705854634e+17
19338.0	5.4161142133555194e+17
19339.0	5.4153312891917645e+17
19340.0	5.4140665261806925e+17
19341.0	5.4121021735348915e+17
19342.0	5.411317970108415e+17
19343.0	5.411173391750483e+17
19344.0	5.4090127904167264e+17
19345.0	5.405776389952848e+17
19346.0	5.4067039826520723e+17
19347.0	5.405354799486292e+17
19348.0	5.405815211032575e+17
19349.0	5.404702619467774e+17
19350.0	5.4031206293613216e+17
19351.0	5.40259071959586e+17
19352.0	5.3999834039145786e+17
19353.0	5.400540599025664e+17
19354.0	5.3994858350291616e+17
19355.0	5.3982544971257165e+17
19356.0	5.3972801029843616e+17
19357.0	5.39621826179891e+17
19358.0	5.3951169473194656e+17
19359.0	5.393656976506878e+17
19360.0	5.3917656068478285e+17
19361.0	5.391842972183209e+17
19362.0	5.3908166917051725e+17
19363.0	5.389726284513279e+17
19364.0	5.3886305750220794e+17
19365.0	5.3875315359525536e+17
19366.0	5.386428222887253e+17
19367.0	5.3853116788899834e+17
19368.0	5.3842101337238176e+17
19369.0	5.382997907166547e+17
19370.0	5.381893841223679e+17
19371.0	5.380771020450474e+17
19372.0	5.3796830648292685e+17
19373.0	5.378461933065556e+17
19374.0	5.377343435920723e+17
19375.0	5.3761845685998925e+17
19376.0	5.375037784369834e+17
19377.0	5.373855586932052e+17
19378.0	5.372683961237504e+17
19379.0	5.371502862008319e+17
19380.0	5.3703030568823456e+17
19381.0	5.369100154262868e+17
19382.0	5.367792406626303e+17
19383.0	5.366532334245204e+17
19384.0	5.3653485541567136e+17
19385.0	5.3640580996355405e+17
19386.0	5.362798667584853e+17
19387.0	5.3615058992059725e+17
19388.0	5.3602052602156365e+17
19389.0	5.358840358196564e+17
19390.0	5.3571826664953165e+17
19391.0	5.2950443498317645e+17
19392.0	5.3525609265670765e+17
19393.0	5.3531514824731296e+17
19394.0	5.3518186633844045e+17
19395.0	5.3499452313654605e+17
19396.0	5.34867527790319e+17
19397.0	5.3473391963450016e+17
19398.0	5.3453761984593914e+17
19399.0	5.342840495625556e+17
19400.0	5.341933986294441e+17
19401.0	5.3407917493889696e+17
19402.0	5.3390998258756256e+17
19403.0	5.337017194556074e+17
19404.0	5.335337527498068e+17
19405.0	5.3329703636828154e+17
19406.0	5.33102358237457e+17
19407.0	5.327891541786623e+17
19408.0	5.325275652248918e+17
19409.0	5.324022503964671e+17
19410.0	5.3220594927970976e+17
19411.0	5.320002931873108e+17
19412.0	5.317821759575379e+17
19413.0	5.314874468291924e+17
19414.0	5.3130306941965645e+17
19415.0	5.3106338794482336e+17
19416.0	5.307515731793236e+17
19417.0	5.304372370079743e+17
19418.0	5.3023985956290534e+17
19419.0	5.2991343184226976e+17
19420.0	5.2959434541192525e+17
19421.0	5.292198360776705e+17
19422.0	5.2884826086877856e+17
19423.0	5.2838571225470285e+17
19424.0	5.279242909996372e+17
19425.0	5.273594161878358e+17
19426.0	5.26716280906274e+17
19427.0	5.259657928332627e+17
19428.0	5.250886787923968e+17
19429.0	5.2422602000083616e+17
19430.0	5.234510152422744e+17
19431.0	5.218711652095331e+17
19432.0	5.2227181414536525e+17
19433.0	5.215192828171603e+17
19434.0	5.206319222314326e+17
19435.0	5.193682491102546e+17
19436.0	5.176777553652384e+17
19437.0	5.16436587201604e+17
19438.0	5.034198698732224e+17
19439.0	5.104279729034587e+17
19440.0	5.0770038925994624e+17
19441.0	5.057181642653694e+17
19442.0	5.034957100897623e+17
19443.0	5.006769829620393e+17
19444.0	4.966040809242613e+17
19445.0	4.901867193980251e+17
19446.0	4.8216872932693344e+17
19447.0	4.7565201487516966e+17
19448.0	4.6683075833582976e+17
19449.0	4.517557205030227e+17
19450.0	4.173500282918262e+17
19451.0	3.959590555921116e+17
19452.0	4.384571188925795e+17
19453.0	4.603805389815809e+17
19454.0	4.7133367817557274e+17
19455.0	4.784580075367081e+17
19456.0	4.852097270939647e+17
19457.0	4.9275827367444384e+17
19458.0	4.712816955796594e+17
19459.0	4.9998224648656845e+17
19460.0	5.0303330156543994e+17
19461.0	5.049594868837033e+17
19462.0	5.072655004030297e+17
19463.0	5.105646876404395e+17
19464.0	5.131134056792067e+17
19465.0	5.148794993071444e+17
19466.0	5.1619218769401165e+17
19467.0	5.171676631269373e+17
19468.0	5.179224424622761e+17
19469.0	5.1845393774455443e+17
19470.0	5.190964656209919e+17
19471.0	5.195933456618837e+17
19472.0	5.199875325733546e+17
19473.0	5.2049135957005645e+17
19474.0	5.210910163468288e+17
19475.0	5.2171853266943994e+17
19476.0	5.223095207985149e+17
19477.0	5.227040613597182e+17
19478.0	5.2306534535441056e+17
19479.0	5.231958903401129e+17
19480.0	5.2349700277971616e+17
19481.0	5.2369926449179296e+17
19482.0	5.2383247118281363e+17
19483.0	5.239839436483242e+17
19484.0	5.2407766236528634e+17
19485.0	5.2415450124561056e+17
19486.0	5.241377419253079e+17
19487.0	5.24301845537314e+17
19488.0	5.2434498010917536e+17
19489.0	5.2436550423674874e+17
19490.0	5.2422709353294483e+17
19491.0	5.244344464310271e+17
19492.0	5.244503937340756e+17
19493.0	5.244576162556585e+17
19494.0	5.2449637833550496e+17
19495.0	5.245154089413289e+17
19496.0	5.244888251629566e+17
19497.0	5.245378603515903e+17
19498.0	5.237605568348166e+17
19499.0	5.150129613613678e+17
19500.0	5.2451267068996256e+17
19501.0	5.245263860640425e+17
19502.0	5.2450952321433594e+17
19503.0	5.2449970749439994e+17
19504.0	5.244603257061375e+17
19505.0	5.2441112246572365e+17
19506.0	5.2438180931392845e+17
19507.0	5.2433537983665485e+17
19508.0	5.2428153538914976e+17
19509.0	5.242141896168789e+17
19510.0	5.240532366262271e+17
19511.0	5.0544010917313043e+17
19512.0	5.224524911301941e+17
19513.0	5.2121195392968954e+17
19514.0	5.218871027957735e+17
19515.0	5.237414186450945e+17
19516.0	5.2379096365137914e+17
19517.0	5.2373529244467194e+17
19518.0	5.2365017813265056e+17
19519.0	5.235823814726996e+17
19520.0	5.234367297923753e+17
19521.0	5.234794471707988e+17
19522.0	5.233849927729151e+17
19523.0	5.233010441278805e+17
19524.0	5.231737467917654e+17
19525.0	5.231770357552468e+17
19526.0	5.23104686248209e+17
19527.0	5.230260691227989e+17
19528.0	5.229389298008062e+17
19529.0	5.2285426756485114e+17
19530.0	5.2279046024724474e+17
19531.0	5.227143260798975e+17
19532.0	5.2263612048561485e+17
19533.0	5.2255486744985594e+17
19534.0	5.2247275563035296e+17
19535.0	5.223881813349717e+17
19536.0	5.2230267583419725e+17
19537.0	5.2222280894600525e+17
19538.0	5.220218272656043e+17
19539.0	5.2198243967522157e+17
19540.0	5.2196861951344634e+17
19541.0	5.2186263846911994e+17
19542.0	5.217912049980757e+17
19543.0	5.216062266845866e+17
19544.0	5.2162349526330016e+17
19545.0	5.214771240501246e+17
19546.0	5.2133779612194125e+17
19547.0	5.213731635418454e+17
19548.0	5.212872128157013e+17
19549.0	5.21192772608546e+17
19550.0	5.211192361134762e+17
19551.0	5.2103225267978234e+17
19552.0	5.2094456082814285e+17
19553.0	5.2085505808575136e+17
19554.0	5.207658189553664e+17
19555.0	5.206683191432533e+17
19556.0	5.2058510701800083e+17
19557.0	5.205045102510079e+17
19558.0	5.204172281828692e+17
19559.0	5.2032921211153056e+17
19560.0	5.2019935380329805e+17
19561.0	5.201560246157311e+17
19562.0	5.200298697381205e+17
19563.0	5.199835554643966e+17
19564.0	5.198954042665642e+17
19565.0	5.198058559460693e+17
19566.0	5.197122907406336e+17
19567.0	5.19626311143697e+17
19568.0	5.1953359598387194e+17
19569.0	5.194437807658325e+17
19570.0	5.193552863341226e+17
19571.0	5.192652012126207e+17
19572.0	5.1917168410187085e+17
19573.0	5.1906979641862803e+17
19574.0	5.189786160944468e+17
19575.0	5.1890536194594125e+17
19576.0	5.18806827049506e+17
19577.0	5.187005749832362e+17
19578.0	5.1862776417266336e+17
19579.0	5.1853915278977696e+17
19580.0	5.184493191167998e+17
19581.0	5.1836488239458976e+17
19582.0	5.1827630128059725e+17
19583.0	5.1818535108389536e+17
19584.0	5.180914734727167e+17
19585.0	5.1798784095901e+17
19586.0	5.178891224918698e+17
19587.0	5.1779685164864845e+17
19588.0	5.1766696439971834e+17
19589.0	5.176346496641706e+17
19590.0	5.1752808078813856e+17
19591.0	5.174547494644394e+17
19592.0	5.173646822386345e+17
19593.0	5.172603582240085e+17
19594.0	5.171388178497534e+17
19595.0	5.1708754220373325e+17
19596.0	5.169380009355947e+17
19597.0	5.169057881915392e+17
19598.0	5.1675049800062285e+17
19599.0	5.167240113203881e+17
19600.0	5.166339945660415e+17
19601.0	5.1653340851514016e+17
19602.0	5.1644140254221645e+17
19603.0	5.1624417846886374e+17
19604.0	5.1624898234504525e+17
19605.0	5.1613617940507296e+17
19606.0	5.160834816802815e+17
19607.0	5.159933143504213e+17
19608.0	5.1589953362766496e+17
19609.0	5.158032870735871e+17
19610.0	5.156651341796694e+17
19611.0	5.15549528256239e+17
19612.0	5.155352558785877e+17
19613.0	5.154421589671936e+17
19614.0	5.153465682624511e+17
19615.0	5.152576358055935e+17
19616.0	5.1505963382865914e+17
19617.0	5.149972022427648e+17
19618.0	5.1489925412945894e+17
19619.0	5.1477839903457254e+17
19620.0	5.146801711611902e+17
19621.0	5.145992655536127e+17
19622.0	5.1461686541243725e+17
19623.0	5.1451879160982176e+17
19624.0	5.144139825938432e+17
19625.0	5.1433954054853965e+17
19626.0	5.142451142524928e+17
19627.0	5.1414496461892256e+17
19628.0	5.1395107389876915e+17
19629.0	5.136524446968489e+17
19630.0	5.13298942464273e+17
19631.0	5.095932468483414e+17
19632.0	5.1361146299132576e+17
19633.0	5.13572116365312e+17
19634.0	5.135106291968681e+17
19635.0	5.134051149086718e+17
19636.0	5.132118794786132e+17
19637.0	5.130841816563711e+17
19638.0	5.131416453687977e+17
19639.0	5.130600702104917e+17
19640.0	5.1295703070146554e+17
19641.0	5.127142146135387e+17
19642.0	5.127776032697002e+17
19643.0	5.126848688160767e+17
19644.0	5.125958508653226e+17
19645.0	5.124771521320276e+17
19646.0	5.1229115376380563e+17
19647.0	5.123280507764735e+17
19648.0	5.1223892866717e+17
19649.0	5.1214702293811194e+17
19650.0	5.120562523974313e+17
19651.0	5.119641428251988e+17
19652.0	5.118724410092203e+17
19653.0	5.1177919827585696e+17
19654.0	5.1168942381247136e+17
19655.0	5.1159742531938976e+17
