# Flux units: erg / (cm m2 s)
# Wavelength units: Angstrom
wave	flux
19000.0	4.8585098095056205e+17
19001.0	4.8574593642441376e+17
19002.0	4.856725335878314e+17
19003.0	4.8558212096109216e+17
19004.0	4.854921605502293e+17
19005.0	4.854016657850368e+17
19006.0	4.8531349571283616e+17
19007.0	4.852231123064149e+17
19008.0	4.851249686686378e+17
19009.0	4.850314698031103e+17
19010.0	4.8487077657968614e+17
19011.0	4.8486033031604896e+17
19012.0	4.8472728978937146e+17
19013.0	4.8468741342276256e+17
19014.0	4.845906420214442e+17
19015.0	4.8450113830038176e+17
19016.0	4.844089815422292e+17
19017.0	4.843304014665044e+17
19018.0	4.8423764128781645e+17
19019.0	4.8415068511709856e+17
19020.0	4.840601341482324e+17
19021.0	4.839734979330047e+17
19022.0	4.838836073573034e+17
19023.0	4.837891225507156e+17
19024.0	4.8370032228433914e+17
19025.0	4.83614043214097e+17
19026.0	4.835196287320063e+17
19027.0	4.8340771708163405e+17
19028.0	4.8334906386459296e+17
19029.0	4.8325726285332474e+17
19030.0	4.831722572436821e+17
19031.0	4.8308410667499514e+17
19032.0	4.829935795437568e+17
19033.0	4.828910923546623e+17
19034.0	4.828142926211753e+17
19035.0	4.8272005199298554e+17
19036.0	4.801567489611085e+17
19037.0	4.82546556285747e+17
19038.0	4.824573793009663e+17
19039.0	4.823714549989375e+17
19040.0	4.8228331827145363e+17
19041.0	4.821933487729321e+17
19042.0	4.820323441224361e+17
19043.0	4.820175942931796e+17
19044.0	4.8192688016588794e+17
19045.0	4.8183843914164896e+17
19046.0	4.8174035876795725e+17
19047.0	4.8166004015322445e+17
19048.0	4.8152606884058426e+17
19049.0	4.813540547712338e+17
19050.0	4.813863231597226e+17
19051.0	4.809679985180666e+17
19052.0	4.8116937928649376e+17
19053.0	4.8112962043030176e+17
19054.0	4.810413894707881e+17
19055.0	4.808969172287488e+17
19056.0	4.808538413072383e+17
19057.0	4.8077530988544e+17
19058.0	4.8062322596031123e+17
19059.0	4.8057425305709216e+17
19060.0	4.80506652201233e+17
19061.0	4.804225422153045e+17
19062.0	4.80333215633681e+17
19063.0	4.80244918124544e+17
19064.0	4.8013673416185165e+17
19065.0	4.800429863643819e+17
19066.0	4.7994899361955834e+17
19067.0	4.7989003484747085e+17
19068.0	4.798035451532628e+17
19069.0	4.7971530098169165e+17
19070.0	4.7962223853349536e+17
19071.0	4.7953707472868685e+17
19072.0	4.794263822925823e+17
19073.0	4.7936114269006496e+17
19074.0	4.792742739006804e+17
19075.0	4.7918607593635834e+17
19076.0	4.790944909317461e+17
19077.0	4.790068485029887e+17
19078.0	4.789139980069545e+17
19079.0	4.7883290351588685e+17
19080.0	4.787428606170453e+17
19081.0	4.7865001130939725e+17
19082.0	4.785620450803711e+17
19083.0	4.784678227673087e+17
19084.0	4.7836179453706234e+17
19085.0	4.7830247512473594e+17
19086.0	4.7813175450883405e+17
19087.0	4.780216126450346e+17
19088.0	4.7799803897883296e+17
19089.0	4.7789866074767354e+17
19090.0	4.7786092054009165e+17
19091.0	4.7776723062401696e+17
19092.0	4.7762302688733856e+17
19093.0	4.7760155855202976e+17
19094.0	4.775134481088511e+17
19095.0	4.774259958218751e+17
19096.0	4.773353330049024e+17
19097.0	4.7725001925372576e+17
19098.0	4.7713581772308474e+17
19099.0	4.770434538362198e+17
19100.0	4.769804000952318e+17
19101.0	4.768974397680297e+17
19102.0	4.7678966572864845e+17
19103.0	4.7672300740280314e+17
19104.0	4.766364004777983e+17
19105.0	4.764923317977089e+17
19106.0	4.764500894242134e+17
19107.0	4.763560313181524e+17
19108.0	4.762649656382805e+17
19109.0	4.760527920868008e+17
19110.0	4.7610765728808954e+17
19111.0	4.760065208046931e+17
19112.0	4.759168554631166e+17
19113.0	4.758473547273557e+17
19114.0	4.7574955460307616e+17
19115.0	4.7565863124991994e+17
19116.0	4.755827496495785e+17
19117.0	4.7549492980176205e+17
19118.0	4.7538981530064205e+17
19119.0	4.736035105101114e+17
19120.0	4.752158309569876e+17
19121.0	4.7513560028282874e+17
19122.0	4.7506172020435616e+17
19123.0	4.7497444163147085e+17
19124.0	4.748777499918334e+17
19125.0	4.747985184707925e+17
19126.0	4.747115952253611e+17
19127.0	4.743225961086974e+17
19128.0	4.745215899686228e+17
19129.0	4.744391426747049e+17
19130.0	4.7436118041995936e+17
19131.0	4.7427597026809165e+17
19132.0	4.741887577554943e+17
19133.0	4.740900410359807e+17
19134.0	4.7400703331314336e+17
19135.0	4.739268162704724e+17
19136.0	4.7384114810060794e+17
19137.0	4.737269189574655e+17
19138.0	4.7366443766906874e+17
19139.0	4.735800349207211e+17
19140.0	4.734932172319402e+17
19141.0	4.73406184165649e+17
19142.0	4.733147202366123e+17
19143.0	4.732219164371626e+17
19144.0	4.7313974561778336e+17
19145.0	4.7305796591725216e+17
19146.0	4.728752866415958e+17
19147.0	4.728676931338239e+17
19148.0	4.7277588296499194e+17
19149.0	4.726857115806378e+17
19150.0	4.726226800694613e+17
19151.0	4.7253666195483296e+17
19152.0	4.7244798583985485e+17
19153.0	4.7231949634273274e+17
19154.0	4.7225102530860365e+17
19155.0	4.721898262189396e+17
19156.0	4.721032991954261e+17
19157.0	4.719998640936277e+17
19158.0	4.718061827391487e+17
19159.0	4.718399563934378e+17
19160.0	4.717536916537343e+17
19161.0	4.716681614764714e+17
19162.0	4.7135759640384864e+17
19163.0	4.714923111568724e+17
19164.0	4.714100421208745e+17
19165.0	4.712717594132478e+17
19166.0	4.712092332457983e+17
19167.0	4.7112990155079674e+17
19168.0	4.7106315968839674e+17
19169.0	4.7097246779091616e+17
19170.0	4.7089166704093856e+17
19171.0	4.707900910643883e+17
19172.0	4.7071772240336205e+17
19173.0	4.706317639177557e+17
19174.0	4.705359683212629e+17
19175.0	4.704593690056021e+17
19176.0	4.703730920325119e+17
19177.0	4.7026301762710176e+17
19178.0	4.7019569086900896e+17
19179.0	4.7009354397777914e+17
19180.0	4.70026316554786e+17
19181.0	4.6991625473228794e+17
19182.0	4.698522082694485e+17
19183.0	4.697697557326506e+17
19184.0	4.696825866310996e+17
19185.0	4.695952675132757e+17
19186.0	4.695109357884757e+17
19187.0	4.694154586095615e+17
19188.0	4.693380885206357e+17
19189.0	4.692524170652329e+17
19190.0	4.6916545418362874e+17
19191.0	4.690739666266794e+17
19192.0	4.6899455656809805e+17
19193.0	4.6890183707415885e+17
19194.0	4.688115261592917e+17
19195.0	4.6873605070738765e+17
19196.0	4.686471251711317e+17
19197.0	4.685619215903402e+17
19198.0	4.684734607130623e+17
19199.0	4.670756582238888e+17
19200.0	4.6742613140002176e+17
19201.0	4.682160478879743e+17
19202.0	4.68133851832866e+17
19203.0	4.680446727509331e+17
19204.0	4.679580670842198e+17
19205.0	4.678759908463955e+17
19206.0	4.6778868179490125e+17
19207.0	4.67688264704546e+17
19208.0	4.6757791284592634e+17
19209.0	4.675323556440746e+17
19210.0	4.674469154346325e+17
19211.0	4.673633751050923e+17
19212.0	4.6727713804779514e+17
19213.0	4.671684235056468e+17
19214.0	4.670743887478784e+17
19215.0	4.670156025714004e+17
19216.0	4.669348864764587e+17
19217.0	4.6684835889370445e+17
19218.0	4.666295859544061e+17
19219.0	4.666568882170538e+17
19220.0	4.66588060946705e+17
19221.0	4.664537475186688e+17
19222.0	4.6642042894636365e+17
19223.0	4.6633225460995405e+17
19224.0	4.662437046037161e+17
19225.0	4.661406563565566e+17
19226.0	4.660757845245952e+17
19227.0	4.6599084497524045e+17
19228.0	4.659088015927979e+17
19229.0	4.658232445020842e+17
19230.0	4.6573650650507936e+17
19231.0	4.6565057612130976e+17
19232.0	4.655656922163881e+17
19233.0	4.654709779114666e+17
19234.0	4.6539198008306336e+17
19235.0	4.653060060086271e+17
19236.0	4.6522548970236576e+17
19237.0	4.651372541990228e+17
19238.0	4.6503811070907725e+17
19239.0	4.649699864739839e+17
19240.0	4.648830086326955e+17
19241.0	4.6479590964592634e+17
19242.0	4.6471176219088205e+17
19243.0	4.6460550299429536e+17
19244.0	4.6454388286641485e+17
19245.0	4.6445787362973005e+17
19246.0	4.643706704844117e+17
19247.0	4.64287021802018e+17
19248.0	4.642028298174464e+17
19249.0	4.641155543902889e+17
19250.0	4.6402129964127565e+17
19251.0	4.639214133400916e+17
19252.0	4.638226521609557e+17
19253.0	4.6377306940593485e+17
19254.0	4.6369228955757216e+17
19255.0	4.6358074679623674e+17
19256.0	4.6351742573827405e+17
19257.0	4.634372570000042e+17
19258.0	4.633524374077438e+17
19259.0	4.6325725061447674e+17
19260.0	4.6312647207594643e+17
19261.0	4.6309552489321805e+17
19262.0	4.6300339742528845e+17
19263.0	4.629168006365184e+17
19264.0	4.6274728623254163e+17
19265.0	4.627222797920937e+17
19266.0	4.626145402858155e+17
19267.0	4.6258811889691296e+17
19268.0	4.625022319241898e+17
19269.0	4.624178137967274e+17
19270.0	4.623332243319465e+17
19271.0	4.6218939102221664e+17
19272.0	4.6215814709248e+17
19273.0	4.619946724862633e+17
19274.0	4.6191515945751866e+17
19275.0	4.619094001887913e+17
19276.0	4.618214258507776e+17
19277.0	4.617376330940415e+17
19278.0	4.6165223909184845e+17
19279.0	4.6156571283729056e+17
19280.0	4.6146983999569914e+17
19281.0	4.6139784763364685e+17
19282.0	4.613155569969833e+17
19283.0	4.612114018729983e+17
19284.0	4.611390743860564e+17
19285.0	4.610350136339114e+17
19286.0	4.6097111620867405e+17
19287.0	4.608914718283091e+17
19288.0	4.601381341451598e+17
19289.0	4.590706167381987e+17
19290.0	4.6063736397496314e+17
19291.0	4.6051562220421114e+17
19292.0	4.604685912637439e+17
19293.0	4.603831034489514e+17
19294.0	4.6029765883549005e+17
19295.0	4.60214959673617e+17
19296.0	4.6010380118043296e+17
19297.0	4.6003539669592736e+17
19298.0	4.5995617852675405e+17
19299.0	4.598464101657258e+17
19300.0	4.597887468044287e+17
19301.0	4.597058132508671e+17
19302.0	4.5961954459647994e+17
19303.0	4.595246144946175e+17
19304.0	4.5944729305961805e+17
19305.0	4.5936494524061005e+17
19306.0	4.5928086685177165e+17
19307.0	4.591888898894507e+17
19308.0	4.5910829067578016e+17
19309.0	4.5897685502962336e+17
19310.0	4.588759317566804e+17
19311.0	4.5884907632721914e+17
19312.0	4.587727379671723e+17
19313.0	4.5868912172072954e+17
19314.0	4.533556187496465e+17
19315.0	4.536943018770498e+17
19316.0	4.583960234775893e+17
19317.0	4.5834889949347834e+17
19318.0	4.5826438098234016e+17
19319.0	4.581819692701012e+17
19320.0	4.580857134186496e+17
19321.0	4.579897778023082e+17
19322.0	4.5791474331156474e+17
19323.0	4.5782130316629325e+17
19324.0	4.5775606153652896e+17
19325.0	4.576251938690389e+17
19326.0	4.5758801807496525e+17
19327.0	4.5750030448285005e+17
19328.0	4.573692185018368e+17
19329.0	4.573341762803029e+17
19330.0	4.5724269487499936e+17
19331.0	4.571569519067134e+17
19332.0	4.570781555447125e+17
19333.0	4.569911716915882e+17
19334.0	4.5690641711103994e+17
19335.0	4.567239830623573e+17
19336.0	4.5673549467921056e+17
19337.0	4.566523519696896e+17
19338.0	4.5653474613220685e+17
19339.0	4.564732414175914e+17
19340.0	4.563150727457449e+17
19341.0	4.5622344663695354e+17
19342.0	4.5610720143168845e+17
19343.0	4.560979152426325e+17
19344.0	4.559759320896853e+17
19345.0	4.555551754507598e+17
19346.0	4.5569565268814483e+17
19347.0	4.5569837590992205e+17
19348.0	4.556698528251904e+17
19349.0	4.55578438668561e+17
19350.0	4.5547591442978125e+17
19351.0	4.554051370876927e+17
19352.0	4.5526423287016096e+17
19353.0	4.5523926229101216e+17
19354.0	4.5515356007738016e+17
19355.0	4.550520522582699e+17
19356.0	4.5498023053448525e+17
19357.0	4.548935548928e+17
19358.0	4.548058875079338e+17
19359.0	4.5469968884913485e+17
19360.0	4.5458841319505914e+17
19361.0	4.5453902295859194e+17
19362.0	4.5445849169264634e+17
19363.0	4.54370767405056e+17
19364.0	4.542827158219433e+17
19365.0	4.541943272964095e+17
19366.0	4.541068724229461e+17
19367.0	4.540186876706815e+17
19368.0	4.5393040693876045e+17
19369.0	4.5383305979931296e+17
19370.0	4.5374289617442125e+17
19371.0	4.5365524521724576e+17
19372.0	4.53573765968691e+17
19373.0	4.5346593943060474e+17
19374.0	4.533369296999765e+17
19375.0	4.5324656733498016e+17
19376.0	4.5315677777210016e+17
19377.0	4.5306399781027834e+17
19378.0	4.529731663123798e+17
19379.0	4.528818434517674e+17
19380.0	4.527895510078805e+17
19381.0	4.526962980683776e+17
19382.0	4.5259312993402874e+17
19383.0	4.5249254556084896e+17
19384.0	4.5241396282873165e+17
19385.0	4.523208995416746e+17
19386.0	4.522148581692758e+17
19387.0	4.5205640666152954e+17
19388.0	4.519597256474623e+17
19389.0	4.5186184953637536e+17
19390.0	4.5176245194151245e+17
19391.0	4.4936149727532026e+17
19392.0	4.5153589479342054e+17
19393.0	4.51462705516817e+17
19394.0	4.512980320387072e+17
19395.0	4.5114621165567994e+17
19396.0	4.5105225631006694e+17
19397.0	4.509545328017406e+17
19398.0	4.508285600967338e+17
19399.0	4.5049039587464525e+17
19400.0	4.5045977990212256e+17
19401.0	4.5036717267572045e+17
19402.0	4.5025377491353594e+17
19403.0	4.499969358692351e+17
19404.0	4.4987822294521165e+17
19405.0	4.4972659081652883e+17
19406.0	4.4946390910675616e+17
19407.0	4.4932019169962656e+17
19408.0	4.489793124346541e+17
19409.0	4.489712042158762e+17
19410.0	4.4883554392692045e+17
19411.0	4.4869351626506234e+17
19412.0	4.48546237124881e+17
19413.0	4.483790503499092e+17
19414.0	4.4819342541455354e+17
19415.0	4.4802164629613216e+17
19416.0	4.478253907574782e+17
19417.0	4.4765941285082445e+17
19418.0	4.4750716933242874e+17
19419.0	4.47310072975633e+17
19420.0	4.4704063850632525e+17
19421.0	4.4683857930922656e+17
19422.0	4.4662209555114656e+17
19423.0	4.4629518206020256e+17
19424.0	4.460480650630485e+17
19425.0	4.4568054029352954e+17
19426.0	4.4533540744506e+17
19427.0	4.4487067688413856e+17
19428.0	4.4431601086846304e+17
19429.0	4.436115788398594e+17
19430.0	4.42641408083012e+17
19431.0	4.410166670437047e+17
19432.0	4.400107685063337e+17
19433.0	4.3928283418460154e+17
19434.0	4.385605978248532e+17
19435.0	4.3770848903604896e+17
19436.0	4.3672445701324774e+17
19437.0	4.3600361756644685e+17
19438.0	4.306413101427379e+17
19439.0	4.3381950170617197e+17
19440.0	4.32787342631458e+17
19441.0	4.3155043084752205e+17
19442.0	4.299105468328618e+17
19443.0	4.2686814991591994e+17
19444.0	4.2062397609519725e+17
19445.0	4.1644377712011955e+17
19446.0	4.122214599928491e+17
19447.0	4.0779322393012915e+17
19448.0	3.9927593223673024e+17
19449.0	3.832649291748689e+17
19450.0	3.422757431104881e+17
19451.0	3.21028397465601e+17
19452.0	3.688848624539004e+17
19453.0	3.9113723673750285e+17
19454.0	4.0474151894384576e+17
19455.0	4.0953181641550483e+17
19456.0	4.136798164178262e+17
19457.0	4.1756225112637414e+17
19458.0	4.0756649991866835e+17
19459.0	4.2705662173512134e+17
19460.0	4.2944821513420806e+17
19461.0	4.306741841887231e+17
19462.0	4.317072188243968e+17
19463.0	4.32654180749585e+17
19464.0	4.3351858087635616e+17
19465.0	4.342977133193898e+17
19466.0	4.3499565389359776e+17
19467.0	4.356715325685758e+17
19468.0	4.362738496525654e+17
19469.0	4.3671653222536506e+17
19470.0	4.376355657482235e+17
19471.0	4.3893694929742515e+17
19472.0	4.398766154405208e+17
19473.0	4.404763684066646e+17
19474.0	4.4089138052683104e+17
19475.0	4.410909511035559e+17
19476.0	4.414824779175253e+17
19477.0	4.41705427894272e+17
19478.0	4.4182929338094925e+17
19479.0	4.419298361606144e+17
19480.0	4.420641338600106e+17
19481.0	4.4210176725265056e+17
19482.0	4.42167906603281e+17
19483.0	4.4226061582117536e+17
19484.0	4.4227759799883085e+17
19485.0	4.422810013969066e+17
19486.0	4.4225323419566086e+17
19487.0	4.4229634492989446e+17
19488.0	4.4232215339117216e+17
19489.0	4.4232338658645325e+17
19490.0	4.4205798997360595e+17
19491.0	4.422993884566868e+17
19492.0	4.4228299411073696e+17
19493.0	4.422568661833044e+17
19494.0	4.4226932130884256e+17
19495.0	4.422868892909568e+17
19496.0	4.4218345425906304e+17
19497.0	4.4236630759833594e+17
19498.0	4.4211176381699437e+17
19499.0	4.3862356446412576e+17
19500.0	4.4236947052298234e+17
19501.0	4.423216751706112e+17
19502.0	4.422694712552106e+17
19503.0	4.4225583039993165e+17
19504.0	4.4228477158686714e+17
19505.0	4.422472137616042e+17
19506.0	4.421917031268351e+17
19507.0	4.4212851062429e+17
19508.0	4.4207341599457274e+17
19509.0	4.420994051604478e+17
19510.0	4.419961910984702e+17
19511.0	4.332860996233844e+17
19512.0	4.413633145252511e+17
19513.0	4.407870272219802e+17
19514.0	4.410353244962806e+17
19515.0	4.416146004508674e+17
19516.0	4.4164138779279354e+17
19517.0	4.416215924954452e+17
19518.0	4.4157286293176314e+17
19519.0	4.41501631975697e+17
19520.0	4.4140544449140045e+17
19521.0	4.4137596056152736e+17
19522.0	4.4129589248655354e+17
19523.0	4.412254312551766e+17
19524.0	4.411388937459029e+17
19525.0	4.4109061416113485e+17
19526.0	4.410221842311851e+17
19527.0	4.409477641360725e+17
19528.0	4.408738393882623e+17
19529.0	4.4079931932890445e+17
19530.0	4.4073250881972896e+17
19531.0	4.406598904578047e+17
19532.0	4.4059571837556045e+17
19533.0	4.405651720983893e+17
19534.0	4.404908098147668e+17
19535.0	4.404144659322195e+17
19536.0	4.403365519818751e+17
19537.0	4.4026778706684576e+17
19538.0	4.401435193464149e+17
19539.0	4.400194057666562e+17
19540.0	4.400396571945642e+17
19541.0	4.3996105628712954e+17
19542.0	4.398892495929343e+17
19543.0	4.39782156009472e+17
19544.0	4.397398693860694e+17
19545.0	4.3958585985597414e+17
19546.0	4.3943372580891296e+17
19547.0	4.3951684845567994e+17
19548.0	4.394407541342208e+17
19549.0	4.3935015611924474e+17
19550.0	4.392884971241472e+17
19551.0	4.392127049323861e+17
19552.0	4.3913606297463456e+17
19553.0	4.3905586228974925e+17
19554.0	4.389755631785302e+17
19555.0	4.3890054343775565e+17
19556.0	4.3882735639811405e+17
19557.0	4.387524861143723e+17
19558.0	4.3867599745843194e+17
19559.0	4.3859957926679885e+17
19560.0	4.3850670129807354e+17
19561.0	4.384418423286442e+17
19562.0	4.3835566245369165e+17
19563.0	4.382923260166142e+17
19564.0	4.3821527860947616e+17
19565.0	4.38137762418961e+17
19566.0	4.3805597181323936e+17
19567.0	4.3798374526921376e+17
19568.0	4.379033137577983e+17
19569.0	4.378257647119017e+17
19570.0	4.3775139704558925e+17
19571.0	4.3767356865904634e+17
19572.0	4.3759235700708685e+17
19573.0	4.375125982620329e+17
19574.0	4.3742774791154336e+17
19575.0	4.373647458304e+17
19576.0	4.3728499211851085e+17
19577.0	4.372000950714366e+17
19578.0	4.37125021573666e+17
19579.0	4.3705108703914656e+17
19580.0	4.369736902464853e+17
19581.0	4.3689722144358394e+17
19582.0	4.368227281578666e+17
19583.0	4.367451660397225e+17
19584.0	4.3666610424818336e+17
19585.0	4.3657261027601056e+17
19586.0	4.3649051621239475e+17
19587.0	4.3642595385016314e+17
19588.0	4.36276609085167e+17
19589.0	4.362760416657408e+17
19590.0	4.361784027425449e+17
19591.0	4.361225904674133e+17
19592.0	4.360456564462933e+17
19593.0	4.3596245970015565e+17
19594.0	4.358496656381268e+17
19595.0	4.35807649337617e+17
19596.0	4.3570140377251834e+17
19597.0	4.3565532780516685e+17
19598.0	4.355003206598655e+17
19599.0	4.355383685196459e+17
19600.0	4.3546181478208845e+17
19601.0	4.3537360472418995e+17
19602.0	4.352989322018815e+17
19603.0	4.351367537055059e+17
19604.0	4.351428466311168e+17
19605.0	4.350256547015338e+17
19606.0	4.349945479255381e+17
19607.0	4.3491785046316365e+17
19608.0	4.3483770423432525e+17
19609.0	4.3475380724913485e+17
19610.0	4.3466711503994874e+17
19611.0	4.34580929712401e+17
19612.0	4.34529806459426e+17
19613.0	4.3445053774888954e+17
19614.0	4.343686067038891e+17
19615.0	4.342960729970004e+17
19616.0	4.3418126811572896e+17
19617.0	4.3411358875648e+17
19618.0	4.339607350367571e+17
19619.0	4.338557465045672e+17
19620.0	4.3378013054347923e+17
19621.0	4.337959518775978e+17
19622.0	4.337530502294186e+17
19623.0	4.3367402800414714e+17
19624.0	4.335918713754965e+17
19625.0	4.3352047928825165e+17
19626.0	4.334413998806357e+17
19627.0	4.333650669032789e+17
19628.0	4.3325218308314464e+17
19629.0	4.331094593765375e+17
19630.0	4.3306484840966835e+17
19631.0	4.31533411480371e+17
19632.0	4.32974601457937e+17
19633.0	4.328890228364629e+17
19634.0	4.328223359194453e+17
19635.0	4.3273424337196365e+17
19636.0	4.326274075284821e+17
19637.0	4.3250434420244474e+17
19638.0	4.325059678874281e+17
19639.0	4.3243322761106765e+17
19640.0	4.3233910064851635e+17
19641.0	4.3203271995337446e+17
19642.0	4.321990173960874e+17
19643.0	4.321206679371774e+17
19644.0	4.3203806929879034e+17
19645.0	4.319225631997951e+17
19646.0	4.3185099767807994e+17
19647.0	4.3181482655962445e+17
19648.0	4.31738392219921e+17
19649.0	4.3166046184188576e+17
19650.0	4.315840872710144e+17
19651.0	4.315061907969364e+17
19652.0	4.314285929573034e+17
19653.0	4.313512890684757e+17
19654.0	4.3127403068784634e+17
