# Flux units: erg / (cm m2 s)
# Wavelength units: Angstrom
wave	flux
19000.0	4.705985482457087e+17
19001.0	4.7050587621730976e+17
19002.0	4.7042465317082445e+17
19003.0	4.703370872881151e+17
19004.0	4.702498952577023e+17
19005.0	4.70163011089203e+17
19006.0	4.700761193709566e+17
19007.0	4.69982412607761e+17
19008.0	4.698984569023145e+17
19009.0	4.698139681008298e+17
19010.0	4.696950303621119e+17
19011.0	4.6963944828436474e+17
19012.0	4.695290531545087e+17
19013.0	4.6946699954530976e+17
19014.0	4.6937713147903994e+17
19015.0	4.6929101186225485e+17
19016.0	4.6920318537345696e+17
19017.0	4.6911879052438176e+17
19018.0	4.6903085777988256e+17
19019.0	4.689453732506283e+17
19020.0	4.68857477276194e+17
19021.0	4.6877181246177274e+17
19022.0	4.6868532577348256e+17
19023.0	4.6859659771903994e+17
19024.0	4.685103371736403e+17
19025.0	4.684236696409429e+17
19026.0	4.683348187632982e+17
19027.0	4.682342810867029e+17
19028.0	4.6816494057335443e+17
19029.0	4.680771347764564e+17
19030.0	4.6799214272839674e+17
19031.0	4.67905854640401e+17
19032.0	4.678189064388607e+17
19033.0	4.677270339147092e+17
19034.0	4.6764496767330976e+17
19035.0	4.675573063002794e+17
19036.0	4.6613425675741715e+17
19037.0	4.6738538429590176e+17
19038.0	4.672983531170474e+17
19039.0	4.672128669100713e+17
19040.0	4.671267383454377e+17
19041.0	4.669997678854143e+17
19042.0	4.6678338073613645e+17
19043.0	4.666811780606634e+17
19044.0	4.6659399637620045e+17
19045.0	4.6650770199674874e+17
19046.0	4.664181002687828e+17
19047.0	4.663356302557183e+17
19048.0	4.662352402885289e+17
19049.0	4.6615728110960634e+17
19050.0	4.660738059315881e+17
19051.0	4.658232754001233e+17
19052.0	4.658949774464341e+17
19053.0	4.65816381362449e+17
19054.0	4.657317754699774e+17
19055.0	4.65630592499712e+17
19056.0	4.655577503017642e+17
19057.0	4.654729421739348e+17
19058.0	4.6538378217608525e+17
19059.0	4.65300547890927e+17
19060.0	4.6521343009969485e+17
19061.0	4.651290406333098e+17
19062.0	4.650425187827711e+17
19063.0	4.649567110124885e+17
19064.0	4.648629627256832e+17
19065.0	4.647747922340521e+17
19066.0	4.646950602626389e+17
19067.0	4.646120622566058e+17
19068.0	4.645267410255871e+17
19069.0	4.6444081707308365e+17
19070.0	4.6435312018827936e+17
19071.0	4.642679422626474e+17
19072.0	4.641827163122347e+17
19073.0	4.6409678494979405e+17
19074.0	4.640114549806421e+17
19075.0	4.6392560491779405e+17
19076.0	4.638383824786772e+17
19077.0	4.637532518088704e+17
19078.0	4.6366540448836256e+17
19079.0	4.635822663925759e+17
19080.0	4.6349582842811725e+17
19081.0	4.6340810784549536e+17
19082.0	4.633220208044714e+17
19083.0	4.6323416817117856e+17
19084.0	4.631410059684521e+17
19085.0	4.6306721334121805e+17
19086.0	4.6296004090484045e+17
19087.0	4.628613646603605e+17
19088.0	4.6280656873499296e+17
19089.0	4.6269717653312845e+17
19090.0	4.626381640040447e+17
19091.0	4.625531644761429e+17
19092.0	4.624565776941055e+17
19093.0	4.6238326489524896e+17
19094.0	4.6229751661417805e+17
19095.0	4.6221211729919994e+17
19096.0	4.621252652870313e+17
19097.0	4.6204124233291085e+17
19098.0	4.619551654281215e+17
19099.0	4.6186955031620256e+17
19100.0	4.617825097700692e+17
19101.0	4.616988559147007e+17
19102.0	4.6160714584992416e+17
19103.0	4.615284536464723e+17
19104.0	4.6144351276892154e+17
19105.0	4.613570418092714e+17
19106.0	4.612663895479636e+17
19107.0	4.6118617669959674e+17
19108.0	4.6110189831236256e+17
19109.0	4.609186551125331e+17
19110.0	4.609315809787904e+17
19111.0	4.608458555566762e+17
19112.0	4.6076102981277005e+17
19113.0	4.606759873631573e+17
19114.0	4.6059056134444365e+17
19115.0	4.605002563715072e+17
19116.0	4.6041947065111885e+17
19117.0	4.603346196015785e+17
19118.0	4.6024035926015994e+17
19119.0	4.5979587055015194e+17
19120.0	4.6006851051629216e+17
19121.0	4.5998868731876685e+17
19122.0	4.5991026208276474e+17
19123.0	4.59825050882321e+17
19124.0	4.59734107885841e+17
19125.0	4.5965484350941856e+17
19126.0	4.5956941581298336e+17
19127.0	4.59377848038195e+17
19128.0	4.593559612511571e+17
19129.0	4.5931044773997216e+17
19130.0	4.59229875998993e+17
19131.0	4.591441881158996e+17
19132.0	4.590606087094271e+17
19133.0	4.589610069218645e+17
19134.0	4.5886906351397555e+17
19135.0	4.588057302925311e+17
19136.0	4.587216191182164e+17
19137.0	4.5862685622927354e+17
19138.0	4.5854922245843616e+17
19139.0	4.584673224512853e+17
19140.0	4.58382630785297e+17
19141.0	4.582979275849727e+17
19142.0	4.582113777724074e+17
19143.0	4.581244717935274e+17
19144.0	4.580420721748651e+17
19145.0	4.579589039499947e+17
19146.0	4.578379096741205e+17
19147.0	4.5778417504747514e+17
19148.0	4.577043180858026e+17
19149.0	4.5761970513291936e+17
19150.0	4.575356462475946e+17
19151.0	4.5745147949875194e+17
19152.0	4.573658097909759e+17
19153.0	4.572807176388607e+17
19154.0	4.5719061098659834e+17
19155.0	4.571134631957845e+17
19156.0	4.570292150774442e+17
19157.0	4.5694398933674656e+17
19158.0	4.5679439969430163e+17
19159.0	4.56774717083921e+17
19160.0	4.566896800169983e+17
19161.0	4.5660334551203834e+17
19162.0	4.5637096743895046e+17
19163.0	4.5643813229690874e+17
19164.0	4.563543707877376e+17
19165.0	4.562657673740287e+17
19166.0	4.5617459117424634e+17
19167.0	4.5608714748559354e+17
19168.0	4.560147126943743e+17
19169.0	4.5592871310458874e+17
19170.0	4.5584873534696096e+17
19171.0	4.5575469786289485e+17
19172.0	4.5567952733689165e+17
19173.0	4.555957544331946e+17
19174.0	4.5550836562001914e+17
19175.0	4.554278291111934e+17
19176.0	4.553435618388649e+17
19177.0	4.5525077887112525e+17
19178.0	4.5517434781696e+17
19179.0	4.550765309154645e+17
19180.0	4.5500312129809056e+17
19181.0	4.549149611524095e+17
19182.0	4.5483808920698874e+17
19183.0	4.5475500319047674e+17
19184.0	4.546687692090026e+17
19185.0	4.5458656902949536e+17
19186.0	4.5450338528570016e+17
19187.0	4.544153147583146e+17
19188.0	4.543348298394282e+17
19189.0	4.54249946353937e+17
19190.0	4.541654511910911e+17
19191.0	4.540803441491966e+17
19192.0	4.5400006768721914e+17
19193.0	4.5391452702419616e+17
19194.0	4.5383053433896954e+17
19195.0	4.5374804279514445e+17
19196.0	4.536636436119551e+17
19197.0	4.5358032355327994e+17
19198.0	4.5349673422028794e+17
19199.0	4.525245559996412e+17
19200.0	4.527863590726318e+17
19201.0	4.532456092161364e+17
19202.0	4.531622454667946e+17
19203.0	4.530762360902997e+17
19204.0	4.529928554938366e+17
19205.0	4.529106783830015e+17
19206.0	4.5282652163058336e+17
19207.0	4.527388691354965e+17
19208.0	4.526448537414313e+17
19209.0	4.525756538770773e+17
19210.0	4.524923953348607e+17
19211.0	4.5240962724659194e+17
19212.0	4.5232588607979514e+17
19213.0	4.5222965259796474e+17
19214.0	4.521424678376789e+17
19215.0	4.5207253550803616e+17
19216.0	4.51991632556851e+17
19217.0	4.5190800945971194e+17
19218.0	4.517753906703017e+17
19219.0	4.5173303581955405e+17
19220.0	4.516560331516587e+17
19221.0	4.515541697953792e+17
19222.0	4.514911108814165e+17
19223.0	4.5140622159380474e+17
19224.0	4.5132135907983354e+17
19225.0	4.5123182704721914e+17
19226.0	4.5115607672859296e+17
19227.0	4.5107326061554336e+17
19228.0	4.5099140940212896e+17
19229.0	4.509080448139263e+17
19230.0	4.508226932441087e+17
19231.0	4.5073948139847674e+17
19232.0	4.506573014215338e+17
19233.0	4.505704415799978e+17
19234.0	4.5048970814859936e+17
19235.0	4.504060461143381e+17
19236.0	4.503248947904512e+17
19237.0	4.502405033667242e+17
19238.0	4.501516954107904e+17
19239.0	4.500753322344447e+17
19240.0	4.499874544353279e+17
19241.0	4.499065536512e+17
19242.0	4.498246886664874e+17
19243.0	4.4973296538965325e+17
19244.0	4.4965928684748794e+17
19245.0	4.495758437558953e+17
19246.0	4.494920028345685e+17
19247.0	4.494094111866878e+17
19248.0	4.4932655627632634e+17
19249.0	4.4924307284951034e+17
19250.0	4.491591695728639e+17
19251.0	4.4907270015112525e+17
19252.0	4.489760230517417e+17
19253.0	4.489096422490112e+17
19254.0	4.4882741648424954e+17
19255.0	4.4873330427166714e+17
19256.0	4.486602380279806e+17
19257.0	4.485788028895231e+17
19258.0	4.4849590184181766e+17
19259.0	4.4840850701680634e+17
19260.0	4.483046053685929e+17
19261.0	4.4824612216067405e+17
19262.0	4.481604131662506e+17
19263.0	4.4807759460652365e+17
19264.0	4.4796501263646714e+17
19265.0	4.479019547011753e+17
19266.0	4.4781654035660794e+17
19267.0	4.477488408646996e+17
19268.0	4.4766542119130445e+17
19269.0	4.475826348578132e+17
19270.0	4.474998267139412e+17
19271.0	4.4739591381101235e+17
19272.0	4.473316421140479e+17
19273.0	4.471117996971348e+17
19274.0	4.470904360097106e+17
19275.0	4.4708498110764365e+17
19276.0	4.470008146384213e+17
19277.0	4.469181565807274e+17
19278.0	4.4683542987625805e+17
19279.0	4.4674991060418554e+17
19280.0	4.466642522909353e+17
19281.0	4.4658616141086714e+17
19282.0	4.4650402889946445e+17
19283.0	4.4640730929780045e+17
19284.0	4.4632335687789216e+17
19285.0	4.4624386174484474e+17
19286.0	4.4617009575144096e+17
19287.0	4.4608920028009805e+17
19288.0	4.457317074468864e+17
19289.0	4.4495608717421005e+17
19290.0	4.458402224100693e+17
19291.0	4.457425119739904e+17
19292.0	4.456741094468266e+17
19293.0	4.4559070955656525e+17
19294.0	4.45507503652864e+17
19295.0	4.454250942474923e+17
19296.0	4.4534117657040205e+17
19297.0	4.452569640337408e+17
19298.0	4.4517396358103034e+17
19299.0	4.4509209475153914e+17
19300.0	4.450093230981119e+17
19301.0	4.449259668985172e+17
19302.0	4.448427744165887e+17
19303.0	4.447544575437481e+17
19304.0	4.446743698953557e+17
19305.0	4.4459246625314125e+17
19306.0	4.445090484671828e+17
19307.0	4.4442277519906125e+17
19308.0	4.4434156438596256e+17
19309.0	4.4422849594654714e+17
19310.0	4.441315301392383e+17
19311.0	4.440898576318463e+17
19312.0	4.4400952538562554e+17
19313.0	4.439260956459007e+17
19314.0	4.4221105725330323e+17
19315.0	4.4231912636197926e+17
19316.0	4.4367369997735245e+17
19317.0	4.43592202064145e+17
19318.0	4.435085396803583e+17
19319.0	4.434258512838655e+17
19320.0	4.4334187908082336e+17
19321.0	4.432582357112149e+17
19322.0	4.4316923055308794e+17
19323.0	4.430754383659007e+17
19324.0	4.4300626275860474e+17
19325.0	4.428926389933397e+17
19326.0	4.428390915025578e+17
19327.0	4.427541808939006e+17
19328.0	4.426703619227647e+17
19329.0	4.425870415844693e+17
19330.0	4.425002341018283e+17
19331.0	4.424158403013291e+17
19332.0	4.42333785035025e+17
19333.0	4.4224822333057696e+17
19334.0	4.421647092154368e+17
19335.0	4.420788411869865e+17
19336.0	4.419951346931028e+17
19337.0	4.419106277163008e+17
19338.0	4.417355096522751e+17
19339.0	4.415427037888511e+17
19340.0	4.4144872236864845e+17
19341.0	4.4137105651138554e+17
19342.0	4.412623014242985e+17
19343.0	4.412016348015274e+17
19344.0	4.4111475909154125e+17
19345.0	4.408870826934267e+17
19346.0	4.409130890559488e+17
19347.0	4.408534608030378e+17
19348.0	4.4077199092176205e+17
19349.0	4.406832959324159e+17
19350.0	4.4059670235927885e+17
19351.0	4.4050968180599456e+17
19352.0	4.404204404386474e+17
19353.0	4.4033837678373536e+17
19354.0	4.402510255794859e+17
19355.0	4.4015773146589875e+17
19356.0	4.400756278252885e+17
19357.0	4.399875349282815e+17
19358.0	4.398980721016832e+17
19359.0	4.3980301847756794e+17
19360.0	4.397190850019327e+17
19361.0	4.3963016191235405e+17
19362.0	4.3954384026992634e+17
19363.0	4.3945404951866016e+17
19364.0	4.393635966266026e+17
19365.0	4.392734034318676e+17
19366.0	4.3918297892126714e+17
19367.0	4.3909174204388685e+17
19368.0	4.390005284448938e+17
19369.0	4.3890400150159354e+17
19370.0	4.3880022253677216e+17
19371.0	4.387201657165141e+17
19372.0	4.386301327441919e+17
19373.0	4.385346768863231e+17
19374.0	4.384400705148244e+17
19375.0	4.3811760165792416e+17
19376.0	4.380215304257536e+17
19377.0	4.3792415350674765e+17
19378.0	4.378270196476585e+17
19379.0	4.377290088295082e+17
19380.0	4.376302094123008e+17
19381.0	4.3753012402148685e+17
19382.0	4.374249902265685e+17
19383.0	4.3732202852188154e+17
19384.0	4.3722559042792096e+17
19385.0	4.3712212925153274e+17
19386.0	4.370177600782336e+17
19387.0	4.3691164376760314e+17
19388.0	4.366793500000253e+17
19389.0	4.3643152717141325e+17
19390.0	4.3632034050648736e+17
19391.0	4.349844226659649e+17
19392.0	4.3609252003403085e+17
19393.0	4.359780253914453e+17
19394.0	4.358595795746815e+17
19395.0	4.3573760208404474e+17
19396.0	4.353314546253824e+17
19397.0	4.3519140905178445e+17
19398.0	4.3506040597818016e+17
19399.0	4.348842117955582e+17
19400.0	4.347939779160746e+17
19401.0	4.3434100000467635e+17
19402.0	4.341752954268329e+17
19403.0	4.340270160849578e+17
19404.0	4.337493177182893e+17
19405.0	4.333369662548649e+17
19406.0	4.331720160225962e+17
19407.0	4.328868685021183e+17
19408.0	4.325649832826198e+17
19409.0	4.324246262120447e+17
19410.0	4.3223341656091296e+17
19411.0	4.320332935943508e+17
19412.0	4.3182451015898445e+17
19413.0	4.316073405622955e+17
19414.0	4.313786360004606e+17
19415.0	4.3114300160955725e+17
19416.0	4.3088212414955514e+17
19417.0	4.305830588099242e+17
19418.0	4.3030432424045216e+17
19419.0	4.3001445505215136e+17
19420.0	4.297138398472874e+17
19421.0	4.293945344742741e+17
19422.0	4.29054878617873e+17
19423.0	4.287002652442623e+17
19424.0	4.283236145780053e+17
19425.0	4.279248476263764e+17
19426.0	4.275012566865236e+17
19427.0	4.270562039125333e+17
19428.0	4.265912820214442e+17
19429.0	4.2600730040729594e+17
19430.0	4.254325821931521e+17
19431.0	4.246515154769242e+17
19432.0	4.24228503281118e+17
19433.0	4.2350256467913376e+17
19434.0	4.2270744138219526e+17
19435.0	4.2178410764916077e+17
19436.0	4.2058990695219174e+17
19437.0	4.192512714823e+17
19438.0	4.1506128985238144e+17
19439.0	4.1382027443131686e+17
19440.0	4.1091084296301216e+17
19441.0	4.0884156351119334e+17
19442.0	4.065323990209877e+17
19443.0	4.039959541448704e+17
19444.0	4.0116571714792096e+17
19445.0	3.979106067327662e+17
19446.0	3.9269111179509766e+17
19447.0	3.8285550890079456e+17
19448.0	3.748407020967256e+17
19449.0	3.593572214374391e+17
19450.0	3.124361662474921e+17
19451.0	2.9664377090430214e+17
19452.0	3.3955776414351674e+17
19453.0	3.693976950057649e+17
19454.0	3.787065802795686e+17
19455.0	3.874059849476788e+17
19456.0	3.951797948033704e+17
19457.0	3.988449942044675e+17
19458.0	3.9741743795187104e+17
19459.0	4.041812263392601e+17
19460.0	4.064569635547817e+17
19461.0	4.084905136881664e+17
19462.0	4.105392463631708e+17
19463.0	4.1397616685438125e+17
19464.0	4.1643530553480525e+17
19465.0	4.1793456327447904e+17
19466.0	4.190114893441704e+17
19467.0	4.1986973523858765e+17
19468.0	4.205941897560066e+17
19469.0	4.2109223469492883e+17
19470.0	4.2171529226267296e+17
19471.0	4.2213717339450016e+17
19472.0	4.225262268973054e+17
19473.0	4.229565724142249e+17
19474.0	4.2331893287703885e+17
19475.0	4.235582626594815e+17
19476.0	4.23884050329327e+17
19477.0	4.241379168004778e+17
19478.0	4.243672610635775e+17
19479.0	4.2457311953114445e+17
19480.0	4.247596225440425e+17
19481.0	4.249287791039829e+17
19482.0	4.250810306614614e+17
19483.0	4.2521855664674125e+17
19484.0	4.253386827715925e+17
19485.0	4.2546550580183034e+17
19486.0	4.25594834718993e+17
19487.0	4.2568016189194234e+17
19488.0	4.257535513067519e+17
19489.0	4.2581534430986234e+17
19490.0	4.257771867690323e+17
19491.0	4.259127698827946e+17
19492.0	4.2595257228984314e+17
19493.0	4.2598289508051616e+17
19494.0	4.260062412756308e+17
19495.0	4.261417435791358e+17
19496.0	4.2621019252326394e+17
19497.0	4.262383073624064e+17
19498.0	4.2644226210529306e+17
19499.0	4.2457495887325606e+17
19500.0	4.2658206489859405e+17
19501.0	4.265653418590208e+17
19502.0	4.2679664605047443e+17
19503.0	4.2684530962377376e+17
19504.0	4.26816130060561e+17
19505.0	4.267857756727979e+17
19506.0	4.2675260564875936e+17
19507.0	4.267971883739817e+17
19508.0	4.26965393945395e+17
19509.0	4.2692354457818445e+17
19510.0	4.268677208386218e+17
19511.0	4.2385009527138643e+17
19512.0	4.265746256013982e+17
19513.0	4.26171609400387e+17
19514.0	4.2632898164380966e+17
19515.0	4.265948714369025e+17
19516.0	4.2673372603787923e+17
19517.0	4.267793807572991e+17
19518.0	4.267287578847914e+17
19519.0	4.266714337727829e+17
19520.0	4.266126241781076e+17
19521.0	4.265571204639402e+17
19522.0	4.2649573025382394e+17
19523.0	4.2643821858652154e+17
19524.0	4.263772808719018e+17
19525.0	4.263151739950421e+17
19526.0	4.2625463250234016e+17
19527.0	4.2619140595602765e+17
19528.0	4.2612841995304954e+17
19529.0	4.260645712516436e+17
19530.0	4.2600104879718394e+17
19531.0	4.259366178564778e+17
19532.0	4.258712819247787e+17
19533.0	4.2580578234531846e+17
19534.0	4.2590419595646266e+17
19535.0	4.258866772574207e+17
19536.0	4.258182270550015e+17
19537.0	4.257527174791167e+17
19538.0	4.2568258822690125e+17
19539.0	4.255778235307351e+17
19540.0	4.25546250068514e+17
19541.0	4.2547867913202336e+17
19542.0	4.25409167700787e+17
19543.0	4.253390277530965e+17
19544.0	4.252701943311019e+17
19545.0	4.251798241367379e+17
19546.0	4.2506649411256314e+17
19547.0	4.250597737889791e+17
19548.0	4.2498924817503565e+17
19549.0	4.2491241621531296e+17
19550.0	4.2484722554634234e+17
19551.0	4.2477613062553594e+17
19552.0	4.2470461669375994e+17
19553.0	4.246319984017406e+17
19554.0	4.245584361816064e+17
19555.0	4.244885708210176e+17
19556.0	4.244173781729278e+17
19557.0	4.2434506249994234e+17
19558.0	4.242727399063551e+17
19559.0	4.242000621950293e+17
19560.0	4.2412621588070394e+17
19561.0	4.2405366875204256e+17
19562.0	4.239819168634196e+17
19563.0	4.239096741014186e+17
19564.0	4.2383659059118074e+17
19565.0	4.237634613630293e+17
19566.0	4.236885818518186e+17
19567.0	4.23617146073907e+17
19568.0	4.235424270647295e+17
19569.0	4.2346904387147085e+17
19570.0	4.2339675056810656e+17
19571.0	4.233231589878442e+17
19572.0	4.232475038799189e+17
19573.0	4.2317501358407674e+17
19574.0	4.230963749279061e+17
19575.0	4.230280835497982e+17
19576.0	4.229540493306538e+17
19577.0	4.228767016113493e+17
19578.0	4.2280360370066765e+17
19579.0	4.227305462650196e+17
19580.0	4.2265676831784954e+17
19581.0	4.2258279722298016e+17
19582.0	4.225097740408149e+17
19583.0	4.2243551151172256e+17
19584.0	4.223607515381759e+17
19585.0	4.222801461728597e+17
19586.0	4.222041081948842e+17
19587.0	4.2213206731871565e+17
19588.0	4.2203461357404154e+17
19589.0	4.2198748546553165e+17
19590.0	4.2190747296508576e+17
19591.0	4.2183952978411526e+17
19592.0	4.2176525537116154e+17
19593.0	4.216895922241534e+17
19594.0	4.216001017151486e+17
19595.0	4.2154015322712736e+17
19596.0	4.213756636692479e+17
19597.0	4.213911154152789e+17
19598.0	4.2129131041368736e+17
19599.0	4.2124229493828256e+17
19600.0	4.211679687256746e+17
19601.0	4.210893307685547e+17
19602.0	4.21016124854545e+17
19603.0	4.209032768957098e+17
19604.0	4.208663208132608e+17
19605.0	4.207758391203157e+17
19606.0	4.2071869732072096e+17
19607.0	4.206442649223167e+17
19608.0	4.20568556966161e+17
19609.0	4.2049100540368205e+17
19610.0	4.204193903891797e+17
19611.0	4.2034370585122125e+17
19612.0	4.2027000710649165e+17
19613.0	4.2019434906255354e+17
19614.0	4.201178674670251e+17
19615.0	4.2004511964091725e+17
19616.0	4.19959220994048e+17
19617.0	4.198944139640832e+17
19618.0	4.197881279938559e+17
19619.0	4.19699244610355e+17
19620.0	4.1962916247415456e+17
19621.0	4.195946161591636e+17
19622.0	4.1952056879786656e+17
19623.0	4.194457309500755e+17
19624.0	4.1937017168199674e+17
19625.0	4.192957400525481e+17
19626.0	4.1922030787188045e+17
19627.0	4.191458800173055e+17
19628.0	4.1904898257715194e+17
19629.0	4.189892928776874e+17
19630.0	4.189138365797718e+17
19631.0	4.178505438156109e+17
19632.0	4.187707730646357e+17
19633.0	4.1869238487831885e+17
19634.0	4.1862132463042554e+17
19635.0	4.1854426589866656e+17
19636.0	4.184700444038484e+17
19637.0	4.183758709544277e+17
19638.0	4.1832080163034445e+17
19639.0	4.1824592135017805e+17
19640.0	4.1816847087042554e+17
19641.0	4.180313339767469e+17
19642.0	4.1802143024633165e+17
19643.0	4.1794584224727034e+17
19644.0	4.178685473062912e+17
19645.0	4.1778031844392954e+17
19646.0	4.1772174421961376e+17
19647.0	4.176476031156224e+17
19648.0	4.1757249878971725e+17
19649.0	4.1749744954900474e+17
19650.0	4.17422948503825e+17
19651.0	4.173477948249428e+17
19652.0	4.1727292761702394e+17
19653.0	4.171979431084031e+17
19654.0	4.1712323164897274e+17
19655.0	4.170480672746154e+17
