# Flux units: erg / (cm m2 s)
# Wavelength units: Angstrom
wave	flux
19000.0	6.472165574574079e+17
19001.0	6.470745341296639e+17
19002.0	6.46973589955106e+17
19003.0	6.468506617555625e+17
19004.0	6.467287095705599e+17
19005.0	6.466060958040063e+17
19006.0	6.464844647628797e+17
19007.0	6.463541324283904e+17
19008.0	6.462249468166143e+17
19009.0	6.461134357921791e+17
19010.0	6.458941124203858e+17
19011.0	6.458700248121343e+17
19012.0	6.457291010910889e+17
19013.0	6.456301825556479e+17
19014.0	6.45495801459507e+17
19015.0	6.453794787295232e+17
19016.0	6.452560963567613e+17
19017.0	6.450787269301586e+17
19018.0	6.450193155926697e+17
19019.0	6.448979315960489e+17
19020.0	6.447613679938217e+17
19021.0	6.44647045107985e+17
19022.0	6.445349966533972e+17
19023.0	6.444047870722047e+17
19024.0	6.442876505074345e+17
19025.0	6.441683941414228e+17
19026.0	6.440431834016425e+17
19027.0	6.439236517494783e+17
19028.0	6.438057022586879e+17
19029.0	6.436806992068605e+17
19030.0	6.435649924104191e+17
19031.0	6.434447409457833e+17
19032.0	6.433227509421396e+17
19033.0	6.431815980023807e+17
19034.0	6.430759450225321e+17
19035.0	6.429512373196116e+17
19036.0	6.422210401009658e+17
19037.0	6.427135629590527e+17
19038.0	6.425898982397268e+17
19039.0	6.424724597549737e+17
19040.0	6.423520591129257e+17
19041.0	6.422299591486121e+17
19042.0	6.420910538664618e+17
19043.0	6.419881889802921e+17
19044.0	6.418652416267604e+17
19045.0	6.417465405865983e+17
19046.0	6.416118020658515e+17
19047.0	6.415042435437907e+17
19048.0	6.413381388293459e+17
19049.0	6.412466611989161e+17
19050.0	6.411306816329044e+17
19051.0	6.409305540526079e+17
19052.0	6.408931382045353e+17
19053.0	6.407746884031828e+17
19054.0	6.406555480096767e+17
19055.0	6.404824390172672e+17
19056.0	6.40409351033105e+17
19057.0	6.40292698281301e+17
19058.0	6.401670005828265e+17
19059.0	6.400515568391508e+17
19060.0	6.399265968488447e+17
19061.0	6.398113502374569e+17
19062.0	6.396888710381565e+17
19063.0	6.395695249839443e+17
19064.0	6.394211309278548e+17
19065.0	6.392891308681897e+17
19066.0	6.391939689611263e+17
19067.0	6.390840695980031e+17
19068.0	6.389658818008404e+17
19069.0	6.388456815766185e+17
19070.0	6.387189265640106e+17
19071.0	6.386035270003369e+17
19072.0	6.384842542066346e+17
19073.0	6.383619601159507e+17
19074.0	6.382435317754538e+17
19075.0	6.381231887351807e+17
19076.0	6.379979444409683e+17
19077.0	6.378804310179837e+17
19078.0	6.377430542101161e+17
19079.0	6.376408355962879e+17
19080.0	6.37518075728145e+17
19081.0	6.373896193660244e+17
19082.0	6.372639615833428e+17
19083.0	6.371357360477524e+17
19084.0	6.369873579300179e+17
19085.0	6.369166606292307e+17
19086.0	6.367156023328767e+17
19087.0	6.366631236905642e+17
19088.0	6.365435609306452e+17
19089.0	6.363908593243476e+17
19090.0	6.363112526927188e+17
19091.0	6.361922158985215e+17
19092.0	6.36061380387362e+17
19093.0	6.359574259608233e+17
19094.0	6.358365115165353e+17
19095.0	6.3571705738909e+17
19096.0	6.355928584552447e+17
19097.0	6.354782804858195e+17
19098.0	6.353576104995497e+17
19099.0	6.352359135379455e+17
19100.0	6.35117021237521e+17
19101.0	6.349988093930153e+17
19102.0	6.348602822273704e+17
19103.0	6.347578759883434e+17
19104.0	6.346397328605183e+17
19105.0	6.345186855966036e+17
19106.0	6.343962048593919e+17
19107.0	6.342760934845098e+17
19108.0	6.341607501944148e+17
19109.0	6.339767481750867e+17
19110.0	6.339210361438207e+17
19111.0	6.338012858985129e+17
19112.0	6.336821427787091e+17
19113.0	6.335619885520212e+17
19114.0	6.334417527461203e+17
19115.0	6.333125669945344e+17
19116.0	6.331988639569236e+17
19117.0	6.330803984968361e+17
19118.0	6.329437291282431e+17
19119.0	6.323182733972813e+17
19120.0	6.327180477508265e+17
19121.0	6.326038652343636e+17
19122.0	6.324871736852479e+17
19123.0	6.323618590665385e+17
19124.0	6.32244784926993e+17
19125.0	6.32127680868079e+17
19126.0	6.320056325636093e+17
19127.0	6.315453172766031e+17
19128.0	6.317104840048637e+17
19129.0	6.316322607245993e+17
19130.0	6.315298088375636e+17
19131.0	6.314113521156095e+17
19132.0	6.312934075181737e+17
19133.0	6.310236686822061e+17
19134.0	6.310257438141098e+17
19135.0	6.309361717258921e+17
19136.0	6.308185909843284e+17
19137.0	6.306659724951551e+17
19138.0	6.305670918482602e+17
19139.0	6.304612878734676e+17
19140.0	6.303423304914259e+17
19141.0	6.302234022597972e+17
19142.0	6.300988619096064e+17
19143.0	6.299726793495892e+17
19144.0	6.298576454593194e+17
19145.0	6.2974698993309e+17
19146.0	6.29505742864384e+17
19147.0	6.294918142798505e+17
19148.0	6.293905330230612e+17
19149.0	6.292711923515391e+17
19150.0	6.291509136239274e+17
19151.0	6.290340493393919e+17
19152.0	6.289083374501887e+17
19153.0	6.287931939487743e+17
19154.0	6.286528921032019e+17
19155.0	6.285607775677097e+17
19156.0	6.284415271436287e+17
19157.0	6.283220993703935e+17
19158.0	6.281585481482237e+17
19159.0	6.280823909122047e+17
19160.0	6.279563055202301e+17
19161.0	6.278423815127039e+17
19162.0	6.2762979426304e+17
19163.0	6.276116873128618e+17
19164.0	6.274942233826644e+17
19165.0	6.273727413092351e+17
19166.0	6.272347933769727e+17
19167.0	6.271295560526506e+17
19168.0	6.269802059748691e+17
19169.0	6.268809520349183e+17
19170.0	6.267837481309524e+17
19171.0	6.266602820119209e+17
19172.0	6.265462794310995e+17
19173.0	6.264293102889642e+17
19174.0	6.262990521237504e+17
19175.0	6.261926296289279e+17
19176.0	6.260735020280489e+17
19177.0	6.2592528692893e+17
19178.0	6.258372240211965e+17
19179.0	6.257134296978772e+17
19180.0	6.25580563304721e+17
19181.0	6.254622689023316e+17
19182.0	6.253297024019114e+17
19183.0	6.25245790666752e+17
19184.0	6.250937031065599e+17
19185.0	6.250076721293993e+17
19186.0	6.24893778600482e+17
19187.0	6.247581194300074e+17
19188.0	6.246568825629353e+17
19189.0	6.245377462938281e+17
19190.0	6.244197022214825e+17
19191.0	6.242967933856425e+17
19192.0	6.241855424080553e+17
19193.0	6.240507176943615e+17
19194.0	6.239396458135551e+17
19195.0	6.238303418318847e+17
19196.0	6.237111179018239e+17
19197.0	6.235955537117183e+17
19198.0	6.234792729247743e+17
19199.0	6.227495594491901e+17
19200.0	6.228547669240493e+17
19201.0	6.231265782355284e+17
19202.0	6.230094378958847e+17
19203.0	6.228907899136681e+17
19204.0	6.227683215496531e+17
19205.0	6.226536285863935e+17
19206.0	6.225347260099241e+17
19207.0	6.224030213690708e+17
19208.0	6.222567898961235e+17
19209.0	6.221816169933482e+17
19210.0	6.220650611998719e+17
19211.0	6.219484807299072e+17
19212.0	6.218330146865151e+17
19213.0	6.216934378962941e+17
19214.0	6.215731896472916e+17
19215.0	6.214796053577728e+17
19216.0	6.21349239329041e+17
19217.0	6.212443661402111e+17
19218.0	6.209612292292604e+17
19219.0	6.209772258852863e+17
19220.0	6.208888224000682e+17
19221.0	6.207077433911978e+17
19222.0	6.206591773354665e+17
19223.0	6.205354787121834e+17
19224.0	6.203896294102355e+17
19225.0	6.202680955371519e+17
19226.0	6.201820170944511e+17
19227.0	6.200645895847935e+17
19228.0	6.199532836618237e+17
19229.0	6.198360602050559e+17
19230.0	6.197130625897812e+17
19231.0	6.195944006265513e+17
19232.0	6.194630067137193e+17
19233.0	6.193515465801727e+17
19234.0	6.192441733764435e+17
19235.0	6.191247227442516e+17
19236.0	6.1901566902272e+17
19237.0	6.188947137538729e+17
19238.0	6.187625232029011e+17
19239.0	6.186649571906899e+17
19240.0	6.184686841058643e+17
19241.0	6.184045668990975e+17
19242.0	6.183042740300458e+17
19243.0	6.181559934997844e+17
19244.0	6.180773149278207e+17
19245.0	6.179599879416489e+17
19246.0	6.178407814878548e+17
19247.0	6.177222908619434e+17
19248.0	6.176106347844948e+17
19249.0	6.174933480636415e+17
19250.0	6.173721183475027e+17
19251.0	6.172402258717352e+17
19252.0	6.170658117517311e+17
19253.0	6.17020473143023e+17
19254.0	6.168961557899945e+17
19255.0	6.167463301480445e+17
19256.0	6.166693216780287e+17
19257.0	6.165562925252607e+17
19258.0	6.164387995844607e+17
19259.0	6.163052856606719e+17
19260.0	6.161956456453459e+17
19261.0	6.160859964025513e+17
19262.0	6.159581374491306e+17
19263.0	6.158442187543892e+17
19264.0	6.156290820669437e+17
19265.0	6.155808944772435e+17
19266.0	6.154742697470633e+17
19267.0	6.153864889761791e+17
19268.0	6.152675650786643e+17
19269.0	6.151506293511508e+17
19270.0	6.150338033046867e+17
19271.0	6.148495545204739e+17
19272.0	6.147925952430079e+17
19273.0	6.127067974336485e+17
19274.0	6.136292575630665e+17
19275.0	6.144490747549011e+17
19276.0	6.143277331207508e+17
19277.0	6.142103174250495e+17
19278.0	6.140943168176127e+17
19279.0	6.139634249629695e+17
19280.0	6.138409803666772e+17
19281.0	6.137416341520383e+17
19282.0	6.136272972851882e+17
19283.0	6.135006187487232e+17
19284.0	6.133676142231551e+17
19285.0	6.132268403785725e+17
19286.0	6.131508759407274e+17
19287.0	6.130409487553876e+17
19288.0	6.12784758010675e+17
19289.0	6.123739430606156e+17
19290.0	6.126883199167146e+17
19291.0	6.125146620297217e+17
19292.0	6.124528864329727e+17
19293.0	6.123337521911124e+17
19294.0	6.122152454171305e+17
19295.0	6.121000375331498e+17
19296.0	6.119804389119316e+17
19297.0	6.118578124226559e+17
19298.0	6.117396010674858e+17
19299.0	6.116278132189865e+17
19300.0	6.115099664886442e+17
19301.0	6.113897482988202e+17
19302.0	6.112709180041897e+17
19303.0	6.111327079279273e+17
19304.0	6.110211511156736e+17
19305.0	6.109144861900799e+17
19306.0	6.107976278474751e+17
19307.0	6.106689342974633e+17
19308.0	6.105562102803114e+17
19309.0	6.104239051549353e+17
19310.0	6.102917082426025e+17
19311.0	6.101978892817748e+17
19312.0	6.100794797457408e+17
19313.0	6.099202691388759e+17
19314.0	6.096199694854821e+17
19315.0	6.095184104259588e+17
19316.0	6.096115248136191e+17
19317.0	6.094898401553065e+17
19318.0	6.09369546957346e+17
19319.0	6.09253484204305e+17
19320.0	6.091222233208148e+17
19321.0	6.090139868594175e+17
19322.0	6.088609254517418e+17
19323.0	6.087623741276159e+17
19324.0	6.08652727820834e+17
19325.0	6.085169333840553e+17
19326.0	6.084082643501055e+17
19327.0	6.0828446373533e+17
19328.0	6.081675745645908e+17
19329.0	6.080446704123903e+17
19330.0	6.079139050859176e+17
19331.0	6.077922845305514e+17
19332.0	6.076787476572841e+17
19333.0	6.075539406891689e+17
19334.0	6.074198236943699e+17
19335.0	6.07312543744e+17
19336.0	6.071896848902826e+17
19337.0	6.070649242692266e+17
19338.0	6.069002661003263e+17
19339.0	6.068199178458452e+17
19340.0	6.066844035885737e+17
19341.0	6.065716902668969e+17
19342.0	6.063592351378089e+17
19343.0	6.063238830970196e+17
19344.0	6.06195483218193e+17
19345.0	6.056371137019892e+17
19346.0	6.058408444690433e+17
19347.0	6.058076348088319e+17
19348.0	6.056956158541823e+17
19349.0	6.055614511142227e+17
19350.0	6.05436373963025e+17
19351.0	6.053052354134015e+17
19352.0	6.051707570793129e+17
19353.0	6.050582613721087e+17
19354.0	6.0492824458909e+17
19355.0	6.047784511034708e+17
19356.0	6.046688576449193e+17
19357.0	6.045358503231487e+17
19358.0	6.04389036191471e+17
19359.0	6.0416318228835e+17
19360.0	6.041301449441279e+17
19361.0	6.039925617065983e+17
19362.0	6.038719014371327e+17
19363.0	6.037359007105023e+17
19364.0	6.035975030789462e+17
19365.0	6.03461642232354e+17
19366.0	6.033260483532116e+17
19367.0	6.031857184058025e+17
19368.0	6.030366356449961e+17
19369.0	6.028577563388586e+17
19370.0	6.025065444758867e+17
19371.0	6.025992821451434e+17
19372.0	6.024668723019775e+17
19373.0	6.023143191041364e+17
19374.0	6.021707796054015e+17
19375.0	6.020228889356969e+17
19376.0	6.018722871377919e+17
19377.0	6.017198818590719e+17
19378.0	6.015671815110656e+17
19379.0	6.014109685732692e+17
19380.0	6.012550820222292e+17
19381.0	6.010942902326612e+17
19382.0	6.009145501155328e+17
19383.0	6.007421345114793e+17
19384.0	6.005986826736979e+17
19385.0	6.00428887670784e+17
19386.0	6.002579088954707e+17
19387.0	6.000825024031402e+17
19388.0	5.999038582576468e+17
19389.0	5.997231250691412e+17
19390.0	5.995379591304534e+17
19391.0	5.987960917502625e+17
19392.0	5.991479964423507e+17
19393.0	5.989513253879807e+17
19394.0	5.987458434291027e+17
19395.0	5.98532752932864e+17
19396.0	5.98319693893905e+17
19397.0	5.980974369559892e+17
19398.0	5.978618738682538e+17
19399.0	5.974901533966332e+17
19400.0	5.973872235686569e+17
19401.0	5.971417649293993e+17
19402.0	5.968889809382057e+17
19403.0	5.966231604909395e+17
19404.0	5.963424632668159e+17
19405.0	5.960444060281514e+17
19406.0	5.957505193956692e+17
19407.0	5.954387576881151e+17
19408.0	5.949715171158701e+17
19409.0	5.947496928204116e+17
19410.0	5.944043787081044e+17
19411.0	5.940307771610452e+17
19412.0	5.936312293698218e+17
19413.0	5.932179602625876e+17
19414.0	5.9277200850944e+17
19415.0	5.92333036847104e+17
19416.0	5.918136152184148e+17
19417.0	5.91328026104081e+17
19418.0	5.907791231320063e+17
19419.0	5.902054149062655e+17
19420.0	5.895792938188799e+17
19421.0	5.88906302083345e+17
19422.0	5.881756015482195e+17
19423.0	5.873866366779391e+17
19424.0	5.8650990215168e+17
19425.0	5.855783109525503e+17
19426.0	5.845068871106559e+17
19427.0	5.833572462799529e+17
19428.0	5.823490094181034e+17
19429.0	5.812038589393577e+17
19430.0	5.799292956573696e+17
19431.0	5.784457255933271e+17
19432.0	5.770521587919529e+17
19433.0	5.7534249071629645e+17
19434.0	5.7343361871598925e+17
19435.0	5.711919125452116e+17
19436.0	5.685304230237529e+17
19437.0	5.657037429364053e+17
19438.0	5.624022097548627e+17
19439.0	5.6025050887400115e+17
19440.0	5.570070689699156e+17
19441.0	5.5323075490611194e+17
19442.0	5.4866876815114285e+17
19443.0	5.430174736711676e+17
19444.0	5.37589348460134e+17
19445.0	5.314707460194304e+17
19446.0	5.2379832745110195e+17
19447.0	5.147108048196943e+17
19448.0	5.041370432187054e+17
19449.0	4.890128173847894e+17
19450.0	4.5384434010029926e+17
19451.0	4.408418528570019e+17
19452.0	4.7401060378432915e+17
19453.0	4.975540532412423e+17
19454.0	5.094463570094756e+17
19455.0	5.186902950237523e+17
19456.0	5.2707829764587546e+17
19457.0	5.3363057252543123e+17
19458.0	5.3868447766937664e+17
19459.0	5.444818145989976e+17
19460.0	5.493761168288423e+17
19461.0	5.532796490263211e+17
19462.0	5.565448763124394e+17
19463.0	5.593635684876285e+17
19464.0	5.6184857358062925e+17
19465.0	5.642981812644523e+17
19466.0	5.6689467221606374e+17
19467.0	5.691013035895466e+17
19468.0	5.7093174720812365e+17
19469.0	5.7221093429084154e+17
19470.0	5.7387936215203834e+17
19471.0	5.751064645074944e+17
19472.0	5.761979091604821e+17
19473.0	5.771498002317311e+17
19474.0	5.780414128630441e+17
19475.0	5.787275412985169e+17
19476.0	5.797550502881962e+17
19477.0	5.805248773881855e+17
19478.0	5.811895766351872e+17
19479.0	5.818021820672681e+17
19480.0	5.8232805013149e+17
19481.0	5.828023534223359e+17
19482.0	5.832142767871315e+17
19483.0	5.836017530219178e+17
19484.0	5.839335435097428e+17
19485.0	5.842300009709567e+17
19486.0	5.845096445160106e+17
19487.0	5.847538324209663e+17
19488.0	5.849612987050666e+17
19489.0	5.851723496510806e+17
19490.0	5.850714397300049e+17
19491.0	5.854971018870783e+17
19492.0	5.856557093530282e+17
19493.0	5.857832233249449e+17
19494.0	5.858957502098089e+17
19495.0	5.859607902333608e+17
19496.0	5.859840517734399e+17
19497.0	5.861238872124074e+17
19498.0	5.86171443769071e+17
19499.0	5.853213975292575e+17
19500.0	5.862807802565974e+17
19501.0	5.863047130251263e+17
19502.0	5.86330852626705e+17
19503.0	5.863412940668927e+17
19504.0	5.863375029753172e+17
19505.0	5.863411868325206e+17
19506.0	5.863444932023636e+17
19507.0	5.863299899282771e+17
19508.0	5.863156259749887e+17
19509.0	5.86297090646562e+17
19510.0	5.862334074104489e+17
19511.0	5.855790728478715e+17
19512.0	5.861012291627685e+17
19513.0	5.858554438571342e+17
19514.0	5.859593645195261e+17
19515.0	5.859778168007342e+17
19516.0	5.860294172955988e+17
19517.0	5.859649508431188e+17
19518.0	5.859232424045225e+17
19519.0	5.858646827204608e+17
19520.0	5.857985023355564e+17
19521.0	5.857426700675754e+17
19522.0	5.856728070138538e+17
19523.0	5.856180175197524e+17
19524.0	5.855493085287763e+17
19525.0	5.85464732066338e+17
19526.0	5.854056049628502e+17
19527.0	5.853307257312595e+17
19528.0	5.852580896134484e+17
19529.0	5.851810456316586e+17
19530.0	5.851054041552212e+17
19531.0	5.850285656244223e+17
19532.0	5.849481010479103e+17
19533.0	5.848676652722858e+17
19534.0	5.84786367357474e+17
19535.0	5.846991012975956e+17
19536.0	5.846121323342506e+17
19537.0	5.845347444195327e+17
19538.0	5.844426294646102e+17
19539.0	5.842448390903131e+17
19540.0	5.842692813968724e+17
19541.0	5.841873732807338e+17
19542.0	5.840994666807295e+17
19543.0	5.840116236244308e+17
19544.0	5.839222578260649e+17
19545.0	5.837680584338084e+17
19546.0	5.835515834837676e+17
19547.0	5.836496967827455e+17
19548.0	5.835633018099028e+17
19549.0	5.834475209140905e+17
19550.0	5.833766512274089e+17
19551.0	5.832834835720874e+17
19552.0	5.831886132390569e+17
19553.0	5.830904888251732e+17
19554.0	5.829901478614356e+17
19555.0	5.829003685746004e+17
19556.0	5.828070602702847e+17
19557.0	5.8271051298461e+17
19558.0	5.826146768431785e+17
19559.0	5.825112685849257e+17
19560.0	5.824164025860095e+17
19561.0	5.823184739063124e+17
19562.0	5.822248284498601e+17
19563.0	5.8212606293661e+17
19564.0	5.820298337189887e+17
19565.0	5.819299758691668e+17
19566.0	5.818263469905235e+17
19567.0	5.817316779840852e+17
19568.0	5.816275246776319e+17
19569.0	5.815295776129023e+17
19570.0	5.814347932631039e+17
19571.0	5.813347026993151e+17
19572.0	5.812266377849514e+17
19573.0	5.811318375667028e+17
19574.0	5.810116921480531e+17
19575.0	5.809312641318911e+17
19576.0	5.808317239306921e+17
19577.0	5.807009375627946e+17
19578.0	5.806212314562559e+17
19579.0	5.805228051223892e+17
19580.0	5.804227085467648e+17
19581.0	5.803228662158676e+17
19582.0	5.802250228902569e+17
19583.0	5.801230543967572e+17
19584.0	5.80021003624994e+17
19585.0	5.798950197351763e+17
19586.0	5.797836852909398e+17
19587.0	5.79704168067891e+17
19588.0	5.795088377227946e+17
19589.0	5.794993019726506e+17
19590.0	5.793898693656575e+17
19591.0	5.793033093469524e+17
19592.0	5.79201627464226e+17
19593.0	5.790946037858303e+17
19594.0	5.789428327557801e+17
19595.0	5.788884374563498e+17
19596.0	5.78649025745169e+17
19597.0	5.786837703109289e+17
19598.0	5.785282866227882e+17
19599.0	5.784795200094207e+17
19600.0	5.7837778122397e+17
19601.0	5.782608811480404e+17
19602.0	5.781631765839871e+17
19603.0	5.779803498785448e+17
19604.0	5.779543489686186e+17
19605.0	5.77796562677487e+17
19606.0	5.7775184412672e+17
19607.0	5.776525285305001e+17
19608.0	5.77546835075618e+17
19609.0	5.774341683806208e+17
19610.0	5.773429094132393e+17
19611.0	5.772370809716735e+17
19612.0	5.771359774135636e+17
19613.0	5.770284295170729e+17
19614.0	5.769193146286079e+17
19615.0	5.768240377976148e+17
19616.0	5.767159094094506e+17
19617.0	5.76615823389491e+17
19618.0	5.764121749706067e+17
19619.0	5.7626882959824166e+17
19620.0	5.7617423490088934e+17
19621.0	5.761980963662506e+17
19622.0	5.760961410848084e+17
19623.0	5.7599263104477856e+17
19624.0	5.7588619275141114e+17
19625.0	5.7578396945394336e+17
19626.0	5.756777024279892e+17
19627.0	5.7557604661985274e+17
19628.0	5.754561166486186e+17
19629.0	5.7534920796405754e+17
19630.0	5.7525667903133005e+17
19631.0	5.74525037574007e+17
19632.0	5.750537096003583e+17
19633.0	5.7494076195689805e+17
19634.0	5.748462812048041e+17
19635.0	5.7473359025274874e+17
19636.0	5.7463591260214605e+17
19637.0	5.744483190003031e+17
19638.0	5.744269720900949e+17
19639.0	5.743224127051092e+17
19640.0	5.742078811526484e+17
19641.0	5.7399502413933274e+17
19642.0	5.740099585179647e+17
19643.0	5.7390031850263885e+17
19644.0	5.7379141703434234e+17
19645.0	5.736467064859305e+17
19646.0	5.735958633425577e+17
19647.0	5.7349178518405114e+17
19648.0	5.7338645250921805e+17
19649.0	5.732814264380074e+17
19650.0	5.731789055546708e+17
19651.0	5.730731340857342e+17
19652.0	5.7296830941102074e+17
19653.0	5.728657136593577e+17
19654.0	5.7275953534293325e+17
19655.0	5.726538349674494e+17
19656.0	5.725516524945407e+17
19657.0	5.724470176120831e+17
19658.0	5.7234421913572685e+17
19659.0	5.722396815611222e+17
19660.0	5.721367214642516e+17
19661.0	5.7203154188151456e+17
19662.0	5.719283024439979e+17
19663.0	5.7181462464211616e+17
19664.0	5.7171559817325216e+17
