# Flux units: erg / (cm m2 s)
# Wavelength units: Angstrom
wave	flux
19000.0	6.573013467485523e+17
19001.0	6.571720801168041e+17
19002.0	6.570608257138687e+17
19003.0	6.569397402817876e+17
19004.0	6.568190084295338e+17
19005.0	6.566989048840192e+17
19006.0	6.56578528289314e+17
19007.0	6.564564516033876e+17
19008.0	6.563345352796842e+17
19009.0	6.562024102297599e+17
19010.0	6.56073488929041e+17
19011.0	6.559641259474943e+17
19012.0	6.558100483298643e+17
19013.0	6.557344086709588e+17
19014.0	6.556114201433428e+17
19015.0	6.55492662829602e+17
19016.0	6.553739496259583e+17
19017.0	6.55254940234547e+17
19018.0	6.551336929722368e+17
19019.0	6.550146310122154e+17
19020.0	6.548934365282303e+17
19021.0	6.54774639718127e+17
19022.0	6.546537606458026e+17
19023.0	6.545294485356543e+17
19024.0	6.544083381474644e+17
19025.0	6.542839541749075e+17
19026.0	6.54154760454144e+17
19027.0	6.54012837859601e+17
19028.0	6.539234053718015e+17
19029.0	6.538055786343082e+17
19030.0	6.536879158941012e+17
19031.0	6.53565301428497e+17
19032.0	6.534395821992617e+17
19033.0	6.533004644756137e+17
19034.0	6.531499587971753e+17
19035.0	6.527674628090537e+17
19036.0	6.502446088759978e+17
19037.0	6.525942776900265e+17
19038.0	6.52674533040674e+17
19039.0	6.525887721766911e+17
19040.0	6.52479643447023e+17
19041.0	6.523638142468095e+17
19042.0	6.521894172535465e+17
19043.0	6.521290749203795e+17
19044.0	6.520087007024467e+17
19045.0	6.518862976996692e+17
19046.0	6.517663680080554e+17
19047.0	6.516431744488788e+17
19048.0	6.515061147303936e+17
19049.0	6.512846852587519e+17
19050.0	6.512355782077098e+17
19051.0	6.507930171299156e+17
19052.0	6.508265819777705e+17
19053.0	6.5089610725021e+17
19054.0	6.508010142695423e+17
19055.0	6.506537133888852e+17
19056.0	6.50564571706163e+17
19057.0	6.504528506170026e+17
19058.0	6.502796648688298e+17
19059.0	6.501952110897833e+17
19060.0	6.500946868349609e+17
19061.0	6.49976602497297e+17
19062.0	6.498568481275903e+17
19063.0	6.497368125298003e+17
19064.0	6.496111053941417e+17
19065.0	6.494851299628372e+17
19066.0	6.493550162214911e+17
19067.0	6.492583863080276e+17
19068.0	6.491400362612052e+17
19069.0	6.490205256504659e+17
19070.0	6.488990254716244e+17
19071.0	6.48778110538001e+17
19072.0	6.486422280208383e+17
19073.0	6.485423396924073e+17
19074.0	6.484229426774015e+17
19075.0	6.483033254614356e+17
19076.0	6.481830234554367e+17
19077.0	6.480627555631104e+17
19078.0	6.479425984004095e+17
19079.0	6.478248631686484e+17
19080.0	6.477041469052244e+17
19081.0	6.475813961946452e+17
19082.0	6.47463642997282e+17
19083.0	6.473361328002388e+17
19084.0	6.472046856197459e+17
19085.0	6.470993109319679e+17
19086.0	6.469096458332842e+17
19087.0	6.467878709974356e+17
19088.0	6.466859564007423e+17
19089.0	6.465885495623679e+17
19090.0	6.464921789267968e+17
19091.0	6.463754887058772e+17
19092.0	6.462156079191382e+17
19093.0	6.461484520789331e+17
19094.0	6.460325127782397e+17
19095.0	6.459149031658836e+17
19096.0	6.457960298097321e+17
19097.0	6.456777018529107e+17
19098.0	6.455364555898877e+17
19099.0	6.454131166980778e+17
19100.0	6.453137548946089e+17
19101.0	6.451979333839529e+17
19102.0	6.450764531280553e+17
19103.0	6.449623066127018e+17
19104.0	6.44842472481314e+17
19105.0	6.446711310385153e+17
19106.0	6.445946062416554e+17
19107.0	6.444599327326207e+17
19108.0	6.443155823351126e+17
19109.0	6.441426363613183e+17
19110.0	6.440723278026067e+17
19111.0	6.439780842384041e+17
19112.0	6.438684673616553e+17
19113.0	6.437709442711551e+17
19114.0	6.43641820455458e+17
19115.0	6.435243426840576e+17
19116.0	6.434131860783103e+17
19117.0	6.432924582805501e+17
19118.0	6.431524357756244e+17
19119.0	6.42698165319543e+17
19120.0	6.429066844438527e+17
19121.0	6.427998669854035e+17
19122.0	6.427029949207891e+17
19123.0	6.425870769411412e+17
19124.0	6.424446991947092e+17
19125.0	6.423475305228969e+17
19126.0	6.422183280639999e+17
19127.0	6.420256583057408e+17
19128.0	6.419660062851072e+17
19129.0	6.418678159507455e+17
19130.0	6.417573922996223e+17
19131.0	6.416407815607636e+17
19132.0	6.41522427040017e+17
19133.0	6.413994146048682e+17
19134.0	6.412788670922751e+17
19135.0	6.411669728482644e+17
19136.0	6.410481136828415e+17
19137.0	6.409240021303295e+17
19138.0	6.408102664470527e+17
19139.0	6.406941093221716e+17
19140.0	6.405762413406889e+17
19141.0	6.404579843375103e+17
19142.0	6.403364250189823e+17
19143.0	6.402185384427519e+17
19144.0	6.400990808899583e+17
19145.0	6.3998421120669e+17
19146.0	6.39815409135343e+17
19147.0	6.397435082790227e+17
19148.0	6.396111458314922e+17
19149.0	6.394896269879977e+17
19150.0	6.393920576203434e+17
19151.0	6.392730531222867e+17
19152.0	6.391498897620991e+17
19153.0	6.389971062270633e+17
19154.0	6.38906329604642e+17
19155.0	6.3879066957469e+17
19156.0	6.38667647492642e+17
19157.0	6.3852072402944e+17
19158.0	6.383651672205993e+17
19159.0	6.382931664000339e+17
19160.0	6.381770570203136e+17
19161.0	6.380319328436223e+17
19162.0	6.377999161098237e+17
19163.0	6.3776043316893e+17
19164.0	6.37704383566097e+17
19165.0	6.375609617874943e+17
19166.0	6.374785458809513e+17
19167.0	6.3735946819229e+17
19168.0	6.372515416899583e+17
19169.0	6.371392967322281e+17
19170.0	6.370231221310803e+17
19171.0	6.369032653504511e+17
19172.0	6.367858839082324e+17
19173.0	6.366721986265087e+17
19174.0	6.365542244592297e+17
19175.0	6.364385402421247e+17
19176.0	6.36320262337331e+17
19177.0	6.361887019106303e+17
19178.0	6.360776167478612e+17
19179.0	6.35957826097425e+17
19180.0	6.358451483574272e+17
19181.0	6.357240982973098e+17
19182.0	6.356101793928531e+17
19183.0	6.354964846739455e+17
19184.0	6.353785488146431e+17
19185.0	6.352596134526975e+17
19186.0	6.35141547569971e+17
19187.0	6.350156279229098e+17
19188.0	6.349019932524543e+17
19189.0	6.347816739099988e+17
19190.0	6.346591533268992e+17
19191.0	6.345344386334719e+17
19192.0	6.344136548417535e+17
19193.0	6.342800057215657e+17
19194.0	6.34142237724945e+17
19195.0	6.340065595402921e+17
19196.0	6.338361107152896e+17
19197.0	6.336078955588266e+17
19198.0	6.332001648203091e+17
19199.0	6.321994467377151e+17
19200.0	6.321830603609427e+17
19201.0	6.328822895651498e+17
19202.0	6.330335442763775e+17
19203.0	6.33012117115153e+17
19204.0	6.329501564097876e+17
19205.0	6.328607481091412e+17
19206.0	6.327598148397737e+17
19207.0	6.326414439612415e+17
19208.0	6.325314716172287e+17
19209.0	6.324285110310227e+17
19210.0	6.323133339052714e+17
19211.0	6.321980290629632e+17
19212.0	6.320798402172244e+17
19213.0	6.319484734974634e+17
19214.0	6.31829758616098e+17
19215.0	6.317256006260052e+17
19216.0	6.316143542621524e+17
19217.0	6.314936798019583e+17
19218.0	6.313487110242304e+17
19219.0	6.312478403198975e+17
19220.0	6.311464690952874e+17
19221.0	6.310230089181865e+17
19222.0	6.309141182851754e+17
19223.0	6.308005090601641e+17
19224.0	6.306810361981609e+17
19225.0	6.305633876486826e+17
19226.0	6.304500508437161e+17
19227.0	6.303337224514218e+17
19228.0	6.302191353244329e+17
19229.0	6.301020264420692e+17
19230.0	6.299843981650602e+17
19231.0	6.298662953025533e+17
19232.0	6.297496482829651e+17
19233.0	6.296275363648852e+17
19234.0	6.295154047931731e+17
19235.0	6.293964900532223e+17
19236.0	6.292815996081492e+17
19237.0	6.29163375530257e+17
19238.0	6.29039469498641e+17
19239.0	6.289296350773247e+17
19240.0	6.288129448564052e+17
19241.0	6.286941580427263e+17
19242.0	6.285773411538259e+17
19243.0	6.284481768630953e+17
19244.0	6.283442641698815e+17
19245.0	6.282263423614975e+17
19246.0	6.281089037369343e+17
19247.0	6.279920344891391e+17
19248.0	6.278739422522025e+17
19249.0	6.277538610763094e+17
19250.0	6.276299177153876e+17
19251.0	6.275066608222205e+17
19252.0	6.273801613126314e+17
19253.0	6.27285996601344e+17
19254.0	6.271698840059903e+17
19255.0	6.270363308654591e+17
19256.0	6.269337677594623e+17
19257.0	6.268173222761812e+17
19258.0	6.266989499296425e+17
19259.0	6.265695023136767e+17
19260.0	6.263952953922899e+17
19261.0	6.263373396880042e+17
19262.0	6.262181442792106e+17
19263.0	6.260965348387497e+17
19264.0	6.25959902449937e+17
19265.0	6.258569794726569e+17
19266.0	6.257396425599658e+17
19267.0	6.256365883009705e+17
19268.0	6.255186097995776e+17
19269.0	6.254006253562538e+17
19270.0	6.252792156345684e+17
19271.0	6.251485509713919e+17
19272.0	6.250432195548499e+17
19273.0	6.249089709288105e+17
19274.0	6.247764109994665e+17
19275.0	6.246923339388244e+17
19276.0	6.245728726810623e+17
19277.0	6.2445482161821e+17
19278.0	6.243345054913875e+17
19279.0	6.242133484066134e+17
19280.0	6.240939442612905e+17
19281.0	6.239760627881299e+17
19282.0	6.238557410689023e+17
19283.0	6.237306665041919e+17
19284.0	6.23605116445218e+17
19285.0	6.234839876020905e+17
19286.0	6.233516896769364e+17
19287.0	6.231746201430697e+17
19288.0	6.219912961851384e+17
19289.0	6.212585791684598e+17
19290.0	6.227947164445353e+17
19291.0	6.227343015499092e+17
19292.0	6.226549304983551e+17
19293.0	6.225431325136212e+17
19294.0	6.224259555437225e+17
19295.0	6.223102804841812e+17
19296.0	6.221664375275519e+17
19297.0	6.220649656396457e+17
19298.0	6.219514843409065e+17
19299.0	6.218054822264831e+17
19300.0	6.217132204709204e+17
19301.0	6.215924250050559e+17
19302.0	6.214703030206463e+17
19303.0	6.213442161606653e+17
19304.0	6.212282277866154e+17
19305.0	6.211054955309737e+17
19306.0	6.209790982924969e+17
19307.0	6.208512389895507e+17
19308.0	6.207209498563924e+17
19309.0	6.205622355055956e+17
19310.0	6.204223196058964e+17
19311.0	6.203332924276735e+17
19312.0	6.202169685093033e+17
19313.0	6.200378339797674e+17
19314.0	6.158067209076736e+17
19315.0	6.159839083713916e+17
19316.0	6.196363168230058e+17
19317.0	6.196125944687273e+17
19318.0	6.195076517243561e+17
19319.0	6.193933686844073e+17
19320.0	6.192623762363734e+17
19321.0	6.191258066223104e+17
19322.0	6.190167489860947e+17
19323.0	6.188886020237994e+17
19324.0	6.187655018577919e+17
19325.0	6.186348534125908e+17
19326.0	6.185235967027882e+17
19327.0	6.184061458448383e+17
19328.0	6.182419708597588e+17
19329.0	6.18162602254882e+17
19330.0	6.180368217888084e+17
19331.0	6.179090496574804e+17
19332.0	6.177863606730751e+17
19333.0	6.176585567349418e+17
19334.0	6.175306445837652e+17
19335.0	6.173156645535744e+17
19336.0	6.172734428719785e+17
19337.0	6.171475700613119e+17
19338.0	6.170026900630185e+17
19339.0	6.168882680517971e+17
19340.0	6.167512999089492e+17
19341.0	6.16588982091776e+17
19342.0	6.16466485416209e+17
19343.0	6.163627596491433e+17
19344.0	6.161934002246996e+17
19345.0	6.159853737213951e+17
19346.0	6.158917472092159e+17
19347.0	6.157862538925395e+17
19348.0	6.15703783739665e+17
19349.0	6.155676237692927e+17
19350.0	6.154183307340458e+17
19351.0	6.152971684762963e+17
19352.0	6.151110746177535e+17
19353.0	6.150239317306025e+17
19354.0	6.14887177986594e+17
19355.0	6.14741313724962e+17
19356.0	6.146102988374015e+17
19357.0	6.144707300862633e+17
19358.0	6.143285204615167e+17
19359.0	6.141759650267135e+17
19360.0	6.140082232754175e+17
19361.0	6.138996926534996e+17
19362.0	6.137571353908566e+17
19363.0	6.136054016202068e+17
19364.0	6.13455807783458e+17
19365.0	6.13307430085154e+17
19366.0	6.131578031134036e+17
19367.0	6.130061932145321e+17
19368.0	6.128537724867924e+17
19369.0	6.126945779580928e+17
19370.0	6.125395512393728e+17
19371.0	6.123812860286292e+17
19372.0	6.122193921157801e+17
19373.0	6.120520599382697e+17
19374.0	6.118915776883369e+17
19375.0	6.117274531048105e+17
19376.0	6.115624002519039e+17
19377.0	6.113932286623743e+17
19378.0	6.112215052582912e+17
19379.0	6.110427784850089e+17
19380.0	6.108596202198356e+17
19381.0	6.106837766111231e+17
19382.0	6.104997258679636e+17
19383.0	6.103210339074047e+17
19384.0	6.101424822463146e+17
19385.0	6.09951414292753e+17
19386.0	6.097424296006995e+17
19387.0	6.095444570537983e+17
19388.0	6.093395402074794e+17
19389.0	6.091158962132308e+17
19390.0	6.087957188444157e+17
19391.0	6.064152195192134e+17
19392.0	6.079899492854441e+17
19393.0	6.0821173960704e+17
19394.0	6.080290342567935e+17
19395.0	6.077997225694548e+17
19396.0	6.075746402085545e+17
19397.0	6.073372280619007e+17
19398.0	6.070787100377088e+17
19399.0	6.068000983613439e+17
19400.0	6.065547624753833e+17
19401.0	6.063181380190208e+17
19402.0	6.060537820829012e+17
19403.0	6.057805166761302e+17
19404.0	6.055013756086953e+17
19405.0	6.052049441521663e+17
19406.0	6.04900625027345e+17
19407.0	6.045517076583763e+17
19408.0	6.042085415190527e+17
19409.0	6.039008431833087e+17
19410.0	6.035622921764863e+17
19411.0	6.032010655039487e+17
19412.0	6.028206889675434e+17
19413.0	6.023863250277716e+17
19414.0	6.019874186854399e+17
19415.0	6.015533273055231e+17
19416.0	6.010827818314409e+17
19417.0	6.006302385198419e+17
19418.0	6.001688805288618e+17
19419.0	5.996535306605908e+17
19420.0	5.991302411845631e+17
19421.0	5.985749644083199e+17
19422.0	5.979936214308179e+17
19423.0	5.973631442791082e+17
19424.0	5.967083897268905e+17
19425.0	5.960108671150762e+17
19426.0	5.952761076820649e+17
19427.0	5.944721808206506e+17
19428.0	5.93626643108113e+17
19429.0	5.927091516910249e+17
19430.0	5.91590073495279e+17
19431.0	5.904224216940544e+17
19432.0	5.896674541742762e+17
19433.0	5.885291153151316e+17
19434.0	5.872308501610496e+17
19435.0	5.857455909808808e+17
19436.0	5.841542194047657e+17
19437.0	5.824561255809023e+17
19438.0	5.770276261680475e+17
19439.0	5.78011561931571e+17
19440.0	5.766932278717097e+17
19441.0	5.7431129024976186e+17
19442.0	5.715242220082517e+17
19443.0	5.68357142344499e+17
19444.0	5.647076910869159e+17
19445.0	5.603958008927573e+17
19446.0	5.5524175883796474e+17
19447.0	5.4886139247110784e+17
19448.0	5.406238230358702e+17
19449.0	5.291077137334272e+17
19450.0	5.096927273506122e+17
19451.0	4.94945295138817e+17
19452.0	5.2107605260806835e+17
19453.0	5.3521424217101696e+17
19454.0	5.445650561542823e+17
19455.0	5.515255454455124e+17
19456.0	5.5697509963530246e+17
19457.0	5.613360751400276e+17
19458.0	5.5498393301375546e+17
19459.0	5.6726626650904115e+17
19460.0	5.7110564927351443e+17
19461.0	5.735839397052415e+17
19462.0	5.757203159274837e+17
19463.0	5.77564693443379e+17
19464.0	5.792203228053503e+17
19465.0	5.807275946016768e+17
19466.0	5.820759137408339e+17
19467.0	5.832856154669055e+17
19468.0	5.843859232434858e+17
19469.0	5.853625215614975e+17
19470.0	5.862922952288938e+17
19471.0	5.870842360976724e+17
19472.0	5.878521385014611e+17
19473.0	5.885458277291347e+17
19474.0	5.891573167773011e+17
19475.0	5.897386566090751e+17
19476.0	5.903167287285076e+17
19477.0	5.908188266932905e+17
19478.0	5.912702138449919e+17
19479.0	5.916660329698643e+17
19480.0	5.920728271202986e+17
19481.0	5.924174970574164e+17
19482.0	5.92737984455202e+17
19483.0	5.930360449094996e+17
19484.0	5.933103330273961e+17
19485.0	5.935524474082644e+17
19486.0	5.93750666510336e+17
19487.0	5.940033553607337e+17
19488.0	5.941964380482218e+17
19489.0	5.943618249075369e+17
19490.0	5.945001076850687e+17
19491.0	5.947045569363967e+17
19492.0	5.948436178272255e+17
19493.0	5.949587219021823e+17
19494.0	5.95059653144303e+17
19495.0	5.951498230606505e+17
19496.0	5.952008798339071e+17
19497.0	5.95208175685905e+17
19498.0	5.942396652442962e+17
19499.0	5.91880000984405e+17
19500.0	5.952746389067092e+17
19501.0	5.954872190260564e+17
19502.0	5.955634387572052e+17
19503.0	5.956162485398185e+17
19504.0	5.95645266342707e+17
19505.0	5.956635077203284e+17
19506.0	5.956899900664489e+17
19507.0	5.956929830518783e+17
19508.0	5.956848257597439e+17
19509.0	5.956453497394516e+17
19510.0	5.954368080358057e+17
19511.0	5.888370176338569e+17
19512.0	5.944801381143892e+17
19513.0	5.944234947379192e+17
19514.0	5.94624514726297e+17
19515.0	5.955126263021568e+17
19516.0	5.955637515124736e+17
19517.0	5.955738945978367e+17
19518.0	5.95538867266082e+17
19519.0	5.954993354615466e+17
19520.0	5.954361755347625e+17
19521.0	5.954285342119252e+17
19522.0	5.95373527872307e+17
19523.0	5.953357211151018e+17
19524.0	5.95272361050112e+17
19525.0	5.952465653814612e+17
19526.0	5.951934776563028e+17
19527.0	5.951371803099135e+17
19528.0	5.950752080702121e+17
19529.0	5.950129121700522e+17
19530.0	5.949613212521812e+17
19531.0	5.949047181410301e+17
19532.0	5.948397699727359e+17
19533.0	5.947733256262995e+17
19534.0	5.947052394195625e+17
19535.0	5.946343478525951e+17
19536.0	5.94560709435938e+17
19537.0	5.944889058175657e+17
19538.0	5.943706771958442e+17
19539.0	5.943164853201578e+17
19540.0	5.94269454799121e+17
19541.0	5.941873394144598e+17
19542.0	5.941137624443561e+17
19543.0	5.940033903132671e+17
19544.0	5.939517099868159e+17
19545.0	5.938375414513663e+17
19546.0	5.937477019762687e+17
19547.0	5.937078677624148e+17
19548.0	5.936282305822719e+17
19549.0	5.935368466246314e+17
19550.0	5.934602710766931e+17
19551.0	5.93374830797346e+17
19552.0	5.932930504676692e+17
19553.0	5.932062243203753e+17
19554.0	5.931184485127508e+17
19555.0	5.930266828734464e+17
19556.0	5.929409944311124e+17
19557.0	5.928540800636244e+17
19558.0	5.92765309297186e+17
19559.0	5.926756855491242e+17
19560.0	5.925703654572031e+17
19561.0	5.924919847507283e+17
19562.0	5.92390383538449e+17
19563.0	5.923112127649108e+17
19564.0	5.92218987429888e+17
19565.0	5.921262955484499e+17
19566.0	5.920316108832767e+17
19567.0	5.919395396889258e+17
19568.0	5.918437543684778e+17
19569.0	5.917502211795626e+17
19570.0	5.916566091377321e+17
19571.0	5.915645742940159e+17
19572.0	5.914667522195455e+17
19573.0	5.913687476928511e+17
19574.0	5.912688821534719e+17
19575.0	5.911824996237312e+17
19576.0	5.91083031494656e+17
19577.0	5.909830276830547e+17
19578.0	5.908987882329427e+17
19579.0	5.908008506053972e+17
19580.0	5.907036681622868e+17
19581.0	5.906076243329024e+17
19582.0	5.905103914183338e+17
19583.0	5.904121665508692e+17
19584.0	5.903118545278292e+17
19585.0	5.902047353591124e+17
19586.0	5.901018849432918e+17
19587.0	5.900090819127977e+17
19588.0	5.898935218470911e+17
19589.0	5.8981304776349e+17
19590.0	5.897107946864639e+17
19591.0	5.896199146744489e+17
19592.0	5.895216071092906e+17
19593.0	5.894166971503956e+17
19594.0	5.892985508069375e+17
19595.0	5.892202054025215e+17
19596.0	5.8909136533149e+17
19597.0	5.890193744374441e+17
19598.0	5.88894071492881e+17
19599.0	5.888202667021652e+17
19600.0	5.887214145765375e+17
19601.0	5.88615129375266e+17
19602.0	5.885077168149844e+17
19603.0	5.88382631764514e+17
19604.0	5.883004607354196e+17
19605.0	5.881944443890346e+17
19606.0	5.881141498216448e+17
19607.0	5.880147488014335e+17
19608.0	5.879125807289684e+17
19609.0	5.878103801506474e+17
19610.0	5.876957224195412e+17
19611.0	5.875865272101546e+17
19612.0	5.875084002590719e+17
19613.0	5.87405376688401e+17
19614.0	5.8730029266589e+17
19615.0	5.871966596628479e+17
19616.0	5.870622510241108e+17
19617.0	5.869674531127295e+17
19618.0	5.868512107735721e+17
19619.0	5.867377959545514e+17
19620.0	5.866456965185535e+17
19621.0	5.86550170755618e+17
19622.0	5.864833094953642e+17
19623.0	5.863774718962345e+17
19624.0	5.862671797365418e+17
19625.0	5.861663516043946e+17
19626.0	5.860538375121578e+17
19627.0	5.859271668050601e+17
19628.0	5.857705979106646e+17
19629.0	5.854990674078376e+17
19630.0	5.849639441924095e+17
19631.0	5.842765845889023e+17
19632.0	5.851631679700991e+17
19633.0	5.852497272897535e+17
19634.0	5.85208168517905e+17
19635.0	5.851199469955753e+17
19636.0	5.849976507378346e+17
19637.0	5.848737452654591e+17
19638.0	5.848352935641087e+17
19639.0	5.847362117304319e+17
19640.0	5.846202486620159e+17
19641.0	5.844771855663104e+17
19642.0	5.844275147309055e+17
19643.0	5.843249058370902e+17
19644.0	5.842202606086825e+17
19645.0	5.841120265240575e+17
19646.0	5.839823282285225e+17
19647.0	5.839191021715455e+17
19648.0	5.838172239254868e+17
19649.0	5.837139045165738e+17
19650.0	5.836114057232384e+17
19651.0	5.835086181520726e+17
19652.0	5.83406926832162e+17
19653.0	5.833030732087295e+17
19654.0	5.832005590362793e+17
19655.0	5.830972250172074e+17
19656.0	5.829945488048127e+17
19657.0	5.828916102387028e+17
19658.0	5.827880230234794e+17
19659.0	5.826850012004351e+17
19660.0	5.825816931161428e+17
19661.0	5.824781689552896e+17
19662.0	5.823740504615594e+17
19663.0	5.822672591476052e+17
19664.0	5.821627872837631e+17
19665.0	5.820639341095593e+17
19666.0	5.819600658060628e+17
