# Flux units: erg / (cm m2 s)
# Wavelength units: Angstrom
wave	flux
19000.0	5.83450224632354e+17
19001.0	5.833382013435901e+17
19002.0	5.832323499032576e+17
19003.0	5.831229072998399e+17
19004.0	5.830136399484244e+17
19005.0	5.829052488570195e+17
19006.0	5.827966711190867e+17
19007.0	5.826637102841855e+17
19008.0	5.82576680084002e+17
19009.0	5.824701056854697e+17
19010.0	5.82344078664226e+17
19011.0	5.822515019164329e+17
19012.0	5.821011939295231e+17
19013.0	5.820339682541567e+17
19014.0	5.819239431318186e+17
19015.0	5.818157605672276e+17
19016.0	5.817066542770857e+17
19017.0	5.815980018106368e+17
19018.0	5.814875852199252e+17
19019.0	5.813819154628608e+17
19020.0	5.812719927514452e+17
19021.0	5.811638765267625e+17
19022.0	5.810555798071977e+17
19023.0	5.8094586967709e+17
19024.0	5.808379503050751e+17
19025.0	5.807267195999572e+17
19026.0	5.806162354809514e+17
19027.0	5.804780995739647e+17
19028.0	5.804039943312724e+17
19029.0	5.802897394630655e+17
19030.0	5.801794727488169e+17
19031.0	5.800710720105129e+17
19032.0	5.799624156293802e+17
19033.0	5.798512846088873e+17
19034.0	5.797451511016106e+17
19035.0	5.796338921548458e+17
19036.0	5.771015913908873e+17
19037.0	5.794189149208575e+17
19038.0	5.793111566800212e+17
19039.0	5.792035597101738e+17
19040.0	5.790952234942463e+17
19041.0	5.789864854639956e+17
19042.0	5.788750014229161e+17
19043.0	5.787703694065663e+17
19044.0	5.786612615785129e+17
19045.0	5.785522460251475e+17
19046.0	5.784438633922559e+17
19047.0	5.783374014709759e+17
19048.0	5.782217087254527e+17
19049.0	5.781181779935232e+17
19050.0	5.780111604667732e+17
19051.0	5.775091265350304e+17
19052.0	5.777925303435264e+17
19053.0	5.7768259630749e+17
19054.0	5.775803437197994e+17
19055.0	5.774642833435306e+17
19056.0	5.773630754171561e+17
19057.0	5.772557073164969e+17
19058.0	5.771414834162346e+17
19059.0	5.77039777206545e+17
19060.0	5.769309947865769e+17
19061.0	5.768241822214825e+17
19062.0	5.767468886086996e+17
19063.0	5.766474889166847e+17
19064.0	5.765349535034026e+17
19065.0	5.7642614165340154e+17
19066.0	5.7632418182813e+17
19067.0	5.762697968746494e+17
19068.0	5.761625011956394e+17
19069.0	5.760546862617941e+17
19070.0	5.759457824167252e+17
19071.0	5.758368692043775e+17
19072.0	5.757310205602473e+17
19073.0	5.7562332719131296e+17
19074.0	5.7551574350342816e+17
19075.0	5.7540801238575776e+17
19076.0	5.752995313265322e+17
19077.0	5.751923110051839e+17
19078.0	5.7508349517059405e+17
19079.0	5.749772288436906e+17
19080.0	5.748690901095764e+17
19081.0	5.74760464626483e+17
19082.0	5.746526343135231e+17
19083.0	5.745437765358932e+17
19084.0	5.744320179776169e+17
19085.0	5.7433140613174605e+17
19086.0	5.7421023716311034e+17
19087.0	5.740442610739881e+17
19088.0	5.7400605229274445e+17
19089.0	5.7385494165585894e+17
19090.0	5.7378929478642336e+17
19091.0	5.7368257295810554e+17
19092.0	5.7355649029242874e+17
19093.0	5.734684136833022e+17
19094.0	5.733607762384213e+17
19095.0	5.732533181699411e+17
19096.0	5.7314401439798605e+17
19097.0	5.730389962260479e+17
19098.0	5.729316951643476e+17
19099.0	5.7282446540581536e+17
19100.0	5.727134985923241e+17
19101.0	5.7260872243172685e+17
19102.0	5.724997324636158e+17
19103.0	5.723956223584938e+17
19104.0	5.722887298220031e+17
19105.0	5.721813169821011e+17
19106.0	5.720608858614441e+17
19107.0	5.71966773858577e+17
19108.0	5.718601089329834e+17
19109.0	5.715327724464806e+17
19110.0	5.716455913248084e+17
19111.0	5.715381767372798e+17
19112.0	5.714321634667177e+17
19113.0	5.7132520165430605e+17
19114.0	5.712182457139199e+17
19115.0	5.7110471478258336e+17
19116.0	5.710038486220798e+17
19117.0	5.708973069391188e+17
19118.0	5.7077567652713805e+17
19119.0	5.705607618581842e+17
19120.0	5.705545658226004e+17
19121.0	5.704583463916885e+17
19122.0	5.7036354903954765e+17
19123.0	5.702566584603988e+17
19124.0	5.7013667717884576e+17
19125.0	5.7004281270981965e+17
19126.0	5.6993302162964474e+17
19127.0	5.697756210047656e+17
19128.0	5.6957695996286246e+17
19129.0	5.6961370213580794e+17
19130.0	5.695094977986558e+17
19131.0	5.693983372083199e+17
19132.0	5.6929674592256e+17
19133.0	5.691689438718635e+17
19134.0	5.6900641605986995e+17
19135.0	5.689761828874922e+17
19136.0	5.688707169736021e+17
19137.0	5.687590231474175e+17
19138.0	5.6864645166312096e+17
19139.0	5.685512479528276e+17
19140.0	5.684449180123135e+17
19141.0	5.6833853585271456e+17
19142.0	5.682305426609492e+17
19143.0	5.681237514868052e+17
19144.0	5.6801799987090746e+17
19145.0	5.679128836221609e+17
19146.0	5.6778321035264e+17
19147.0	5.6769744326710605e+17
19148.0	5.6759266067524256e+17
19149.0	5.6748673415686816e+17
19150.0	5.673812761422506e+17
19151.0	5.672753376701098e+17
19152.0	5.6716662823103136e+17
19153.0	5.6706232134314656e+17
19154.0	5.669530557393577e+17
19155.0	5.6685016610679456e+17
19156.0	5.6674468733037216e+17
19157.0	5.6663662779869856e+17
19158.0	5.663838336712701e+17
19159.0	5.664255602152788e+17
19160.0	5.6631670502413645e+17
19161.0	5.661998149446315e+17
19162.0	5.6577199083356166e+17
19163.0	5.659829726434645e+17
19164.0	5.65851409490466e+17
19165.0	5.657390254216532e+17
19166.0	5.6562832767276365e+17
19167.0	5.6550193882289485e+17
19168.0	5.6542549050217805e+17
19169.0	5.653151113106772e+17
19170.0	5.6521654544629754e+17
19171.0	5.65090251247889e+17
19172.0	5.6500332164109645e+17
19173.0	5.6489844544634874e+17
19174.0	5.647918982408874e+17
19175.0	5.6468785321738234e+17
19176.0	5.6458197765980154e+17
19177.0	5.644718289453055e+17
19178.0	5.6436942431409485e+17
19179.0	5.6423399485166944e+17
19180.0	5.6414179482228045e+17
19181.0	5.6405031138973e+17
19182.0	5.6394649984914765e+17
19183.0	5.638429470971221e+17
19184.0	5.6373812535842125e+17
19185.0	5.636366612998826e+17
19186.0	5.635315750404094e+17
19187.0	5.634230065299455e+17
19188.0	5.633185617193641e+17
19189.0	5.6320889667802445e+17
19190.0	5.6310170620613965e+17
19191.0	5.629985354853035e+17
19192.0	5.628982881943552e+17
19193.0	5.62783234171426e+17
19194.0	5.626831759736831e+17
19195.0	5.625803898006185e+17
19196.0	5.6247615806068045e+17
19197.0	5.623708748087294e+17
19198.0	5.622644100213418e+17
19199.0	5.6013782127738835e+17
19200.0	5.608488083739998e+17
19201.0	5.6194871713245856e+17
19202.0	5.618446745556308e+17
19203.0	5.617348816579242e+17
19204.0	5.6164194839429114e+17
19205.0	5.615444439684436e+17
19206.0	5.614394681589758e+17
19207.0	5.613320758012585e+17
19208.0	5.6122180412375034e+17
19209.0	5.611224923723092e+17
19210.0	5.610186000214698e+17
19211.0	5.6082778868940794e+17
19212.0	5.607157331744084e+17
19213.0	5.605895661333161e+17
19214.0	5.604758666608639e+17
19215.0	5.6039405913811616e+17
19216.0	5.60295083909666e+17
19217.0	5.6018994445243725e+17
19218.0	5.600592609148926e+17
19219.0	5.5997565508430483e+17
19220.0	5.5987328722315936e+17
19221.0	5.5975812379880096e+17
19222.0	5.5966530238327456e+17
19223.0	5.5955937306869754e+17
19224.0	5.594534735336788e+17
19225.0	5.5934560372435616e+17
19226.0	5.592447010035027e+17
19227.0	5.5913970037773645e+17
19228.0	5.59035802853922e+17
19229.0	5.589308661213866e+17
19230.0	5.588206091938473e+17
19231.0	5.587167391427242e+17
19232.0	5.586152315333289e+17
19233.0	5.585085107535871e+17
19234.0	5.584054585218388e+17
19235.0	5.5830012088374605e+17
19236.0	5.5819635289402016e+17
19237.0	5.5809098792304634e+17
19238.0	5.579807170144937e+17
19239.0	5.578828612457813e+17
19240.0	5.5777342626201594e+17
19241.0	5.576718941858474e+17
19242.0	5.575685830956372e+17
19243.0	5.574593192394751e+17
19244.0	5.5735968019251194e+17
19245.0	5.5725464272677536e+17
19246.0	5.5714954339505485e+17
19247.0	5.5704524776188576e+17
19248.0	5.5694001358329165e+17
19249.0	5.568347538194431e+17
19250.0	5.567302479817385e+17
19251.0	5.566242890973183e+17
19252.0	5.565103042024788e+17
19253.0	5.564157629125972e+17
19254.0	5.563106673557503e+17
19255.0	5.5620004035078816e+17
19256.0	5.560980143953237e+17
19257.0	5.5599737256017914e+17
19258.0	5.558924751841962e+17
19259.0	5.5578513196974074e+17
19260.0	5.556415826842963e+17
19261.0	5.5557742234610336e+17
19262.0	5.55471162310656e+17
19263.0	5.553668170448894e+17
19264.0	5.552475553660926e+17
19265.0	5.551521694132906e+17
19266.0	5.5504803952503456e+17
19267.0	5.54948191392017e+17
19268.0	5.54841865785617e+17
19269.0	5.5473715484644685e+17
19270.0	5.546321433853951e+17
19271.0	5.545169785629354e+17
19272.0	5.5442151347759776e+17
19273.0	5.541713482001064e+17
19274.0	5.541420128884052e+17
19275.0	5.541077852007083e+17
19276.0	5.5400219709276154e+17
19277.0	5.538970844790784e+17
19278.0	5.5371851233580365e+17
19279.0	5.5359508186835616e+17
19280.0	5.5349250603963725e+17
19281.0	5.533902576462506e+17
19282.0	5.53285592494899e+17
19283.0	5.5314853326574925e+17
19284.0	5.5302543107249485e+17
19285.0	5.529634977699157e+17
19286.0	5.528642665491113e+17
19287.0	5.527611832096084e+17
19288.0	5.522180014080005e+17
19289.0	5.507306311647189e+17
19290.0	5.5244531409005216e+17
19291.0	5.5233196770809165e+17
19292.0	5.522345869443071e+17
19293.0	5.5212891005692576e+17
19294.0	5.52023099580962e+17
19295.0	5.5191815781526163e+17
19296.0	5.518121181904894e+17
19297.0	5.517048888513877e+17
19298.0	5.516069929571668e+17
19299.0	5.5151446786921805e+17
19300.0	5.514087485494611e+17
19301.0	5.512995917878613e+17
19302.0	5.511935634178047e+17
19303.0	5.5108392626858643e+17
19304.0	5.509793967330645e+17
19305.0	5.5087417849282554e+17
19306.0	5.5076660536060576e+17
19307.0	5.506578908883625e+17
19308.0	5.5055370542557856e+17
19309.0	5.503825365084842e+17
19310.0	5.5024208478644883e+17
19311.0	5.502328735356244e+17
19312.0	5.501293189660671e+17
19313.0	5.500218007792298e+17
19314.0	5.480757735369311e+17
19315.0	5.4819057604144294e+17
19316.0	5.4969693082309965e+17
19317.0	5.4959476575655245e+17
19318.0	5.495189243516244e+17
19319.0	5.494403866383701e+17
19320.0	5.493325893206015e+17
19321.0	5.492253066439338e+17
19322.0	5.4910984870952954e+17
19323.0	5.4896812702214835e+17
19324.0	5.48894405698082e+17
19325.0	5.487233423376383e+17
19326.0	5.486790142765738e+17
19327.0	5.485702602380628e+17
19328.0	5.484623644939604e+17
19329.0	5.4835388881742496e+17
19330.0	5.482436318199807e+17
19331.0	5.48134564536866e+17
19332.0	5.479902359497386e+17
19333.0	5.478176679526399e+17
19334.0	5.4770897557039776e+17
19335.0	5.475991089228457e+17
19336.0	5.4750653098666656e+17
19337.0	5.4742392060422816e+17
19338.0	5.4730697103551136e+17
19339.0	5.4720192028781216e+17
19340.0	5.4708816936523085e+17
19341.0	5.4697979644914336e+17
19342.0	5.468532378697726e+17
19343.0	5.4675629562047123e+17
19344.0	5.466437014869332e+17
19345.0	5.4645534018764755e+17
19346.0	5.4640799544333645e+17
19347.0	5.462833268173481e+17
19348.0	5.461564943499262e+17
19349.0	5.4604041936349856e+17
19350.0	5.4592621258997754e+17
19351.0	5.458115572356436e+17
19352.0	5.456955611720361e+17
19353.0	5.4558231685147296e+17
19354.0	5.453157205977771e+17
19355.0	5.451759935116628e+17
19356.0	5.4506140302923085e+17
19357.0	5.449908674188628e+17
19358.0	5.4489359689536845e+17
19359.0	5.4476835225163085e+17
19360.0	5.4465514337293645e+17
19361.0	5.445249919527593e+17
19362.0	5.4440209989413536e+17
19363.0	5.442762971982505e+17
19364.0	5.441535821392554e+17
19365.0	5.4401222360869536e+17
19366.0	5.438855541598889e+17
19367.0	5.4375993622309536e+17
19368.0	5.4363502292937376e+17
19369.0	5.435444028943017e+17
19370.0	5.434194513625087e+17
19371.0	5.4330669379092474e+17
19372.0	5.4317863791493114e+17
19373.0	5.4311624757302605e+17
19374.0	5.4299620218852685e+17
19375.0	5.4286285813405e+17
19376.0	5.427288622148266e+17
19377.0	5.4256026860038816e+17
19378.0	5.423014464891562e+17
19379.0	5.42162128277777e+17
19380.0	5.420211387061589e+17
19381.0	5.4187798193766394e+17
19382.0	5.4182063783280614e+17
19383.0	5.417492653888852e+17
19384.0	5.416045203073705e+17
19385.0	5.4145445083654816e+17
19386.0	5.412936666666324e+17
19387.0	5.4112278177382394e+17
19388.0	5.409639411045715e+17
19389.0	5.407351173545983e+17
19390.0	5.4061497661958803e+17
19391.0	5.382433954332635e+17
19392.0	5.403164205383679e+17
19393.0	5.401942654189566e+17
19394.0	5.4001703894821536e+17
19395.0	5.3968802809555616e+17
19396.0	5.3953028808157856e+17
19397.0	5.3932341689931085e+17
19398.0	5.3912666496477856e+17
19399.0	5.388897582317563e+17
19400.0	5.385722530540202e+17
19401.0	5.383578684751871e+17
19402.0	5.381881595254099e+17
19403.0	5.377531376391508e+17
19404.0	5.37481685569809e+17
19405.0	5.373016921866239e+17
19406.0	5.3680168102789094e+17
19407.0	5.366766875530578e+17
19408.0	5.36065945440529e+17
19409.0	5.3576203407196186e+17
19410.0	5.3513280878018554e+17
19411.0	5.346477603815421e+17
19412.0	5.3423481053074765e+17
19413.0	5.337966149544619e+17
19414.0	5.334094529429503e+17
19415.0	5.3298059123097594e+17
19416.0	5.325854310312617e+17
19417.0	5.3212441543529805e+17
19418.0	5.317404518602068e+17
19419.0	5.312846694274389e+17
19420.0	5.3078946934510906e+17
19421.0	5.302273585097386e+17
19422.0	5.296231555967658e+17
19423.0	5.291452509366953e+17
19424.0	5.2838613972418554e+17
19425.0	5.276753740169215e+17
19426.0	5.2694845059235834e+17
19427.0	5.259959156954448e+17
19428.0	5.25034592263646e+17
19429.0	5.239325771956226e+17
19430.0	5.225371424609621e+17
19431.0	5.209803394995559e+17
19432.0	5.204440335603023e+17
19433.0	5.1872844557407584e+17
19434.0	5.1578956107393805e+17
19435.0	5.1324043835473914e+17
19436.0	5.1122634608694566e+17
19437.0	5.094902061509289e+17
19438.0	5.041433169887214e+17
19439.0	5.0528089535064736e+17
19440.0	5.0276615061504006e+17
19441.0	4.999264364483925e+17
19442.0	4.968832629560667e+17
19443.0	4.911743102877707e+17
19444.0	4.830788114361001e+17
19445.0	4.784305883228843e+17
19446.0	4.71805843280145e+17
19447.0	4.631772195891878e+17
19448.0	4.492016097776985e+17
19449.0	4.3198493683438925e+17
19450.0	3.93896916243796e+17
19451.0	3.8322528300564384e+17
19452.0	4.143145203094884e+17
19453.0	4.4254791306226477e+17
19454.0	4.557246652481546e+17
19455.0	4.6771751270482e+17
19456.0	4.745425739317247e+17
19457.0	4.79959254145433e+17
19458.0	4.822567463769484e+17
19459.0	4.934411091618481e+17
19460.0	4.96881254094165e+17
19461.0	4.9963818668086624e+17
19462.0	5.021430227227991e+17
19463.0	5.043258129033897e+17
19464.0	5.0616868941769376e+17
19465.0	5.0797899170884256e+17
19466.0	5.0957837692218e+17
19467.0	5.113961847805264e+17
19468.0	5.1435657096069075e+17
19469.0	5.1637445201319226e+17
19470.0	5.1740223782693626e+17
19471.0	5.1819291607039994e+17
19472.0	5.1936524361181914e+17
19473.0	5.2035084570241715e+17
19474.0	5.2126213479246496e+17
19475.0	5.218962646936233e+17
19476.0	5.22577454895377e+17
19477.0	5.2304944327994016e+17
19478.0	5.236887572010324e+17
19479.0	5.240106169750867e+17
19480.0	5.243874668008787e+17
19481.0	5.247599177105407e+17
19482.0	5.2507300097338016e+17
19483.0	5.253896393282901e+17
19484.0	5.255992933613567e+17
19485.0	5.2583323772736845e+17
19486.0	5.26040006988049e+17
19487.0	5.2624193909773645e+17
19488.0	5.264507589536426e+17
19489.0	5.2663077316853766e+17
19490.0	5.268075111426729e+17
19491.0	5.2713835245950304e+17
19492.0	5.273707018715133e+17
19493.0	5.2783639886998176e+17
19494.0	5.279138556411899e+17
19495.0	5.282053219505492e+17
19496.0	5.2814726977727123e+17
19497.0	5.2846894891663366e+17
19498.0	5.283993768777049e+17
19499.0	5.2486626729437254e+17
19500.0	5.2868059845973306e+17
19501.0	5.2866906650050554e+17
19502.0	5.2867681498781005e+17
19503.0	5.2880919952534195e+17
19504.0	5.288242085625855e+17
19505.0	5.288175731736575e+17
19506.0	5.288217956493994e+17
19507.0	5.2876401561654605e+17
19508.0	5.288814866770603e+17
19509.0	5.2887672970717856e+17
19510.0	5.2880961413229216e+17
19511.0	5.2477076047571194e+17
19512.0	5.2839046726723974e+17
19513.0	5.275880843291285e+17
19514.0	5.279234150891512e+17
19515.0	5.285357467729922e+17
19516.0	5.285556378402815e+17
19517.0	5.285126800583338e+17
19518.0	5.2848019384565754e+17
19519.0	5.284264613860692e+17
19520.0	5.2837247824691194e+17
19521.0	5.2830555351285766e+17
19522.0	5.28121057194803e+17
19523.0	5.2804614531754656e+17
19524.0	5.279850310227283e+17
19525.0	5.279222402646015e+17
19526.0	5.2785989976500896e+17
19527.0	5.278143753486336e+17
19528.0	5.278718345172308e+17
19529.0	5.2780411097797965e+17
19530.0	5.277358904836094e+17
19531.0	5.276659014609578e+17
19532.0	5.275949060849664e+17
19533.0	5.27447922643217e+17
19534.0	5.2737490575250765e+17
19535.0	5.2730093752374605e+17
19536.0	5.2722583068125856e+17
19537.0	5.271519448006655e+17
19538.0	5.2703706714821965e+17
19539.0	5.269273581365931e+17
19540.0	5.2686898216304634e+17
19541.0	5.2679183800729574e+17
19542.0	5.2671296293218976e+17
19543.0	5.2663362270877005e+17
19544.0	5.2655397951679136e+17
19545.0	5.2646553059327974e+17
19546.0	5.263589780051285e+17
19547.0	5.263173384929279e+17
19548.0	5.262363745146196e+17
19549.0	5.2615098911074976e+17
19550.0	5.260712586772479e+17
19551.0	5.259880285863935e+17
19552.0	5.2590428385443834e+17
19553.0	5.2581971242516474e+17
19554.0	5.2573384460642976e+17
19555.0	5.2559416260908365e+17
19556.0	5.255102100493651e+17
19557.0	5.254754591222442e+17
19558.0	5.253900089163775e+17
19559.0	5.2530348007533216e+17
19560.0	5.2522826662761805e+17
19561.0	5.251491199713279e+17
19562.0	5.2508426177085434e+17
19563.0	5.250793333238442e+17
19564.0	5.2499179470411085e+17
19565.0	5.249038832107519e+17
19566.0	5.2481494572072954e+17
19567.0	5.247276358303743e+17
19568.0	5.2463946974276256e+17
19569.0	5.2455073728430074e+17
19570.0	5.244627642045781e+17
19571.0	5.243737114411006e+17
19572.0	5.2428313845213856e+17
19573.0	5.241946961696085e+17
19574.0	5.2410213591941114e+17
19575.0	5.2401566041593165e+17
19576.0	5.2392558829677216e+17
19577.0	5.238331370285738e+17
19578.0	5.237444133781503e+17
19579.0	5.2365418984461645e+17
19580.0	5.235639449201322e+17
19581.0	5.2347365239029754e+17
19582.0	5.2338359641920845e+17
19583.0	5.232927858928298e+17
19584.0	5.232010416444756e+17
19585.0	5.231072101007359e+17
19586.0	5.230138328700245e+17
19587.0	5.2291449210798074e+17
19588.0	5.2282197757569696e+17
19589.0	5.227416561647614e+17
19590.0	5.2265022586006176e+17
19591.0	5.225624003499349e+17
19592.0	5.2247088007741434e+17
19593.0	5.223787255562239e+17
19594.0	5.2227636377681914e+17
19595.0	5.2219538302129485e+17
19596.0	5.217974053677738e+17
19597.0	5.220141795115007e+17
19598.0	5.2190923264273056e+17
19599.0	5.2189087759947085e+17
19600.0	5.218232770232319e+17
19601.0	5.2172885603997e+17
19602.0	5.2163728061235194e+17
19603.0	5.214985614174889e+17
19604.0	5.214522748960767e+17
19605.0	5.2135154798646605e+17
19606.0	5.2126821150010016e+17
19607.0	5.211760672549545e+17
19608.0	5.2105257191560525e+17
19609.0	5.209489842110464e+17
19610.0	5.208585887809536e+17
19611.0	5.207656193764009e+17
19612.0	5.206731920856404e+17
19613.0	5.2057977032540154e+17
19614.0	5.204863159894015e+17
19615.0	5.203947352489983e+17
19616.0	5.2028183961490765e+17
19617.0	5.2020857120576845e+17
19618.0	5.201010032465236e+17
19619.0	5.1999947613361485e+17
19620.0	5.19909543195443e+17
19621.0	5.19836563214609e+17
19622.0	5.197440487522303e+17
19623.0	5.1965105180508154e+17
19624.0	5.195575521705983e+17
19625.0	5.1946445253290656e+17
19626.0	5.193716841054207e+17
19627.0	5.1927832868509e+17
19628.0	5.191377243602945e+17
19629.0	5.190888134628693e+17
19630.0	5.190031103404715e+17
19631.0	5.167123314420369e+17
19632.0	5.188117106873685e+17
19633.0	5.187164509831167e+17
19634.0	5.1862637508908365e+17
19635.0	5.1853198542329165e+17
19636.0	5.184391763809621e+17
19637.0	5.183351355517611e+17
19638.0	5.182532536500223e+17
19639.0	5.181588781749588e+17
19640.0	5.1806527130610336e+17
19641.0	5.179485664750252e+17
19642.0	5.1788010872285856e+17
19643.0	5.1778612352778234e+17
19644.0	5.1769210526760954e+17
19645.0	5.175923215171583e+17
19646.0	5.175073438695423e+17
19647.0	5.174142267555838e+17
19648.0	5.173209743753215e+17
19649.0	5.172276147606868e+17
19650.0	5.171344366895103e+17
19651.0	5.170407961963177e+17
19652.0	5.1694748348798285e+17
19653.0	5.168535853247145e+17
19654.0	5.1676089931530234e+17
19655.0	5.166677155119103e+17
19656.0	5.16574710735394e+17
