# Flux units: erg / (cm m2 s)
# Wavelength units: Angstrom
wave	flux
19000.0	5.015703095956821e+17
19001.0	5.0147263998416205e+17
19002.0	5.013986384106836e+17
19003.0	5.0131307901310285e+17
19004.0	5.0120263348169376e+17
19005.0	5.0112125307890336e+17
19006.0	5.010402159798954e+17
19007.0	5.00959507784226e+17
19008.0	5.008719667877204e+17
19009.0	5.007731189962068e+17
19010.0	5.006910719787006e+17
19011.0	5.005944666718208e+17
19012.0	5.004696397807615e+17
19013.0	5.004382696024746e+17
19014.0	5.003289544359935e+17
19015.0	5.002423979824468e+17
19016.0	5.001698749710335e+17
19017.0	5.0009084016285005e+17
19018.0	4.9999486456081056e+17
19019.0	4.999118830523732e+17
19020.0	4.998217488575146e+17
19021.0	4.9973669794938874e+17
19022.0	4.9965353699464525e+17
19023.0	4.9954187763165856e+17
19024.0	4.994486117597183e+17
19025.0	4.9937292561394336e+17
19026.0	4.9928574008470176e+17
19027.0	4.992012609301162e+17
19028.0	4.9910036666777594e+17
19029.0	4.990061859482281e+17
19030.0	4.989112494150996e+17
19031.0	4.9883109605594445e+17
19032.0	4.9873733560565754e+17
19033.0	4.98598382997777e+17
19034.0	4.9846955823595514e+17
19035.0	4.982653612720127e+17
19036.0	4.979832427380735e+17
19037.0	4.9810246918471674e+17
19038.0	4.98126793141999e+17
19039.0	4.980911138056874e+17
19040.0	4.980252786819071e+17
19041.0	4.9795375768971936e+17
19042.0	4.970994176709962e+17
19043.0	4.977958261358591e+17
19044.0	4.977210838482943e+17
19045.0	4.976200130756607e+17
19046.0	4.975317704420009e+17
19047.0	4.974396736623957e+17
19048.0	4.9724600971427834e+17
19049.0	4.956325390494358e+17
19050.0	4.971487022809087e+17
19051.0	4.9703518274409805e+17
19052.0	4.9695632724241056e+17
19053.0	4.969004422660095e+17
19054.0	4.968191347742036e+17
19055.0	4.965050150289408e+17
19056.0	4.966059262083068e+17
19057.0	4.965952150044671e+17
19058.0	4.95681833166437e+17
19059.0	4.960915283771389e+17
19060.0	4.963388624994303e+17
19061.0	4.962470723933525e+17
19062.0	4.9615193928717645e+17
19063.0	4.960842579006804e+17
19064.0	4.9599501219921914e+17
19065.0	4.9590038569506125e+17
19066.0	4.9552664965065414e+17
19067.0	4.957079404718762e+17
19068.0	4.956550772118869e+17
19069.0	4.955657331539968e+17
19070.0	4.9546245065495885e+17
19071.0	4.953790264377343e+17
19072.0	4.949992117283494e+17
19073.0	4.952269576121002e+17
19074.0	4.9511512299711123e+17
19075.0	4.950458737797802e+17
19076.0	4.9495583563448314e+17
19077.0	4.948697234276351e+17
19078.0	4.947816256372736e+17
19079.0	4.946912487320234e+17
19080.0	4.9461140120753485e+17
19081.0	4.945245408067583e+17
19082.0	4.9444684957395616e+17
19083.0	4.9434215037883725e+17
19084.0	4.9425116299263994e+17
19085.0	4.941760113410047e+17
19086.0	4.936272523733672e+17
19087.0	4.933206884570443e+17
19088.0	4.934886880881315e+17
19089.0	4.938207848999594e+17
19090.0	4.937480747526826e+17
19091.0	4.936097306684076e+17
19092.0	4.929265458653884e+17
19093.0	4.934855245343402e+17
19094.0	4.9340402123844256e+17
19095.0	4.9330652205547514e+17
19096.0	4.9323244093003085e+17
19097.0	4.931448489727317e+17
19098.0	4.927299219969362e+17
19099.0	4.925664458528089e+17
19100.0	4.9288472264267085e+17
19101.0	4.927963190176426e+17
19102.0	4.9271306599792634e+17
19103.0	4.9261950107211085e+17
19104.0	4.9254732877441696e+17
19105.0	4.917175145988118e+17
19106.0	4.923654085279743e+17
19107.0	4.920989856388433e+17
19108.0	4.919042276764332e+17
19109.0	4.9210136143243936e+17
19110.0	4.920156139203243e+17
19111.0	4.917060231146152e+17
19112.0	4.9158722378792915e+17
19113.0	4.9176591833497594e+17
19114.0	4.915208996782076e+17
19115.0	4.915626466344959e+17
19116.0	4.914825996708522e+17
19117.0	4.913831339185492e+17
19118.0	4.912065607805609e+17
19119.0	4.908660840289619e+17
19120.0	4.910731831017471e+17
19121.0	4.9103781043896314e+17
19122.0	4.909853752776022e+17
19123.0	4.9090932534586016e+17
19124.0	4.9080343217220243e+17
19125.0	4.907329954775038e+17
19126.0	4.9064010143061325e+17
19127.0	4.905473634118314e+17
19128.0	4.904608132497408e+17
19129.0	4.9039123932337485e+17
19130.0	4.9031406217243296e+17
19131.0	4.9022977106247674e+17
19132.0	4.9013671343773005e+17
19133.0	4.900602166728021e+17
19134.0	4.8997423735548576e+17
19135.0	4.8989539548528634e+17
19136.0	4.898025681278292e+17
19137.0	4.8970851044119885e+17
19138.0	4.896351015228757e+17
19139.0	4.8955470566304416e+17
19140.0	4.894713784041471e+17
19141.0	4.893818666440021e+17
19142.0	4.892911859313322e+17
19143.0	4.892055750137173e+17
19144.0	4.891133809262591e+17
19145.0	4.89033526481169e+17
19146.0	4.889063291792043e+17
19147.0	4.888648275897001e+17
19148.0	4.8851824525967405e+17
19149.0	4.883729712764245e+17
19150.0	4.88613916774673e+17
19151.0	4.8852025887511885e+17
19152.0	4.8844146565884576e+17
19153.0	4.8779224542085024e+17
19154.0	4.882239674384384e+17
19155.0	4.8818614614097914e+17
19156.0	4.880950714433536e+17
19157.0	4.878296471481008e+17
19158.0	4.875249780086107e+17
19159.0	4.8782181065031674e+17
19160.0	4.8774079724912634e+17
19161.0	4.876618216505343e+17
19162.0	4.8757361711513594e+17
19163.0	4.874895950697813e+17
19164.0	4.874043551383551e+17
19165.0	4.8671041558063686e+17
19166.0	4.872266798071806e+17
19167.0	4.871594009340587e+17
19168.0	4.8706792113657165e+17
19169.0	4.869856397972819e+17
19170.0	4.8690306611500365e+17
19171.0	4.8681098688157005e+17
19172.0	4.867287147697493e+17
19173.0	4.866520596698453e+17
19174.0	4.8656215497332045e+17
19175.0	4.8647215960992416e+17
19176.0	4.863941141681493e+17
19177.0	4.8629409854259194e+17
19178.0	4.8621473881565856e+17
19179.0	4.861338936759636e+17
19180.0	4.860502937174015e+17
19181.0	4.85964192485649e+17
19182.0	4.8586057003827194e+17
19183.0	4.857869993596245e+17
19184.0	4.857053297595734e+17
19185.0	4.8561222208279885e+17
19186.0	4.855277641094485e+17
19187.0	4.8543828115019085e+17
19188.0	4.853563208848724e+17
19189.0	4.8526627882489165e+17
19190.0	4.851754615177215e+17
19191.0	4.8508454697260365e+17
19192.0	4.849917030476458e+17
19193.0	4.848167655484075e+17
19194.0	4.8468207337472006e+17
19195.0	4.847079580325203e+17
19196.0	4.8460388329936205e+17
19197.0	4.844952454430719e+17
19198.0	4.843806149749417e+17
19199.0	4.8427731465011194e+17
19200.0	4.841940569467562e+17
19201.0	4.8413686139016525e+17
19202.0	4.8408449648339616e+17
19203.0	4.840075494599338e+17
19204.0	4.8395398127725216e+17
19205.0	4.838776032111274e+17
19206.0	4.838043015970815e+17
19207.0	4.8370225117484365e+17
19208.0	4.8364853619152205e+17
19209.0	4.8357294260005536e+17
19210.0	4.8348435190906874e+17
19211.0	4.8341453967633056e+17
19212.0	4.833336300841642e+17
19213.0	4.832469774412457e+17
19214.0	4.831693973574998e+17
19215.0	4.8309040644969805e+17
19216.0	4.830102826603861e+17
19217.0	4.8293237968513696e+17
19218.0	4.8283615004808525e+17
19219.0	4.8274293989048314e+17
19220.0	4.826788612014078e+17
19221.0	4.8259492101488634e+17
19222.0	4.8250243011051514e+17
19223.0	4.8242817834680314e+17
19224.0	4.8234052298560845e+17
19225.0	4.8227069341641376e+17
19226.0	4.821910981094058e+17
19227.0	4.821031467002538e+17
19228.0	4.820235790756521e+17
19229.0	4.819151584843091e+17
19230.0	4.81852069720883e+17
19231.0	4.8178060388379296e+17
19232.0	4.8169610284892154e+17
19233.0	4.816028306156202e+17
19234.0	4.8151907588724064e+17
19235.0	4.814381852393471e+17
19236.0	4.8135866850563405e+17
19237.0	4.8126147047369376e+17
19238.0	4.8118385215187616e+17
19239.0	4.811067099534677e+17
19240.0	4.810168378327039e+17
19241.0	4.809419512610815e+17
19242.0	4.808399961194496e+17
19243.0	4.807650363572224e+17
19244.0	4.806860806116694e+17
19245.0	4.806099571397973e+17
19246.0	4.805284402124116e+17
19247.0	4.804449228816383e+17
19248.0	4.8035703683372365e+17
19249.0	4.8024639228258976e+17
19250.0	4.800643404748117e+17
19251.0	4.799842651996156e+17
19252.0	4.800058447538858e+17
19253.0	4.799370211186004e+17
19254.0	4.798579659680426e+17
19255.0	4.79756686668595e+17
19256.0	4.796773179938132e+17
19257.0	4.795998912817833e+17
19258.0	4.795109786779647e+17
19259.0	4.7942805386253645e+17
19260.0	4.7931886683204256e+17
19261.0	4.792617306947583e+17
19262.0	4.791681452867583e+17
19263.0	4.790793684385791e+17
19264.0	4.7900614029475834e+17
19265.0	4.789190545200468e+17
19266.0	4.788434866536447e+17
19267.0	4.787686360132265e+17
19268.0	4.786787534766079e+17
19269.0	4.786002512052223e+17
19270.0	4.785171983237119e+17
19271.0	4.784261290087764e+17
19272.0	4.783548642885632e+17
19273.0	4.7826587150363296e+17
19274.0	4.781645074792446e+17
19275.0	4.7810902068210336e+17
19276.0	4.780248540730708e+17
19277.0	4.7794357782882976e+17
19278.0	4.778407883003221e+17
19279.0	4.777710089928702e+17
19280.0	4.776914833113088e+17
19281.0	4.776009744951978e+17
19282.0	4.775164782138708e+17
19283.0	4.7742095524713805e+17
19284.0	4.7733260747625805e+17
19285.0	4.772293101573461e+17
19286.0	4.771071703471444e+17
19287.0	4.769565714153471e+17
19288.0	4.767124078373546e+17
19289.0	4.76595614716177e+17
19290.0	4.767003769656661e+17
19291.0	4.766744029691903e+17
19292.0	4.766461565687126e+17
19293.0	4.765813840019455e+17
19294.0	4.7650805379672736e+17
19295.0	4.7642845289731405e+17
19296.0	4.7598326716388794e+17
19297.0	4.762116109456727e+17
19298.0	4.761826862563327e+17
19299.0	4.7569977967902765e+17
19300.0	4.7602755488972806e+17
19301.0	4.7594170000343034e+17
19302.0	4.758590534101674e+17
19303.0	4.757626220270932e+17
19304.0	4.756834634869419e+17
19305.0	4.755927165042687e+17
19306.0	4.755099301008724e+17
19307.0	4.7541057053436595e+17
19308.0	4.7531933638328314e+17
19309.0	4.7520487103092045e+17
19310.0	4.750854596154709e+17
19311.0	4.749295787267412e+17
19312.0	4.746740451595603e+17
19313.0	4.7399572791623674e+17
19314.0	4.6924720221716544e+17
19315.0	4.693168069017605e+17
19316.0	4.733009318117384e+17
19317.0	4.742783894727338e+17
19318.0	4.7436754744333645e+17
19319.0	4.7434495664237216e+17
19320.0	4.7417710555955155e+17
19321.0	4.739246010488149e+17
19322.0	4.741858087403519e+17
19323.0	4.741166403332777e+17
19324.0	4.7403679448651085e+17
19325.0	4.739632989558102e+17
19326.0	4.7387861029573965e+17
19327.0	4.7380536097068365e+17
19328.0	4.7305941602795584e+17
19329.0	4.736465727302313e+17
19330.0	4.7356836182316365e+17
19331.0	4.734851327808851e+17
19332.0	4.734005747733845e+17
19333.0	4.7332651804480845e+17
19334.0	4.732104656377173e+17
19335.0	4.7180746948171264e+17
19336.0	4.7306206508045645e+17
19337.0	4.729924557122219e+17
19338.0	4.7289697056413005e+17
19339.0	4.7281833603235834e+17
19340.0	4.727277935919104e+17
19341.0	4.721600096807605e+17
19342.0	4.724326250403162e+17
19343.0	4.724902400273066e+17
19344.0	4.7190994884143866e+17
19345.0	4.7209818144549594e+17
19346.0	4.7221431431331834e+17
19347.0	4.715314091305642e+17
19348.0	4.720864074749268e+17
19349.0	4.720042033807359e+17
19350.0	4.716764414519979e+17
19351.0	4.7183892969772365e+17
19352.0	4.710890753840458e+17
19353.0	4.7168450912583674e+17
19354.0	4.716090352118443e+17
19355.0	4.7152030499034445e+17
19356.0	4.7144063453538976e+17
19357.0	4.713637610520575e+17
19358.0	4.7127907120360115e+17
19359.0	4.710551776482638e+17
19360.0	4.70586065367859e+17
19361.0	4.710342533840895e+17
19362.0	4.7095194107685536e+17
19363.0	4.7087117562893645e+17
19364.0	4.707912950393513e+17
19365.0	4.7070444896911354e+17
19366.0	4.706095265568083e+17
19367.0	4.705370659007147e+17
19368.0	4.704614318342143e+17
19369.0	4.703815957042516e+17
19370.0	4.7030206862458874e+17
19371.0	4.7020557894068896e+17
19372.0	4.701315463992661e+17
19373.0	4.7003867416275616e+17
19374.0	4.699556897882111e+17
19375.0	4.698855802492244e+17
19376.0	4.6980558221912736e+17
19377.0	4.697245765074943e+17
19378.0	4.6964204323034445e+17
19379.0	4.695588638206634e+17
19380.0	4.6945217659535354e+17
19381.0	4.693751164654932e+17
19382.0	4.692960205602814e+17
19383.0	4.69211737699123e+17
19384.0	4.6911022379827194e+17
19385.0	4.690467569183402e+17
19386.0	4.689548012071594e+17
19387.0	4.6885675641514656e+17
19388.0	4.687506526874283e+17
19389.0	4.6863140324201805e+17
19390.0	4.6845362962431994e+17
19391.0	4.681591499871572e+17
19392.0	4.6820794155663354e+17
19393.0	4.682601682610857e+17
19394.0	4.6823926839377914e+17
19395.0	4.6799518744357594e+17
19396.0	4.6807106016597344e+17
19397.0	4.680357581772117e+17
19398.0	4.6778399228340915e+17
19399.0	4.676424971583487e+17
19400.0	4.676406062962007e+17
19401.0	4.6770948389819725e+17
19402.0	4.676334380209492e+17
19403.0	4.675500964315136e+17
19404.0	4.6745670459064314e+17
19405.0	4.673681527668736e+17
19406.0	4.672895334744063e+17
19407.0	4.669699066778962e+17
19408.0	4.6711565217082016e+17
19409.0	4.6702340670313805e+17
19410.0	4.6693934236521805e+17
19411.0	4.668514618398036e+17
19412.0	4.6676048871423994e+17
19413.0	4.664342907715585e+17
19414.0	4.665868185239552e+17
19415.0	4.664862900748287e+17
19416.0	4.663802842841088e+17
19417.0	4.663023402745855e+17
19418.0	4.662058849839787e+17
19419.0	4.6610623629011616e+17
19420.0	4.6600447723219616e+17
19421.0	4.659026786779136e+17
19422.0	4.657879487348734e+17
19423.0	4.6569332188119034e+17
19424.0	4.655816366533289e+17
19425.0	4.6545534483169274e+17
19426.0	4.6534412545119565e+17
19427.0	4.6521975671794336e+17
19428.0	4.650674482577407e+17
19429.0	4.649369831036244e+17
19430.0	4.647647713427456e+17
19431.0	4.6459747929074336e+17
19432.0	4.644542103246164e+17
19433.0	4.6428441357407565e+17
19434.0	4.640936552300543e+17
19435.0	4.638418609547945e+17
19436.0	4.6354069056389126e+17
19437.0	4.631384135390548e+17
19438.0	4.6246116108970656e+17
19439.0	4.62442444427537e+17
19440.0	4.6242561149719885e+17
19441.0	4.622047839780863e+17
19442.0	4.6185099240843936e+17
19443.0	4.6137261295315616e+17
19444.0	4.608196336069289e+17
19445.0	4.600937119219711e+17
19446.0	4.592239309225983e+17
19447.0	4.580853424324606e+17
19448.0	4.565764301739349e+17
19449.0	4.544578315791018e+17
19450.0	4.509074559336446e+17
19451.0	4.479880138500779e+17
19452.0	4.528104632483839e+17
19453.0	4.5523383891613005e+17
19454.0	4.567317333671934e+17
19455.0	4.576917021786111e+17
19456.0	4.5808964830494714e+17
19457.0	4.5705463409759584e+17
19458.0	4.45410312611434e+17
19459.0	4.535141316340407e+17
19460.0	4.591970276081663e+17
19461.0	4.6032628055627085e+17
19462.0	4.608064448277162e+17
19463.0	4.6108218074944845e+17
19464.0	4.6124740410081274e+17
19465.0	4.6135861152754336e+17
19466.0	4.614473306341375e+17
19467.0	4.615035496169471e+17
19468.0	4.6154110499553274e+17
19469.0	4.6108664341899866e+17
19470.0	4.615531863386794e+17
19471.0	4.6154675563178656e+17
19472.0	4.615330307506174e+17
19473.0	4.6150467886339405e+17
19474.0	4.6097591421282906e+17
19475.0	4.614058280659626e+17
19476.0	4.6138607548061e+17
19477.0	4.61340746448896e+17
19478.0	4.613004893093888e+17
19479.0	4.6078097051265626e+17
19480.0	4.611954238117205e+17
19481.0	4.611223615526229e+17
19482.0	4.61065024508177e+17
19483.0	4.610105096011775e+17
19484.0	4.609375253561344e+17
19485.0	4.6088035685280416e+17
19486.0	4.603121035990371e+17
19487.0	4.607310401896447e+17
19488.0	4.6066233595221325e+17
19489.0	4.6058794948143776e+17
19490.0	4.6050565863505914e+17
19491.0	4.6043163035784525e+17
19492.0	4.603621453507242e+17
19493.0	4.6027421512280736e+17
19494.0	4.6018729753968634e+17
19495.0	4.600899078280532e+17
19496.0	4.5994831539514016e+17
19497.0	4.5978893030522874e+17
19498.0	4.59474947154466e+17
19499.0	4.592328635318272e+17
19500.0	4.594910619500544e+17
19501.0	4.5955866385448954e+17
19502.0	4.5953944464479565e+17
19503.0	4.5949166767745696e+17
19504.0	4.594203422097406e+17
19505.0	4.5932522266514765e+17
19506.0	4.5924869800809805e+17
19507.0	4.591315339007317e+17
19508.0	4.589586578320042e+17
19509.0	4.5864559805726714e+17
19510.0	4.575280416249171e+17
19511.0	4.5265998930684525e+17
19512.0	4.569243680331093e+17
19513.0	4.579726754578431e+17
19514.0	4.581788868760916e+17
19515.0	4.5840305180289696e+17
19516.0	4.583532852674558e+17
19517.0	4.584033562394623e+17
19518.0	4.582174235120978e+17
19519.0	4.5815550691682963e+17
19520.0	4.577531340521465e+17
19521.0	4.581851008073727e+17
19522.0	4.5802931596820454e+17
19523.0	4.5792110970579654e+17
19524.0	4.575898849596766e+17
19525.0	4.5788251994193914e+17
19526.0	4.5780860994409805e+17
19527.0	4.577403076607998e+17
19528.0	4.5761908668279443e+17
19529.0	4.575252011723436e+17
19530.0	4.5750955627861325e+17
19531.0	4.5743126379233274e+17
19532.0	4.573518867289428e+17
19533.0	4.572683272454144e+17
19534.0	4.5720240460049056e+17
19535.0	4.571253206330026e+17
19536.0	4.570408302237013e+17
19537.0	4.569602388393983e+17
19538.0	4.564304206495749e+17
19539.0	4.5681441449355936e+17
19540.0	4.567336777766229e+17
19541.0	4.5654084402107725e+17
19542.0	4.565263708760746e+17
19543.0	4.5601061255249946e+17
19544.0	4.563816718619989e+17
19545.0	4.563279965847551e+17
19546.0	4.562594231397034e+17
19547.0	4.561910452191231e+17
19548.0	4.5611435649488205e+17
19549.0	4.5602401552083616e+17
19550.0	4.5594704438012576e+17
19551.0	4.5588612183490554e+17
19552.0	4.5579951442056525e+17
19553.0	4.557304282917546e+17
19554.0	4.5564244151063885e+17
19555.0	4.5550418368921606e+17
19556.0	4.5544635381405e+17
19557.0	4.554105069152938e+17
19558.0	4.5533868463226874e+17
19559.0	4.5525961438221645e+17
19560.0	4.550050949278375e+17
19561.0	4.5510311448412154e+17
19562.0	4.548628774737235e+17
19563.0	4.549539136536575e+17
19564.0	4.548560016812713e+17
19565.0	4.547887297287508e+17
19566.0	4.5470308204107085e+17
19567.0	4.5464099229095245e+17
19568.0	4.5456042998715725e+17
19569.0	4.544858178628267e+17
19570.0	4.5440517642649594e+17
19571.0	4.543246485159936e+17
19572.0	4.5424939179704314e+17
19573.0	4.5411553960263654e+17
19574.0	4.540685535412223e+17
19575.0	4.5402175363700045e+17
19576.0	4.5391385006353056e+17
19577.0	4.5378053383127046e+17
19578.0	4.5378629379904845e+17
19579.0	4.5371171774573216e+17
19580.0	4.536249031327744e+17
19581.0	4.535407705675093e+17
19582.0	4.534746902866602e+17
19583.0	4.5340411734698656e+17
19584.0	4.5331597251051514e+17
19585.0	4.5323589206234445e+17
19586.0	4.531584243160404e+17
19587.0	4.530904996599123e+17
19588.0	4.5300619163293005e+17
19589.0	4.5293352370831354e+17
19590.0	4.5285068536545274e+17
19591.0	4.527759283978238e+17
19592.0	4.526994437963775e+17
19593.0	4.525758675768659e+17
19594.0	4.524869644102312e+17
19595.0	4.524670546782891e+17
19596.0	4.523775241835861e+17
19597.0	4.523093596831743e+17
19598.0	4.522035991194283e+17
19599.0	4.521482444428628e+17
19600.0	4.520669679190015e+17
19601.0	4.5199481952884045e+17
19602.0	4.519187725331114e+17
19603.0	4.5183765944729594e+17
19604.0	4.5176548589131085e+17
19605.0	4.516709371914923e+17
19606.0	4.5160451801087994e+17
19607.0	4.515385919406079e+17
19608.0	4.5144077098461856e+17
19609.0	4.5137923201652045e+17
19610.0	4.5107822737053056e+17
19611.0	4.5088140588045677e+17
19612.0	4.5114942945580365e+17
19613.0	4.510564027290964e+17
19614.0	4.509859161920853e+17
19615.0	4.509132064642387e+17
19616.0	4.506107414315012e+17
19617.0	4.504111754685101e+17
19618.0	4.5063929807066445e+17
19619.0	4.50530853781504e+17
19620.0	4.503879427992229e+17
19621.0	4.499289740236114e+17
19622.0	4.503607765718357e+17
19623.0	4.5026191284196685e+17
19624.0	4.50134030610159e+17
19625.0	4.501242931139925e+17
19626.0	4.5003084828508154e+17
19627.0	4.499542903532202e+17
19628.0	4.498611047322966e+17
19629.0	4.486103059573411e+17
19630.0	4.4967643127480314e+17
19631.0	4.495646976726357e+17
19632.0	4.4953826754559994e+17
19633.0	4.49471422992657e+17
19634.0	4.4941355180359674e+17
19635.0	4.492924757387943e+17
19636.0	4.487198748792143e+17
19637.0	4.4864257895956416e+17
19638.0	4.490890724070737e+17
19639.0	4.4904492749728416e+17
19640.0	4.4895108539787936e+17
19641.0	4.4887464462690976e+17
19642.0	4.487905526065834e+17
19643.0	4.4872214742302714e+17
19644.0	4.486805367117141e+17
19645.0	4.48612349841681e+17
19646.0	4.479458504693068e+17
19647.0	4.4843426640472723e+17
19648.0	4.4838562268446714e+17
19649.0	4.4830376392130554e+17
19650.0	4.482297201950719e+17
19651.0	4.4815394568929274e+17
19652.0	4.4808301735226016e+17
19653.0	4.479979548398932e+17
19654.0	4.479309590822911e+17
19655.0	4.4784469525135354e+17
