# Flux units: erg / (cm m2 s)
# Wavelength units: Angstrom
wave	flux
19000.0	5.605614836602196e+17
19001.0	5.6044493618544634e+17
19002.0	5.603562517517652e+17
19003.0	5.6025312549055123e+17
19004.0	5.6015073477044896e+17
19005.0	5.6004677922542925e+17
19006.0	5.5994471447265274e+17
19007.0	5.598426597862058e+17
19008.0	5.5973210219697485e+17
19009.0	5.596220040937471e+17
19010.0	5.594688337739774e+17
19011.0	5.594275957964799e+17
19012.0	5.593029110923264e+17
19013.0	5.59226745467699e+17
19014.0	5.5911778975307085e+17
19015.0	5.5901607508486816e+17
19016.0	5.589124812985684e+17
19017.0	5.5881745242084685e+17
19018.0	5.5871336153961805e+17
19019.0	5.58611729429299e+17
19020.0	5.5850834647668045e+17
19021.0	5.5840825353611936e+17
19022.0	5.583053043444394e+17
19023.0	5.5819822760809805e+17
19024.0	5.580965227266047e+17
19025.0	5.579972640331092e+17
19026.0	5.578915906409811e+17
19027.0	5.5777936113227085e+17
19028.0	5.5769203900852896e+17
19029.0	5.575876699750399e+17
19030.0	5.574889343112533e+17
19031.0	5.5738732142482765e+17
19032.0	5.572839300836009e+17
19033.0	5.571696694132734e+17
19034.0	5.570761848782847e+17
19035.0	5.5695684043188896e+17
19036.0	5.557299868685648e+17
19037.0	5.567601967103999e+17
19038.0	5.566675225149439e+17
19039.0	5.565696584974334e+17
19040.0	5.564688054790826e+17
19041.0	5.563659958179157e+17
19042.0	5.562076881747966e+17
19043.0	5.561638599349588e+17
19044.0	5.5606047341718176e+17
19045.0	5.559590370410494e+17
19046.0	5.558497578756777e+17
19047.0	5.5575255138522445e+17
19048.0	5.556186344587262e+17
19049.0	5.554495724104361e+17
19050.0	5.55441576878626e+17
19051.0	5.551778672148476e+17
19052.0	5.552085655355392e+17
19053.0	5.551449146654719e+17
19054.0	5.550443511939071e+17
19055.0	5.5489571030302726e+17
19056.0	5.5483304418563405e+17
19057.0	5.5473904242305696e+17
19058.0	5.5458886431976083e+17
19059.0	5.545177351454719e+17
19060.0	5.5443253261325645e+17
19061.0	5.5433395367662925e+17
19062.0	5.5423179602001914e+17
19063.0	5.54130437378321e+17
19064.0	5.5401350577520634e+17
19065.0	5.5390508951797754e+17
19066.0	5.538017617903615e+17
19067.0	5.5372365469231776e+17
19068.0	5.5362393742158496e+17
19069.0	5.535227584359081e+17
19070.0	5.5341747064012794e+17
19071.0	5.5331880257454074e+17
19072.0	5.53200773182259e+17
19073.0	5.531170791314772e+17
19074.0	5.530164746256383e+17
19075.0	5.5291523719932576e+17
19076.0	5.528115486217557e+17
19077.0	5.5271032601531725e+17
19078.0	5.5260579305444685e+17
19079.0	5.525102187074901e+17
19080.0	5.5240770103978656e+17
19081.0	5.523020500172799e+17
19082.0	5.522020963975166e+17
19083.0	5.520936237268991e+17
19084.0	5.5197710428405754e+17
19085.0	5.519017445949439e+17
19086.0	5.5172992220528634e+17
19087.0	5.516387141287934e+17
19088.0	5.515619013929642e+17
19089.0	5.514645666966186e+17
19090.0	5.5139344891685536e+17
19091.0	5.5129107511377914e+17
19092.0	5.5114926380810246e+17
19093.0	5.510963520339968e+17
19094.0	5.5099605406187514e+17
19095.0	5.508953374982143e+17
19096.0	5.507925164425215e+17
19097.0	5.506934002155519e+17
19098.0	5.505730953434452e+17
19099.0	5.5046788765887136e+17
19100.0	5.5038769165762554e+17
19101.0	5.5028959164061e+17
19102.0	5.5017361529023136e+17
19103.0	5.500892027551743e+17
19104.0	5.499890513739775e+17
19105.0	5.4984434515968e+17
19106.0	5.4978302876931405e+17
19107.0	5.496730883020115e+17
19108.0	5.495680868373845e+17
19109.0	5.494245019003561e+17
19110.0	5.4937702049163936e+17
19111.0	5.4927176128703136e+17
19112.0	5.491697546952703e+17
19113.0	5.4908377055450445e+17
19114.0	5.4897469509249683e+17
19115.0	5.4887358167777274e+17
19116.0	5.4877995097128954e+17
19117.0	5.486785100513279e+17
19118.0	5.4856140934785696e+17
19119.0	5.473187083059182e+17
19120.0	5.483666162931027e+17
19121.0	5.482735404231338e+17
19122.0	5.4818116828747085e+17
19123.0	5.480811855871999e+17
19124.0	5.479752720711679e+17
19125.0	5.4787986451770016e+17
19126.0	5.4777553924478285e+17
19127.0	5.474422272731817e+17
19128.0	5.475713146683391e+17
19129.0	5.474689589007699e+17
19130.0	5.473783781523456e+17
19131.0	5.472800762494975e+17
19132.0	5.471798428696575e+17
19133.0	5.470733043324244e+17
19134.0	5.4697867915646285e+17
19135.0	5.4687975964235085e+17
19136.0	5.4678024306906445e+17
19137.0	5.46659855639074e+17
19138.0	5.4657834835858765e+17
19139.0	5.464808380607147e+17
19140.0	5.46381294154547e+17
19141.0	5.4628147594089805e+17
19142.0	5.461781827463849e+17
19143.0	5.460741723258879e+17
19144.0	5.4597665783371085e+17
19145.0	5.4588174401972896e+17
19146.0	5.456985596100609e+17
19147.0	5.4567071628219725e+17
19148.0	5.4556703602333005e+17
19149.0	5.454640348222805e+17
19150.0	5.453828947531092e+17
19151.0	5.4528325598576634e+17
19152.0	5.451829136239274e+17
19153.0	5.450492231898452e+17
19154.0	5.449658154003113e+17
19155.0	5.4488478613067085e+17
19156.0	5.4478486508666874e+17
19157.0	5.4466991717963085e+17
19158.0	5.4452583263109114e+17
19159.0	5.444816299797161e+17
19160.0	5.443847364542462e+17
19161.0	5.4428482072302925e+17
19162.0	5.440918054939306e+17
19163.0	5.4407660240022176e+17
19164.0	5.439885819947689e+17
19165.0	5.438516755081897e+17
19166.0	5.437712885962068e+17
19167.0	5.4368254047901e+17
19168.0	5.435913703609685e+17
19169.0	5.434913542460756e+17
19170.0	5.43393913573649e+17
19171.0	5.4328965149491194e+17
19172.0	5.4319445309740365e+17
19173.0	5.430965160990036e+17
19174.0	5.4298978637141325e+17
19175.0	5.4289810594638496e+17
19176.0	5.427990314527402e+17
19177.0	5.4267974167210656e+17
19178.0	5.425970871795711e+17
19179.0	5.4249416993450656e+17
19180.0	5.424013496374613e+17
19181.0	5.422843033201321e+17
19182.0	5.422025052345683e+17
19183.0	5.421062502219775e+17
19184.0	5.4200692511866874e+17
19185.0	5.4190689313532576e+17
19186.0	5.4180911957497165e+17
19187.0	5.417022891141802e+17
19188.0	5.4161094031878816e+17
19189.0	5.415127103482538e+17
19190.0	5.4141316511389005e+17
19191.0	5.4130975755468794e+17
19192.0	5.4121558396545683e+17
19193.0	5.4111124652905805e+17
19194.0	5.410081869572777e+17
19195.0	5.409169374969855e+17
19196.0	5.408137908234922e+17
19197.0	5.4071104757213856e+17
19198.0	5.405893907360426e+17
19199.0	5.398749051005609e+17
19200.0	5.3992245613472435e+17
19201.0	5.4029701104708256e+17
19202.0	5.4021938566485325e+17
19203.0	5.4012356511225165e+17
19204.0	5.400254521627989e+17
19205.0	5.3993005963892045e+17
19206.0	5.3983157710138016e+17
19207.0	5.3971760919347194e+17
19208.0	5.39602769359667e+17
19209.0	5.395355991190186e+17
19210.0	5.3943718403986765e+17
19211.0	5.3934060550662816e+17
19212.0	5.392414356624725e+17
19213.0	5.391276346179582e+17
19214.0	5.390258802436778e+17
19215.0	5.3894365636635296e+17
19216.0	5.388480899885738e+17
19217.0	5.387469785311913e+17
19218.0	5.385475913154558e+17
19219.0	5.385312709989715e+17
19220.0	5.384508336155305e+17
19221.0	5.3831665650237434e+17
19222.0	5.3825520295826765e+17
19223.0	5.381575592815273e+17
19224.0	5.3805592073994234e+17
19225.0	5.3794562704233805e+17
19226.0	5.3786258569516365e+17
19227.0	5.3776514753931936e+17
19228.0	5.376702377099262e+17
19229.0	5.375719344788821e+17
19230.0	5.3747282761919136e+17
19231.0	5.3737407224217594e+17
19232.0	5.372766524713642e+17
19233.0	5.371705784532991e+17
19234.0	5.3707869607253325e+17
19235.0	5.369790227720874e+17
19236.0	5.368852621120852e+17
19237.0	5.367848968912894e+17
19238.0	5.3667629720316576e+17
19239.0	5.365916386721791e+17
19240.0	5.3649329370781005e+17
19241.0	5.36392935547426e+17
19242.0	5.3629577603317754e+17
19243.0	5.3617904568674976e+17
19244.0	5.3610218660386125e+17
19245.0	5.3600348526346234e+17
19246.0	5.359042774608554e+17
19247.0	5.3580721231844685e+17
19248.0	5.3571073186201594e+17
19249.0	5.356110918363817e+17
19250.0	5.355053885947903e+17
19251.0	5.3539720190580045e+17
19252.0	5.352815638260394e+17
19253.0	5.352180883477845e+17
19254.0	5.3512393531064314e+17
19255.0	5.3500100641204883e+17
19256.0	5.3492556689134925e+17
19257.0	5.348304239285587e+17
19258.0	5.3473292187948365e+17
19259.0	5.346254271807487e+17
19260.0	5.3450855429789005e+17
19261.0	5.344378703489706e+17
19262.0	5.343336511919445e+17
19263.0	5.3423294937825274e+17
19264.0	5.340715060734632e+17
19265.0	5.3401982574701216e+17
19266.0	5.339091173725525e+17
19267.0	5.338539772346367e+17
19268.0	5.3375559857602554e+17
19269.0	5.336583627953492e+17
19270.0	5.335595134659241e+17
19271.0	5.3341735766807904e+17
19272.0	5.3336108765457043e+17
19273.0	5.332270512603134e+17
19274.0	5.331133698233683e+17
19275.0	5.3307360292809376e+17
19276.0	5.329735146012671e+17
19277.0	5.328768278549844e+17
19278.0	5.3277876873243296e+17
19279.0	5.326797279330303e+17
19280.0	5.325739756180821e+17
19281.0	5.3248575689195514e+17
19282.0	5.3239024196430496e+17
19283.0	5.32285836230656e+17
19284.0	5.321894954445483e+17
19285.0	5.3207774856041805e+17
19286.0	5.319941003673599e+17
19287.0	5.318989748808361e+17
19288.0	5.314829434049874e+17
19289.0	5.309380602538652e+17
19290.0	5.3160588285924685e+17
19291.0	5.314795710447616e+17
19292.0	5.314160792087209e+17
19293.0	5.313182574138708e+17
19294.0	5.312199664861183e+17
19295.0	5.311244804292607e+17
19296.0	5.310053535274325e+17
19297.0	5.309223901244073e+17
19298.0	5.3082797431412045e+17
19299.0	5.3071081321267194e+17
19300.0	5.306355494333098e+17
19301.0	5.305389673349119e+17
19302.0	5.3044025096492365e+17
19303.0	5.303342253910698e+17
19304.0	5.3024296111090336e+17
19305.0	5.30146825216546e+17
19306.0	5.3005018495713274e+17
19307.0	5.299463537732266e+17
19308.0	5.298512956751871e+17
19309.0	5.297336575415636e+17
19310.0	5.296268155464361e+17
19311.0	5.2955367044983456e+17
19312.0	5.2946209621060256e+17
19313.0	5.293617054744575e+17
19314.0	5.269323966840814e+17
19315.0	5.2705637464801664e+17
19316.0	5.290376500521643e+17
19317.0	5.289739315139925e+17
19318.0	5.2887750768066554e+17
19319.0	5.287828382547968e+17
19320.0	5.2867646007978656e+17
19321.0	5.2856834210747725e+17
19322.0	5.284788069291349e+17
19323.0	5.283824815221417e+17
19324.0	5.282901371387902e+17
19325.0	5.281762534664873e+17
19326.0	5.2809582985434445e+17
19327.0	5.279956412137471e+17
19328.0	5.278609167439189e+17
19329.0	5.278018566094847e+17
19330.0	5.2769898655034016e+17
19331.0	5.2759890542373536e+17
19332.0	5.2750730497010336e+17
19333.0	5.2740703405124256e+17
19334.0	5.2730973360837965e+17
19335.0	5.271343596219051e+17
19336.0	5.271123692355583e+17
19337.0	5.2701460867754656e+17
19338.0	5.268883147587583e+17
19339.0	5.268172271080788e+17
19340.0	5.2669097527214074e+17
19341.0	5.2658276474552314e+17
19342.0	5.2646302323834874e+17
19343.0	5.26420110615074e+17
19344.0	5.2629029739560954e+17
19345.0	5.259323478026918e+17
19346.0	5.2599474765168634e+17
19347.0	5.2597805613929805e+17
19348.0	5.2592475359586976e+17
19349.0	5.2582133464214176e+17
19350.0	5.257088689242111e+17
19351.0	5.2562090465252685e+17
19352.0	5.254780356831913e+17
19353.0	5.2542652424738125e+17
19354.0	5.2532402391613434e+17
19355.0	5.252088986599424e+17
19356.0	5.251210816782334e+17
19357.0	5.250205540679679e+17
19358.0	5.2491884345425914e+17
19359.0	5.248042950546772e+17
19360.0	5.246808727661226e+17
19361.0	5.246103361770836e+17
19362.0	5.2451337715056634e+17
19363.0	5.2441131072006816e+17
19364.0	5.2430882863404365e+17
19365.0	5.2420616074035194e+17
19366.0	5.241031977773738e+17
19367.0	5.2399878036957856e+17
19368.0	5.2389057648394234e+17
19369.0	5.2378015674750285e+17
19370.0	5.2367538387244365e+17
19371.0	5.235683584464212e+17
19372.0	5.234707433608532e+17
19373.0	5.233630455878995e+17
19374.0	5.232588146868223e+17
19375.0	5.2315286684740256e+17
19376.0	5.230402913086122e+17
19377.0	5.229294331275945e+17
19378.0	5.2282207781956256e+17
19379.0	5.2271413677697696e+17
19380.0	5.22604180021794e+17
19381.0	5.224936484372479e+17
19382.0	5.2236411945178445e+17
19383.0	5.2224781028338336e+17
19384.0	5.2214759004569594e+17
19385.0	5.2203655507476474e+17
19386.0	5.2192141171316045e+17
19387.0	5.2180126937033376e+17
19388.0	5.216854167519232e+17
19389.0	5.2156759532721485e+17
19390.0	5.214428377819817e+17
19391.0	5.202747987765916e+17
19392.0	5.2116748193409683e+17
19393.0	5.2108341004642976e+17
19394.0	5.209611934804651e+17
19395.0	5.2082527034845856e+17
19396.0	5.207082559777449e+17
19397.0	5.205847407853568e+17
19398.0	5.2044004351890765e+17
19399.0	5.202060461648553e+17
19400.0	5.201570150307156e+17
19401.0	5.200415607313747e+17
19402.0	5.199043488994644e+17
19403.0	5.1975967805713056e+17
19404.0	5.196170473941674e+17
19405.0	5.19457297469713e+17
19406.0	5.193014829907966e+17
19407.0	5.191328238753108e+17
19408.0	5.18877406420446e+17
19409.0	5.18797988462592e+17
19410.0	5.1863248276466336e+17
19411.0	5.184510299034964e+17
19412.0	5.182428905035092e+17
19413.0	5.180361751396351e+17
19414.0	5.1781594006596256e+17
19415.0	5.1760147908089165e+17
19416.0	5.1733261286987085e+17
19417.0	5.170820814296405e+17
19418.0	5.1682789472337914e+17
19419.0	5.165216785847636e+17
19420.0	5.162132663085738e+17
19421.0	5.159490617169236e+17
19422.0	5.1566476221480954e+17
19423.0	5.153586533804713e+17
19424.0	5.150390465768106e+17
19425.0	5.1469999288265376e+17
19426.0	5.143159525517993e+17
19427.0	5.139230934870698e+17
19428.0	5.134793110279508e+17
19429.0	5.129729199833087e+17
19430.0	5.123786129014785e+17
19431.0	5.11558107983599e+17
19432.0	5.109722060073641e+17
19433.0	5.100321272845654e+17
19434.0	5.089348622658216e+17
19435.0	5.0792664693473274e+17
19436.0	5.0701534015870285e+17
19437.0	5.061092824842238e+17
19438.0	5.0285686341413555e+17
19439.0	5.03286704565999e+17
19440.0	5.0142010443912506e+17
19441.0	4.988665882563914e+17
19442.0	4.9530863811734246e+17
19443.0	4.9131523610596704e+17
19444.0	4.883087152381951e+17
19445.0	4.8416724695558835e+17
19446.0	4.776750538730146e+17
19447.0	4.6836914089273946e+17
19448.0	4.5959984912356736e+17
19449.0	4.4607344584512826e+17
19450.0	4.134129200616829e+17
19451.0	3.912413281080693e+17
19452.0	4.3376821312771405e+17
19453.0	4.537913347233112e+17
19454.0	4.6369920456676634e+17
19455.0	4.726323041097032e+17
19456.0	4.805582726190424e+17
19457.0	4.854579632013314e+17
19458.0	4.815324171294159e+17
19459.0	4.916704862448322e+17
19460.0	4.956849316386125e+17
19461.0	4.9850335090442234e+17
19462.0	5.005036210530987e+17
19463.0	5.020950982557693e+17
19464.0	5.03221161365777e+17
19465.0	5.041021594719573e+17
19466.0	5.048495169863679e+17
19467.0	5.0550169833308134e+17
19468.0	5.0642642995773434e+17
19469.0	5.071895544900266e+17
19470.0	5.0788821368831994e+17
19471.0	5.084351569417557e+17
19472.0	5.088529302421503e+17
19473.0	5.091872671618388e+17
19474.0	5.094346683230889e+17
19475.0	5.0957996859064294e+17
19476.0	5.098819212192425e+17
19477.0	5.100727061271893e+17
19478.0	5.102090356173483e+17
19479.0	5.103174599136596e+17
19480.0	5.104426681368575e+17
19481.0	5.1052359660339194e+17
19482.0	5.1062073360820896e+17
19483.0	5.107403504047445e+17
19484.0	5.108421418287102e+17
19485.0	5.1092000502797645e+17
19486.0	5.109412937771692e+17
19487.0	5.11033184826163e+17
19488.0	5.110584797648212e+17
19489.0	5.1106303072447136e+17
19490.0	5.1088797382737894e+17
19491.0	5.11099402120943e+17
19492.0	5.1109123930630816e+17
19493.0	5.1108022911849805e+17
19494.0	5.110641551474687e+17
19495.0	5.110331169483433e+17
19496.0	5.109358065789609e+17
19497.0	5.1096093563289594e+17
19498.0	5.107852061791573e+17
19499.0	5.091770822033396e+17
19500.0	5.108324776629589e+17
19501.0	5.1079274117638816e+17
19502.0	5.1074263671985485e+17
19503.0	5.106978019868671e+17
19504.0	5.106421899897513e+17
19505.0	5.105830742108842e+17
19506.0	5.1052471361645216e+17
19507.0	5.104591006509738e+17
19508.0	5.103984392011775e+17
19509.0	5.103304855344468e+17
19510.0	5.1022031577852576e+17
19511.0	5.0638228735480826e+17
19512.0	5.098490514374649e+17
19513.0	5.0954272743533146e+17
19514.0	5.096323588729511e+17
19515.0	5.0985044380658355e+17
19516.0	5.098480840911529e+17
19517.0	5.0977323757513376e+17
19518.0	5.0970176244066976e+17
19519.0	5.096251123739307e+17
19520.0	5.095271103638185e+17
19521.0	5.0949314286277965e+17
19522.0	5.094069269168128e+17
19523.0	5.0933015165009914e+17
19524.0	5.092379338648234e+17
19525.0	5.0917799921800525e+17
19526.0	5.091003100823551e+17
19527.0	5.0902514612742816e+17
19528.0	5.089446914774356e+17
19529.0	5.0886192632517965e+17
19530.0	5.087857768486227e+17
19531.0	5.087038394422613e+17
19532.0	5.086215345449641e+17
19533.0	5.0853887250268154e+17
19534.0	5.0845553098315085e+17
19535.0	5.083698272316074e+17
19536.0	5.0828677847449594e+17
19537.0	5.0821145814193485e+17
19538.0	5.080841171850581e+17
19539.0	5.07966981598959e+17
19540.0	5.0795456058709325e+17
19541.0	5.0786725803677005e+17
19542.0	5.0778513034881696e+17
19543.0	5.0767632479027194e+17
19544.0	5.076164284514303e+17
19545.0	5.074630301712382e+17
19546.0	5.0732333027819514e+17
19547.0	5.073612488136021e+17
19548.0	5.072762839586132e+17
19549.0	5.071768980378964e+17
19550.0	5.071036232673962e+17
19551.0	5.0701802311516154e+17
19552.0	5.069340455294293e+17
19553.0	5.0684399018748576e+17
19554.0	5.067546896105471e+17
19555.0	5.0666792574866765e+17
19556.0	5.0658393320325114e+17
19557.0	5.064978273577643e+17
19558.0	5.0641062910580045e+17
19559.0	5.063235746485589e+17
19560.0	5.0622264536378016e+17
19561.0	5.0614476650577914e+17
19562.0	5.0604975734128634e+17
19563.0	5.0597307588717216e+17
19564.0	5.058851734115668e+17
19565.0	5.05797165449216e+17
19566.0	5.0570512906758816e+17
19567.0	5.0562081209275725e+17
19568.0	5.055298165276671e+17
19569.0	5.054416210100223e+17
19570.0	5.0535605091696634e+17
19571.0	5.052672875604649e+17
19572.0	5.0517485915122336e+17
19573.0	5.0508566056577696e+17
19574.0	5.049891468345343e+17
19575.0	5.049143181443071e+17
19576.0	5.048233197830143e+17
19577.0	5.047290602105513e+17
19578.0	5.0464252696548685e+17
19579.0	5.045560109170687e+17
19580.0	5.044675792601087e+17
19581.0	5.043801917751294e+17
19582.0	5.0429378198241274e+17
19583.0	5.04205016179234e+17
19584.0	5.041155611820032e+17
19585.0	5.040118214339242e+17
19586.0	5.0391896758244685e+17
19587.0	5.0384478355674445e+17
19588.0	5.0369736719291725e+17
19589.0	5.036677848367103e+17
19590.0	5.035674226218324e+17
19591.0	5.0349490785921683e+17
19592.0	5.0340673631901e+17
19593.0	5.0331293630245536e+17
19594.0	5.031924288454655e+17
19595.0	5.0313670541967366e+17
19596.0	5.030417895085396e+17
19597.0	5.0296004811598496e+17
19598.0	5.028014158337364e+17
19599.0	5.027826305247914e+17
19600.0	5.02695202075443e+17
19601.0	5.025970493500074e+17
19602.0	5.0250780945066656e+17
19603.0	5.023649787194025e+17
19604.0	5.0233069042401274e+17
19605.0	5.022095873059499e+17
19606.0	5.021597793867092e+17
19607.0	5.020721122115582e+17
19608.0	5.0198083017550496e+17
19609.0	5.018870514799957e+17
19610.0	5.0179116948084045e+17
19611.0	5.016947239070377e+17
19612.0	5.0162694388449274e+17
19613.0	5.0153647477445965e+17
19614.0	5.0144353556889594e+17
19615.0	5.013591646972585e+17
19616.0	5.012477216205481e+17
19617.0	5.0115845963120634e+17
19618.0	5.010071682897236e+17
19619.0	5.008945369666899e+17
19620.0	5.008138603681108e+17
19621.0	5.007953498559828e+17
19622.0	5.0073590838941005e+17
19623.0	5.006455713300479e+17
19624.0	5.0055252516973216e+17
19625.0	5.0046886208689485e+17
19626.0	5.0037853921826125e+17
19627.0	5.0028893944763725e+17
19628.0	5.001832261397162e+17
19629.0	5.0002512583502496e+17
19630.0	4.999203781257897e+17
19631.0	4.992587356176383e+17
19632.0	4.9982955270963194e+17
19633.0	4.9974676805386234e+17
19634.0	4.99666787500032e+17
19635.0	4.99570747445521e+17
19636.0	4.994581675726164e+17
19637.0	4.993278496385706e+17
19638.0	4.993086712534357e+17
19639.0	4.9922253814497274e+17
19640.0	4.991196152375978e+17
19641.0	4.98866099619977e+17
19642.0	4.9895363775037434e+17
19643.0	4.9886473409440416e+17
19644.0	4.9876999238669645e+17
19645.0	4.986536321875966e+17
19646.0	4.985684034409812e+17
19647.0	4.985131213957802e+17
19648.0	4.9842457369640954e+17
19649.0	4.983354381653334e+17
19650.0	4.982474483083945e+17
19651.0	4.981581332611071e+17
19652.0	4.980692351975423e+17
19653.0	4.97980901827106e+17
19654.0	4.978918256454313e+17
19655.0	4.9780262237634554e+17
