# Flux units: erg / (cm m2 s)
# Wavelength units: Angstrom
wave	flux
19000.0	6.230839190880255e+17
19001.0	6.229565141680127e+17
19002.0	6.228501075416404e+17
19003.0	6.22732468359441e+17
19004.0	6.226154212032511e+17
19005.0	6.224978596855807e+17
19006.0	6.223809336049663e+17
19007.0	6.222601724624895e+17
19008.0	6.221394359965011e+17
19009.0	6.220272938691242e+17
19010.0	6.218587370247507e+17
19011.0	6.217929915891711e+17
19012.0	6.216665751268009e+17
19013.0	6.215610830684159e+17
19014.0	6.214376625274879e+17
19015.0	6.213234331746303e+17
19016.0	6.2120543125504e+17
19017.0	6.210738957145428e+17
19018.0	6.209751225117353e+17
19019.0	6.208585190430036e+17
19020.0	6.207353770737664e+17
19021.0	6.206216961960618e+17
19022.0	6.205089015048874e+17
19023.0	6.203877963595775e+17
19024.0	6.202730292270419e+17
19025.0	6.201580686671871e+17
19026.0	6.200388631920639e+17
19027.0	6.199227002650623e+17
19028.0	6.198082398759594e+17
19029.0	6.196897655379284e+17
19030.0	6.195760288759807e+17
19031.0	6.194599836691114e+17
19032.0	6.193430013848233e+17
19033.0	6.192163319360169e+17
19034.0	6.191078124989097e+17
19035.0	6.189893501845503e+17
19036.0	6.185487388988754e+17
19037.0	6.187588211703808e+17
19038.0	6.186410333700095e+17
19039.0	6.185265315971071e+17
19040.0	6.184105888710655e+17
19041.0	6.182934300065791e+17
19042.0	6.181678569488383e+17
19043.0	6.180610490673833e+17
19044.0	6.179436348396884e+17
19045.0	6.178284731629568e+17
19046.0	6.177052552069119e+17
19047.0	6.175956034475348e+17
19048.0	6.174557258558121e+17
19049.0	6.173552355049472e+17
19050.0	6.172412852830207e+17
19051.0	6.170788335976447e+17
19052.0	6.170109338976255e+17
19053.0	6.168967225103699e+17
19054.0	6.167808371763882e+17
19055.0	6.166377567442262e+17
19056.0	6.165463559394644e+17
19057.0	6.16432258916898e+17
19058.0	6.163140523152724e+17
19059.0	6.162004844740607e+17
19060.0	6.160822445976234e+17
19061.0	6.159688677370538e+17
19062.0	6.158521427034112e+17
19063.0	6.157366262584659e+17
19064.0	6.156063978728105e+17
19065.0	6.154847524312404e+17
19066.0	6.153818312015871e+17
19067.0	6.152713338705236e+17
19068.0	6.151566830600191e+17
19069.0	6.150410558155433e+17
19070.0	6.14921913045265e+17
19071.0	6.148086887874559e+17
19072.0	6.146935053702483e+17
19073.0	6.145768932332884e+17
19074.0	6.144621601445204e+17
19075.0	6.143463872877907e+17
19076.0	6.142281094529023e+17
19077.0	6.141139654541311e+17
19078.0	6.1399162683392e+17
19079.0	6.138831848516265e+17
19080.0	6.137662394073087e+17
19081.0	6.136467188700499e+17
19082.0	6.135290720681983e+17
19083.0	6.134087830645418e+17
19084.0	6.132787873928532e+17
19085.0	6.13188254319684e+17
19086.0	6.130316520106665e+17
19087.0	6.129495503973033e+17
19088.0	6.128353683002708e+17
19089.0	6.127027918034262e+17
19090.0	6.126086670079316e+17
19091.0	6.124939724368553e+17
19092.0	6.12372791304738e+17
19093.0	6.122656453623807e+17
19094.0	6.121497102559914e+17
19095.0	6.12034619323187e+17
19096.0	6.119175434360148e+17
19097.0	6.118048050883241e+17
19098.0	6.11689070399761e+17
19099.0	6.115732518251177e+17
19100.0	6.114581876659539e+17
19101.0	6.113438279401471e+17
19102.0	6.112186506848938e+17
19103.0	6.111128581745322e+17
19104.0	6.109985575185066e+17
19105.0	6.108828958108329e+17
19106.0	6.10766366371567e+17
19107.0	6.106511491203071e+17
19108.0	6.105382276213417e+17
19109.0	6.103907875596969e+17
19110.0	6.103081018195967e+17
19111.0	6.101931163735379e+17
19112.0	6.100782786368854e+17
19113.0	6.099631320596479e+17
19114.0	6.098479112432297e+17
19115.0	6.097279506535763e+17
19116.0	6.096161389674495e+17
19117.0	6.095017704336042e+17
19118.0	6.093785548543316e+17
19119.0	6.089670263832571e+17
19120.0	6.091551409875625e+17
19121.0	6.090429866267987e+17
19122.0	6.089299292323839e+17
19123.0	6.088134083914409e+17
19124.0	6.086985049440255e+17
19125.0	6.085850890065236e+17
19126.0	6.084695109053097e+17
19127.0	6.081753789759485e+17
19128.0	6.082127997173759e+17
19129.0	6.081171404357632e+17
19130.0	6.080112535535613e+17
19131.0	6.078970864162132e+17
19132.0	6.077831340272298e+17
19133.0	6.076029816799232e+17
19134.0	6.07540124721698e+17
19135.0	6.074396815567529e+17
19136.0	6.073259287467348e+17
19137.0	6.071941641972394e+17
19138.0	6.070917981536255e+17
19139.0	6.069826379666772e+17
19140.0	6.068684325912575e+17
19141.0	6.067541259233961e+17
19142.0	6.066369307781802e+17
19143.0	6.06518657557026e+17
19144.0	6.064067999432701e+17
19145.0	6.062964693357908e+17
19146.0	6.061188310543018e+17
19147.0	6.06058839015424e+17
19148.0	6.059539210174464e+17
19149.0	6.058394407753044e+17
19150.0	6.057247392836266e+17
19151.0	6.056114121954644e+17
19152.0	6.054951128836778e+17
19153.0	6.053813280571391e+17
19154.0	6.052560767025151e+17
19155.0	6.051557644697599e+17
19156.0	6.050414273232895e+17
19157.0	6.049270224388095e+17
19158.0	6.047907720112808e+17
19159.0	6.046977348687188e+17
19160.0	6.04581675471121e+17
19161.0	6.044689073438719e+17
19162.0	6.043070973171028e+17
19163.0	6.042386701833558e+17
19164.0	6.041253937064618e+17
19165.0	6.04009820009267e+17
19166.0	6.038858033878356e+17
19167.0	6.037791151139497e+17
19168.0	6.036527110946815e+17
19169.0	6.035472102981631e+17
19170.0	6.034426748207103e+17
19171.0	6.033259565678591e+17
19172.0	6.032146932869802e+17
19173.0	6.031017086637396e+17
19174.0	6.029817558335487e+17
19175.0	6.028742856714921e+17
19176.0	6.027602771487401e+17
19177.0	6.026311638887082e+17
19178.0	6.025332444364799e+17
19179.0	6.024162490799444e+17
19180.0	6.022984322689705e+17
19181.0	6.021815406515539e+17
19182.0	6.020677965097642e+17
19183.0	6.019654208192512e+17
19184.0	6.018372306556244e+17
19185.0	6.01737229640226e+17
19186.0	6.016257481856339e+17
19187.0	6.015036298362879e+17
19188.0	6.013985307841876e+17
19189.0	6.012846125787818e+17
19190.0	6.011712111116287e+17
19191.0	6.010553533901482e+17
19192.0	6.009456327742804e+17
19193.0	6.008270838475433e+17
19194.0	6.0071509243549e+17
19195.0	6.006050949955583e+17
19196.0	6.004908333465599e+17
19197.0	6.00378591674368e+17
19198.0	6.002661807620095e+17
19199.0	5.998442171422035e+17
19200.0	5.998452671862102e+17
19201.0	5.999268776465748e+17
19202.0	5.998140352102399e+17
19203.0	5.997003491595604e+17
19204.0	5.995847387622057e+17
19205.0	5.994732519948287e+17
19206.0	5.99359596073233e+17
19207.0	5.992391363614036e+17
19208.0	5.991112503547219e+17
19209.0	5.990207409793706e+17
19210.0	5.989078445064193e+17
19211.0	5.98795838763827e+17
19212.0	5.986834047827967e+17
19213.0	5.985592196202495e+17
19214.0	5.984449478350166e+17
19215.0	5.983439441013418e+17
19216.0	5.982272599621631e+17
19217.0	5.981180507717631e+17
19218.0	5.979189654061053e+17
19219.0	5.978758571884544e+17
19220.0	5.977776007238995e+17
19221.0	5.976317282134698e+17
19222.0	5.975545355436031e+17
19223.0	5.974390220346708e+17
19224.0	5.973166707616425e+17
19225.0	5.971981205766143e+17
19226.0	5.971002880862889e+17
19227.0	5.969875008749567e+17
19228.0	5.968776939263316e+17
19229.0	5.967649573262676e+17
19230.0	5.966495983774378e+17
19231.0	5.965364852686847e+17
19232.0	5.964199212963158e+17
19233.0	5.963062095205716e+17
19234.0	5.961983766910292e+17
19235.0	5.960845523681279e+17
19236.0	5.959760924202324e+17
19237.0	5.958613468883626e+17
19238.0	5.95740922548497e+17
19239.0	5.956383955834195e+17
19240.0	5.954916858200063e+17
19241.0	5.954017499458218e+17
19242.0	5.952966601910954e+17
19243.0	5.951675469310633e+17
19244.0	5.950743515234301e+17
19245.0	5.949616371531775e+17
19246.0	5.948478765137919e+17
19247.0	5.947351271910057e+17
19248.0	5.946245323423744e+17
19249.0	5.945117606499668e+17
19250.0	5.943970752364544e+17
19251.0	5.942772201335465e+17
19252.0	5.941363387749716e+17
19253.0	5.940588985712639e+17
19254.0	5.939438757259946e+17
19255.0	5.938133121455444e+17
19256.0	5.937212770222079e+17
19257.0	5.93610651345442e+17
19258.0	5.934980434406058e+17
19259.0	5.93376935219473e+17
19260.0	5.932673272206676e+17
19261.0	5.931591155056637e+17
19262.0	5.930413374220969e+17
19263.0	5.929298739331072e+17
19264.0	5.927666248406356e+17
19265.0	5.926891229806591e+17
19266.0	5.92581006266641e+17
19267.0	5.924847525123412e+17
19268.0	5.923712237480618e+17
19269.0	5.92258559779362e+17
19270.0	5.921461841690623e+17
19271.0	5.919984763011073e+17
19272.0	5.919170306768895e+17
19273.0	5.909273429147635e+17
19274.0	5.912784653691556e+17
19275.0	5.915828758598996e+17
19276.0	5.914679408852991e+17
19277.0	5.913553041096701e+17
19278.0	5.912431572986537e+17
19279.0	5.911248735917395e+17
19280.0	5.910076423755092e+17
19281.0	5.909038617329663e+17
19282.0	5.907925206477482e+17
19283.0	5.90675020157201e+17
19284.0	5.905548587302911e+17
19285.0	5.904294477124947e+17
19286.0	5.9033696876189e+17
19287.0	5.902278322028543e+17
19288.0	5.900418505419433e+17
19289.0	5.897706034342565e+17
19290.0	5.898885066478932e+17
19291.0	5.897464917786625e+17
19292.0	5.896618052157439e+17
19293.0	5.895478031941631e+17
19294.0	5.894341063081983e+17
19295.0	5.89322033107217e+17
19296.0	5.892078372388863e+17
19297.0	5.890917702915412e+17
19298.0	5.88976166535168e+17
19299.0	5.888600930866516e+17
19300.0	5.887377063717546e+17
19301.0	5.886228673069055e+17
19302.0	5.885088126468095e+17
19303.0	5.88385213218816e+17
19304.0	5.882749862106452e+17
19305.0	5.881663265439744e+17
19306.0	5.88053094876228e+17
19307.0	5.879338780764842e+17
19308.0	5.878226319223465e+17
19309.0	5.877011682339497e+17
19310.0	5.875802070930772e+17
19311.0	5.874785881948159e+17
19312.0	5.873652653009578e+17
19313.0	5.872382278718806e+17
19314.0	5.869857960624123e+17
19315.0	5.868836828654253e+17
19316.0	5.869092182775124e+17
19317.0	5.867931042840576e+17
19318.0	5.866775074482857e+17
19319.0	5.865640420879018e+17
19320.0	5.864450099773439e+17
19321.0	5.863331645969748e+17
19322.0	5.862020940649812e+17
19323.0	5.860958735258966e+17
19324.0	5.859852699391316e+17
19325.0	5.858620179393193e+17
19326.0	5.857530538360831e+17
19327.0	5.856350791095636e+17
19328.0	5.855205170085887e+17
19329.0	5.854036163035135e+17
19330.0	5.852820001521663e+17
19331.0	5.851647394359977e+17
19332.0	5.850519980823894e+17
19333.0	5.849325080936447e+17
19334.0	5.848114555169449e+17
19335.0	5.846981315046057e+17
19336.0	5.845796608715434e+17
19337.0	5.844599622860799e+17
19338.0	5.843167221208403e+17
19339.0	5.84219782877457e+17
19340.0	5.840941573909161e+17
19341.0	5.839811712996692e+17
19342.0	5.838171182989311e+17
19343.0	5.837414164944211e+17
19344.0	5.836192696937129e+17
19345.0	5.83268740943052e+17
19346.0	5.83322887590161e+17
19347.0	5.832493336887296e+17
19348.0	5.831345820751188e+17
19349.0	5.830082971740841e+17
19350.0	5.82886162047522e+17
19351.0	5.827609210388479e+17
19352.0	5.826338701879977e+17
19353.0	5.825177188652372e+17
19354.0	5.823924237500415e+17
19355.0	5.8225643239069e+17
19356.0	5.821295093962067e+17
19357.0	5.81999895126562e+17
19358.0	5.818661138158932e+17
19359.0	5.816982309262676e+17
19360.0	5.816124316144979e+17
19361.0	5.814818311241727e+17
19362.0	5.81357790175778e+17
19363.0	5.812265664817834e+17
19364.0	5.810937223184383e+17
19365.0	5.80960536948463e+17
19366.0	5.808138987678378e+17
19367.0	5.806794314088448e+17
19368.0	5.805440443787945e+17
19369.0	5.803906100974934e+17
19370.0	5.801628487647231e+17
19371.0	5.801246929016148e+17
19372.0	5.799906416175786e+17
19373.0	5.798462191479466e+17
19374.0	5.796972534082218e+17
19375.0	5.795445088103082e+17
19376.0	5.793986205712383e+17
19377.0	5.792502708349609e+17
19378.0	5.791015371101524e+17
19379.0	5.789500336766975e+17
19380.0	5.787976862094675e+17
19381.0	5.786417949747881e+17
19382.0	5.784756896311977e+17
19383.0	5.783141132970666e+17
19384.0	5.781512444881578e+17
19385.0	5.779783906492415e+17
19386.0	5.778114425301674e+17
19387.0	5.776409508533588e+17
19388.0	5.774673233051648e+17
19389.0	5.772911667314687e+17
19390.0	5.771052433014783e+17
19391.0	5.766078333801809e+17
19392.0	5.767134075071146e+17
19393.0	5.765220058267648e+17
19394.0	5.7632496105990816e+17
19395.0	5.7610462028977485e+17
19396.0	5.7586616474009594e+17
19397.0	5.7565311031487136e+17
19398.0	5.754282389973673e+17
19399.0	5.750997427858087e+17
19400.0	5.7493979593878176e+17
19401.0	5.7469223140939085e+17
19402.0	5.744208029679615e+17
19403.0	5.741634051025579e+17
19404.0	5.7385761650333005e+17
19405.0	5.73571568186163e+17
19406.0	5.732156533899263e+17
19407.0	5.7291086002913274e+17
19408.0	5.725098180870145e+17
19409.0	5.72255890239215e+17
19410.0	5.7192818542291616e+17
19411.0	5.715308509659135e+17
19412.0	5.7116515868781216e+17
19413.0	5.7078395042092365e+17
19414.0	5.7034599531806714e+17
19415.0	5.699013180041898e+17
19416.0	5.6943238489047014e+17
19417.0	5.689119278978389e+17
19418.0	5.684021779846485e+17
19419.0	5.678052992352255e+17
19420.0	5.6718352959842976e+17
19421.0	5.6650920575194445e+17
19422.0	5.657505895372115e+17
19423.0	5.6492079954875725e+17
19424.0	5.640198458529108e+17
19425.0	5.630080853562705e+17
19426.0	5.618576211137878e+17
19427.0	5.6068756185197216e+17
19428.0	5.597199019453098e+17
19429.0	5.5864250625338016e+17
19430.0	5.574507588048214e+17
19431.0	5.561245282686294e+17
19432.0	5.547927174206803e+17
19433.0	5.532301921703253e+17
19434.0	5.514873805646507e+17
19435.0	5.494891236818942e+17
19436.0	5.4715051196197523e+17
19437.0	5.443671807754241e+17
19438.0	5.4048716387341606e+17
19439.0	5.378379072492886e+17
19440.0	5.348150384525312e+17
19441.0	5.314004113861289e+17
19442.0	5.274269179183102e+17
19443.0	5.2259198997626886e+17
19444.0	5.16212854987161e+17
19445.0	5.095274032660482e+17
19446.0	5.024414422794238e+17
19447.0	4.931448435900412e+17
19448.0	4.8189174406185005e+17
19449.0	4.6617245687043405e+17
19450.0	4.3354319452023334e+17
19451.0	4.223028435091448e+17
19452.0	4.5174806981290714e+17
19453.0	4.7509595334464896e+17
19454.0	4.872929012263589e+17
19455.0	4.9763045130021536e+17
19456.0	5.053829702396589e+17
19457.0	5.1176367795295514e+17
19458.0	5.1821561857966106e+17
19459.0	5.2373142326913696e+17
19460.0	5.2787544728098106e+17
19461.0	5.313147818038614e+17
19462.0	5.3431634318677325e+17
19463.0	5.370061620161191e+17
19464.0	5.4022386839715866e+17
19465.0	5.431593973142869e+17
19466.0	5.45463837200657e+17
19467.0	5.47385762504158e+17
19468.0	5.490448192416427e+17
19469.0	5.503354746699774e+17
19470.0	5.517134550182571e+17
19471.0	5.528564253676885e+17
19472.0	5.538390104255145e+17
19473.0	5.5476623738142714e+17
19474.0	5.555757725865301e+17
19475.0	5.5630691485177146e+17
19476.0	5.573781340116308e+17
19477.0	5.582019229996372e+17
19478.0	5.589585632777556e+17
19479.0	5.5959783085178854e+17
19480.0	5.601691135814313e+17
19481.0	5.606704265822207e+17
19482.0	5.611077780548266e+17
19483.0	5.614776723264853e+17
19484.0	5.618315603651241e+17
19485.0	5.621161209626624e+17
19486.0	5.6240602111890765e+17
19487.0	5.626277212629674e+17
19488.0	5.6286695793186125e+17
19489.0	5.6305265137418234e+17
19490.0	5.630640984686588e+17
19491.0	5.6335858929063245e+17
19492.0	5.635227496655529e+17
19493.0	5.636378337476606e+17
19494.0	5.637344524763135e+17
19495.0	5.6383930546257914e+17
19496.0	5.6388984347033574e+17
19497.0	5.640553410592768e+17
19498.0	5.641143261855744e+17
19499.0	5.6370833014128576e+17
19500.0	5.642388366163967e+17
19501.0	5.642952063844351e+17
19502.0	5.6432227991770445e+17
19503.0	5.64334747066914e+17
19504.0	5.643676195050836e+17
19505.0	5.643735201917609e+17
19506.0	5.6436866717231776e+17
19507.0	5.6436969519622816e+17
19508.0	5.6439221630184096e+17
19509.0	5.6437116110547616e+17
19510.0	5.643266083695273e+17
19511.0	5.639247416175272e+17
19512.0	5.6423437520513664e+17
19513.0	5.641051858184871e+17
19514.0	5.641442431773353e+17
19515.0	5.641369199924568e+17
19516.0	5.641442756132863e+17
19517.0	5.6408978503325005e+17
19518.0	5.6404574819669325e+17
19519.0	5.6399389191918925e+17
19520.0	5.639521485979647e+17
19521.0	5.6389766731530234e+17
19522.0	5.638325698297856e+17
19523.0	5.6377592428625914e+17
19524.0	5.637119259880106e+17
19525.0	5.636397517329747e+17
19526.0	5.63578139714082e+17
19527.0	5.63508383125777e+17
19528.0	5.634390283517951e+17
19529.0	5.633670947099989e+17
19530.0	5.6329497204490234e+17
19531.0	5.632292150749866e+17
19532.0	5.631614045738324e+17
19533.0	5.630853306646528e+17
19534.0	5.630077285608105e+17
19535.0	5.629265634656256e+17
19536.0	5.6284537642024954e+17
19537.0	5.627688802844671e+17
19538.0	5.626845414293503e+17
19539.0	5.6254325664863597e+17
19540.0	5.625194109119145e+17
19541.0	5.624388768497664e+17
19542.0	5.6235372541815456e+17
19543.0	5.622684051658068e+17
19544.0	5.621831363635883e+17
19545.0	5.620616944156669e+17
19546.0	5.619069989770579e+17
19547.0	5.619210556276735e+17
19548.0	5.6184374174242125e+17
19549.0	5.6174780598626963e+17
19550.0	5.6167040122443085e+17
19551.0	5.6158111686546765e+17
19552.0	5.6149091038877005e+17
19553.0	5.613985987908947e+17
19554.0	5.6130498884621645e+17
19555.0	5.612168287704404e+17
19556.0	5.611266615803903e+17
19557.0	5.610410404566356e+17
19558.0	5.6095412287351456e+17
19559.0	5.608582787629055e+17
19560.0	5.6076579030521165e+17
19561.0	5.6067234449762976e+17
19562.0	5.605811083892051e+17
19563.0	5.604874791507283e+17
19564.0	5.6039377084962125e+17
19565.0	5.6029886549415245e+17
19566.0	5.602016381719892e+17
19567.0	5.601096348554581e+17
19568.0	5.6001175965313696e+17
19569.0	5.5991713860157434e+17
19570.0	5.5982421120996685e+17
19571.0	5.5972857010367136e+17
19572.0	5.596284380162729e+17
19573.0	5.5953518605544096e+17
19574.0	5.594290348621823e+17
19575.0	5.5934342345523194e+17
19576.0	5.59247029121843e+17
19577.0	5.591378432098303e+17
19578.0	5.590489886971221e+17
19579.0	5.5895341008595616e+17
19580.0	5.5885688251351034e+17
19581.0	5.587604284112896e+17
19582.0	5.586649318686719e+17
19583.0	5.5856736767399245e+17
19584.0	5.584695190355967e+17
19585.0	5.58359364309265e+17
19586.0	5.5825766823581e+17
19587.0	5.5817160831795194e+17
19588.0	5.580250057190059e+17
19589.0	5.579754315623081e+17
19590.0	5.5787199722946554e+17
19591.0	5.5778204045366605e+17
19592.0	5.5768420992068256e+17
19593.0	5.57585930457361e+17
19594.0	5.5746221442771616e+17
19595.0	5.573885928581802e+17
19596.0	5.572262003124905e+17
19597.0	5.571916568636073e+17
19598.0	5.5706386012569594e+17
19599.0	5.5699489430350496e+17
19600.0	5.5689653899318605e+17
19601.0	5.567904330984105e+17
19602.0	5.566941457896788e+17
19603.0	5.5655329504952294e+17
19604.0	5.5649485769932794e+17
19605.0	5.56367293116143e+17
19606.0	5.562989621717673e+17
19607.0	5.5620101783333555e+17
19608.0	5.5610063185073485e+17
19609.0	5.559964428926975e+17
19610.0	5.559032692954452e+17
19611.0	5.55802526097954e+17
19612.0	5.55704309129762e+17
19613.0	5.5560288848226976e+17
19614.0	5.555003701155156e+17
19615.0	5.5540503554293754e+17
19616.0	5.5530301664788474e+17
19617.0	5.5520536136690336e+17
19618.0	5.550530343818579e+17
19619.0	5.5493210868285414e+17
19620.0	5.5483775396959546e+17
19621.0	5.548053313006249e+17
19622.0	5.547062004634965e+17
19623.0	5.5460655910966605e+17
19624.0	5.5450551497086285e+17
19625.0	5.5440655533124256e+17
19626.0	5.5430532881012045e+17
19627.0	5.542066757042175e+17
19628.0	5.540985482947242e+17
19629.0	5.539970657812479e+17
19630.0	5.539032349365588e+17
19631.0	5.534815872876542e+17
19632.0	5.5370563092916896e+17
19633.0	5.536011489989972e+17
19634.0	5.535060063158271e+17
19635.0	5.534016834895871e+17
19636.0	5.5330481163468794e+17
19637.0	5.531628036161536e+17
19638.0	5.531043952066558e+17
19639.0	5.5300428451020794e+17
19640.0	5.528986721452031e+17
19641.0	5.527367423710551e+17
19642.0	5.52703817224465e+17
19643.0	5.5260146257537696e+17
19644.0	5.524982309672276e+17
19645.0	5.523767115644926e+17
19646.0	5.523045884100607e+17
19647.0	5.522045643259902e+17
19648.0	5.5210389977169914e+17
19649.0	5.520034117976064e+17
19650.0	5.519039845629951e+17
19651.0	5.518031316844543e+17
19652.0	5.517028395843583e+17
19653.0	5.516032911343614e+17
19654.0	5.515021748535294e+17
19655.0	5.5140142144989856e+17
19656.0	5.513021440218453e+17
19657.0	5.512019211976703e+17
19658.0	5.5110252730777594e+17
19659.0	5.5100228581894816e+17
19660.0	5.5090262041777485e+17
19661.0	5.5080198347598496e+17
