# Flux units: erg / (cm m2 s)
# Wavelength units: Angstrom
wave	flux
19000.0	5.485724838483285e+17
19001.0	5.484564120076287e+17
19002.0	5.4836908401186125e+17
19003.0	5.4826680646806176e+17
19004.0	5.4816506810204154e+17
19005.0	5.480623224739156e+17
19006.0	5.4796205463087776e+17
19007.0	5.4785963189425485e+17
19008.0	5.477488801786538e+17
19009.0	5.476425410805758e+17
19010.0	5.474803607666687e+17
19011.0	5.4744803582498125e+17
19012.0	5.4732981824826003e+17
19013.0	5.4724877695494816e+17
19014.0	5.4714002074938016e+17
19015.0	5.4703946524699296e+17
19016.0	5.469354728620031e+17
19017.0	5.468429734991188e+17
19018.0	5.467395215501994e+17
19019.0	5.466384186212351e+17
19020.0	5.465356952928255e+17
19021.0	5.4643672418877434e+17
19022.0	5.463345325583017e+17
19023.0	5.4622868048882336e+17
19024.0	5.4612911211588256e+17
19025.0	5.460306122418857e+17
19026.0	5.459248978853887e+17
19027.0	5.4581798123165e+17
19028.0	5.4572670220151456e+17
19029.0	5.456227660201982e+17
19030.0	5.4552574729475405e+17
19031.0	5.454244540142932e+17
19032.0	5.4532204602763936e+17
19033.0	5.4520864665763834e+17
19034.0	5.4511845325318816e+17
19035.0	5.450116750114815e+17
19036.0	5.440688981628242e+17
19037.0	5.448134090031103e+17
19038.0	5.4471219618338125e+17
19039.0	5.446140644993706e+17
19040.0	5.445136583841109e+17
19041.0	5.444113796519252e+17
19042.0	5.442841146119508e+17
19043.0	5.442105010115924e+17
19044.0	5.4410775146878285e+17
19045.0	5.4400794653709645e+17
19046.0	5.4389842654877005e+17
19047.0	5.438034297574741e+17
19048.0	5.436697954571604e+17
19049.0	5.435663083459923e+17
19050.0	5.434956387975167e+17
19051.0	5.432770432772775e+17
19052.0	5.4328002472837114e+17
19053.0	5.432007161020414e+17
19054.0	5.430999529816062e+17
19055.0	5.429585586596522e+17
19056.0	5.4289256869614925e+17
19057.0	5.4279653535252474e+17
19058.0	5.42680476234547e+17
19059.0	5.4258961090259616e+17
19060.0	5.424918096598356e+17
19061.0	5.4239470530068474e+17
19062.0	5.4229323082629114e+17
19063.0	5.4219283974062074e+17
19064.0	5.42073948279057e+17
19065.0	5.419676999876607e+17
19066.0	5.418780384908628e+17
19067.0	5.417888072597503e+17
19068.0	5.4169000693377696e+17
19069.0	5.415896675079508e+17
19070.0	5.414847678950058e+17
19071.0	5.4138749024119456e+17
19072.0	5.412824430586538e+17
19073.0	5.4118695735132154e+17
19074.0	5.4108726902128634e+17
19075.0	5.409868269748224e+17
19076.0	5.4088340424622074e+17
19077.0	5.407834824332628e+17
19078.0	5.406797601614505e+17
19079.0	5.405847616225279e+17
19080.0	5.4048276628548256e+17
19081.0	5.403782963090772e+17
19082.0	5.402780180501844e+17
19083.0	5.401708042300074e+17
19084.0	5.400537528795135e+17
19085.0	5.3998137107633485e+17
19086.0	5.3982565705099936e+17
19087.0	5.3975073832304634e+17
19088.0	5.3966403003569485e+17
19089.0	5.39548163576081e+17
19090.0	5.394784812269568e+17
19091.0	5.393772940623871e+17
19092.0	5.392610553582932e+17
19093.0	5.3918231079594656e+17
19094.0	5.3908235857428474e+17
19095.0	5.3898233344163834e+17
19096.0	5.3887986219089914e+17
19097.0	5.3878193407044256e+17
19098.0	5.386760015402324e+17
19099.0	5.385742926741503e+17
19100.0	5.384789662105599e+17
19101.0	5.383820556981588e+17
19102.0	5.3826420239674016e+17
19103.0	5.381823142035456e+17
19104.0	5.380829641441279e+17
19105.0	5.379696357277694e+17
19106.0	5.378795722768383e+17
19107.0	5.3777710424173216e+17
19108.0	5.37678349214242e+17
19109.0	5.3753183315776826e+17
19110.0	5.374818297140564e+17
19111.0	5.373805404181845e+17
19112.0	5.37280267751697e+17
19113.0	5.3718457079125325e+17
19114.0	5.370826631151615e+17
19115.0	5.3697731778751136e+17
19116.0	5.368831827858772e+17
19117.0	5.367836134342656e+17
19118.0	5.3667167941427194e+17
19119.0	5.3534973147217734e+17
19120.0	5.364788253163519e+17
19121.0	5.3638327452740256e+17
19122.0	5.3628900810424314e+17
19123.0	5.361895770248532e+17
19124.0	5.360865524755113e+17
19125.0	5.3599015842174285e+17
19126.0	5.358896361242623e+17
19127.0	5.35523238294323e+17
19128.0	5.3568680426646176e+17
19129.0	5.355820230726996e+17
19130.0	5.3549126637322234e+17
19131.0	5.353940877748905e+17
19132.0	5.352946283140436e+17
19133.0	5.3518640814052685e+17
19134.0	5.350941256231593e+17
19135.0	5.349966895644672e+17
19136.0	5.3489833089870496e+17
19137.0	5.34775064568354e+17
19138.0	5.3469775124234234e+17
19139.0	5.3460078969924256e+17
19140.0	5.345018764066815e+17
19141.0	5.344027599000918e+17
19142.0	5.343000110563326e+17
19143.0	5.3419586865506976e+17
19144.0	5.341000364283221e+17
19145.0	5.340064945711785e+17
19146.0	5.3381945496698886e+17
19147.0	5.3379342001329485e+17
19148.0	5.337043264951637e+17
19149.0	5.3360381237657594e+17
19150.0	5.3351048624646816e+17
19151.0	5.3341193296500045e+17
19152.0	5.3331251069364896e+17
19153.0	5.332022367092735e+17
19154.0	5.330962056828245e+17
19155.0	5.3301713550267725e+17
19156.0	5.3291795552228685e+17
19157.0	5.3281440486741325e+17
19158.0	5.3267920273626445e+17
19159.0	5.326186325824852e+17
19160.0	5.325212436398079e+17
19161.0	5.324238668606121e+17
19162.0	5.322438371267926e+17
19163.0	5.322237451523413e+17
19164.0	5.3212822945573536e+17
19165.0	5.320158342021118e+17
19166.0	5.319099487180115e+17
19167.0	5.31825018605841e+17
19168.0	5.3173318907330554e+17
19169.0	5.316331194111315e+17
19170.0	5.3153686782388896e+17
19171.0	5.314333217128447e+17
19172.0	5.3133945577581216e+17
19173.0	5.312413291948713e+17
19174.0	5.3113388161215136e+17
19175.0	5.310441812481364e+17
19176.0	5.309456808148992e+17
19177.0	5.308258234051242e+17
19178.0	5.307470608771754e+17
19179.0	5.3064368757145594e+17
19180.0	5.3055111292081485e+17
19181.0	5.3043293484045645e+17
19182.0	5.3035323425641805e+17
19183.0	5.302578140501333e+17
19184.0	5.3015860673686176e+17
19185.0	5.3005963954749434e+17
19186.0	5.299626598290772e+17
19187.0	5.2985588864778234e+17
19188.0	5.297659524240724e+17
19189.0	5.2966858494225056e+17
19190.0	5.2957005060505594e+17
19191.0	5.294672235375273e+17
19192.0	5.29373854835234e+17
19193.0	5.292734346690559e+17
19194.0	5.291735782872405e+17
19195.0	5.2907907614419616e+17
19196.0	5.2897822326565536e+17
19197.0	5.2888065438733645e+17
19198.0	5.2877961346416634e+17
19199.0	5.281911850489172e+17
19200.0	5.282440383124822e+17
19201.0	5.284864596464981e+17
19202.0	5.283921414935892e+17
19203.0	5.2829354857594874e+17
19204.0	5.281934513711785e+17
19205.0	5.2809802137818445e+17
19206.0	5.2799980273227085e+17
19207.0	5.2788729010804045e+17
19208.0	5.277701721380179e+17
19209.0	5.277067767709696e+17
19210.0	5.276088129989289e+17
19211.0	5.275129092592981e+17
19212.0	5.2741460826521594e+17
19213.0	5.27302426431761e+17
19214.0	5.2719973085566285e+17
19215.0	5.2711980972113914e+17
19216.0	5.2702397560695456e+17
19217.0	5.269249819235668e+17
19218.0	5.2670882343376186e+17
19219.0	5.267102041986388e+17
19220.0	5.266295455656619e+17
19221.0	5.264881010518698e+17
19222.0	5.2643648699542176e+17
19223.0	5.263372715731626e+17
19224.0	5.262363439661055e+17
19225.0	5.261233713665364e+17
19226.0	5.260445257913685e+17
19227.0	5.2594695712276474e+17
19228.0	5.2585276696603296e+17
19229.0	5.257551035061588e+17
19230.0	5.256563929382911e+17
19231.0	5.255583222114985e+17
19232.0	5.2546151970242554e+17
19233.0	5.2535541226973856e+17
19234.0	5.2526419209966925e+17
19235.0	5.251654700673706e+17
19236.0	5.2507265480349e+17
19237.0	5.2497294683013126e+17
19238.0	5.248638989806249e+17
19239.0	5.247806869252777e+17
19240.0	5.246819850955434e+17
19241.0	5.2458261560251725e+17
19242.0	5.244862472738132e+17
19243.0	5.2436940424041805e+17
19244.0	5.2429399359051085e+17
19245.0	5.2419587281169056e+17
19246.0	5.240967326072832e+17
19247.0	5.2400071296505165e+17
19248.0	5.2390475644709536e+17
19249.0	5.238066845319167e+17
19250.0	5.2370512896764576e+17
19251.0	5.2359371553068365e+17
19252.0	5.23477859906355e+17
19253.0	5.2341448830702925e+17
19254.0	5.2332098503748256e+17
19255.0	5.231987522535423e+17
19256.0	5.231216607363071e+17
19257.0	5.2302954599109965e+17
19258.0	5.229322466667178e+17
19259.0	5.2282538887304525e+17
19260.0	5.227176376227156e+17
19261.0	5.2263863161541965e+17
19262.0	5.225352823570432e+17
19263.0	5.2243633103612576e+17
19264.0	5.222647968650579e+17
19265.0	5.2222042224721914e+17
19266.0	5.2210957937541126e+17
19267.0	5.22057703174963e+17
19268.0	5.2195958505253536e+17
19269.0	5.218628545456809e+17
19270.0	5.217656708442793e+17
19271.0	5.216166144376832e+17
19272.0	5.2156666992394234e+17
19273.0	5.2140422536888314e+17
19274.0	5.2130812065218534e+17
19275.0	5.2128052611645434e+17
19276.0	5.211805389422591e+17
19277.0	5.210842677116926e+17
19278.0	5.209875200081919e+17
19279.0	5.2088830227906554e+17
19280.0	5.207808937732778e+17
19281.0	5.2069507544733e+17
19282.0	5.206004568424447e+17
19283.0	5.2049624530507085e+17
19284.0	5.204018197080745e+17
19285.0	5.202842639925246e+17
19286.0	5.2020629838233594e+17
19287.0	5.2011395854281376e+17
19288.0	5.1977984350180666e+17
19289.0	5.193614760083446e+17
19290.0	5.1982241764474874e+17
19291.0	5.196904858124288e+17
19292.0	5.1962880941096954e+17
19293.0	5.1953059740603725e+17
19294.0	5.194329279343274e+17
19295.0	5.1933717414106445e+17
19296.0	5.192328390814378e+17
19297.0	5.1913821907845114e+17
19298.0	5.1904086026485766e+17
19299.0	5.189407453042004e+17
19300.0	5.1884906928319136e+17
19301.0	5.187522512551935e+17
19302.0	5.186534221283327e+17
19303.0	5.185473414692864e+17
19304.0	5.184558568483498e+17
19305.0	5.1836042217171616e+17
19306.0	5.1826417254181536e+17
19307.0	5.1814598271740576e+17
19308.0	5.180497449713664e+17
19309.0	5.179366404609366e+17
19310.0	5.178315093923157e+17
19311.0	5.1775429064785914e+17
19312.0	5.176616326703785e+17
19313.0	5.175652368689834e+17
19314.0	5.159267200576174e+17
19315.0	5.15949355667731e+17
19316.0	5.1726128355737594e+17
19317.0	5.171727662667093e+17
19318.0	5.1707465723194003e+17
19319.0	5.16979300639266e+17
19320.0	5.168784146956287e+17
19321.0	5.1677761117006496e+17
19322.0	5.166738514990422e+17
19323.0	5.16578650235426e+17
19324.0	5.164869264692566e+17
19325.0	5.1637310550179834e+17
19326.0	5.16291243942434e+17
19327.0	5.16190703259921e+17
19328.0	5.160827509626196e+17
19329.0	5.159961722093568e+17
19330.0	5.158916967803561e+17
19331.0	5.15791870038289e+17
19332.0	5.1569800731688954e+17
19333.0	5.155807730947412e+17
19334.0	5.154827643038378e+17
19335.0	5.153604957285034e+17
19336.0	5.1528397212002976e+17
19337.0	5.151844529602559e+17
19338.0	5.1505513690562554e+17
19339.0	5.149853071966207e+17
19340.0	5.148580674622804e+17
19341.0	5.1476887705572685e+17
19342.0	5.146263567029587e+17
19343.0	5.1458459408793594e+17
19344.0	5.144751853185706e+17
19345.0	5.140717778589007e+17
19346.0	5.141478615547902e+17
19347.0	5.141612490042026e+17
19348.0	5.14079637774882e+17
19349.0	5.139524594870954e+17
19350.0	5.138477700786858e+17
19351.0	5.1374861631269536e+17
19352.0	5.1362951178048845e+17
19353.0	5.1355008830013434e+17
19354.0	5.134480791218858e+17
19355.0	5.133313133335891e+17
19356.0	5.132420244307967e+17
19357.0	5.1313914094987936e+17
19358.0	5.1303515779235834e+17
19359.0	5.1292226817010336e+17
19360.0	5.128122749244756e+17
19361.0	5.127174189219839e+17
19362.0	5.1261831583716685e+17
19363.0	5.12513012732177e+17
19364.0	5.124071961744724e+17
19365.0	5.122943178768383e+17
19366.0	5.121626193177258e+17
19367.0	5.120557478226602e+17
19368.0	5.1194850310444365e+17
19369.0	5.118336157351935e+17
19370.0	5.117245828453715e+17
19371.0	5.11615439016209e+17
19372.0	5.115133892231166e+17
19373.0	5.114004361270613e+17
19374.0	5.1129147565888845e+17
19375.0	5.111591363499349e+17
19376.0	5.110258320015359e+17
19377.0	5.1091118223960736e+17
19378.0	5.1079784214910285e+17
19379.0	5.1068356442193914e+17
19380.0	5.105621043686057e+17
19381.0	5.104446605710676e+17
19382.0	5.102665295287637e+17
19383.0	5.1013780983425696e+17
19384.0	5.100326438830079e+17
19385.0	5.099127083892734e+17
19386.0	5.097865577059667e+17
19387.0	5.095980154923689e+17
19388.0	5.0944976222508365e+17
19389.0	5.093089402159103e+17
19390.0	5.091527601334953e+17
19391.0	5.0818819667175994e+17
19392.0	5.088187407925247e+17
19393.0	5.0868301325489485e+17
19394.0	5.085105181687807e+17
19395.0	5.083689273436841e+17
19396.0	5.082316283401556e+17
19397.0	5.080913011889493e+17
19398.0	5.079390039135573e+17
19399.0	5.076782383715667e+17
19400.0	5.076163576375979e+17
19401.0	5.074280202458453e+17
19402.0	5.072720991617023e+17
19403.0	5.07107993382639e+17
19404.0	5.0694551338571085e+17
19405.0	5.0677380340340045e+17
19406.0	5.0660173781401594e+17
19407.0	5.0632323567889056e+17
19408.0	5.060197952607574e+17
19409.0	5.059503768032596e+17
19410.0	5.0575310910914554e+17
19411.0	5.0541668887866016e+17
19412.0	5.052053546074111e+17
19413.0	5.049440403106474e+17
19414.0	5.045681288205651e+17
19415.0	5.0431993234937165e+17
19416.0	5.038191399316138e+17
19417.0	5.034662695010299e+17
19418.0	5.029975593844735e+17
19419.0	5.023542873686017e+17
19420.0	5.016616324562946e+17
19421.0	5.00822737892147e+17
19422.0	4.998149075282601e+17
19423.0	4.989308223444308e+17
19424.0	4.984833127568725e+17
19425.0	4.980125475711658e+17
19426.0	4.974684005203966e+17
19427.0	4.969223024891221e+17
19428.0	4.963759561550506e+17
19429.0	4.956999754186751e+17
19430.0	4.950500767520086e+17
19431.0	4.9418687990115e+17
19432.0	4.934256648257532e+17
19433.0	4.923228294916775e+17
19434.0	4.90884862137686e+17
19435.0	4.8866815996067885e+17
19436.0	4.849923205191005e+17
19437.0	4.825443907665919e+17
19438.0	4.7936325221526195e+17
19439.0	4.786995395384662e+17
19440.0	4.7658156904065696e+17
19441.0	4.743145663234046e+17
19442.0	4.7194741858631686e+17
19443.0	4.6954989618899635e+17
19444.0	4.6697381702751565e+17
19445.0	4.63580947983018e+17
19446.0	4.560517218347706e+17
19447.0	4.466484336831143e+17
19448.0	4.3857573751466694e+17
19449.0	4.234123917568662e+17
19450.0	3.826381100853975e+17
19451.0	3.6091814093346285e+17
19452.0	4.0749092184610125e+17
19453.0	4.327858106619218e+17
19454.0	4.424937885750611e+17
19455.0	4.502880142054722e+17
19456.0	4.600788958926175e+17
19457.0	4.645232364748797e+17
19458.0	4.6279260477850246e+17
19459.0	4.6932049369497715e+17
19460.0	4.716701713869481e+17
19461.0	4.7381212239844685e+17
19462.0	4.7585393566023674e+17
19463.0	4.7773042413841056e+17
19464.0	4.7942974619429536e+17
19465.0	4.8114969646639834e+17
19466.0	4.844856264359953e+17
19467.0	4.871401479602181e+17
19468.0	4.886942208491522e+17
19469.0	4.8970939089551334e+17
19470.0	4.90524110679791e+17
19471.0	4.9113283267570355e+17
19472.0	4.9166587027346765e+17
19473.0	4.9211300635825485e+17
19474.0	4.9253782937490765e+17
19475.0	4.927666492801021e+17
19476.0	4.932636081739093e+17
19477.0	4.9358612344777376e+17
19478.0	4.938627393344853e+17
19479.0	4.942772576452605e+17
19480.0	4.950742757190314e+17
19481.0	4.9583159771136e+17
19482.0	4.964352981467139e+17
19483.0	4.9686816982302726e+17
19484.0	4.9717259093934086e+17
19485.0	4.975026691025578e+17
19486.0	4.97669766259234e+17
19487.0	4.978744417233577e+17
19488.0	4.979682181819048e+17
19489.0	4.981241647114922e+17
19490.0	4.9794169032758586e+17
19491.0	4.982344811981481e+17
19492.0	4.983389377527807e+17
19493.0	4.98345803129378e+17
19494.0	4.983460152213503e+17
19495.0	4.983737518041771e+17
19496.0	4.983567531289257e+17
19497.0	4.984061165917525e+17
19498.0	4.983031565647872e+17
19499.0	4.971104196799139e+17
19500.0	4.983425349277013e+17
19501.0	4.983139344580608e+17
19502.0	4.9833295513736525e+17
19503.0	4.9830648747130874e+17
19504.0	4.982675539143338e+17
19505.0	4.982254924551509e+17
19506.0	4.981825546660522e+17
19507.0	4.9813238652600314e+17
19508.0	4.9808772103318176e+17
19509.0	4.980824578807124e+17
19510.0	4.979995048935423e+17
19511.0	4.9541976291628224e+17
19512.0	4.977943227574952e+17
19513.0	4.9755290630881216e+17
19514.0	4.976261732499452e+17
19515.0	4.9777211524601184e+17
19516.0	4.978541274507947e+17
19517.0	4.977891879507283e+17
19518.0	4.977332746627753e+17
19519.0	4.976660837302271e+17
19520.0	4.975896574296064e+17
19521.0	4.9757667361204896e+17
19522.0	4.9751085519557965e+17
19523.0	4.974444727151274e+17
19524.0	4.9736990169497594e+17
19525.0	4.973028558853461e+17
19526.0	4.972319307639466e+17
19527.0	4.971575113678847e+17
19528.0	4.971126863517012e+17
19529.0	4.970465720270847e+17
19530.0	4.9697503747331405e+17
19531.0	4.9690425432910496e+17
19532.0	4.968278209680724e+17
19533.0	4.967508594742612e+17
19534.0	4.966729897039189e+17
19535.0	4.965932226401621e+17
19536.0	4.965110210625534e+17
19537.0	4.964380163353258e+17
19538.0	4.963338849091585e+17
19539.0	4.962204584159916e+17
19540.0	4.9622430319465805e+17
19541.0	4.961454928516436e+17
19542.0	4.960652160401406e+17
19543.0	4.9597661374491296e+17
19544.0	4.9590308109462176e+17
19545.0	4.957475815380307e+17
19546.0	4.9560213719613434e+17
19547.0	4.956586056002219e+17
19548.0	4.955761673240575e+17
19549.0	4.9547980605576525e+17
19550.0	4.954105323716608e+17
19551.0	4.9532774296234656e+17
19552.0	4.9524418704397645e+17
19553.0	4.951570333215402e+17
19554.0	4.9507068106069325e+17
19555.0	4.9498976231096314e+17
19556.0	4.949082264393044e+17
19557.0	4.948239086955178e+17
19558.0	4.9473933782548474e+17
19559.0	4.946636026762581e+17
19560.0	4.94584478040064e+17
19561.0	4.9450451286534816e+17
19562.0	4.944194324572842e+17
19563.0	4.9433845449796256e+17
19564.0	4.942531320785577e+17
19565.0	4.94167679705634e+17
19566.0	4.940776038116009e+17
19567.0	4.939963137261568e+17
19568.0	4.9390735575394976e+17
19569.0	4.9382153735809696e+17
19570.0	4.9373883616897696e+17
19571.0	4.936519046747477e+17
19572.0	4.9356181892410016e+17
19573.0	4.934762904944639e+17
19574.0	4.933811205483178e+17
19575.0	4.93307663814929e+17
19576.0	4.9322010331490976e+17
19577.0	4.9312970075450016e+17
19578.0	4.9304174696857594e+17
19579.0	4.9295745481004365e+17
19580.0	4.928708233483604e+17
19581.0	4.927853436425556e+17
19582.0	4.9270116521956685e+17
19583.0	4.9261428370746016e+17
19584.0	4.925266265287338e+17
19585.0	4.9242438491613856e+17
19586.0	4.9233319871993165e+17
19587.0	4.922628257786538e+17
19588.0	4.9210799549317126e+17
19589.0	4.9208850777811616e+17
19590.0	4.9198630062871885e+17
19591.0	4.919161895518206e+17
19592.0	4.9182960171089914e+17
19593.0	4.9173915944441165e+17
19594.0	4.91619610595601e+17
19595.0	4.9156266257285114e+17
19596.0	4.9146798902258336e+17
19597.0	4.9139104269817165e+17
19598.0	4.9122892480948883e+17
19599.0	4.912172611491157e+17
19600.0	4.911310854684671e+17
19601.0	4.910336838729728e+17
19602.0	4.9094820416716794e+17
19603.0	4.907995444019198e+17
19604.0	4.9077357823481165e+17
19605.0	4.9065007639429114e+17
19606.0	4.906046339066538e+17
19607.0	4.9051819664124576e+17
19608.0	4.904279377357482e+17
19609.0	4.9033515826326176e+17
19610.0	4.902507908868778e+17
19611.0	4.901597825990655e+17
19612.0	4.900799296918868e+17
19613.0	4.8999077088242336e+17
19614.0	4.89898996085555e+17
19615.0	4.898166414857556e+17
19616.0	4.8971805562852685e+17
19617.0	4.896329845178366e+17
19618.0	4.894629963672233e+17
19619.0	4.8935299850786106e+17
19620.0	4.892716569722878e+17
19621.0	4.892954381167274e+17
19622.0	4.892181399601151e+17
19623.0	4.8912998219120634e+17
19624.0	4.89040079172403e+17
19625.0	4.889549037633536e+17
19626.0	4.8886646979952634e+17
19627.0	4.887790619721727e+17
19628.0	4.88678198607872e+17
19629.0	4.885691404823209e+17
19630.0	4.884776881575253e+17
19631.0	4.878769635109547e+17
19632.0	4.8833757883050656e+17
19633.0	4.88246279737617e+17
19634.0	4.8816484662640634e+17
19635.0	4.8807099474029216e+17
19636.0	4.8797929495156045e+17
19637.0	4.878463919281492e+17
19638.0	4.8781154418251085e+17
19639.0	4.8772462478185805e+17
19640.0	4.876211880722432e+17
19641.0	4.873610628606639e+17
19642.0	4.87461311409903e+17
19643.0	4.873732120816298e+17
19644.0	4.872783846004051e+17
19645.0	4.871576516296702e+17
19646.0	4.8710674452316154e+17
19647.0	4.870381106102271e+17
19648.0	4.8695027391528954e+17
19649.0	4.8686211097340576e+17
19650.0	4.8677532963525965e+17
19651.0	4.86687085114163e+17
19652.0	4.8659913118842874e+17
19653.0	4.8651237242961914e+17
19654.0	4.864239439183871e+17
19655.0	4.863357425986219e+17
19656.0	4.862487826530303e+17
