# Flux units: erg / (cm m2 s)
# Wavelength units: Angstrom
wave	flux
19000.0	7.449524581345961e+17
19001.0	7.447488147488768e+17
19002.0	7.446834065353388e+17
19003.0	7.445437520106836e+17
19004.0	7.444082221645823e+17
19005.0	7.442700265586688e+17
19006.0	7.441349766807551e+17
19007.0	7.439924075342505e+17
19008.0	7.438248564140713e+17
19009.0	7.436423999957672e+17
19010.0	7.433105567296166e+17
19011.0	7.434284643472726e+17
19012.0	7.432000721911807e+17
19013.0	7.431769062113279e+17
19014.0	7.429998426892969e+17
19015.0	7.428796241499476e+17
19016.0	7.427436771104084e+17
19017.0	7.426232362729471e+17
19018.0	7.424860891032233e+17
19019.0	7.423518312497148e+17
19020.0	7.422090927931392e+17
19021.0	7.421003898552319e+17
19022.0	7.419685119896233e+17
19023.0	7.418043069453651e+17
19024.0	7.416815521103871e+17
19025.0	7.415479407389356e+17
19026.0	7.413968570155007e+17
19027.0	7.412177121400148e+17
19028.0	7.411426445841747e+17
19029.0	7.409952715614888e+17
19030.0	7.408778261561343e+17
19031.0	7.407437524325718e+17
19032.0	7.406016312377344e+17
19033.0	7.403948967897769e+17
19034.0	7.402996578473302e+17
19035.0	7.400450292012372e+17
19036.0	7.353558698906956e+17
19037.0	7.398162183137962e+17
19038.0	7.397467571443027e+17
19039.0	7.396336718577663e+17
19040.0	7.39503162593553e+17
19041.0	7.393627723879764e+17
19042.0	7.391582076534781e+17
19043.0	7.39091239997713e+17
19044.0	7.389482400961876e+17
19045.0	7.388145611964415e+17
19046.0	7.386377682070185e+17
19047.0	7.385171698035369e+17
19048.0	7.382752838724264e+17
19049.0	7.381929440925011e+17
19050.0	7.380735445609129e+17
19051.0	7.372224264667128e+17
19052.0	7.376194647359487e+17
19053.0	7.376997463709012e+17
19054.0	7.375674757786281e+17
19055.0	7.372537677043035e+17
19056.0	7.372803766484991e+17
19057.0	7.371571394685609e+17
19058.0	7.370045676060671e+17
19059.0	7.368789138079743e+17
19060.0	7.367358465179645e+17
19061.0	7.366113261606228e+17
19062.0	7.364688813053268e+17
19063.0	7.363317661521236e+17
19064.0	7.361149976707071e+17
19065.0	7.359273854741161e+17
19066.0	7.358711946630484e+17
19067.0	7.357720160108543e+17
19068.0	7.356422882852863e+17
19069.0	7.355046534578173e+17
19070.0	7.353477765616978e+17
19071.0	7.352223126257663e+17
19072.0	7.350871497812649e+17
19073.0	7.349476942064297e+17
19074.0	7.348156538814461e+17
19075.0	7.346770691839316e+17
19076.0	7.34527197614353e+17
19077.0	7.343885248364543e+17
19078.0	7.342334816900436e+17
19079.0	7.341205717254141e+17
19080.0	7.339727439003645e+17
19081.0	7.338110522228735e+17
19082.0	7.336819267993599e+17
19083.0	7.334816599681705e+17
19084.0	7.332550474552662e+17
19085.0	7.332745551631699e+17
19086.0	7.328515369555284e+17
19087.0	7.329085627127126e+17
19088.0	7.327739605068457e+17
19089.0	7.325453579365038e+17
19090.0	7.325543576545961e+17
19091.0	7.324289710336684e+17
19092.0	7.322465361461247e+17
19093.0	7.321726439740756e+17
19094.0	7.320389954131284e+17
19095.0	7.319042847145983e+17
19096.0	7.317569256729258e+17
19097.0	7.316250399779497e+17
19098.0	7.314818443422378e+17
19099.0	7.313418741263017e+17
19100.0	7.311996539458899e+17
19101.0	7.310652252443987e+17
19102.0	7.308713443808595e+17
19103.0	7.307890550723923e+17
19104.0	7.306550807538345e+17
19105.0	7.305014447964157e+17
19106.0	7.303565661263187e+17
19107.0	7.302150999419561e+17
19108.0	7.300704305676287e+17
19109.0	7.29632015209813e+17
19110.0	7.297433188958207e+17
19111.0	7.296686760831657e+17
19112.0	7.295387210263208e+17
19113.0	7.294024513049939e+17
19114.0	7.292600897765373e+17
19115.0	7.290859958217385e+17
19116.0	7.289695767625727e+17
19117.0	7.288260729853267e+17
19118.0	7.286217164281172e+17
19119.0	7.263075907054217e+17
19120.0	7.283635799457792e+17
19121.0	7.282558451930451e+17
19122.0	7.281533706567679e+17
19123.0	7.280134216919722e+17
19124.0	7.278410343994708e+17
19125.0	7.277265854048936e+17
19126.0	7.275588142235645e+17
19127.0	7.263892333920253e+17
19128.0	7.272030101569535e+17
19129.0	7.271110752075773e+17
19130.0	7.270288126028458e+17
19131.0	7.26899256004881e+17
19132.0	7.267599933680297e+17
19133.0	7.265673310896127e+17
19134.0	7.264490827546624e+17
19135.0	7.263425616936957e+17
19136.0	7.262044091493033e+17
19137.0	7.259742225301501e+17
19138.0	7.259147684107603e+17
19139.0	7.257890392550058e+17
19140.0	7.256515910740649e+17
19141.0	7.255133921127081e+17
19142.0	7.253531667638953e+17
19143.0	7.251990891462655e+17
19144.0	7.250621268055382e+17
19145.0	7.249518352050857e+17
19146.0	7.243897774975665e+17
19147.0	7.246245532445353e+17
19148.0	7.245293231101267e+17
19149.0	7.243874200190975e+17
19150.0	7.242524941527722e+17
19151.0	7.241125204415827e+17
19152.0	7.239696314094932e+17
19153.0	7.238125194925395e+17
19154.0	7.236197808777896e+17
19155.0	7.235466804505257e+17
19156.0	7.234032331565736e+17
19157.0	7.232229682621097e+17
19158.0	7.229465036499624e+17
19159.0	7.229505226320553e+17
19160.0	7.228270037346985e+17
19161.0	7.22665787691281e+17
19162.0	7.220592766528172e+17
19163.0	7.223169952426666e+17
19164.0	7.222800144837289e+17
19165.0	7.221310286113449e+17
19166.0	7.219341614033576e+17
19167.0	7.218235055975081e+17
19168.0	7.217188258359977e+17
19169.0	7.215836175532032e+17
19170.0	7.214539277161811e+17
19171.0	7.212947896707753e+17
19172.0	7.211666004159145e+17
19173.0	7.210370091450365e+17
19174.0	7.208637765604692e+17
19175.0	7.207572164924755e+17
19176.0	7.206158516704598e+17
19177.0	7.203708787316051e+17
19178.0	7.203180489561428e+17
19179.0	7.201658577966419e+17
19180.0	7.2004473468573e+17
19181.0	7.198471902374568e+17
19182.0	7.1976211199645e+17
19183.0	7.196371304054781e+17
19184.0	7.194912392303956e+17
19185.0	7.193464100530858e+17
19186.0	7.192142069891071e+17
19187.0	7.19016289387588e+17
19188.0	7.189285711118335e+17
19189.0	7.187871615505747e+17
19190.0	7.186423452357972e+17
19191.0	7.184770155588266e+17
19192.0	7.183600071999487e+17
19193.0	7.18207693287151e+17
19194.0	7.18048741888273e+17
19195.0	7.179050388815871e+17
19196.0	7.177245933524308e+17
19197.0	7.175199236205225e+17
19198.0	7.171095337631743e+17
19199.0	7.139805181072721e+17
19200.0	7.144102341989722e+17
19201.0	7.167273828963668e+17
19202.0	7.168262413833556e+17
19203.0	7.167408453539156e+17
19204.0	7.166200116499795e+17
19205.0	7.164992142966783e+17
19206.0	7.163433703178237e+17
19207.0	7.161348593025023e+17
19208.0	7.159542643163133e+17
19209.0	7.159188666275155e+17
19210.0	7.157756656790185e+17
19211.0	7.156448349913088e+17
19212.0	7.154978296692735e+17
19213.0	7.152756313817084e+17
19214.0	7.151194048823296e+17
19215.0	7.150577762959357e+17
19216.0	7.149293588709375e+17
19217.0	7.147656455389183e+17
19218.0	7.141637731210575e+17
19219.0	7.143636494625448e+17
19220.0	7.143384738518356e+17
19221.0	7.140368319512575e+17
19222.0	7.140512803498666e+17
19223.0	7.139183467779412e+17
19224.0	7.137559436066815e+17
19225.0	7.135650250402472e+17
19226.0	7.134874955677693e+17
19227.0	7.13346758353442e+17
19228.0	7.132223986379433e+17
19229.0	7.130783947598505e+17
19230.0	7.129294929133565e+17
19231.0	7.127815788254548e+17
19232.0	7.126424281765203e+17
19233.0	7.124527491667284e+17
19234.0	7.123454060221778e+17
19235.0	7.121881010274304e+17
19236.0	7.120706048709972e+17
19237.0	7.119144938547881e+17
19238.0	7.117167670941011e+17
19239.0	7.116374283386879e+17
19240.0	7.114830891362986e+17
19241.0	7.113280447315968e+17
19242.0	7.111902158476628e+17
19243.0	7.109312470756008e+17
19244.0	7.109112115844436e+17
19245.0	7.107610718590291e+17
19246.0	7.106032838202708e+17
19247.0	7.104326047279785e+17
19248.0	7.102946625978368e+17
19249.0	7.101468655310164e+17
19250.0	7.099870811433641e+17
19251.0	7.097783956449958e+17
19252.0	7.094925395667626e+17
19253.0	7.095445576045908e+17
19254.0	7.094121073562964e+17
19255.0	7.091245219665233e+17
19256.0	7.090991489439062e+17
19257.0	7.089676591912276e+17
19258.0	7.088208015086931e+17
19259.0	7.086145601710761e+17
19260.0	7.08421413450547e+17
19261.0	7.083620822242644e+17
19262.0	7.081784446899539e+17
19263.0	7.080147682678099e+17
19264.0	7.075921501967697e+17
19265.0	7.076443905327101e+17
19266.0	7.07510226911232e+17
19267.0	7.074726333644799e+17
19268.0	7.073170639727274e+17
19269.0	7.071309399151956e+17
19270.0	7.069601930149887e+17
19271.0	7.066158441518424e+17
19272.0	7.06636667752721e+17
19273.0	7.061107428556797e+17
19274.0	7.059559930309283e+17
19275.0	7.062084283356502e+17
19276.0	7.060462638202879e+17
19277.0	7.058951307438761e+17
19278.0	7.057444643536893e+17
19279.0	7.055684459124052e+17
19280.0	7.05382033845999e+17
19281.0	7.052704977955498e+17
19282.0	7.051223370825727e+17
19283.0	7.049393186275327e+17
19284.0	7.047499505554771e+17
19285.0	7.045036141882024e+17
19286.0	7.044021538346323e+17
19287.0	7.042583210841428e+17
19288.0	7.026952606405961e+17
19289.0	7.009553755406294e+17
19290.0	7.037808380215293e+17
19291.0	7.034651614904326e+17
19292.0	7.034857442683562e+17
19293.0	7.033014135554047e+17
19294.0	7.031364517188947e+17
19295.0	7.029846158169427e+17
19296.0	7.028153046969001e+17
19297.0	7.026261677309951e+17
19298.0	7.024008207794175e+17
19299.0	7.022534606192639e+17
19300.0	7.020931979411455e+17
19301.0	7.019274450589012e+17
19302.0	7.017527139194195e+17
19303.0	7.015458003047763e+17
19304.0	7.014102589942442e+17
19305.0	7.012486992975187e+17
19306.0	7.010834857328639e+17
19307.0	7.008304155503274e+17
19308.0	7.006253303726079e+17
19309.0	7.0036315715229e+17
19310.0	7.001294329173331e+17
19311.0	7.000837728152234e+17
19312.0	6.999521473069055e+17
19313.0	6.997808378806272e+17
19314.0	6.96111761264912e+17
19315.0	6.961726552888712e+17
19316.0	6.991769700925439e+17
19317.0	6.990262251290623e+17
19318.0	6.988529284415487e+17
19319.0	6.986828971595094e+17
19320.0	6.984460161515519e+17
19321.0	6.982600506387114e+17
19322.0	6.980294588497919e+17
19323.0	6.978525667349844e+17
19324.0	6.976958716619433e+17
19325.0	6.974634840817664e+17
19326.0	6.973329262335316e+17
19327.0	6.97154251539524e+17
19328.0	6.96971986800913e+17
19329.0	6.96791949517346e+17
19330.0	6.965809760960511e+17
19331.0	6.963774783924906e+17
19332.0	6.96214870958626e+17
19333.0	6.960101386616831e+17
19334.0	6.958249558059689e+17
19335.0	6.955930841950889e+17
19336.0	6.953260852882089e+17
19337.0	6.951270759093587e+17
19338.0	6.94785730307686e+17
19339.0	6.947184965233321e+17
19340.0	6.944647507083264e+17
19341.0	6.942688377744041e+17
19342.0	6.938714363483473e+17
19343.0	6.938738255637162e+17
19344.0	6.936348839641087e+17
19345.0	6.923213723751749e+17
19346.0	6.926145948396198e+17
19347.0	6.928128964995753e+17
19348.0	6.926447281875625e+17
19349.0	6.923998289286484e+17
19350.0	6.921778648929619e+17
19351.0	6.919421938718036e+17
19352.0	6.916823761027071e+17
19353.0	6.915040028393471e+17
19354.0	6.912453015240704e+17
19355.0	6.907532075335681e+17
19356.0	6.905749053636607e+17
19357.0	6.903258092142591e+17
19358.0	6.900609696049834e+17
19359.0	6.897649984733183e+17
19360.0	6.894952564217171e+17
19361.0	6.890759415747923e+17
19362.0	6.887295333083817e+17
19363.0	6.884576282542079e+17
19364.0	6.881813862197929e+17
19365.0	6.878979543094612e+17
19366.0	6.875214071726079e+17
19367.0	6.869926661499561e+17
19368.0	6.867039252993363e+17
19369.0	6.863748161601535e+17
19370.0	6.860738315769172e+17
19371.0	6.854650763061926e+17
19372.0	6.850971741192191e+17
19373.0	6.84776008782097e+17
19374.0	6.844460393911636e+17
19375.0	6.837207509762047e+17
19376.0	6.833031441197736e+17
19377.0	6.829708993888255e+17
19378.0	6.824879384253774e+17
19379.0	6.817158310221139e+17
19380.0	6.813695035659604e+17
19381.0	6.8101289293469e+17
19382.0	6.802993896751105e+17
19383.0	6.798666313848147e+17
19384.0	6.794942486325929e+17
19385.0	6.791220662981972e+17
19386.0	6.787399350747135e+17
19387.0	6.783466522454698e+17
19388.0	6.779459424223232e+17
19389.0	6.774984084378966e+17
19390.0	6.769427358591657e+17
19391.0	6.729220427699494e+17
19392.0	6.759168885129211e+17
19393.0	6.756834736777897e+17
19394.0	6.751025336330921e+17
19395.0	6.745570394417833e+17
19396.0	6.740890671033002e+17
19397.0	6.73612089524224e+17
19398.0	6.728195473320621e+17
19399.0	6.71926302627157e+17
19400.0	6.716922223656959e+17
19401.0	6.70922709349171e+17
19402.0	6.702469421727743e+17
19403.0	6.696402328136361e+17
19404.0	6.685833541189633e+17
19405.0	6.67902978171426e+17
19406.0	6.66956885306026e+17
19407.0	6.659895832434004e+17
19408.0	6.647323528527877e+17
19409.0	6.638638177015124e+17
19410.0	6.62865610608913e+17
19411.0	6.61600713519923e+17
19412.0	6.60362233276006e+17
19413.0	6.590466503999487e+17
19414.0	6.57850217005056e+17
19415.0	6.567543907723946e+17
19416.0	6.557301907390463e+17
19417.0	6.548123987301716e+17
19418.0	6.538450571012778e+17
19419.0	6.528214696460287e+17
19420.0	6.517625210623315e+17
19421.0	6.506555599312212e+17
19422.0	6.494643172671487e+17
19423.0	6.482204459444905e+17
19424.0	6.469477048079702e+17
19425.0	6.456435575619583e+17
19426.0	6.442916248201897e+17
19427.0	6.427755649783123e+17
19428.0	6.412384888771923e+17
19429.0	6.395700536759635e+17
19430.0	6.375666423431169e+17
19431.0	6.352368578155867e+17
19432.0	6.336526663985833e+17
19433.0	6.313797447494314e+17
19434.0	6.289394276586835e+17
19435.0	6.261791770279933e+17
19436.0	6.232670959479465e+17
19437.0	6.20228726821137e+17
19438.0	6.126013002721967e+17
19439.0	6.129106966020097e+17
19440.0	6.090618628822355e+17
19441.0	6.045580554578601e+17
19442.0	5.994923168541356e+17
19443.0	5.938550284834132e+17
19444.0	5.873978925121532e+17
19445.0	5.799700436003501e+17
19446.0	5.7126542513274874e+17
19447.0	5.6087215785465114e+17
19448.0	5.480340971847685e+17
19449.0	5.313486597565098e+17
19450.0	5.0744010529395904e+17
19451.0	4.931529261536608e+17
19452.0	5.208066585438893e+17
19453.0	5.40193893803623e+17
19454.0	5.5444099748768365e+17
19455.0	5.656823237443583e+17
19456.0	5.749076321981784e+17
19457.0	5.827056223562406e+17
19458.0	5.843041560559702e+17
19459.0	5.950010989827425e+17
19460.0	6.002627902963708e+17
19461.0	6.048091973091327e+17
19462.0	6.089304711364609e+17
19463.0	6.125595286394195e+17
19464.0	6.158473801411242e+17
19465.0	6.189305307332607e+17
19466.0	6.21655718380612e+17
19467.0	6.240956770680828e+17
19468.0	6.264473232168276e+17
19469.0	6.284002853912573e+17
19470.0	6.305413255397373e+17
19471.0	6.322838730440704e+17
19472.0	6.339026021078358e+17
19473.0	6.354149567714644e+17
19474.0	6.367708387300692e+17
19475.0	6.37690988427127e+17
19476.0	6.391900814704637e+17
19477.0	6.403099469370708e+17
19478.0	6.413506110117203e+17
19479.0	6.423813653441193e+17
19480.0	6.433275000127488e+17
19481.0	6.442276233063081e+17
19482.0	6.450633025170089e+17
19483.0	6.458683817634474e+17
19484.0	6.466204152976723e+17
19485.0	6.473489126348116e+17
19486.0	6.480489532970324e+17
19487.0	6.487380027856211e+17
19488.0	6.498487450118826e+17
19489.0	6.504967315652609e+17
19490.0	6.512807949718863e+17
19491.0	6.525976267019604e+17
19492.0	6.537299642111316e+17
19493.0	6.543641602424835e+17
19494.0	6.553238153199615e+17
19495.0	6.557956510318595e+17
19496.0	6.565271039552166e+17
19497.0	6.57071797314082e+17
19498.0	6.571035465875459e+17
19499.0	6.527425080983526e+17
19500.0	6.58582281527842e+17
19501.0	6.592493125282476e+17
19502.0	6.596064027082751e+17
19503.0	6.598816851558399e+17
19504.0	6.603314177245181e+17
19505.0	6.60662249324544e+17
19506.0	6.608926958507348e+17
19507.0	6.610892373011114e+17
19508.0	6.614946998299304e+17
19509.0	6.616819805366953e+17
19510.0	6.617168775654057e+17
19511.0	6.554513572539007e+17
19512.0	6.611477933501084e+17
19513.0	6.606304821553811e+17
19514.0	6.612954499077445e+17
19515.0	6.624878463549443e+17
19516.0	6.628872846748329e+17
19517.0	6.629999220796073e+17
19518.0	6.631590086748842e+17
19519.0	6.633486834903721e+17
19520.0	6.636342500218195e+17
19521.0	6.638751098164563e+17
19522.0	6.639435178661204e+17
19523.0	6.64233696733867e+17
19524.0	6.646849500173652e+17
19525.0	6.647569400725501e+17
19526.0	6.648283124465664e+17
19527.0	6.652338017490264e+17
19528.0	6.654365214091946e+17
19529.0	6.654976199054675e+17
19530.0	6.655515798361427e+17
19531.0	6.658980851307858e+17
19532.0	6.660286833841491e+17
19533.0	6.660673570340864e+17
19534.0	6.660991113407146e+17
19535.0	6.661791772486314e+17
19536.0	6.664457423246675e+17
19537.0	6.664884003536896e+17
19538.0	6.664158088353111e+17
19539.0	6.66226349537144e+17
19540.0	6.665144404803584e+17
19541.0	6.667456654693716e+17
19542.0	6.667972416372735e+17
19543.0	6.667920827132585e+17
19544.0	6.668005923269289e+17
19545.0	6.664912776462332e+17
19546.0	6.66286866702882e+17
19547.0	6.668199893052074e+17
19548.0	6.669550497387859e+17
19549.0	6.668627654737919e+17
19550.0	6.669109437661181e+17
19551.0	6.668853982877012e+17
19552.0	6.668542504774314e+17
19553.0	6.668075808762536e+17
19554.0	6.667633118150656e+17
19555.0	6.667497192641876e+17
19556.0	6.668458146136064e+17
19557.0	6.668036177483091e+17
19558.0	6.667583080802986e+17
19559.0	6.667125281609044e+17
19560.0	6.666452144051539e+17
19561.0	6.665962429699412e+17
19562.0	6.665572044854612e+17
19563.0	6.665113522143231e+17
19564.0	6.664536908802729e+17
19565.0	6.663964057053865e+17
19566.0	6.663192143637161e+17
19567.0	6.663309840001705e+17
19568.0	6.662863215831721e+17
19569.0	6.662295517484372e+17
19570.0	6.661800959410175e+17
19571.0	6.661139955974144e+17
19572.0	6.660208777844052e+17
19573.0	6.659696348539562e+17
19574.0	6.65841684394803e+17
19575.0	6.658374570956116e+17
19576.0	6.657653282089642e+17
19577.0	6.656789527396352e+17
19578.0	6.655942196199423e+17
19579.0	6.65523199357747e+17
19580.0	6.654481369748819e+17
19581.0	6.653814127285588e+17
19582.0	6.653122973095252e+17
19583.0	6.652373859915091e+17
19584.0	6.652038091898879e+17
19585.0	6.650445083355816e+17
19586.0	6.649405962016086e+17
19587.0	6.649553168105471e+17
19588.0	6.646518539528877e+17
19589.0	6.648153448469844e+17
19590.0	6.646962813490515e+17
19591.0	6.646643150902612e+17
19592.0	6.645825646100479e+17
19593.0	6.644802145047891e+17
19594.0	6.642342589803174e+17
19595.0	6.643265164716714e+17
19596.0	6.6415923560448e+17
19597.0	6.642079769122131e+17
19598.0	6.63919118201651e+17
19599.0	6.640314929031849e+17
19600.0	6.639478746994004e+17
19601.0	6.63810740462114e+17
19602.0	6.637091819618304e+17
19603.0	6.633901095824038e+17
19604.0	6.635170139122346e+17
19605.0	6.632948921008132e+17
19606.0	6.634415710360916e+17
19607.0	6.633482044309504e+17
19608.0	6.632458641823059e+17
19609.0	6.631228875385514e+17
19610.0	6.630574573049171e+17
19611.0	6.62952777683217e+17
19612.0	6.628664814862335e+17
19613.0	6.627624668714326e+17
19614.0	6.62666267013939e+17
19615.0	6.625911598918314e+17
19616.0	6.624543227510783e+17
19617.0	6.623773897086292e+17
19618.0	6.619180376435366e+17
19619.0	6.617760603832315e+17
19620.0	6.617298449552722e+17
19621.0	6.620105117706921e+17
19622.0	6.619280418974377e+17
19623.0	6.61827906314786e+17
19624.0	6.617167703310335e+17
19625.0	6.616385736845993e+17
19626.0	6.615254794502143e+17
19627.0	6.614142405662036e+17
19628.0	6.612137755541504e+17
19629.0	6.610603097456637e+17
19630.0	6.602869329362941e+17
19631.0	6.575296267070127e+17
19632.0	6.607341086572541e+17
19633.0	6.607241963984212e+17
19634.0	6.606955988647936e+17
19635.0	6.605904262026579e+17
19636.0	6.605035404962473e+17
19637.0	6.601302935076868e+17
19638.0	6.602975994008916e+17
19639.0	6.601902400383657e+17
19640.0	6.600206125279914e+17
19641.0	6.595254462797153e+17
19642.0	6.598664279556095e+17
19643.0	6.597551492956159e+17
19644.0	6.59607588647731e+17
19645.0	6.59389675680563e+17
19646.0	6.59434264138001e+17
19647.0	6.593352023670783e+17
19648.0	6.592232305284435e+17
19649.0	6.591122623867562e+17
19650.0	6.590068535154004e+17
19651.0	6.588928450625533e+17
19652.0	6.587797683743402e+17
19653.0	6.586741946668372e+17
19654.0	6.585581452656639e+17
19655.0	6.584429177383594e+17
19656.0	6.583395803638442e+17
19657.0	6.582268169202345e+17
19658.0	6.581295144501247e+17
19659.0	6.58032504672529e+17
19660.0	6.579250030531924e+17
19661.0	6.578098447319039e+17
19662.0	6.576999734007123e+17
19663.0	6.57556863258897e+17
19664.0	6.574577367558825e+17
19665.0	6.573642255171583e+17
