# Flux units: erg / (cm m2 s)
# Wavelength units: Angstrom
wave	flux
19000.0	4.8188812011328845e+17
19001.0	4.817855055571625e+17
19002.0	4.817160662679551e+17
19003.0	4.8162962306061645e+17
19004.0	4.8154040783776416e+17
19005.0	4.8145347927954765e+17
19006.0	4.813518616395775e+17
19007.0	4.812861158544724e+17
19008.0	4.8119012221692576e+17
19009.0	4.8110385307320314e+17
19010.0	4.809401393217534e+17
19011.0	4.809371977165482e+17
19012.0	4.808193191794004e+17
19013.0	4.8077055564185594e+17
19014.0	4.806780717978964e+17
19015.0	4.805899965868713e+17
19016.0	4.8050214157680634e+17
19017.0	4.80427414528546e+17
19018.0	4.8033934036609696e+17
19019.0	4.8025238188851194e+17
19020.0	4.8016873914804896e+17
19021.0	4.8008472688940365e+17
19022.0	4.799988258657621e+17
19023.0	4.799059106376361e+17
19024.0	4.7981444412211194e+17
19025.0	4.7974085198260896e+17
19026.0	4.7965032527080096e+17
19027.0	4.7955112494803616e+17
19028.0	4.7948558664116896e+17
19029.0	4.793974313189376e+17
19030.0	4.793156857320789e+17
19031.0	4.7923049669154125e+17
19032.0	4.7914401846176416e+17
19033.0	4.790463399723007e+17
19034.0	4.7897279802463565e+17
19035.0	4.7888521823081805e+17
19036.0	4.773699971798345e+17
19037.0	4.787168687248724e+17
19038.0	4.7862948326714016e+17
19039.0	4.785452955467776e+17
19040.0	4.784609260033364e+17
19041.0	4.7837504217634125e+17
19042.0	4.779946278212945e+17
19043.0	4.7820750321964365e+17
19044.0	4.781203707483477e+17
19045.0	4.7803466664727885e+17
19046.0	4.779412878087508e+17
19047.0	4.778659354596693e+17
19048.0	4.7770325854016845e+17
19049.0	4.7709795147666694e+17
19050.0	4.7760014157632845e+17
19051.0	4.7727649083446554e+17
19052.0	4.774240288331093e+17
19053.0	4.7735606321261216e+17
19054.0	4.772705102462975e+17
19055.0	4.7706438592976224e+17
19056.0	4.7706933744544416e+17
19057.0	4.770153365503998e+17
19058.0	4.766276410234191e+17
19059.0	4.767278871958868e+17
19060.0	4.76757655429666e+17
19061.0	4.7667571166194336e+17
19062.0	4.76590424264977e+17
19063.0	4.7650632700177056e+17
19064.0	4.764027251064832e+17
19065.0	4.7631365060253e+17
19066.0	4.7613299032500915e+17
19067.0	4.7616510492235085e+17
19068.0	4.7608281127976954e+17
19069.0	4.75998179102993e+17
19070.0	4.759086896425642e+17
19071.0	4.758270960293204e+17
19072.0	4.7562797004881894e+17
19073.0	4.7565822859673594e+17
19074.0	4.755746849816575e+17
19075.0	4.754903322853376e+17
19076.0	4.753881582709419e+17
19077.0	4.753184060167508e+17
19078.0	4.7522821177343994e+17
19079.0	4.751511687703211e+17
19080.0	4.750653580640255e+17
19081.0	4.7497502128428365e+17
19082.0	4.748909437343061e+17
19083.0	4.7480295702309536e+17
19084.0	4.7470163724861446e+17
19085.0	4.746421518117547e+17
19086.0	4.743641640381097e+17
19087.0	4.741904022022823e+17
19088.0	4.742361295530663e+17
19089.0	4.7426454966763514e+17
19090.0	4.742195120002389e+17
19091.0	4.741152172059307e+17
19092.0	4.738105079409328e+17
19093.0	4.7397022368180896e+17
19094.0	4.7388560639481165e+17
19095.0	4.738012888607402e+17
19096.0	4.73714475925504e+17
19097.0	4.736329499803647e+17
19098.0	4.734262567064916e+17
19099.0	4.733174284987051e+17
19100.0	4.733741178727082e+17
19101.0	4.732941631837524e+17
19102.0	4.731891938754559e+17
19103.0	4.7312681975152634e+17
19104.0	4.730440987792725e+17
19105.0	4.7269438938589926e+17
19106.0	4.728666323943423e+17
19107.0	4.727245518842537e+17
19108.0	4.726084693480789e+17
19109.0	4.7254428454311226e+17
19110.0	4.72539423904017e+17
19111.0	4.72381345968947e+17
19112.0	4.722730597351421e+17
19113.0	4.7228647437762554e+17
19114.0	4.721531621998591e+17
19115.0	4.7209230585473696e+17
19116.0	4.720280853981866e+17
19117.0	4.7194797440150176e+17
19118.0	4.718365395036843e+17
19119.0	4.698056253505505e+17
19120.0	4.716782733841749e+17
19121.0	4.7160648815083514e+17
19122.0	4.7153274543581856e+17
19123.0	4.714493860205908e+17
19124.0	4.713595875797674e+17
19125.0	4.7128164615673165e+17
19126.0	4.711986422087679e+17
19127.0	4.7081983979465344e+17
19128.0	4.7102902022089376e+17
19129.0	4.7093642005490336e+17
19130.0	4.708622482625876e+17
19131.0	4.707798033454421e+17
19132.0	4.706958203770196e+17
19133.0	4.7060647785704096e+17
19134.0	4.705286126305279e+17
19135.0	4.7044471704343885e+17
19136.0	4.7036220040369485e+17
19137.0	4.702521798950911e+17
19138.0	4.701936763447978e+17
19139.0	4.701123772416e+17
19140.0	4.700289653276672e+17
19141.0	4.699452633776127e+17
19142.0	4.6985795404649805e+17
19143.0	4.697678455767039e+17
19144.0	4.6969057356458656e+17
19145.0	4.6961149527545165e+17
19146.0	4.694380863903062e+17
19147.0	4.6941671515313485e+17
19148.0	4.6926194498600966e+17
19149.0	4.69161929150737e+17
19150.0	4.691940204696917e+17
19151.0	4.6911143343554554e+17
19152.0	4.690274703900671e+17
19153.0	4.687366593708029e+17
19154.0	4.6882382693444256e+17
19155.0	4.687791673835519e+17
19156.0	4.6869609283147085e+17
19157.0	4.685454744660652e+17
19158.0	4.683338338708139e+17
19159.0	4.684376265370281e+17
19160.0	4.683617740870997e+17
19161.0	4.6828046233108474e+17
19162.0	4.68076974903569e+17
19163.0	4.681143656557226e+17
19164.0	4.6803086097776634e+17
19165.0	4.67720688981333e+17
19166.0	4.6783921267234125e+17
19167.0	4.677633432354815e+17
19168.0	4.6769969054788256e+17
19169.0	4.676128019753643e+17
19170.0	4.6753397094045005e+17
19171.0	4.67440375955456e+17
19172.0	4.6736742694256634e+17
19173.0	4.672847737083221e+17
19174.0	4.671925060807338e+17
19175.0	4.671190719266814e+17
19176.0	4.670365601103872e+17
19177.0	4.669314361720832e+17
19178.0	4.6686009721268896e+17
19179.0	4.667620005511168e+17
19180.0	4.667048071615829e+17
19181.0	4.6659279883250336e+17
19182.0	4.665352258584576e+17
19183.0	4.664578045990228e+17
19184.0	4.663713183301632e+17
19185.0	4.6629025326912845e+17
19186.0	4.662098181925546e+17
19187.0	4.66118899732753e+17
19188.0	4.6604198458600096e+17
19189.0	4.659620373768874e+17
19190.0	4.658798362886143e+17
19191.0	4.657891636150272e+17
19192.0	4.657144039211007e+17
19193.0	4.656060147870378e+17
19194.0	4.6550602062233594e+17
19195.0	4.6546667231860045e+17
19196.0	4.6538169578946554e+17
19197.0	4.653010332418047e+17
19198.0	4.652202379444223e+17
19199.0	4.6426290539287866e+17
19200.0	4.645066250736984e+17
19201.0	4.6497065350813005e+17
19202.0	4.648907891365204e+17
19203.0	4.6480594563672736e+17
19204.0	4.647216234889214e+17
19205.0	4.6464272219941536e+17
19206.0	4.64559090503953e+17
19207.0	4.6446491852253856e+17
19208.0	4.64351391785506e+17
19209.0	4.6431294490760525e+17
19210.0	4.6423040834491725e+17
19211.0	4.6414991042368845e+17
19212.0	4.640682968875008e+17
19213.0	4.639672257653419e+17
19214.0	4.638795201424042e+17
19215.0	4.638194944791892e+17
19216.0	4.6374038892707834e+17
19217.0	4.6365756260788896e+17
19218.0	4.6344834918645734e+17
19219.0	4.63475225797154e+17
19220.0	4.6340815936552954e+17
19221.0	4.632785183222442e+17
19222.0	4.6324820720571725e+17
19223.0	4.6316298887495674e+17
19224.0	4.6307818032769696e+17
19225.0	4.629777649849684e+17
19226.0	4.6291711332188154e+17
19227.0	4.6283588083821216e+17
19228.0	4.6275696465892685e+17
19229.0	4.6267459586839885e+17
19230.0	4.6259166434208416e+17
19231.0	4.625096756953086e+17
19232.0	4.6242886599748256e+17
19233.0	4.623379822804991e+17
19234.0	4.622614562952532e+17
19235.0	4.621793936889172e+17
19236.0	4.621027757785086e+17
19237.0	4.6201786384165536e+17
19238.0	4.6192324530667514e+17
19239.0	4.618576988209151e+17
19240.0	4.617754315325439e+17
19241.0	4.616916233267881e+17
19242.0	4.61610428731665e+17
19243.0	4.615098751167145e+17
19244.0	4.6144929622480205e+17
19245.0	4.6136571409203194e+17
19246.0	4.6128363310066336e+17
19247.0	4.6120364695442765e+17
19248.0	4.6112306997056845e+17
19249.0	4.610362225022292e+17
19250.0	4.6091695453197645e+17
19251.0	4.6082510619497786e+17
19252.0	4.607582754133332e+17
19253.0	4.607113445769215e+17
19254.0	4.60634688777967e+17
19255.0	4.605261367650985e+17
19256.0	4.6046695646385485e+17
19257.0	4.603903945474046e+17
19258.0	4.603093594057387e+17
19259.0	4.602176726193492e+17
19260.0	4.601020818653183e+17
19261.0	4.600637879397035e+17
19262.0	4.599737296617471e+17
19263.0	4.59891368141346e+17
19264.0	4.597290311002793e+17
19265.0	4.597042415053482e+17
19266.0	4.59593851338752e+17
19267.0	4.5957799218599245e+17
19268.0	4.5949582171613856e+17
19269.0	4.5941544354228896e+17
19270.0	4.593348229376683e+17
19271.0	4.591950969001303e+17
19272.0	4.591665733959679e+17
19273.0	4.5905315550112416e+17
19274.0	4.589517041653076e+17
19275.0	4.589294939275264e+17
19276.0	4.5884549718780576e+17
19277.0	4.5876548734375245e+17
19278.0	4.5868069333674656e+17
19279.0	4.586012235792383e+17
19280.0	4.5850931058005325e+17
19281.0	4.584407616716798e+17
19282.0	4.583625289542314e+17
19283.0	4.5827122294074016e+17
19284.0	4.5819660116951034e+17
19285.0	4.580925995570517e+17
19286.0	4.5803386532003834e+17
19287.0	4.5795804984989005e+17
19288.0	4.5755243206191763e+17
19289.0	4.567747017048042e+17
19290.0	4.5771613973162656e+17
19291.0	4.576002757186903e+17
19292.0	4.575541411009877e+17
19293.0	4.574726397624319e+17
19294.0	4.573901443738281e+17
19295.0	4.5731246159953914e+17
19296.0	4.571049326105944e+17
19297.0	4.57125971169553e+17
19298.0	4.570659864008021e+17
19299.0	4.568465594297003e+17
19300.0	4.5690464648560634e+17
19301.0	4.5682719474756256e+17
19302.0	4.5674624705713485e+17
19303.0	4.5665453174947834e+17
19304.0	4.565817180727978e+17
19305.0	4.5650312534425594e+17
19306.0	4.564240557233491e+17
19307.0	4.563346897851732e+17
19308.0	4.562597454020607e+17
19309.0	4.561501998983851e+17
19310.0	4.560639277487445e+17
19311.0	4.560140157408596e+17
19312.0	4.559359622600021e+17
19313.0	4.55846947524881e+17
19314.0	4.5131993015036166e+17
19315.0	4.5148469038067104e+17
19316.0	4.554409076501165e+17
19317.0	4.5553319065681914e+17
19318.0	4.5545662105081165e+17
19319.0	4.553794052423679e+17
19320.0	4.552488788514132e+17
19321.0	4.5510708467247776e+17
19322.0	4.551295661419178e+17
19323.0	4.5504667942475085e+17
19324.0	4.5497854323589114e+17
19325.0	4.548670875762688e+17
19326.0	4.548196181912234e+17
19327.0	4.5473553609741645e+17
19328.0	4.544203296079875e+17
19329.0	4.5457959872539296e+17
19330.0	4.5449288680297805e+17
19331.0	4.5441273211562656e+17
19332.0	4.543393046025557e+17
19333.0	4.542567553171456e+17
19334.0	4.5417304553772365e+17
19335.0	4.536132621216432e+17
19336.0	4.540144870752256e+17
19337.0	4.539385306065578e+17
19338.0	4.538279581974527e+17
19339.0	4.537783160231251e+17
19340.0	4.536462362716842e+17
19341.0	4.5343701865594906e+17
19342.0	4.534265915462997e+17
19343.0	4.534592726543018e+17
19344.0	4.5320259753738266e+17
19345.0	4.528403719214414e+17
19346.0	4.531072405252779e+17
19347.0	4.529083638262442e+17
19348.0	4.5306031297440416e+17
19349.0	4.5297569722531834e+17
19350.0	4.5281534443956896e+17
19351.0	4.528126899344723e+17
19352.0	4.5249208768266195e+17
19353.0	4.5266161201315834e+17
19354.0	4.525824992608254e+17
19355.0	4.524888943493119e+17
19356.0	4.524227055058943e+17
19357.0	4.523434436460543e+17
19358.0	4.5226330252028576e+17
19359.0	4.521262030258173e+17
19360.0	4.519133191689555e+17
19361.0	4.520183546773502e+17
19362.0	4.519460731879423e+17
19363.0	4.5186647851008e+17
19364.0	4.517868949471231e+17
19365.0	4.517063182428842e+17
19366.0	4.516274909828436e+17
19367.0	4.515483578182313e+17
19368.0	4.5146925708957005e+17
19369.0	4.513824728154111e+17
19370.0	4.5130598569738234e+17
19371.0	4.512232705272491e+17
19372.0	4.5115072402773325e+17
19373.0	4.510692354118997e+17
19374.0	4.5099228978653856e+17
19375.0	4.509131564122111e+17
19376.0	4.508345478152192e+17
19377.0	4.5075363920172365e+17
19378.0	4.506750366165674e+17
19379.0	4.50596237737984e+17
19380.0	4.5051621845674656e+17
19381.0	4.5043663685113165e+17
19382.0	4.5034845146972154e+17
19383.0	4.502632095110484e+17
19384.0	4.5019757319727776e+17
19385.0	4.501206783229951e+17
19386.0	4.500425326373545e+17
19387.0	4.499630296749396e+17
19388.0	4.498785468852906e+17
19389.0	4.497823039662761e+17
19390.0	4.4970254004824736e+17
19391.0	4.482785971186326e+17
19392.0	4.4953953569341414e+17
19393.0	4.4946272889951565e+17
19394.0	4.4938135975144096e+17
19395.0	4.4923023450439686e+17
19396.0	4.4920430482773325e+17
19397.0	4.491431950767445e+17
19398.0	4.489991973502976e+17
19399.0	4.4876525193570963e+17
19400.0	4.488454416454998e+17
19401.0	4.4882152257836365e+17
19402.0	4.4874245973824845e+17
19403.0	4.486594236339541e+17
19404.0	4.485813386958165e+17
19405.0	4.4849817990813005e+17
19406.0	4.484192097621334e+17
19407.0	4.482549380983465e+17
19408.0	4.48117318719898e+17
19409.0	4.481755574697983e+17
19410.0	4.4809665729877325e+17
19411.0	4.480153426766505e+17
19412.0	4.479321756401664e+17
19413.0	4.4776362222114125e+17
19414.0	4.4776323145181856e+17
19415.0	4.4768541306170016e+17
19416.0	4.4757612229208736e+17
19417.0	4.4750427742972576e+17
19418.0	4.474387851902975e+17
19419.0	4.4735463340113914e+17
19420.0	4.472716543393791e+17
19421.0	4.4718718769780045e+17
19422.0	4.4709551461280416e+17
19423.0	4.470147305701375e+17
19424.0	4.4692877320301216e+17
19425.0	4.468407750972757e+17
19426.0	4.467522613018623e+17
19427.0	4.466616343461886e+17
19428.0	4.4657047597219834e+17
19429.0	4.4647701618360314e+17
19430.0	4.4636989750422195e+17
19431.0	4.4598619446531475e+17
19432.0	4.461814930735104e+17
19433.0	4.460749484545363e+17
19434.0	4.459630578455894e+17
19435.0	4.458190766167382e+17
19436.0	4.455628458863271e+17
19437.0	4.4556752351395834e+17
19438.0	4.425404346881371e+17
19439.0	4.4512268863406086e+17
19440.0	4.450672890085375e+17
19441.0	4.4485585938677766e+17
19442.0	4.445814970297002e+17
19443.0	4.4422776376087885e+17
19444.0	4.437560860344319e+17
19445.0	4.4308093975483725e+17
19446.0	4.4204171600418125e+17
19447.0	4.40266156810786e+17
19448.0	4.367722265007447e+17
19449.0	4.279029286131028e+17
19450.0	3.9935114743207174e+17
19451.0	3.765998824630961e+17
19452.0	4.089984650138969e+17
19453.0	4.3089721861079104e+17
19454.0	4.374607143720275e+17
19455.0	4.401901421111978e+17
19456.0	4.4155044626432e+17
19457.0	4.4228509874257914e+17
19458.0	4.269917171876127e+17
19459.0	4.42618415887158e+17
19460.0	4.4322031053482656e+17
19461.0	4.4334170285015034e+17
19462.0	4.434010230314325e+17
19463.0	4.434307910554965e+17
19464.0	4.434330085141162e+17
19465.0	4.4342374322667514e+17
19466.0	4.4339345531863034e+17
19467.0	4.4336636962187936e+17
19468.0	4.433246957163861e+17
19469.0	4.430585460162556e+17
19470.0	4.432253799104512e+17
19471.0	4.431718643662847e+17
19472.0	4.431056538522965e+17
19473.0	4.4304113014756685e+17
19474.0	4.428117201737041e+17
19475.0	4.427564466569212e+17
19476.0	4.428460961300479e+17
19477.0	4.427841177387006e+17
19478.0	4.427208524649813e+17
19479.0	4.424818414496424e+17
19480.0	4.425764560699391e+17
19481.0	4.4249630033401165e+17
19482.0	4.424340229586943e+17
19483.0	4.423667520547498e+17
19484.0	4.4229155929893536e+17
19485.0	4.422096139233961e+17
19486.0	4.4196120647871194e+17
19487.0	4.420709674298025e+17
19488.0	4.4200000707624954e+17
19489.0	4.419208187565398e+17
19490.0	4.4157558971869805e+17
19491.0	4.417706465252693e+17
19492.0	4.417015297081344e+17
19493.0	4.4162638413824e+17
19494.0	4.4154990310195194e+17
19495.0	4.4147247331409914e+17
19496.0	4.413130819327316e+17
19497.0	4.413101652836351e+17
19498.0	4.410721916594859e+17
19499.0	4.390906378234525e+17
19500.0	4.4107920194928634e+17
19501.0	4.410371313325396e+17
19502.0	4.4097386046641485e+17
19503.0	4.4089863401635834e+17
19504.0	4.408218428811946e+17
19505.0	4.407413636945236e+17
19506.0	4.4066874659089056e+17
19507.0	4.405861868896255e+17
19508.0	4.405129721675775e+17
19509.0	4.4043290765776205e+17
19510.0	4.402823922625193e+17
19511.0	4.331459059908534e+17
19512.0	4.399097314978461e+17
19513.0	4.394536731497801e+17
19514.0	4.3962261174572326e+17
19515.0	4.398811689866584e+17
19516.0	4.3987561237271885e+17
19517.0	4.398045049389055e+17
19518.0	4.396966674956286e+17
19519.0	4.396170220666878e+17
19520.0	4.3942198469372563e+17
19521.0	4.395152820928512e+17
19522.0	4.394108069434708e+17
19523.0	4.3931988016496646e+17
19524.0	4.391586302874967e+17
19525.0	4.3920331759069856e+17
19526.0	4.391318210652842e+17
19527.0	4.3905202289377274e+17
19528.0	4.3896535319401805e+17
19529.0	4.388815069599061e+17
19530.0	4.3882484512849914e+17
19531.0	4.387483306076842e+17
19532.0	4.386712785868117e+17
19533.0	4.3859469318225914e+17
19534.0	4.3851829715053216e+17
19535.0	4.3843924689332896e+17
19536.0	4.383590555757226e+17
19537.0	4.3828668369906336e+17
19538.0	4.3804650149423814e+17
19539.0	4.380292646524249e+17
19540.0	4.380545544880127e+17
19541.0	4.379479013763755e+17
19542.0	4.3789034846508365e+17
19543.0	4.376616423653376e+17
19544.0	4.377423406344874e+17
19545.0	4.3761026521716006e+17
19546.0	4.374289530748928e+17
19547.0	4.3752379516627616e+17
19548.0	4.374472500270421e+17
19549.0	4.3735714512240634e+17
19550.0	4.372936716713983e+17
19551.0	4.3721822865544525e+17
19552.0	4.37141160136977e+17
19553.0	4.3706223116506445e+17
19554.0	4.369799760401749e+17
19555.0	4.368927483581781e+17
19556.0	4.3682332242083834e+17
19557.0	4.3675780145042765e+17
19558.0	4.366831127800489e+17
19559.0	4.3660766626884256e+17
19560.0	4.364698417190228e+17
19561.0	4.364513618952191e+17
19562.0	4.363201497355604e+17
19563.0	4.3630316483160736e+17
19564.0	4.3622596293427194e+17
19565.0	4.361503610940074e+17
19566.0	4.360695617421312e+17
19567.0	4.3599872931485e+17
19568.0	4.3591985794471245e+17
19569.0	4.3584303730961056e+17
19570.0	4.357687431135231e+17
19571.0	4.356929307191978e+17
19572.0	4.356136404779008e+17
19573.0	4.355208940705107e+17
19574.0	4.3544671381968205e+17
19575.0	4.353901140639743e+17
19576.0	4.353043622177449e+17
19577.0	4.3520871817543686e+17
19578.0	4.3515514363139405e+17
19579.0	4.3508166879259296e+17
19580.0	4.3500724848776525e+17
19581.0	4.349312552490325e+17
19582.0	4.3485901696095565e+17
19583.0	4.347833432582825e+17
19584.0	4.3470652276299085e+17
19585.0	4.346150289145855e+17
19586.0	4.345358960295936e+17
19587.0	4.34474203480064e+17
19588.0	4.3432443495055366e+17
19589.0	4.343256501103274e+17
19590.0	4.342280356539049e+17
19591.0	4.341758421543593e+17
19592.0	4.3410020011868154e+17
19593.0	4.340083102580734e+17
19594.0	4.3389846961520614e+17
19595.0	4.338702892750164e+17
19596.0	4.3379234645387936e+17
19597.0	4.3372118875832314e+17
19598.0	4.3353975197532134e+17
19599.0	4.335707554316287e+17
19600.0	4.3349619832258554e+17
19601.0	4.334104526280022e+17
19602.0	4.333391948283904e+17
19603.0	4.331876769245865e+17
19604.0	4.3318912451870714e+17
19605.0	4.330731048271872e+17
19606.0	4.330418455183359e+17
19607.0	4.3296763017516365e+17
19608.0	4.3288943234034336e+17
19609.0	4.328084503265279e+17
19610.0	4.3266057776223584e+17
19611.0	4.3254628123060915e+17
19612.0	4.3259095196631034e+17
19613.0	4.325136216533674e+17
19614.0	4.3243491833501005e+17
19615.0	4.323646206115838e+17
19616.0	4.3219813722139315e+17
19617.0	4.320917342999893e+17
19618.0	4.3204141803110374e+17
19619.0	4.3191262934029626e+17
19620.0	4.318276365931858e+17
19621.0	4.317438620816723e+17
19622.0	4.3183784650779296e+17
19623.0	4.3175510533297485e+17
19624.0	4.316643150790656e+17
19625.0	4.316120725061631e+17
19626.0	4.315360755624617e+17
19627.0	4.3146225399453e+17
19628.0	4.3136674808463366e+17
19629.0	4.308897428231507e+17
19630.0	4.3122815010515616e+17
19631.0	4.303400267153403e+17
19632.0	4.3108586777914016e+17
19633.0	4.3100235317466445e+17
19634.0	4.309362613594793e+17
19635.0	4.3083756561148563e+17
19636.0	4.305919824013993e+17
19637.0	4.3048275140061843e+17
19638.0	4.306201962960211e+17
19639.0	4.305603067379712e+17
19640.0	4.304770519007232e+17
19641.0	4.3012461474174394e+17
19642.0	4.30323644043537e+17
19643.0	4.3024801186447354e+17
19644.0	4.30177797607697e+17
19645.0	4.300641588827476e+17
19646.0	4.298312916839079e+17
19647.0	4.2995896098488314e+17
19648.0	4.2988764977780045e+17
19649.0	4.298120089305087e+17
19650.0	4.297384029498027e+17
19651.0	4.296631213446484e+17
19652.0	4.295882120538793e+17
19653.0	4.2951322097418234e+17
19654.0	4.294387841717589e+17
19655.0	4.2936263266795514e+17
