# Flux units: erg / (cm m2 s)
# Wavelength units: Angstrom
wave	flux
19000.0	8.467432591065088e+17
19001.0	8.465945001459711e+17
19002.0	8.464541674023592e+17
19003.0	8.463090925786451e+17
19004.0	8.461637919615658e+17
19005.0	8.460183793565695e+17
19006.0	8.458725779395923e+17
19007.0	8.457186440467796e+17
19008.0	8.455779619176447e+17
19009.0	8.454288416877225e+17
19010.0	8.452706495976788e+17
19011.0	8.451364606705663e+17
19012.0	8.44964450026564e+17
19013.0	8.448451487814996e+17
19014.0	8.446942040293375e+17
19015.0	8.44547592832068e+17
19016.0	8.44399604924416e+17
19017.0	8.442522837712895e+17
19018.0	8.441031406125055e+17
19019.0	8.439557481562111e+17
19020.0	8.438055863407955e+17
19021.0	8.436577695607466e+17
19022.0	8.435086122811392e+17
19023.0	8.433569321276756e+17
19024.0	8.432078562175658e+17
19025.0	8.430558792471894e+17
19026.0	8.429035635168596e+17
19027.0	8.427306680145236e+17
19028.0	8.426071540105215e+17
19029.0	8.424572932063231e+17
19030.0	8.423279337406461e+17
19031.0	8.422125211746303e+17
19032.0	8.420607174290089e+17
19033.0	8.419040357078355e+17
19034.0	8.417521048748031e+17
19035.0	8.415629908377599e+17
19036.0	8.397065390391292e+17
19037.0	8.412709190806185e+17
19038.0	8.411438650840403e+17
19039.0	8.409964942983167e+17
19040.0	8.408452539875328e+17
19041.0	8.406931623728466e+17
19042.0	8.405370551315116e+17
19043.0	8.403879410532352e+17
19044.0	8.402347183745705e+17
19045.0	8.400803221296467e+17
19046.0	8.399262614290431e+17
19047.0	8.397730054755668e+17
19048.0	8.396132173130412e+17
19049.0	8.394622931129684e+17
19050.0	8.393041944160937e+17
19051.0	8.388881690918907e+17
19052.0	8.389187932433064e+17
19053.0	8.388438136280404e+17
19054.0	8.386946749431808e+17
19055.0	8.385296940924927e+17
19056.0	8.383856095439528e+17
19057.0	8.382312892159315e+17
19058.0	8.380744794286761e+17
19059.0	8.379296313769981e+17
19060.0	8.378287379535187e+17
19061.0	8.376739593278804e+17
19062.0	8.375181161878868e+17
19063.0	8.373622713701715e+17
19064.0	8.372022318290259e+17
19065.0	8.370422705815552e+17
19066.0	8.368912947915433e+17
19067.0	8.367380150703443e+17
19068.0	8.36581647921971e+17
19069.0	8.364251096459945e+17
19070.0	8.362681703945555e+17
19071.0	8.361106345732777e+17
19072.0	8.35954551239475e+17
19073.0	8.357977024451923e+17
19074.0	8.35640758440209e+17
19075.0	8.35483506573312e+17
19076.0	8.353254867293523e+17
19077.0	8.351681360166911e+17
19078.0	8.350102203312809e+17
19079.0	8.34853400617506e+17
19080.0	8.346953086315177e+17
19081.0	8.34535474331648e+17
19082.0	8.343777705983999e+17
19083.0	8.34214835729203e+17
19084.0	8.340503443537919e+17
19085.0	8.339018713049769e+17
19086.0	8.33719129534191e+17
19087.0	8.335560103952383e+17
19088.0	8.334087585879379e+17
19089.0	8.332413291025747e+17
19090.0	8.331017351157076e+17
19091.0	8.329466599527764e+17
19092.0	8.327827156544169e+17
19093.0	8.32632141119488e+17
19094.0	8.324741857279999e+17
19095.0	8.323154048974845e+17
19096.0	8.321563006861312e+17
19097.0	8.319974091259901e+17
19098.0	8.318380858321578e+17
19099.0	8.316784207025494e+17
19100.0	8.31515341828915e+17
19101.0	8.313571989520383e+17
19102.0	8.311952333864957e+17
19103.0	8.310381617348608e+17
19104.0	8.30877472915456e+17
19105.0	8.307157359394816e+17
19106.0	8.305502582035799e+17
19107.0	8.303911902030505e+17
19108.0	8.302230075604991e+17
19109.0	8.299422194597884e+17
19110.0	8.298791369878186e+17
19111.0	8.29747177333282e+17
19112.0	8.295906892491433e+17
19113.0	8.294308167811071e+17
19114.0	8.292698521163091e+17
19115.0	8.291040768644436e+17
19116.0	8.289460300371283e+17
19117.0	8.287835749963092e+17
19118.0	8.28615309865779e+17
19119.0	8.283668904673276e+17
19120.0	8.28284189278208e+17
19121.0	8.281261294485503e+17
19122.0	8.279768741620394e+17
19123.0	8.278150703568211e+17
19124.0	8.276399563472893e+17
19125.0	8.274893328788136e+17
19126.0	8.273258463188308e+17
19127.0	8.271022414015145e+17
19128.0	8.269538727908691e+17
19129.0	8.26835750564659e+17
19130.0	8.266769372981928e+17
19131.0	8.265126176096253e+17
19132.0	8.263507276813654e+17
19133.0	8.261777303972521e+17
19134.0	8.260028614748841e+17
19135.0	8.258606909270697e+17
19136.0	8.256971285899948e+17
19137.0	8.255279907646122e+17
19138.0	8.253687158450858e+17
19139.0	8.251549720160937e+17
19140.0	8.249871398775464e+17
19141.0	8.248231308470953e+17
19142.0	8.246578629662036e+17
19143.0	8.244928393336148e+17
19144.0	8.243296574199123e+17
19145.0	8.24165285442355e+17
19146.0	8.239738244126038e+17
19147.0	8.238330720987816e+17
19148.0	8.23670116258065e+17
19149.0	8.235051161135786e+17
19150.0	8.233403391060649e+17
19151.0	8.231750273247914e+17
19152.0	8.230070190254761e+17
19153.0	8.228421845559977e+17
19154.0	8.226722259053225e+17
19155.0	8.225089698922493e+17
19156.0	8.223392764613972e+17
19157.0	8.221578269556735e+17
19158.0	8.219462419349503e+17
19159.0	8.218286751743999e+17
19160.0	8.216681281224701e+17
19161.0	8.2148714376506e+17
19162.0	8.21137859604207e+17
19163.0	8.21126027612433e+17
19164.0	8.21002614411537e+17
19165.0	8.208385500162728e+17
19166.0	8.206673825671845e+17
19167.0	8.204884131534164e+17
19168.0	8.203357265068031e+17
19169.0	8.201707712413696e+17
19170.0	8.200041751642108e+17
19171.0	8.198313908109312e+17
19172.0	8.196662351975763e+17
19173.0	8.195001924889257e+17
19174.0	8.193309088415743e+17
19175.0	8.191639923195903e+17
19176.0	8.189946203122345e+17
19177.0	8.18817659970082e+17
19178.0	8.186490422383955e+17
19179.0	8.184762627784701e+17
19180.0	8.183135597144744e+17
19181.0	8.18142241689873e+17
19182.0	8.179754392529577e+17
19183.0	8.178058664782506e+17
19184.0	8.17634164674833e+17
19185.0	8.174643490499241e+17
19186.0	8.17293294427614e+17
19187.0	8.171186448673449e+17
19188.0	8.169491659052372e+17
19189.0	8.167751378010108e+17
19190.0	8.166009111663956e+17
19191.0	8.163723977949181e+17
19192.0	8.161784018676392e+17
19193.0	8.160020529151999e+17
19194.0	8.158252750252713e+17
19195.0	8.156446346007892e+17
19196.0	8.15446514414387e+17
19197.0	8.15220314341376e+17
19198.0	8.149199354855421e+17
19199.0	8.136222203445245e+17
19200.0	8.136485829432663e+17
19201.0	8.144160710896298e+17
19202.0	8.143554207547391e+17
19203.0	8.142117764683092e+17
19204.0	8.140550719580841e+17
19205.0	8.138897421413034e+17
19206.0	8.137189012886866e+17
19207.0	8.135436308316157e+17
19208.0	8.133661178200063e+17
19209.0	8.131983796338685e+17
19210.0	8.130229570633728e+17
19211.0	8.128466369118207e+17
19212.0	8.126688845452628e+17
19213.0	8.124812705311402e+17
19214.0	8.12297253552128e+17
19215.0	8.121319662376275e+17
19216.0	8.119599592286889e+17
19217.0	8.117818704789503e+17
19218.0	8.115760091452756e+17
19219.0	8.114170363554472e+17
19220.0	8.112454124262739e+17
19221.0	8.109711057835347e+17
19222.0	8.107815836407123e+17
19223.0	8.106029360698708e+17
19224.0	8.104208983829162e+17
19225.0	8.102368277168125e+17
19226.0	8.100595539203411e+17
19227.0	8.09877717839599e+17
19228.0	8.096967382357331e+17
19229.0	8.095141038391293e+17
19230.0	8.093291706843135e+17
19231.0	8.091465490104317e+17
19232.0	8.089634642853888e+17
19233.0	8.087765249949696e+17
19234.0	8.08594270322688e+17
19235.0	8.084088924318377e+17
19236.0	8.082243264184319e+17
19237.0	8.080376817079638e+17
19238.0	8.078462937989119e+17
19239.0	8.076647612459689e+17
19240.0	8.074765765268819e+17
19241.0	8.072279450364585e+17
19242.0	8.069651992936448e+17
19243.0	8.067694034507091e+17
19244.0	8.065882153899348e+17
19245.0	8.063985161076733e+17
19246.0	8.062077963512488e+17
19247.0	8.060174438760445e+17
19248.0	8.05826260369408e+17
19249.0	8.056336889675773e+17
19250.0	8.054417622302717e+17
19251.0	8.052442208578216e+17
19252.0	8.050421714474323e+17
19253.0	8.048615627598505e+17
19254.0	8.046670906392575e+17
19255.0	8.044629963658582e+17
19256.0	8.042280694841344e+17
19257.0	8.03908958167586e+17
19258.0	8.037120239905449e+17
19259.0	8.035105669556905e+17
19260.0	8.032875471437821e+17
19261.0	8.031170672809298e+17
19262.0	8.028737867437395e+17
19263.0	8.026642654603944e+17
19264.0	8.024480492290044e+17
19265.0	8.022581740655955e+17
19266.0	8.020580136299178e+17
19267.0	8.018603286724607e+17
19268.0	8.01656741630225e+17
19269.0	8.012836314458792e+17
19270.0	8.010398928906922e+17
19271.0	8.008236277257556e+17
19272.0	8.006267719821994e+17
19273.0	8.003796215005183e+17
19274.0	8.001783266454186e+17
19275.0	8.00005147468322e+17
19276.0	7.997954472280063e+17
19277.0	7.995861236361897e+17
19278.0	7.993749426667519e+17
19279.0	7.990927525500244e+17
19280.0	7.988236078372178e+17
19281.0	7.986116388978688e+17
19282.0	7.983951589845672e+17
19283.0	7.981715090483881e+17
19284.0	7.9794490338618e+17
19285.0	7.977428021062314e+17
19286.0	7.975257766537897e+17
19287.0	7.973017064483497e+17
19288.0	7.965783341312677e+17
19289.0	7.957905879160134e+17
19290.0	7.966358736906922e+17
19291.0	7.963375870935037e+17
19292.0	7.961109383697747e+17
19293.0	7.958862676798121e+17
19294.0	7.956601491161085e+17
19295.0	7.954321558383276e+17
19296.0	7.952027253123753e+17
19297.0	7.949710491560617e+17
19298.0	7.947390075360595e+17
19299.0	7.94506242258807e+17
19300.0	7.94271147045683e+17
19301.0	7.940345655110313e+17
19302.0	7.937961477100884e+17
19303.0	7.935544969396221e+17
19304.0	7.933154094481407e+17
19305.0	7.930731024089088e+17
19306.0	7.928292992614399e+17
19307.0	7.925796991664127e+17
19308.0	7.923288439958182e+17
19309.0	7.919075977418067e+17
19310.0	7.916352362774525e+17
19311.0	7.914317954766163e+17
19312.0	7.911891182201514e+17
19313.0	7.909312777158655e+17
19314.0	7.898702651850751e+17
19315.0	7.896708423876617e+17
19316.0	7.901434523680767e+17
19317.0	7.89886476309845e+17
19318.0	7.896203117898408e+17
19319.0	7.893455759299923e+17
19320.0	7.89072278996036e+17
19321.0	7.887418560610301e+17
19322.0	7.883177220287145e+17
19323.0	7.880311975182335e+17
19324.0	7.877572584363347e+17
19325.0	7.874581164807506e+17
19326.0	7.871832561898838e+17
19327.0	7.868939867870547e+17
19328.0	7.865993467177641e+17
19329.0	7.863009033934163e+17
19330.0	7.859982431158271e+17
19331.0	7.856016321063594e+17
19332.0	7.851299678016851e+17
19333.0	7.84819459981312e+17
19334.0	7.845081023949481e+17
19335.0	7.841932024392361e+17
19336.0	7.838744462404266e+17
19337.0	7.835543292695892e+17
19338.0	7.832225767402152e+17
19339.0	7.828202672095228e+17
19340.0	7.822439799062527e+17
19341.0	7.819109479743488e+17
19342.0	7.815623912456191e+17
19343.0	7.8123696666269e+17
19344.0	7.808943341087402e+17
19345.0	7.804887924473853e+17
19346.0	7.800248005033983e+17
19347.0	7.794424346749609e+17
19348.0	7.79090430927394e+17
19349.0	7.787314977701887e+17
19350.0	7.783696125220179e+17
19351.0	7.779887404985002e+17
19352.0	7.774414117885268e+17
19353.0	7.767151934963711e+17
19354.0	7.763227432364714e+17
19355.0	7.759221881831421e+17
19356.0	7.755226460542292e+17
19357.0	7.751151460723369e+17
19358.0	7.741486226822482e+17
19359.0	7.737236760734378e+17
19360.0	7.733039467593725e+17
19361.0	7.728784776800938e+17
19362.0	7.724060441400657e+17
19363.0	7.713689054478335e+17
19364.0	7.709279979743912e+17
19365.0	7.704809894663508e+17
19366.0	7.700099345940476e+17
19367.0	7.693672335627603e+17
19368.0	7.686815442709162e+17
19369.0	7.682084021731325e+17
19370.0	7.67727455314466e+17
19371.0	7.672437990752255e+17
19372.0	7.667510869142186e+17
19373.0	7.66245303764036e+17
19374.0	7.657322848802131e+17
19375.0	7.652105808510973e+17
19376.0	7.646119792913066e+17
19377.0	7.640241590501375e+17
19378.0	7.634660369978706e+17
19379.0	7.628988658745344e+17
19380.0	7.623224124768255e+17
19381.0	7.617364728217599e+17
19382.0	7.611377849991165e+17
19383.0	7.604778065111724e+17
19384.0	7.597576858981714e+17
19385.0	7.591314359058432e+17
19386.0	7.584946793218045e+17
19387.0	7.578471203078143e+17
19388.0	7.571880561781417e+17
19389.0	7.563981396901888e+17
19390.0	7.55596901098018e+17
19391.0	7.537768662040559e+17
19392.0	7.541264706699261e+17
19393.0	7.534297141477375e+17
19394.0	7.524748534393517e+17
19395.0	7.515847536235859e+17
19396.0	7.50770961199923e+17
19397.0	7.499387671063209e+17
19398.0	7.49028333304764e+17
19399.0	7.478458791755773e+17
19400.0	7.469561351766016e+17
19401.0	7.460275390600532e+17
19402.0	7.450652970756777e+17
19403.0	7.436832822962857e+17
19404.0	7.426487953828518e+17
19405.0	7.415878809987753e+17
19406.0	7.404941692545706e+17
19407.0	7.389644452091222e+17
19408.0	7.377813975859199e+17
19409.0	7.366335466045439e+17
19410.0	7.354434080909993e+17
19411.0	7.339545994810708e+17
19412.0	7.32541712666897e+17
19413.0	7.312297802334207e+17
19414.0	7.298600746177875e+17
19415.0	7.28397721440529e+17
19416.0	7.265199588027052e+17
19417.0	7.249783390120616e+17
19418.0	7.234100223366484e+17
19419.0	7.217688464064511e+17
19420.0	7.200690630470313e+17
19421.0	7.182535564634794e+17
19422.0	7.164010839408637e+17
19423.0	7.145017778197844e+17
19424.0	7.125253281021951e+17
19425.0	7.1041616459421e+17
19426.0	7.081689812216489e+17
19427.0	7.058099413538132e+17
19428.0	7.033595127747926e+17
19429.0	7.007971770193235e+17
19430.0	6.98092327272448e+17
19431.0	6.95180636052958e+17
19432.0	6.92308091950421e+17
19433.0	6.891463482802177e+17
19434.0	6.857907868707497e+17
19435.0	6.822389047711059e+17
19436.0	6.784284944411306e+17
19437.0	6.744749065109501e+17
19438.0	6.693489793652052e+17
19439.0	6.65585704623582e+17
19440.0	6.607400386341546e+17
19441.0	6.554964460219048e+17
19442.0	6.498222024774998e+17
19443.0	6.43708551832098e+17
19444.0	6.370618879858002e+17
19445.0	6.29837073726396e+17
19446.0	6.219306461298687e+17
19447.0	6.132199873751717e+17
19448.0	6.035190237364227e+17
19449.0	5.925062559399936e+17
19450.0	5.793091405479928e+17
19451.0	5.720023528811181e+17
19452.0	5.862627557244928e+17
19453.0	5.979422510634328e+17
19454.0	6.080058586300411e+17
19455.0	6.169430513243475e+17
19456.0	6.249926342912685e+17
19457.0	6.32306601907541e+17
19458.0	6.384254229413896e+17
19459.0	6.450883385273005e+17
19460.0	6.507364661679442e+17
19461.0	6.559454374570665e+17
19462.0	6.607435047370753e+17
19463.0	6.652270719183528e+17
19464.0	6.693768764500649e+17
19465.0	6.732458886867628e+17
19466.0	6.768728458919933e+17
19467.0	6.802491598787924e+17
19468.0	6.834192137235114e+17
19469.0	6.864089554179411e+17
19470.0	6.892430173405183e+17
19471.0	6.918649351416492e+17
19472.0	6.943231349970259e+17
19473.0	6.966640194005673e+17
19474.0	6.988957820649472e+17
19475.0	7.009941523704486e+17
19476.0	7.030652741702996e+17
19477.0	7.049472706084863e+17
19478.0	7.06711613673745e+17
19479.0	7.083642153074688e+17
19480.0	7.099538231088468e+17
19481.0	7.115245241062738e+17
19482.0	7.129898331493716e+17
19483.0	7.143797512557908e+17
19484.0	7.157092490149884e+17
19485.0	7.16971155984657e+17
19486.0	7.184656937342292e+17
19487.0	7.197815001666899e+17
19488.0	7.20907585646319e+17
19489.0	7.219601600763219e+17
19490.0	7.229239570290002e+17
19491.0	7.243224382264657e+17
19492.0	7.252459279177044e+17
19493.0	7.261363126665216e+17
19494.0	7.270003420867241e+17
19495.0	7.281236604441938e+17
19496.0	7.290760755937279e+17
19497.0	7.298633084261718e+17
19498.0	7.304314585000617e+17
19499.0	7.300000590943561e+17
19500.0	7.32403433873954e+17
19501.0	7.330732327654739e+17
19502.0	7.337020046529875e+17
19503.0	7.344540355308202e+17
19504.0	7.35210633166848e+17
19505.0	7.357662875702612e+17
19506.0	7.362990596685824e+17
19507.0	7.368101073693353e+17
19508.0	7.375598603206653e+17
19509.0	7.380417216774143e+17
19510.0	7.384792509186047e+17
19511.0	7.373103948627958e+17
19512.0	7.389953997318824e+17
19513.0	7.393778572023116e+17
19514.0	7.398757654069243e+17
19515.0	7.40609906180096e+17
19516.0	7.409896869855232e+17
19517.0	7.413299282269526e+17
19518.0	7.416984776649382e+17
19519.0	7.421317338890239e+17
19520.0	7.424396430584489e+17
19521.0	7.427377725090474e+17
19522.0	7.430249149803177e+17
19523.0	7.433038136868863e+17
19524.0	7.435727368006314e+17
19525.0	7.438321501689172e+17
19526.0	7.441746705951402e+17
19527.0	7.444115960627199e+17
19528.0	7.446350515230036e+17
19529.0	7.44851037626914e+17
19530.0	7.450572227608573e+17
19531.0	7.4525333024058e+17
19532.0	7.454414903530836e+17
19533.0	7.456223307060564e+17
19534.0	7.459237564601684e+17
19535.0	7.463167366004736e+17
19536.0	7.465235211004586e+17
19537.0	7.466801744401747e+17
19538.0	7.468248432552617e+17
19539.0	7.473788917994835e+17
19540.0	7.477174676226047e+17
19541.0	7.478520766791679e+17
19542.0	7.479795282957651e+17
19543.0	7.481012618177193e+17
19544.0	7.486283900605777e+17
19545.0	7.488440719376381e+17
19546.0	7.489423288216233e+17
19547.0	7.490727150529193e+17
19548.0	7.491715795517439e+17
19549.0	7.494582201046354e+17
19550.0	7.498066112981674e+17
19551.0	7.499141279470932e+17
19552.0	7.499842804776956e+17
19553.0	7.500469355500883e+17
19554.0	7.501067534554451e+17
19555.0	7.503058398696787e+17
19556.0	7.505943666010793e+17
19557.0	7.506443947212799e+17
19558.0	7.506913639355731e+17
19559.0	7.507351819692713e+17
19560.0	7.507746621139626e+17
19561.0	7.508127333919402e+17
19562.0	7.509827029478057e+17
19563.0	7.511820921907881e+17
19564.0	7.512100988168874e+17
19565.0	7.512351073544872e+17
19566.0	7.51256547238434e+17
19567.0	7.512762590691327e+17
19568.0	7.512913781369513e+17
19569.0	7.513060439403178e+17
19570.0	7.513848465238697e+17
19571.0	7.515617369609555e+17
19572.0	7.515661465725609e+17
19573.0	7.515698771263487e+17
19574.0	7.515668896634195e+17
19575.0	7.515688088371197e+17
19576.0	7.515639835699884e+17
19577.0	7.515546716558675e+17
19578.0	7.515398979190783e+17
19579.0	7.515237752941225e+17
19580.0	7.515513430562131e+17
19581.0	7.516587287030441e+17
19582.0	7.516352235438079e+17
19583.0	7.516088441678505e+17
19584.0	7.515792950165503e+17
19585.0	7.515510796539219e+17
19586.0	7.51515505524736e+17
19587.0	7.51482576463462e+17
19588.0	7.514347819499519e+17
19589.0	7.514104825293484e+17
19590.0	7.513676927991807e+17
19591.0	7.51328242573858e+17
19592.0	7.512836789327187e+17
19593.0	7.512803007004671e+17
19594.0	7.512987009723048e+17
19595.0	7.51257851806788e+17
19596.0	7.511010249626964e+17
19597.0	7.511516785934336e+17
19598.0	7.510884512781654e+17
19599.0	7.510418556365481e+17
19600.0	7.509838389051392e+17
19601.0	7.509216292678314e+17
19602.0	7.508597507009194e+17
19603.0	7.507687405955753e+17
19604.0	7.507288695417514e+17
19605.0	7.506608108077055e+17
19606.0	7.506069204325714e+17
19607.0	7.505399182437032e+17
19608.0	7.5047106524829e+17
19609.0	7.503992825315327e+17
19610.0	7.50329810317039e+17
19611.0	7.502626730715817e+17
19612.0	7.502608931487743e+17
19613.0	7.501865889562624e+17
19614.0	7.501093223268352e+17
19615.0	7.500338688950271e+17
19616.0	7.499448761100969e+17
19617.0	7.498783246690986e+17
19618.0	7.497785660844713e+17
19619.0	7.496930182212266e+17
19620.0	7.496148830912511e+17
19621.0	7.495549529183572e+17
19622.0	7.495690586423296e+17
19623.0	7.494964422377471e+17
19624.0	7.494113247100927e+17
19625.0	7.493249021946538e+17
19626.0	7.492366824199508e+17
19627.0	7.491429207113728e+17
19628.0	7.490198829006847e+17
19629.0	7.489319704286548e+17
19630.0	7.485377378691753e+17
19631.0	7.473923918659587e+17
19632.0	7.487654052495361e+17
19633.0	7.487719231979519e+17
19634.0	7.48693793940002e+17
19635.0	7.486037134322345e+17
19636.0	7.485144348753917e+17
19637.0	7.48403475681553e+17
19638.0	7.483273644430676e+17
19639.0	7.482320927850493e+17
19640.0	7.481330454145705e+17
19641.0	7.480214409969664e+17
19642.0	7.4798557312669e+17
19643.0	7.478877681090557e+17
19644.0	7.478566733567315e+17
19645.0	7.47826144416017e+17
19646.0	7.477360497874259e+17
19647.0	7.47636273307102e+17
19648.0	7.475357183639548e+17
19649.0	7.47434188804369e+17
19650.0	7.473321897623551e+17
19651.0	7.472297931003219e+17
19652.0	7.471269090601641e+17
19653.0	7.470234206207999e+17
19654.0	7.469195333031254e+17
19655.0	7.468149055509844e+17
19656.0	7.467098741669887e+17
19657.0	7.4660466158906e+17
19658.0	7.464987250742611e+17
19659.0	7.464574844403711e+17
19660.0	7.46398886937668e+17
19661.0	7.462915296722944e+17
19662.0	7.461835383679657e+17
19663.0	7.460722394355028e+17
19664.0	7.459673952572755e+17
19665.0	7.4591923891514e+17
19666.0	7.458095135457279e+17
