# Flux units: erg / (cm m2 s)
# Wavelength units: Angstrom
wave	flux
19000.0	4.2899842083935565e+17
19001.0	4.2890339748413446e+17
19002.0	4.288400556643668e+17
19003.0	4.287597113944746e+17
19004.0	4.2867486831411194e+17
19005.0	4.2859858420039674e+17
19006.0	4.2850270283038714e+17
19007.0	4.2844161824522234e+17
19008.0	4.283534627132757e+17
19009.0	4.2826535268952736e+17
19010.0	4.2812285316846906e+17
19011.0	4.281183312194218e+17
19012.0	4.279948005081086e+17
19013.0	4.279671787793066e+17
19014.0	4.278807931038378e+17
19015.0	4.2780052754705056e+17
19016.0	4.2771800524499616e+17
19017.0	4.276504613617663e+17
19018.0	4.2756825964434765e+17
19019.0	4.274882053406719e+17
19020.0	4.2741153178583046e+17
19021.0	4.27334617268224e+17
19022.0	4.2725498351342925e+17
19023.0	4.2717060285508256e+17
19024.0	4.2708685994065914e+17
19025.0	4.270156828813994e+17
19026.0	4.2693148229850445e+17
19027.0	4.2682738645401594e+17
19028.0	4.267821640275285e+17
19029.0	4.267000916344832e+17
19030.0	4.266251248118442e+17
19031.0	4.2654717674782714e+17
19032.0	4.264666847685291e+17
19033.0	4.2637483587229005e+17
19034.0	4.263082276683775e+17
19035.0	4.262244042233172e+17
19036.0	4.234815939979944e+17
19037.0	4.260713648357374e+17
19038.0	4.2599177994458445e+17
19039.0	4.259147370113706e+17
19040.0	4.258380357042175e+17
19041.0	4.25757949104401e+17
19042.0	4.2556549689070925e+17
19043.0	4.2560303234635085e+17
19044.0	4.255224381658453e+17
19045.0	4.2544405249611085e+17
19046.0	4.2535622321111034e+17
19047.0	4.252852248991059e+17
19048.0	4.2515365328759456e+17
19049.0	4.249181724082174e+17
19050.0	4.2504078072217594e+17
19051.0	4.2461681753784256e+17
19052.0	4.2483120819841696e+17
19053.0	4.2481783885441696e+17
19054.0	4.2473881669905056e+17
19055.0	4.2459365169780045e+17
19056.0	4.2456622863919776e+17
19057.0	4.2450340020223994e+17
19058.0	4.24316470768435e+17
19059.0	4.24304486453521e+17
19060.0	4.2426524797064525e+17
19061.0	4.2419108107168416e+17
19062.0	4.24112206905344e+17
19063.0	4.240340581438804e+17
19064.0	4.2393598699765766e+17
19065.0	4.238528765842772e+17
19066.0	4.2375208927668896e+17
19067.0	4.237198085849087e+17
19068.0	4.236435744533162e+17
19069.0	4.2356550678173005e+17
19070.0	4.2348270681675085e+17
19071.0	4.2340734978402976e+17
19072.0	4.232893553442814e+17
19073.0	4.2325207832767123e+17
19074.0	4.231753885548543e+17
19075.0	4.2309736058934605e+17
19076.0	4.2298897138537805e+17
19077.0	4.229380062576638e+17
19078.0	4.2285569206299296e+17
19079.0	4.2278474240491514e+17
19080.0	4.2270484440896845e+17
19081.0	4.226223564303017e+17
19082.0	4.225447586605738e+17
19083.0	4.224608565723134e+17
19084.0	4.2236585195165005e+17
19085.0	4.2231475861804365e+17
19086.0	4.2213631440104096e+17
19087.0	4.2201290196910074e+17
19088.0	4.220215916582228e+17
19089.0	4.219505116971008e+17
19090.0	4.2192543674968736e+17
19091.0	4.218345109498539e+17
19092.0	4.216764886592171e+17
19093.0	4.2169590157585056e+17
19094.0	4.216178524990121e+17
19095.0	4.215405189005311e+17
19096.0	4.2146007417705805e+17
19097.0	4.2138470211474765e+17
19098.0	4.212620572404394e+17
19099.0	4.2117755977072634e+17
19100.0	4.2114466510274554e+17
19101.0	4.2107217543604896e+17
19102.0	4.2097423221609805e+17
19103.0	4.2091870060980896e+17
19104.0	4.2084223439339514e+17
19105.0	4.206697819493718e+17
19106.0	4.206745717047296e+17
19107.0	4.2058217041865376e+17
19108.0	4.204982774879572e+17
19109.0	4.2030411043307494e+17
19110.0	4.2037428715083085e+17
19111.0	4.202723631868585e+17
19112.0	4.2018151001838925e+17
19113.0	4.201439881243307e+17
19114.0	4.2005023487426554e+17
19115.0	4.199654220627967e+17
19116.0	4.1990551370028365e+17
19117.0	4.198327967722154e+17
19118.0	4.197361985257472e+17
19119.0	4.1766495117639405e+17
19120.0	4.1958280087470074e+17
19121.0	4.195120718370134e+17
19122.0	4.1944988680628896e+17
19123.0	4.193727574704127e+17
19124.0	4.1928622646231034e+17
19125.0	4.192168012240212e+17
19126.0	4.191413540137642e+17
19127.0	4.1875260382904314e+17
19128.0	4.1897011435274234e+17
19129.0	4.188979882622974e+17
19130.0	4.1882405645407565e+17
19131.0	4.1874915960640845e+17
19132.0	4.1867200370660685e+17
19133.0	4.185831379391827e+17
19134.0	4.185109141214549e+17
19135.0	4.1844041311409485e+17
19136.0	4.183649412972544e+17
19137.0	4.182605873632596e+17
19138.0	4.182086559378091e+17
19139.0	4.1813414377772365e+17
19140.0	4.180574796600661e+17
19141.0	4.179804741260629e+17
19142.0	4.178991685216937e+17
19143.0	4.1781655639162874e+17
19144.0	4.177440766514517e+17
19145.0	4.1767268722059936e+17
19146.0	4.1750255946956806e+17
19147.0	4.17487176999458e+17
19148.0	4.17402809483264e+17
19149.0	4.173234879944021e+17
19150.0	4.1728788793043616e+17
19151.0	4.172118410046123e+17
19152.0	4.171333371953151e+17
19153.0	4.169876513314132e+17
19154.0	4.169503181810346e+17
19155.0	4.169056275223893e+17
19156.0	4.1682931999047674e+17
19157.0	4.1672478695970125e+17
19158.0	4.1652949275552416e+17
19159.0	4.165911646830592e+17
19160.0	4.165197185591978e+17
19161.0	4.164450003189759e+17
19162.0	4.1614306992018797e+17
19163.0	4.16289093775087e+17
19164.0	4.1621558160698016e+17
19165.0	4.160555138940927e+17
19166.0	4.1603476096723616e+17
19167.0	4.159574795878399e+17
19168.0	4.159101814003028e+17
19169.0	4.1582888830894074e+17
19170.0	4.1575879261115725e+17
19171.0	4.156657848986282e+17
19172.0	4.156051611276628e+17
19173.0	4.1552869085675514e+17
19174.0	4.154429677415082e+17
19175.0	4.1537663349555206e+17
19176.0	4.1530063920824314e+17
19177.0	4.1520082924339194e+17
19178.0	4.151331313593002e+17
19179.0	4.150380387281579e+17
19180.0	4.149941514185386e+17
19181.0	4.148911621712553e+17
19182.0	4.148364060917759e+17
19183.0	4.1476760559506765e+17
19184.0	4.1468697765041485e+17
19185.0	4.146135356669951e+17
19186.0	4.1453908075915936e+17
19187.0	4.1445379042618016e+17
19188.0	4.1438407773825696e+17
19189.0	4.143107503991465e+17
19190.0	4.1423385223932576e+17
19191.0	4.141498417982121e+17
19192.0	4.1408310937299616e+17
19193.0	4.139968150634496e+17
19194.0	4.139143098881365e+17
19195.0	4.1385508205144736e+17
19196.0	4.137766399683242e+17
19197.0	4.137023507354964e+17
19198.0	4.1362802459279354e+17
19199.0	4.121475277651964e+17
19200.0	4.1251992624605914e+17
19201.0	4.1339870996944205e+17
19202.0	4.13324622762257e+17
19203.0	4.1324436251825485e+17
19204.0	4.131680226902015e+17
19205.0	4.1309560257904634e+17
19206.0	4.130180737357141e+17
19207.0	4.129265384336042e+17
19208.0	4.128268612184746e+17
19209.0	4.1279212308398074e+17
19210.0	4.127166320432468e+17
19211.0	4.1264210387490125e+17
19212.0	4.1256680108851194e+17
19213.0	4.124683419691691e+17
19214.0	4.123825657959765e+17
19215.0	4.123351826737834e+17
19216.0	4.1226508592742394e+17
19217.0	4.121885868556289e+17
19218.0	4.1197796750349626e+17
19219.0	4.12018305732881e+17
19220.0	4.119584272198314e+17
19221.0	4.118340149357227e+17
19222.0	4.1181053249563296e+17
19223.0	4.117330294472702e+17
19224.0	4.116546693627902e+17
19225.0	4.1155942112296954e+17
19226.0	4.115067856835925e+17
19227.0	4.114318865290581e+17
19228.0	4.1135961237968205e+17
19229.0	4.112841757250901e+17
19230.0	4.112075334178133e+17
19231.0	4.111317758989653e+17
19232.0	4.110568710122154e+17
19233.0	4.109723396385451e+17
19234.0	4.109035599735465e+17
19235.0	4.10827748487987e+17
19236.0	4.107572138562901e+17
19237.0	4.1067869620578976e+17
19238.0	4.105896384790528e+17
19239.0	4.1053155778450765e+17
19240.0	4.1045462495177376e+17
19241.0	4.103777286094848e+17
19242.0	4.103035022213119e+17
19243.0	4.1020857253887994e+17
19244.0	4.101556639804074e+17
19245.0	4.1007886802179405e+17
19246.0	4.1000297509683194e+17
19247.0	4.099294378328064e+17
19248.0	4.098553590841342e+17
19249.0	4.0977730476441594e+17
19250.0	4.0968878859223034e+17
19251.0	4.095973883467093e+17
19252.0	4.09518628475153e+17
19253.0	4.094761659706027e+17
19254.0	4.094056217619114e+17
19255.0	4.093045272914602e+17
19256.0	4.092461508984831e+17
19257.0	4.0918102950543354e+17
19258.0	4.091063998349311e+17
19259.0	4.090216277781161e+17
19260.0	4.088921784145235e+17
19261.0	4.088799353110527e+17
19262.0	4.087979492507648e+17
19263.0	4.0872040293116576e+17
19264.0	4.085599670981972e+17
19265.0	4.08545061380642e+17
19266.0	4.084445223059456e+17
19267.0	4.0843349366319776e+17
19268.0	4.0835776718219936e+17
19269.0	4.0828362139456845e+17
19270.0	4.082093713784832e+17
19271.0	4.0807362210037766e+17
19272.0	4.080544369344512e+17
19273.0	4.078942690476031e+17
19274.0	4.0783090744470163e+17
19275.0	4.078365230585172e+17
19276.0	4.0775879848099834e+17
19277.0	4.076849496500906e+17
19278.0	4.076093378134015e+17
19279.0	4.075338757133653e+17
19280.0	4.07448181608721e+17
19281.0	4.073864864727038e+17
19282.0	4.0731476967642445e+17
19283.0	4.072197791765845e+17
19284.0	4.071590868287487e+17
19285.0	4.0706350017850016e+17
19286.0	4.070114971702612e+17
19287.0	4.0694219433574394e+17
19288.0	4.0608945800915526e+17
19289.0	4.0507074000103846e+17
19290.0	4.0671924372985165e+17
19291.0	4.06608674816e+17
19292.0	4.0657096830266016e+17
19293.0	4.0649585740567885e+17
19294.0	4.064207857254399e+17
19295.0	4.0634858071217485e+17
19296.0	4.0623202841395206e+17
19297.0	4.061846273960619e+17
19298.0	4.061214225902249e+17
19299.0	4.060027043534165e+17
19300.0	4.059727487041536e+17
19301.0	4.059024646122153e+17
19302.0	4.0582627494024525e+17
19303.0	4.057427867598848e+17
19304.0	4.0567575479145805e+17
19305.0	4.056038403036501e+17
19306.0	4.0553047836153165e+17
19307.0	4.0544877262056096e+17
19308.0	4.0537910593017165e+17
19309.0	4.052546949742591e+17
19310.0	4.051689737464489e+17
19311.0	4.051518913249279e+17
19312.0	4.050865943303509e+17
19313.0	4.0501392647563936e+17
19314.0	3.983293106094131e+17
19315.0	3.9850911364110214e+17
19316.0	4.047296327057408e+17
19317.0	4.0471670075774285e+17
19318.0	4.046430797474474e+17
19319.0	4.045713688930986e+17
19320.0	4.044773282633045e+17
19321.0	4.0438659966566394e+17
19322.0	4.043372391388501e+17
19323.0	4.042536650451627e+17
19324.0	4.0420107050024954e+17
19325.0	4.040761335087104e+17
19326.0	4.040555024962901e+17
19327.0	4.039768997014187e+17
19328.0	4.0382437236845235e+17
19329.0	4.0383469266315936e+17
19330.0	4.0375456426011296e+17
19331.0	4.036802314764286e+17
19332.0	4.036125329631914e+17
19333.0	4.035368981976404e+17
19334.0	4.0346054704496634e+17
19335.0	4.032261011101015e+17
19336.0	4.0331354074426016e+17
19337.0	4.032448334310057e+17
19338.0	4.03138965283362e+17
19339.0	4.0309748473528314e+17
19340.0	4.029793537709396e+17
19341.0	4.028788207080789e+17
19342.0	4.0278952879936845e+17
19343.0	4.02804112953617e+17
19344.0	4.0267095163098445e+17
19345.0	4.022740690403323e+17
19346.0	4.024178394355027e+17
19347.0	4.024223193716053e+17
19348.0	4.0243748870116685e+17
19349.0	4.023587015666346e+17
19350.0	4.0225790936569165e+17
19351.0	4.022101241495551e+17
19352.0	4.020485095773523e+17
19353.0	4.020697577117012e+17
19354.0	4.019981038998868e+17
19355.0	4.0191010446595405e+17
19356.0	4.018514073485311e+17
19357.0	4.01778279518481e+17
19358.0	4.017040490059093e+17
19359.0	4.0160063193961805e+17
19360.0	4.0149042848945485e+17
19361.0	4.014792571704661e+17
19362.0	4.014129408202069e+17
19363.0	4.0133955685799245e+17
19364.0	4.012660830677674e+17
19365.0	4.011926440902655e+17
19366.0	4.011203268793684e+17
19367.0	4.0104736073973754e+17
19368.0	4.009745225263787e+17
19369.0	4.008840422315349e+17
19370.0	4.007675185244842e+17
19371.0	4.006969382447786e+17
19372.0	4.0063156456434336e+17
19373.0	4.0055550079139834e+17
19374.0	4.004852096390484e+17
19375.0	4.0041227125172896e+17
19376.0	4.0034042100667725e+17
19377.0	4.002658788573183e+17
19378.0	4.0019362679794336e+17
19379.0	4.001213481047381e+17
19380.0	4.000483707802965e+17
19381.0	3.9997513319929165e+17
19382.0	3.9989305766051834e+17
19383.0	3.9981242293507405e+17
19384.0	3.9975467988200096e+17
19385.0	3.996844486382932e+17
19386.0	3.9961253009599136e+17
19387.0	3.9953955563765754e+17
19388.0	3.994642937457322e+17
19389.0	3.993841275939498e+17
19390.0	3.993103055366827e+17
19391.0	3.967918071087069e+17
19392.0	3.991119841634983e+17
19393.0	3.990918865966421e+17
19394.0	3.990170635687252e+17
19395.0	3.9891835803402234e+17
19396.0	3.9886164545153696e+17
19397.0	3.988005980558677e+17
19398.0	3.9869949393851725e+17
19399.0	3.984897875465556e+17
19400.0	3.985505644795221e+17
19401.0	3.9850690352250886e+17
19402.0	3.9843499329890976e+17
19403.0	3.983593274256043e+17
19404.0	3.982888808742912e+17
19405.0	3.982135219541333e+17
19406.0	3.9814133204036256e+17
19407.0	3.9803966295026336e+17
19408.0	3.9784917087464134e+17
19409.0	3.9792093520636576e+17
19410.0	3.9785000924610554e+17
19411.0	3.977765849486677e+17
19412.0	3.9770109411764896e+17
19413.0	3.9759867270922234e+17
19414.0	3.975485465122133e+17
19415.0	3.9747898104436045e+17
19416.0	3.973731370838698e+17
19417.0	3.973042067734527e+17
19418.0	3.972591124130474e+17
19419.0	3.971834450018304e+17
19420.0	3.9711056722220365e+17
19421.0	3.97036112384273e+17
19422.0	3.969540520148991e+17
19423.0	3.9688400077673805e+17
19424.0	3.96809318118195e+17
19425.0	3.967335745104555e+17
19426.0	3.966570033665365e+17
19427.0	3.965767049543678e+17
19428.0	3.965013960862378e+17
19429.0	3.964219956745557e+17
19430.0	3.962932448722946e+17
19431.0	3.958057235120134e+17
19432.0	3.9618099292405754e+17
19433.0	3.96095555440913e+17
19434.0	3.960087046171307e+17
19435.0	3.9585339247602336e+17
19436.0	3.9559605507850195e+17
19437.0	3.957308977577983e+17
19438.0	3.901627551449111e+17
19439.0	3.952826535378946e+17
19440.0	3.9537628759982074e+17
19441.0	3.9525364342456314e+17
19442.0	3.950919938299221e+17
19443.0	3.9487018218728096e+17
19444.0	3.945972969242623e+17
19445.0	3.941860113033898e+17
19446.0	3.936219538216277e+17
19447.0	3.9250488574607334e+17
19448.0	3.8996784374087686e+17
19449.0	3.784680115535875e+17
19450.0	3.19987472819813e+17
19451.0	2.827615617417208e+17
19452.0	3.39310925543288e+17
19453.0	3.8341708363421126e+17
19454.0	3.904576029021522e+17
19455.0	3.922825333877418e+17
19456.0	3.930576801234944e+17
19457.0	3.9342769707854496e+17
19458.0	3.7092855661638995e+17
19459.0	3.9241428780101094e+17
19460.0	3.93832094044433e+17
19461.0	3.938463867644587e+17
19462.0	3.938344225122985e+17
19463.0	3.9381114272699725e+17
19464.0	3.937744177506985e+17
19465.0	3.9373527790387194e+17
19466.0	3.9366914120963405e+17
19467.0	3.936340183176532e+17
19468.0	3.9357981868250445e+17
19469.0	3.9340356445143034e+17
19470.0	3.934594183899818e+17
19471.0	3.934012206044501e+17
19472.0	3.9333095049352525e+17
19473.0	3.9326195503158605e+17
19474.0	3.931472410269012e+17
19475.0	3.929707459029673e+17
19476.0	3.9306148799228576e+17
19477.0	3.930051683461801e+17
19478.0	3.9294231872798714e+17
19479.0	3.928139969331199e+17
19480.0	3.928016273014783e+17
19481.0	3.927245737426944e+17
19482.0	3.9266600203496096e+17
19483.0	3.926012802192725e+17
19484.0	3.9253029945343994e+17
19485.0	3.92451938460194e+17
19486.0	3.9232180780182195e+17
19487.0	3.9232167889687885e+17
19488.0	3.9225494731052365e+17
19489.0	3.921609317766485e+17
19490.0	3.918471635140605e+17
19491.0	3.9203986815494816e+17
19492.0	3.9197592585065805e+17
19493.0	3.919059452865195e+17
19494.0	3.9183486280881485e+17
19495.0	3.9176417375682554e+17
19496.0	3.91609443295778e+17
19497.0	3.9161891123800736e+17
19498.0	3.9123221479424e+17
19499.0	3.875756086132725e+17
19500.0	3.9141124949934074e+17
19501.0	3.913509842714622e+17
19502.0	3.9128424492564486e+17
19503.0	3.9121544953200634e+17
19504.0	3.9114494160404486e+17
19505.0	3.9107273295571616e+17
19506.0	3.91004064719394e+17
19507.0	3.9092835907010554e+17
19508.0	3.90862187143714e+17
19509.0	3.9079146264985594e+17
19510.0	3.9067593543953056e+17
19511.0	3.7981567183748666e+17
19512.0	3.89932347276219e+17
19513.0	3.893848754006682e+17
19514.0	3.896118350621344e+17
19515.0	3.902663436883287e+17
19516.0	3.902862975303678e+17
19517.0	3.902125350322176e+17
19518.0	3.9013931024383994e+17
19519.0	3.900655846555647e+17
19520.0	3.899531680808958e+17
19521.0	3.899441740950185e+17
19522.0	3.8986177874056525e+17
19523.0	3.897859551614293e+17
19524.0	3.896916739183957e+17
19525.0	3.896600463496532e+17
19526.0	3.895928573744469e+17
19527.0	3.8951956911226874e+17
19528.0	3.894462349224617e+17
19529.0	3.893727502969514e+17
19530.0	3.8931130619002874e+17
19531.0	3.892407199683925e+17
19532.0	3.89170205888785e+17
19533.0	3.8910018526904314e+17
19534.0	3.890292681168213e+17
19535.0	3.8895694699124045e+17
19536.0	3.888828014832298e+17
19537.0	3.888179985776638e+17
19538.0	3.8867062877061126e+17
19539.0	3.8858027437479264e+17
19540.0	3.886035419966122e+17
19541.0	3.88525688164625e+17
19542.0	3.884609790716587e+17
19543.0	3.88338687217937e+17
19544.0	3.883218097580715e+17
19545.0	3.881698453007017e+17
19546.0	3.8802768775522976e+17
19547.0	3.8811689738567674e+17
19548.0	3.880461279428608e+17
19549.0	3.8796254594990074e+17
19550.0	3.87906123403537e+17
19551.0	3.8783654437410125e+17
19552.0	3.8776614703595514e+17
19553.0	3.876919788087978e+17
19554.0	3.876184521703423e+17
19555.0	3.875474893002068e+17
19556.0	3.874818436890623e+17
19557.0	3.874150975624534e+17
19558.0	3.873455097948842e+17
19559.0	3.8727614977802234e+17
19560.0	3.871822230235818e+17
19561.0	3.87132347576047e+17
19562.0	3.87045124088354e+17
19563.0	3.8699688225232205e+17
19564.0	3.869267337762134e+17
19565.0	3.86856814448913e+17
19566.0	3.867823273847466e+17
19567.0	3.8671738299132576e+17
19568.0	3.866445925231274e+17
19569.0	3.8657433052119034e+17
19570.0	3.865073425929557e+17
19571.0	3.864368574540457e+17
19572.0	3.8636390459637754e+17
19573.0	3.862886264165716e+17
19574.0	3.8621430600608416e+17
19575.0	3.8615898264698874e+17
19576.0	3.8608579406943565e+17
19577.0	3.860064463661738e+17
19578.0	3.859423655100415e+17
19579.0	3.858754893600085e+17
19580.0	3.8580710228186445e+17
19581.0	3.857387024110933e+17
19582.0	3.856720725366101e+17
19583.0	3.856025214692011e+17
19584.0	3.855309158219774e+17
19585.0	3.854467870315861e+17
19586.0	3.853725803566421e+17
19587.0	3.85315129856273e+17
19588.0	3.851714276884481e+17
19589.0	3.851821581860864e+17
19590.0	3.850906704893267e+17
19591.0	3.8504477592562336e+17
19592.0	3.8497596438391456e+17
19593.0	3.848992330874879e+17
19594.0	3.8479700881134925e+17
19595.0	3.8476152010615456e+17
19596.0	3.846658465639083e+17
19597.0	3.84626892804369e+17
19598.0	3.8445291223558803e+17
19599.0	3.8449017617995085e+17
19600.0	3.8442189927219194e+17
19601.0	3.843418880300374e+17
19602.0	3.8427509688456525e+17
19603.0	3.841215165715795e+17
19604.0	3.8413576448245754e+17
19605.0	3.8402932003744416e+17
19606.0	3.8400526891963725e+17
19607.0	3.839370363316906e+17
19608.0	3.838652891966122e+17
19609.0	3.83790156419345e+17
19610.0	3.8369926878767795e+17
19611.0	3.8361823175857485e+17
19612.0	3.8359156758937594e+17
19613.0	3.8352097948030285e+17
19614.0	3.8344774672274765e+17
19615.0	3.8338322343744845e+17
19616.0	3.83263706255633e+17
19617.0	3.8320165949713056e+17
19618.0	3.830717157649065e+17
19619.0	3.8297032098228883e+17
19620.0	3.828978409624916e+17
19621.0	3.829139517734911e+17
19622.0	3.829009427202047e+17
19623.0	3.8282953266735776e+17
19624.0	3.827543733261653e+17
19625.0	3.826942544794966e+17
19626.0	3.8262403875471354e+17
19627.0	3.8255650067360416e+17
19628.0	3.824503238251861e+17
19629.0	3.8226204794989203e+17
19630.0	3.8226831815475206e+17
19631.0	3.807850095356587e+17
19632.0	3.822118506594304e+17
19633.0	3.821316747908437e+17
19634.0	3.8207457724115616e+17
19635.0	3.8198929285010765e+17
19636.0	3.818720329727999e+17
19637.0	3.8176073431995725e+17
19638.0	3.817878134456319e+17
19639.0	3.81728598331665e+17
19640.0	3.8163382223066464e+17
19641.0	3.813239785084251e+17
19642.0	3.815192401368406e+17
19643.0	3.8144984062361594e+17
19644.0	3.8137731991906976e+17
19645.0	3.81268847108642e+17
19646.0	3.811797893119999e+17
19647.0	3.8117808111179085e+17
19648.0	3.81112760209681e+17
19649.0	3.810435198003883e+17
19650.0	3.8097598206880416e+17
19651.0	3.8090693732379296e+17
19652.0	3.808380455310677e+17
19653.0	3.8076943217022285e+17
19654.0	3.8070107948537165e+17
19655.0	3.806315981832192e+17
