# Flux units: erg / (cm m2 s)
# Wavelength units: Angstrom
wave	flux
19000.0	8.120355897999357e+17
19001.0	8.118831281078271e+17
19002.0	8.117339379728383e+17
19003.0	8.115829660975105e+17
19004.0	8.114319459876863e+17
19005.0	8.112809757900799e+17
19006.0	8.111298734718973e+17
19007.0	8.109766902196905e+17
19008.0	8.108264053713577e+17
19009.0	8.106756528581289e+17
19010.0	8.105172061738324e+17
19011.0	8.103730763268096e+17
19012.0	8.10218247229713e+17
19013.0	8.100707391504383e+17
19014.0	8.09918289621811e+17
19015.0	8.097676960727041e+17
19016.0	8.096151702077437e+17
19017.0	8.094623515803647e+17
19018.0	8.093125994086399e+17
19019.0	8.091611107950591e+17
19020.0	8.090087398397267e+17
19021.0	8.088570819160744e+17
19022.0	8.087057834442748e+17
19023.0	8.085539135684607e+17
19024.0	8.084018687901697e+17
19025.0	8.082501053098668e+17
19026.0	8.08097609504085e+17
19027.0	8.079434988912637e+17
19028.0	8.077941724413951e+17
19029.0	8.07642122629939e+17
19030.0	8.074900564606973e+17
19031.0	8.073379498863276e+17
19032.0	8.071858256958804e+17
19033.0	8.07032164712448e+17
19034.0	8.068814612725761e+17
19035.0	8.067285568017748e+17
19036.0	8.063898853485224e+17
19037.0	8.06424717505331e+17
19038.0	8.062725090093737e+17
19039.0	8.06120215369045e+17
19040.0	8.059679020154879e+17
19041.0	8.058155609795241e+17
19042.0	8.056618249180498e+17
19043.0	8.055108331896828e+17
19044.0	8.053583902321321e+17
19045.0	8.052060080919892e+17
19046.0	8.050527496219306e+17
19047.0	8.049010540893524e+17
19048.0	8.047452837904383e+17
19049.0	8.04595038508373e+17
19050.0	8.044429354292564e+17
19051.0	8.042613652673876e+17
19052.0	8.04136086999313e+17
19053.0	8.039860342358015e+17
19054.0	8.038335026386258e+17
19055.0	8.036766240647849e+17
19056.0	8.03528341856802e+17
19057.0	8.033757495820285e+17
19058.0	8.032231377338367e+17
19059.0	8.030705056131753e+17
19060.0	8.02917473775343e+17
19061.0	8.027652307462826e+17
19062.0	8.026125095665663e+17
19063.0	8.0245988275869e+17
19064.0	8.023053355188221e+17
19065.0	8.021514012065788e+17
19066.0	8.020007283851263e+17
19067.0	8.018491611982506e+17
19068.0	8.016964451915089e+17
19069.0	8.015437476397053e+17
19070.0	8.013908472233983e+17
19071.0	8.012382968916649e+17
19072.0	8.010855594939732e+17
19073.0	8.009327267457705e+17
19074.0	8.007800635872595e+17
19075.0	8.00627309412352e+17
19076.0	8.00474171179008e+17
19077.0	8.003216258804394e+17
19078.0	8.001683021190483e+17
19079.0	8.000162167958185e+17
19080.0	7.998633682490708e+17
19081.0	7.997098611965953e+17
19082.0	7.995570051001e+17
19083.0	7.99403236742485e+17
19084.0	7.992478636441599e+17
19085.0	7.990994037374975e+17
19086.0	7.989396831032659e+17
19087.0	7.987881283594921e+17
19088.0	7.98639341436928e+17
19089.0	7.984820878923092e+17
19090.0	7.983351204588202e+17
19091.0	7.981819795690838e+17
19092.0	7.980273909454166e+17
19093.0	7.978767843939667e+17
19094.0	7.977221567632723e+17
19095.0	7.975688792790358e+17
19096.0	7.974178763658579e+17
19097.0	7.972653967780522e+17
19098.0	7.971126098875731e+17
19099.0	7.969597181394943e+17
19100.0	7.968069018888873e+17
19101.0	7.966540467710634e+17
19102.0	7.964998381513385e+17
19103.0	7.963483319216809e+17
19104.0	7.961954727493632e+17
19105.0	7.960425745700179e+17
19106.0	7.958886823406249e+17
19107.0	7.957365594084692e+17
19108.0	7.955838937333757e+17
19109.0	7.954106433929216e+17
19110.0	7.952777354062505e+17
19111.0	7.951253142590803e+17
19112.0	7.949724602597377e+17
19113.0	7.948195756419753e+17
19114.0	7.94666686410479e+17
19115.0	7.945130929553407e+17
19116.0	7.943608890731177e+17
19117.0	7.942076663944531e+17
19118.0	7.940527809538732e+17
19119.0	7.938670998148434e+17
19120.0	7.937477088116735e+17
19121.0	7.935953132497576e+17
19122.0	7.934434502246399e+17
19123.0	7.932903565907283e+17
19124.0	7.931364555532968e+17
19125.0	7.929844922843133e+17
19126.0	7.928314431100246e+17
19127.0	7.926517526953983e+17
19128.0	7.925133300378281e+17
19129.0	7.923713103451475e+17
19130.0	7.922199271484073e+17
19131.0	7.920669819928575e+17
19132.0	7.919139638564178e+17
19133.0	7.91751928385809e+17
19134.0	7.916015253979135e+17
19135.0	7.914550923187539e+17
19136.0	7.9130216394042e+17
19137.0	7.911464971010047e+17
19138.0	7.909948039451987e+17
19139.0	7.908430948510377e+17
19140.0	7.906901769584641e+17
19141.0	7.905371760186708e+17
19142.0	7.903841374699519e+17
19143.0	7.902302251078995e+17
19144.0	7.900780072446634e+17
19145.0	7.899250390204415e+17
19146.0	7.897624752073386e+17
19147.0	7.896175291487572e+17
19148.0	7.894657061093373e+17
19149.0	7.893126495251113e+17
19150.0	7.891594247492948e+17
19151.0	7.890065304846335e+17
19152.0	7.888532110573567e+17
19153.0	7.88700282958643e+17
19154.0	7.885450366681085e+17
19155.0	7.883939526650538e+17
19156.0	7.882406809130326e+17
19157.0	7.880869433136468e+17
19158.0	7.8792066362682e+17
19159.0	7.877805895319548e+17
19160.0	7.876274089361407e+17
19161.0	7.874729683714045e+17
19162.0	7.872898614165503e+17
19163.0	7.871675167845033e+17
19164.0	7.870148580999167e+17
19165.0	7.868610757612884e+17
19166.0	7.867060972071594e+17
19167.0	7.865519398977535e+17
19168.0	7.863995668452691e+17
19169.0	7.862467215141545e+17
19170.0	7.860947224537769e+17
19171.0	7.859398008023721e+17
19172.0	7.857878302632617e+17
19173.0	7.85634401923891e+17
19174.0	7.854800952972627e+17
19175.0	7.853274718448298e+17
19176.0	7.851739273232384e+17
19177.0	7.850178901267795e+17
19178.0	7.848661315398313e+17
19179.0	7.847109034246144e+17
19180.0	7.845573186377042e+17
19181.0	7.844041461508778e+17
19182.0	7.842511263367167e+17
19183.0	7.840982134773075e+17
19184.0	7.839429389451264e+17
19185.0	7.837907266742953e+17
19186.0	7.836370073900372e+17
19187.0	7.834819613076136e+17
19188.0	7.833292300615679e+17
19189.0	7.831747623736659e+17
19190.0	7.830205123701417e+17
19191.0	7.828669804314621e+17
19192.0	7.827130458395987e+17
19193.0	7.825571957090985e+17
19194.0	7.824041880584192e+17
19195.0	7.822505978189139e+17
19196.0	7.82096290353425e+17
19197.0	7.819417542983679e+17
19198.0	7.817862594254164e+17
19199.0	7.814432942631593e+17
19200.0	7.813514005577727e+17
19201.0	7.813233110242642e+17
19202.0	7.811699703458472e+17
19203.0	7.810157195034621e+17
19204.0	7.808608231576915e+17
19205.0	7.807066322938538e+17
19206.0	7.805517541234004e+17
19207.0	7.803963571175424e+17
19208.0	7.802391996224851e+17
19209.0	7.800875231040854e+17
19210.0	7.799325519598932e+17
19211.0	7.797774643538598e+17
19212.0	7.796111695675391e+17
19213.0	7.794380384851284e+17
19214.0	7.7928212739741e+17
19215.0	7.791295587505491e+17
19216.0	7.789745813149011e+17
19217.0	7.788195455784275e+17
19218.0	7.786508396265471e+17
19219.0	7.785056461040297e+17
19220.0	7.783528915096918e+17
19221.0	7.781918670061565e+17
19222.0	7.780413303597738e+17
19223.0	7.77885405011422e+17
19224.0	7.777288580672169e+17
19225.0	7.775708997397161e+17
19226.0	7.774172351212202e+17
19227.0	7.772610065246889e+17
19228.0	7.771046500018854e+17
19229.0	7.769481833086975e+17
19230.0	7.767915547153748e+17
19231.0	7.766349559016106e+17
19232.0	7.764775639449597e+17
19233.0	7.763200464388093e+17
19234.0	7.761638841122815e+17
19235.0	7.760072077038931e+17
19236.0	7.758499587730089e+17
19237.0	7.756923554234365e+17
19238.0	7.755333935387986e+17
19239.0	7.753775757044393e+17
19240.0	7.752160972374016e+17
19241.0	7.750608586364242e+17
19242.0	7.749039920862548e+17
19243.0	7.747428255356246e+17
19244.0	7.745875775673683e+17
19245.0	7.744291320015532e+17
19246.0	7.742702904934399e+17
19247.0	7.741117361553407e+17
19248.0	7.739529335144445e+17
19249.0	7.737938527911936e+17
19250.0	7.736345539641344e+17
19251.0	7.73473597548134e+17
19252.0	7.733100075286527e+17
19253.0	7.731557800345599e+17
19254.0	7.729954280177661e+17
19255.0	7.728323354427391e+17
19256.0	7.726752184926207e+17
19257.0	7.725150546602666e+17
19258.0	7.723543023670612e+17
19259.0	7.721920448779602e+17
19260.0	7.72029708116514e+17
19261.0	7.718709256082774e+17
19262.0	7.717093385087657e+17
19263.0	7.71547142955554e+17
19264.0	7.713777470406655e+17
19265.0	7.712202361055913e+17
19266.0	7.710586301317119e+17
19267.0	7.708978797958484e+17
19268.0	7.70734830002722e+17
19269.0	7.705715086983165e+17
19270.0	7.7038402694458e+17
19271.0	7.702036188845395e+17
19272.0	7.700439470440445e+17
19273.0	7.697830028946089e+17
19274.0	7.696659804149075e+17
19275.0	7.695503303114752e+17
19276.0	7.693850318121642e+17
19277.0	7.692193558254932e+17
19278.0	7.690533409390591e+17
19279.0	7.688867560467113e+17
19280.0	7.687189953511421e+17
19281.0	7.685531169193983e+17
19282.0	7.683856127754237e+17
19283.0	7.68215111381811e+17
19284.0	7.680440739561471e+17
19285.0	7.678776305516543e+17
19286.0	7.677113863766016e+17
19287.0	7.675393637089281e+17
19288.0	7.673090066612221e+17
19289.0	7.670554927213224e+17
19290.0	7.67011400659763e+17
19291.0	7.668356020000083e+17
19292.0	7.666683595806034e+17
19293.0	7.664959504777216e+17
19294.0	7.663232909748905e+17
19295.0	7.661499838715222e+17
19296.0	7.659761172479999e+17
19297.0	7.657622294145705e+17
19298.0	7.655806381413715e+17
19299.0	7.654051116919464e+17
19300.0	7.652289602912253e+17
19301.0	7.650521083019261e+17
19302.0	7.648746733043711e+17
19303.0	7.646952262991871e+17
19304.0	7.645170842817876e+17
19305.0	7.643386152484864e+17
19306.0	7.641584689130153e+17
19307.0	7.639764618444799e+17
19308.0	7.637957099913215e+17
19309.0	7.636076764069888e+17
19310.0	7.634213461295103e+17
19311.0	7.632451899752447e+17
19312.0	7.630614324838399e+17
19313.0	7.628430916976639e+17
19314.0	7.625623444215123e+17
19315.0	7.623793219119788e+17
19316.0	7.622539565421908e+17
19317.0	7.62065566302208e+17
19318.0	7.618816983607977e+17
19319.0	7.616902381699071e+17
19320.0	7.614973735862271e+17
19321.0	7.613039981363199e+17
19322.0	7.611068556421802e+17
19323.0	7.60910245545028e+17
19324.0	7.60714739388689e+17
19325.0	7.604396421196458e+17
19326.0	7.602446869550419e+17
19327.0	7.600437117059072e+17
19328.0	7.598417344375466e+17
19329.0	7.596380602935978e+17
19330.0	7.594322852227752e+17
19331.0	7.592256092154538e+17
19332.0	7.590181223093587e+17
19333.0	7.587510599286783e+17
19334.0	7.58474314158353e+17
19335.0	7.582617385828351e+17
19336.0	7.580470000047446e+17
19337.0	7.578303984566272e+17
19338.0	7.576086936988326e+17
19339.0	7.573917884831062e+17
19340.0	7.571225147255466e+17
19341.0	7.5689159046813e+17
19342.0	7.566595069050879e+17
19343.0	7.564368561919315e+17
19344.0	7.562060815313578e+17
19345.0	7.559380958445565e+17
19346.0	7.557201839958697e+17
19347.0	7.554907029984595e+17
19348.0	7.552511942590463e+17
19349.0	7.550078875773609e+17
19350.0	7.547617532357289e+17
19351.0	7.545123880217258e+17
19352.0	7.542179350183935e+17
19353.0	7.53955810452002e+17
19354.0	7.536974603397802e+17
19355.0	7.534344854481577e+17
19356.0	7.531706568758611e+17
19357.0	7.529019230650365e+17
19358.0	7.52628729450769e+17
19359.0	7.523485351236947e+17
19360.0	7.520726852567039e+17
19361.0	7.517880202209961e+17
19362.0	7.514913670255955e+17
19363.0	7.511367514849279e+17
19364.0	7.508390108463101e+17
19365.0	7.505364959712594e+17
19366.0	7.502289777109672e+17
19367.0	7.499163517670739e+17
19368.0	7.49598404509696e+17
19369.0	7.492728546568872e+17
19370.0	7.488613499535361e+17
19371.0	7.485145000269139e+17
19372.0	7.48173283050564e+17
19373.0	7.478245778434729e+17
19374.0	7.47469008797696e+17
19375.0	7.470571098297684e+17
19376.0	7.46614542110993e+17
19377.0	7.462361473832275e+17
19378.0	7.458497557954557e+17
19379.0	7.454238334517245e+17
19380.0	7.448995286745088e+17
19381.0	7.444869224071168e+17
19382.0	7.440633088879276e+17
19383.0	7.43485802160674e+17
19384.0	7.430029499695103e+17
19385.0	7.425479869639336e+17
19386.0	7.418608830731608e+17
19387.0	7.413611295145983e+17
19388.0	7.407474330741416e+17
19389.0	7.401071176231594e+17
19390.0	7.394856958339752e+17
19391.0	7.386126342597288e+17
19392.0	7.381197797720063e+17
19393.0	7.374734439568723e+17
19394.0	7.368934062467756e+17
19395.0	7.362978665289042e+17
19396.0	7.356870809354237e+17
19397.0	7.3502028726272e+17
19398.0	7.343695319094611e+17
19399.0	7.336927861320362e+17
19400.0	7.330130361144662e+17
19401.0	7.323038212511059e+17
19402.0	7.315709299610963e+17
19403.0	7.307487898938025e+17
19404.0	7.299651554945705e+17
19405.0	7.291557240285864e+17
19406.0	7.283126780122454e+17
19407.0	7.273616946582867e+17
19408.0	7.264533606651219e+17
19409.0	7.255007190231721e+17
19410.0	7.244395602509824e+17
19411.0	7.234335486072148e+17
19412.0	7.222337239078228e+17
19413.0	7.211049177229994e+17
19414.0	7.198182001868797e+17
19415.0	7.184685089510739e+17
19416.0	7.170459268633943e+17
19417.0	7.154975743759699e+17
19418.0	7.138096662096557e+17
19419.0	7.11975296442914e+17
19420.0	7.099707964784641e+17
19421.0	7.080137305970004e+17
19422.0	7.063391425615187e+17
19423.0	7.045844135400787e+17
19424.0	7.027716380775766e+17
19425.0	7.008821416645972e+17
19426.0	6.988402840130899e+17
19427.0	6.967562561301162e+17
19428.0	6.945030086328319e+17
19429.0	6.921366854260051e+17
19430.0	6.895650803286015e+17
19431.0	6.867607990829053e+17
19432.0	6.837110289989628e+17
19433.0	6.802996313369262e+17
19434.0	6.764215900919124e+17
19435.0	6.722347574755325e+17
19436.0	6.685235847277228e+17
19437.0	6.646381285124778e+17
19438.0	6.603094792776361e+17
19439.0	6.557586986543788e+17
19440.0	6.506131706172756e+17
19441.0	6.449372006973439e+17
19442.0	6.384853268998828e+17
19443.0	6.317452855432531e+17
19444.0	6.246286422441979e+17
19445.0	6.165996169592835e+17
19446.0	6.076078351887017e+17
19447.0	5.977078632895823e+17
19448.0	5.865720420237317e+17
19449.0	5.733168697049087e+17
19450.0	5.530688805666768e+17
19451.0	5.455440450158593e+17
19452.0	5.638686690858326e+17
19453.0	5.801752685882031e+17
19454.0	5.918565450383355e+17
19455.0	6.020738841225898e+17
19456.0	6.112904681444696e+17
19457.0	6.195324710289403e+17
19458.0	6.268199808357716e+17
19459.0	6.334110751173293e+17
19460.0	6.398798685973158e+17
19461.0	6.456654995739988e+17
19462.0	6.507894872735745e+17
19463.0	6.554305260333737e+17
19464.0	6.595903125891754e+17
19465.0	6.633821620054698e+17
19466.0	6.668658294128637e+17
19467.0	6.705650044938921e+17
19468.0	6.743849224721751e+17
19469.0	6.777549020113576e+17
19470.0	6.806934068570793e+17
19471.0	6.833386585500329e+17
19472.0	6.857575218457256e+17
19473.0	6.8794737229824e+17
19474.0	6.899608254240083e+17
19475.0	6.91853656798003e+17
19476.0	6.936445356867581e+17
19477.0	6.953323057905664e+17
19478.0	6.969045484044285e+17
19479.0	6.984171229194922e+17
19480.0	6.998319500186966e+17
19481.0	7.013227737120765e+17
19482.0	7.031211696324603e+17
19483.0	7.047391228198915e+17
19484.0	7.06185220133137e+17
19485.0	7.075069778635437e+17
19486.0	7.08732941046033e+17
19487.0	7.098448555103572e+17
19488.0	7.108230728996182e+17
19489.0	7.117817007920468e+17
19490.0	7.126257804247039e+17
19491.0	7.134579943713449e+17
19492.0	7.141908603557204e+17
19493.0	7.1494603388573e+17
19494.0	7.15577188417536e+17
19495.0	7.162106846292649e+17
19496.0	7.168277735626066e+17
19497.0	7.173683358815572e+17
19498.0	7.178720675976532e+17
19499.0	7.181637903887014e+17
19500.0	7.1888771495581e+17
19501.0	7.193237294940157e+17
19502.0	7.19737096188723e+17
19503.0	7.201294059394387e+17
19504.0	7.205012076407466e+17
19505.0	7.208700868908372e+17
19506.0	7.212269607845887e+17
19507.0	7.215436083669674e+17
19508.0	7.218454658547711e+17
19509.0	7.221312461559123e+17
19510.0	7.225582428007081e+17
19511.0	7.226769294404262e+17
19512.0	7.233141309003091e+17
19513.0	7.235006497816573e+17
19514.0	7.239777966009e+17
19515.0	7.242159209403731e+17
19516.0	7.245151512559612e+17
19517.0	7.248134532322644e+17
19518.0	7.24976597537041e+17
19519.0	7.252303945924605e+17
19520.0	7.25444309828676e+17
19521.0	7.255750330023935e+17
19522.0	7.257073944712531e+17
19523.0	7.259522373866836e+17
19524.0	7.260561101641042e+17
19525.0	7.261511077942611e+17
19526.0	7.2623935483194e+17
19527.0	7.264087402610687e+17
19528.0	7.265057802376531e+17
19529.0	7.265713358110719e+17
19530.0	7.266301995122687e+17
19531.0	7.266826371203071e+17
19532.0	7.267495164160681e+17
19533.0	7.268567818261844e+17
19534.0	7.268911816900607e+17
19535.0	7.26920124764433e+17
19536.0	7.269433212228947e+17
19537.0	7.269627650375679e+17
19538.0	7.269759928937129e+17
19539.0	7.269775654780927e+17
19540.0	7.27026785775343e+17
19541.0	7.270561970738518e+17
19542.0	7.270524999346857e+17
19543.0	7.270448005906432e+17
19544.0	7.270332345177427e+17
19545.0	7.270123214383785e+17
19546.0	7.269850657325055e+17
19547.0	7.26976599110451e+17
19548.0	7.269508897046527e+17
19549.0	7.269203761430527e+17
19550.0	7.268902269266602e+17
19551.0	7.268596191330304e+17
19552.0	7.268627612259667e+17
19553.0	7.268217441484799e+17
19554.0	7.267780632685225e+17
19555.0	7.267326388163923e+17
19556.0	7.266841365839871e+17
19557.0	7.266331539800064e+17
19558.0	7.265799945322493e+17
19559.0	7.265242586633556e+17
19560.0	7.264664399030952e+17
19561.0	7.264072034680832e+17
19562.0	7.263462041670996e+17
19563.0	7.263060301447165e+17
19564.0	7.262711711443626e+17
19565.0	7.262037573544617e+17
19566.0	7.261342272585727e+17
19567.0	7.26063540793071e+17
19568.0	7.259904462378323e+17
19569.0	7.259166119471786e+17
19570.0	7.25854082564096e+17
19571.0	7.258433455652863e+17
19572.0	7.257712681287679e+17
19573.0	7.257134458732543e+17
19574.0	7.256304306705748e+17
19575.0	7.255491993053864e+17
19576.0	7.254649975341055e+17
19577.0	7.25378988577041e+17
19578.0	7.252921817235455e+17
19579.0	7.252044714169684e+17
19580.0	7.251693980876799e+17
19581.0	7.25090019765999e+17
19582.0	7.249991012362921e+17
19583.0	7.24906856887091e+17
19584.0	7.248135678765738e+17
19585.0	7.247174581966164e+17
19586.0	7.246215274736297e+17
19587.0	7.24526685032721e+17
19588.0	7.244235886209705e+17
19589.0	7.243324953285972e+17
19590.0	7.242333519085568e+17
19591.0	7.241349848541866e+17
19592.0	7.240346182352896e+17
19593.0	7.239811714777084e+17
19594.0	7.238786136145919e+17
19595.0	7.237799047244458e+17
19596.0	7.236394885141844e+17
19597.0	7.235724214534143e+17
19598.0	7.234642836280659e+17
19599.0	7.233626236256255e+17
19600.0	7.232566426512041e+17
19601.0	7.23148935860497e+17
19602.0	7.230421511176191e+17
19603.0	7.229260889937236e+17
19604.0	7.228257036402688e+17
19605.0	7.227127940950697e+17
19606.0	7.226082463143251e+17
19607.0	7.22498421260288e+17
19608.0	7.223878886271657e+17
19609.0	7.222765813060947e+17
19610.0	7.221655695436458e+17
19611.0	7.220535750557693e+17
19612.0	7.219489189221716e+17
19613.0	7.218675596307114e+17
19614.0	7.21753597035588e+17
19615.0	7.216406691752617e+17
19616.0	7.215252514362708e+17
19617.0	7.214121510502399e+17
19618.0	7.21289462485265e+17
19619.0	7.211715225714687e+17
19620.0	7.210565614523731e+17
19621.0	7.209506180868777e+17
19622.0	7.208343462477823e+17
19623.0	7.207177321534803e+17
19624.0	7.206007867091625e+17
19625.0	7.204835086565373e+17
19626.0	7.203659284742143e+17
19627.0	7.202480249110525e+17
19628.0	7.201255863265962e+17
19629.0	7.200098087163219e+17
19630.0	7.198868483604479e+17
19631.0	7.195739260190719e+17
19632.0	7.196540085643945e+17
19633.0	7.195347593286995e+17
19634.0	7.194150561295017e+17
19635.0	7.192943018377215e+17
19636.0	7.191747831878995e+17
19637.0	7.19047221121297e+17
19638.0	7.189369851652777e+17
19639.0	7.188288748825258e+17
19640.0	7.187070223821481e+17
19641.0	7.185780904558591e+17
19642.0	7.184649110771028e+17
19643.0	7.183428821363369e+17
19644.0	7.182201031142058e+17
19645.0	7.180947852798633e+17
19646.0	7.179765801462441e+17
19647.0	7.178540435548841e+17
19648.0	7.177313211558569e+17
19649.0	7.176083947738451e+17
19650.0	7.175035998087849e+17
19651.0	7.173908427964415e+17
19652.0	7.172674632897876e+17
19653.0	7.171438926626816e+17
19654.0	7.170202339551913e+17
19655.0	7.168963266652842e+17
19656.0	7.167722927073961e+17
19657.0	7.1664828181818e+17
19658.0	7.165240378654719e+17
19659.0	7.163996227851603e+17
19660.0	7.162751317879465e+17
19661.0	7.161504864403455e+17
19662.0	7.160257219745108e+17
19663.0	7.159001152924329e+17
19664.0	7.157750712063316e+17
19665.0	7.156507249126058e+17
19666.0	7.155252528676863e+17
