# Flux units: erg / (cm m2 s)
# Wavelength units: Angstrom
wave	flux
19000.0	8.163734240012969e+17
19001.0	8.162265506600275e+17
19002.0	8.160893966396073e+17
19003.0	8.159469267582975e+17
19004.0	8.158277070225408e+17
19005.0	8.158230693806079e+17
19006.0	8.156800020905983e+17
19007.0	8.155366733556392e+17
19008.0	8.153905075934548e+17
19009.0	8.152448447283199e+17
19010.0	8.150855689699327e+17
19011.0	8.149601571831808e+17
19012.0	8.148121565528063e+17
19013.0	8.146730858752681e+17
19014.0	8.145246403690496e+17
19015.0	8.143812733261139e+17
19016.0	8.142362593198079e+17
19017.0	8.140927506492072e+17
19018.0	8.13947322245666e+17
19019.0	8.138026840489983e+17
19020.0	8.136554986515114e+17
19021.0	8.135111586698579e+17
19022.0	8.133654524635817e+17
19023.0	8.132169583034365e+17
19024.0	8.130716375536979e+17
19025.0	8.129260849987583e+17
19026.0	8.127785253295443e+17
19027.0	8.126310948448936e+17
19028.0	8.124863492740434e+17
19029.0	8.123393337458685e+17
19030.0	8.121921898719913e+17
19031.0	8.12044860609877e+17
19032.0	8.118973737817428e+17
19033.0	8.117452207904083e+17
19034.0	8.116018015982932e+17
19035.0	8.114504753042774e+17
19036.0	8.111712281908564e+17
19037.0	8.111566831834454e+17
19038.0	8.110082751463421e+17
19039.0	8.108613833501353e+17
19040.0	8.107129349079037e+17
19041.0	8.105643230276264e+17
19042.0	8.104114962912596e+17
19043.0	8.102667248555348e+17
19044.0	8.101176292321962e+17
19045.0	8.099685755518975e+17
19046.0	8.098171067913556e+17
19047.0	8.096687966213459e+17
19048.0	8.095117144839508e+17
19049.0	8.093675867340799e+17
19050.0	8.092189401808896e+17
19051.0	8.090471649771517e+17
19052.0	8.089164159385599e+17
19053.0	8.087715362897917e+17
19054.0	8.086215630782463e+17
19055.0	8.084585545291092e+17
19056.0	8.083200035258365e+17
19057.0	8.081702247901864e+17
19058.0	8.080195625943039e+17
19059.0	8.078775203921917e+17
19060.0	8.077698005991424e+17
19061.0	8.076198361956352e+17
19062.0	8.074685539418111e+17
19063.0	8.07317396258816e+17
19064.0	8.071611190083583e+17
19065.0	8.070056328036348e+17
19066.0	8.068601814712317e+17
19067.0	8.067119890213545e+17
19068.0	8.065603685668182e+17
19069.0	8.064086898114557e+17
19070.0	8.062564822941693e+17
19071.0	8.061050287729322e+17
19072.0	8.059530597717331e+17
19073.0	8.058007992664064e+17
19074.0	8.056488824143871e+17
19075.0	8.054966434398204e+17
19076.0	8.05343441592866e+17
19077.0	8.051912705660244e+17
19078.0	8.050382988465492e+17
19079.0	8.048868636404394e+17
19080.0	8.047339383379284e+17
19081.0	8.045792271007743e+17
19082.0	8.044267269608787e+17
19083.0	8.042691840092841e+17
19084.0	8.041098798694399e+17
19085.0	8.039695509007016e+17
19086.0	8.037960890275155e+17
19087.0	8.03660375470899e+17
19088.0	8.035054088006314e+17
19089.0	8.033452683165693e+17
19090.0	8.032010666071379e+17
19091.0	8.030480743355732e+17
19092.0	8.028927764550995e+17
19093.0	8.027421426406739e+17
19094.0	8.025878968314536e+17
19095.0	8.02433952592691e+17
19096.0	8.022800045790547e+17
19097.0	8.021265649150633e+17
19098.0	8.019726613610493e+17
19099.0	8.018184822412628e+17
19100.0	8.016642396476756e+17
19101.0	8.015097564408489e+17
19102.0	8.013515289788415e+17
19103.0	8.012010380503722e+17
19104.0	8.010464650854399e+17
19105.0	8.008917474170196e+17
19106.0	8.007364910601556e+17
19107.0	8.005814476341245e+17
19108.0	8.004268118944425e+17
19109.0	8.002614646013951e+17
19110.0	8.001154460592809e+17
19111.0	7.999621147481427e+17
19112.0	7.998071047367336e+17
19113.0	7.996518840314536e+17
19114.0	7.994965203004072e+17
19115.0	7.993399507069609e+17
19116.0	7.991843119693824e+17
19117.0	7.99028820451874e+17
19118.0	7.988696565415936e+17
19119.0	7.985978480263164e+17
19120.0	7.985611927453693e+17
19121.0	7.984058044077394e+17
19122.0	7.982508519981056e+17
19123.0	7.980947407022761e+17
19124.0	7.979376401099433e+17
19125.0	7.977820473698985e+17
19126.0	7.976243813853864e+17
19127.0	7.97392756679202e+17
19128.0	7.973094351525204e+17
19129.0	7.971517532296531e+17
19130.0	7.969995431957844e+17
19131.0	7.968430689528489e+17
19132.0	7.96685947109376e+17
19133.0	7.965237627409747e+17
19134.0	7.963719135570602e+17
19135.0	7.962153512337405e+17
19136.0	7.960580323977896e+17
19137.0	7.958939091424595e+17
19138.0	7.957427295092735e+17
19139.0	7.955860572951891e+17
19140.0	7.954286294073343e+17
19141.0	7.952709976763049e+17
19142.0	7.951120040547668e+17
19143.0	7.949531438120961e+17
19144.0	7.947960703429288e+17
19145.0	7.946394409107453e+17
19146.0	7.944523590139903e+17
19147.0	7.943194465533951e+17
19148.0	7.941647926383956e+17
19149.0	7.940064621363199e+17
19150.0	7.938477667297961e+17
19151.0	7.936894595760127e+17
19152.0	7.935306265963178e+17
19153.0	7.933708452844883e+17
19154.0	7.932075125156521e+17
19155.0	7.930538695677267e+17
19156.0	7.928946809110528e+17
19157.0	7.927345195952808e+17
19158.0	7.925702584871596e+17
19159.0	7.924154387573417e+17
19160.0	7.922570045161471e+17
19161.0	7.920969674915839e+17
19162.0	7.918909902553085e+17
19163.0	7.916229545164799e+17
19164.0	7.914655905218557e+17
19165.0	7.913054595448832e+17
19166.0	7.91140783759906e+17
19167.0	7.909836676486484e+17
19168.0	7.90823849566754e+17
19169.0	7.906635492797097e+17
19170.0	7.905036403212288e+17
19171.0	7.90342329626351e+17
19172.0	7.901819412589225e+17
19173.0	7.900209694638079e+17
19174.0	7.89857366581794e+17
19175.0	7.896984495762089e+17
19176.0	7.895370277322751e+17
19177.0	7.893679428949331e+17
19178.0	7.892129973359958e+17
19179.0	7.890507553658195e+17
19180.0	7.888892755006804e+17
19181.0	7.887229193377108e+17
19182.0	7.88564095865105e+17
19183.0	7.884024781471744e+17
19184.0	7.882390700206761e+17
19185.0	7.880766910365692e+17
19186.0	7.879139031078228e+17
19187.0	7.877473302391464e+17
19188.0	7.875872953117352e+17
19189.0	7.874240118958761e+17
19190.0	7.872602157962578e+17
19191.0	7.87095362871842e+17
19192.0	7.869322560361812e+17
19193.0	7.867678573548883e+17
19194.0	7.866033150885885e+17
19195.0	7.86438319837457e+17
19196.0	7.862723685646335e+17
19197.0	7.861059074042536e+17
19198.0	7.859342612452694e+17
19199.0	7.856695019569151e+17
19200.0	7.85525949665553e+17
19201.0	7.854387352655187e+17
19202.0	7.852787322148179e+17
19203.0	7.851142377635841e+17
19204.0	7.849474695801514e+17
19205.0	7.84782226305843e+17
19206.0	7.844694021111805e+17
19207.0	7.842435723952128e+17
19208.0	7.840720828235773e+17
19209.0	7.839133988814847e+17
19210.0	7.83745977365299e+17
19211.0	7.835782794444797e+17
19212.0	7.834103184009896e+17
19213.0	7.832380418381139e+17
19214.0	7.830686607430996e+17
19215.0	7.829045478337196e+17
19216.0	7.827359117869055e+17
19217.0	7.825660524014249e+17
19218.0	7.823617070290259e+17
19219.0	7.822180674961408e+17
19220.0	7.820561533807272e+17
19221.0	7.818738409668607e+17
19222.0	7.817155417822547e+17
19223.0	7.815458297566547e+17
19224.0	7.813730125479933e+17
19225.0	7.81197185506782e+17
19226.0	7.810306238229161e+17
19227.0	7.80858373963776e+17
19228.0	7.806872427255123e+17
19229.0	7.805144351637503e+17
19230.0	7.802779671549272e+17
19231.0	7.799098248440489e+17
19232.0	7.797355085911379e+17
19233.0	7.795583551711914e+17
19234.0	7.793865725575165e+17
19235.0	7.792116096827392e+17
19236.0	7.789985491058688e+17
19237.0	7.788116056211453e+17
19238.0	7.786319434481663e+17
19239.0	7.784600179485354e+17
19240.0	7.782817435309395e+17
19241.0	7.781043436257279e+17
19242.0	7.779277346264404e+17
19243.0	7.7774177987898e+17
19244.0	7.775724000422569e+17
19245.0	7.773935949053951e+17
19246.0	7.77213718962722e+17
19247.0	7.768519396906323e+17
19248.0	7.765313681970518e+17
19249.0	7.763508352865619e+17
19250.0	7.761696807802194e+17
19251.0	7.759831182781098e+17
19252.0	7.75791672767283e+17
19253.0	7.756240781661523e+17
19254.0	7.754415291935402e+17
19255.0	7.752486249037821e+17
19256.0	7.75073293349683e+17
19257.0	7.748904363753472e+17
19258.0	7.747055762014208e+17
19259.0	7.7451647502691e+17
19260.0	7.743324342801747e+17
19261.0	7.73800335926886e+17
19262.0	7.735662396571647e+17
19263.0	7.733785616100008e+17
19264.0	7.731720008062291e+17
19265.0	7.729982914691071e+17
19266.0	7.728118594098515e+17
19267.0	7.726292395535017e+17
19268.0	7.724396333847892e+17
19269.0	7.722493418668032e+17
19270.0	7.720579178867369e+17
19271.0	7.718528853475327e+17
19272.0	7.716641662741161e+17
19273.0	7.711937338365267e+17
19274.0	7.710121224306687e+17
19275.0	7.708579157682858e+17
19276.0	7.706619921388883e+17
19277.0	7.703904587699539e+17
19278.0	7.701822844174335e+17
19279.0	7.699840719563434e+17
19280.0	7.697823028652713e+17
19281.0	7.695848223102292e+17
19282.0	7.693853242949632e+17
19283.0	7.691831173185535e+17
19284.0	7.689796538684756e+17
19285.0	7.687724428077738e+17
19286.0	7.685733233983487e+17
19287.0	7.683707214583126e+17
19288.0	7.681280349743785e+17
19289.0	7.678753273195176e+17
19290.0	7.677506326189394e+17
19291.0	7.675292881518591e+17
19292.0	7.67333250577203e+17
19293.0	7.671231103543977e+17
19294.0	7.669124420687187e+17
19295.0	7.667005409372842e+17
19296.0	7.664875652251647e+17
19297.0	7.662734406931796e+17
19298.0	7.65963312037888e+17
19299.0	7.657030902874111e+17
19300.0	7.654834861768701e+17
19301.0	7.652627614881108e+17
19302.0	7.65040658830677e+17
19303.0	7.64815157109282e+17
19304.0	7.645933269417981e+17
19305.0	7.643689752985597e+17
19306.0	7.641439995428861e+17
19307.0	7.639141005131773e+17
19308.0	7.636865877628242e+17
19309.0	7.634553009777321e+17
19310.0	7.632219708675412e+17
19311.0	7.628845551889064e+17
19312.0	7.625606225199103e+17
19313.0	7.623249230473897e+17
19314.0	7.620198633482922e+17
19315.0	7.617860334168745e+17
19316.0	7.616083172611414e+17
19317.0	7.613674016123562e+17
19318.0	7.611236313202687e+17
19319.0	7.608802382359208e+17
19320.0	7.606343480027817e+17
19321.0	7.603010849647272e+17
19322.0	7.598606328528893e+17
19323.0	7.596102419917481e+17
19324.0	7.593573286761811e+17
19325.0	7.591007967947433e+17
19326.0	7.588460414806698e+17
19327.0	7.585876790651561e+17
19328.0	7.583285218290345e+17
19329.0	7.580664763951786e+17
19330.0	7.575260659100332e+17
19331.0	7.571687390314496e+17
19332.0	7.568950632120317e+17
19333.0	7.566171343683581e+17
19334.0	7.563366135846228e+17
19335.0	7.560538790472362e+17
19336.0	7.555598526709757e+17
19337.0	7.550283718590463e+17
19338.0	7.547239376704851e+17
19339.0	7.544352216361641e+17
19340.0	7.541320229497514e+17
19341.0	7.537434915678895e+17
19342.0	7.529555336800938e+17
19343.0	7.526538966728703e+17
19344.0	7.52334422409216e+17
19345.0	7.519378186698747e+17
19346.0	7.512778076061691e+17
19347.0	7.506886377777833e+17
19348.0	7.503515481363796e+17
19349.0	7.500067067221332e+17
19350.0	7.492597274640387e+17
19351.0	7.485266523237034e+17
19352.0	7.481622980285782e+17
19353.0	7.477992269108563e+17
19354.0	7.470165416826193e+17
19355.0	7.465944632786943e+17
19356.0	7.462120017537705e+17
19357.0	7.458219154036051e+17
19358.0	7.454268841088339e+17
19359.0	7.450258177698474e+17
19360.0	7.446232695832575e+17
19361.0	7.442156720138922e+17
19362.0	7.438043633243475e+17
19363.0	7.433866985865215e+17
19364.0	7.429641061007357e+17
19365.0	7.425364650710355e+17
19366.0	7.421037199927977e+17
19367.0	7.416592925196287e+17
19368.0	7.41208701656542e+17
19369.0	7.4075764438685e+17
19370.0	7.403003977225556e+17
19371.0	7.398404748126889e+17
19372.0	7.393717845491711e+17
19373.0	7.388945850215084e+17
19374.0	7.384136209661951e+17
19375.0	7.379250392159572e+17
19376.0	7.374290849977686e+17
19377.0	7.36927420654114e+17
19378.0	7.3642041947805e+17
19379.0	7.359076872050007e+17
19380.0	7.353891831502164e+17
19381.0	7.348647433164116e+17
19382.0	7.343308654597459e+17
19383.0	7.337564456004266e+17
19384.0	7.33214380602163e+17
19385.0	7.326645793499817e+17
19386.0	7.32108034076399e+17
19387.0	7.315406305886207e+17
19388.0	7.309545951636138e+17
19389.0	7.303577093537791e+17
19390.0	7.297504099259731e+17
19391.0	7.29033517249331e+17
19392.0	7.284216300918099e+17
19393.0	7.277817845426857e+17
19394.0	7.271259772900692e+17
19395.0	7.264567660205396e+17
19396.0	7.25772771926562e+17
19397.0	7.250203576893436e+17
19398.0	7.242269908271101e+17
19399.0	7.234689416822781e+17
19400.0	7.227315907286356e+17
19401.0	7.219330833274195e+17
19402.0	7.209705144669523e+17
19403.0	7.201316528280916e+17
19404.0	7.192628955884202e+17
19405.0	7.182185706553344e+17
19406.0	7.172057873077587e+17
19407.0	7.162615359515306e+17
19408.0	7.15078770884608e+17
19409.0	7.139778222882816e+17
19410.0	7.129418838660436e+17
19411.0	7.115284400482985e+17
19412.0	7.104478278145364e+17
19413.0	7.089352109370024e+17
19414.0	7.076454089097215e+17
19415.0	7.06046071721165e+17
19416.0	7.045823545562452e+17
19417.0	7.028564329933485e+17
19418.0	7.01272357409041e+17
19419.0	6.993661777324716e+17
19420.0	6.976504081328809e+17
19421.0	6.954967121614167e+17
19422.0	6.937705138443604e+17
19423.0	6.917496635741523e+17
19424.0	6.89959426134289e+17
19425.0	6.881751725681321e+17
19426.0	6.862955529022121e+17
19427.0	6.84213196029952e+17
19428.0	6.820342024634367e+17
19429.0	6.797522605441021e+17
19430.0	6.772197671217834e+17
19431.0	6.746088463663101e+17
19432.0	6.718468746728787e+17
19433.0	6.688795070038015e+17
19434.0	6.657710219067391e+17
19435.0	6.622670489649151e+17
19436.0	6.58604717838609e+17
19437.0	6.546342092472319e+17
19438.0	6.503256399631698e+17
19439.0	6.457975476584449e+17
19440.0	6.408023336200873e+17
19441.0	6.353360881276242e+17
19442.0	6.293678133870593e+17
19443.0	6.228343424111956e+17
19444.0	6.156112330664613e+17
19445.0	6.075917928147629e+17
19446.0	5.98634563510818e+17
19447.0	5.885459506921467e+17
19448.0	5.770491432970927e+17
19449.0	5.6373261047780685e+17
19450.0	5.478589665378294e+17
19451.0	5.398855173887322e+17
19452.0	5.561946103349248e+17
19453.0	5.704531479014063e+17
19454.0	5.82552861260731e+17
19455.0	5.93065329819648e+17
19456.0	6.023247668357805e+17
19457.0	6.105518690358609e+17
19458.0	6.178454398216874e+17
19459.0	6.245316439310336e+17
19460.0	6.305102039438675e+17
19461.0	6.359830060422484e+17
19462.0	6.409478443717974e+17
19463.0	6.454961274967378e+17
19464.0	6.496172403326975e+17
19465.0	6.535060342352553e+17
19466.0	6.570359789365929e+17
19467.0	6.603652196903594e+17
19468.0	6.634076868618921e+17
19469.0	6.661401924512425e+17
19470.0	6.687935200668329e+17
19471.0	6.71186505765137e+17
19472.0	6.735103281594365e+17
19473.0	6.756390335589034e+17
19474.0	6.775841433670996e+17
19475.0	6.794628545467731e+17
19476.0	6.811810311875241e+17
19477.0	6.827358663213056e+17
19478.0	6.842512653505876e+17
19479.0	6.85914295492062e+17
19480.0	6.874496780730368e+17
19481.0	6.892511512144554e+17
19482.0	6.907272137539583e+17
19483.0	6.924890405164375e+17
19484.0	6.937290351138131e+17
19485.0	6.953274673113763e+17
19486.0	6.964320200032255e+17
19487.0	6.978786604788394e+17
19488.0	6.988859846601385e+17
19489.0	7.001215368604326e+17
19490.0	7.010236455976957e+17
19491.0	7.020509239006548e+17
19492.0	7.02980848423185e+17
19493.0	7.03717934716245e+17
19494.0	7.047104692923048e+17
19495.0	7.054096469065727e+17
19496.0	7.060528874651645e+17
19497.0	7.069203000109738e+17
19498.0	7.075206960338259e+17
19499.0	7.079703662471849e+17
19500.0	7.087312292107603e+17
19501.0	7.093406941577215e+17
19502.0	7.09829855420962e+17
19503.0	7.102979602994516e+17
19504.0	7.107599859537236e+17
19505.0	7.112995217866751e+17
19506.0	7.117123875416745e+17
19507.0	7.121097503102292e+17
19508.0	7.124933431787519e+17
19509.0	7.128629838348287e+17
19510.0	7.132437628846079e+17
19511.0	7.135062189408255e+17
19512.0	7.139466156878505e+17
19513.0	7.142398280160595e+17
19514.0	7.14570881774387e+17
19515.0	7.148847565023914e+17
19516.0	7.151801033119059e+17
19517.0	7.154514724039338e+17
19518.0	7.157192286623059e+17
19519.0	7.159976107704319e+17
19520.0	7.162667350709587e+17
19521.0	7.165130707391828e+17
19522.0	7.167517291533651e+17
19523.0	7.169857749516287e+17
19524.0	7.172130648446292e+17
19525.0	7.174340628621994e+17
19526.0	7.176501589966845e+17
19527.0	7.178595428466687e+17
19528.0	7.180603413757951e+17
19529.0	7.18256085209361e+17
19530.0	7.184461558273364e+17
19531.0	7.186293557559293e+17
19532.0	7.188031840714751e+17
19533.0	7.189708748619773e+17
19534.0	7.191326906908671e+17
19535.0	7.19296312587059e+17
19536.0	7.194506568226132e+17
19537.0	7.195976547347113e+17
19538.0	7.197334548338003e+17
19539.0	7.19853713498658e+17
19540.0	7.200018340861267e+17
19541.0	7.201284051785044e+17
19542.0	7.202487988999508e+17
19543.0	7.203644622853459e+17
19544.0	7.204753740835496e+17
19545.0	7.205636720121172e+17
19546.0	7.206516499152893e+17
19547.0	7.207817903603711e+17
19548.0	7.212149080326145e+17
19549.0	7.213709160087551e+17
19550.0	7.21453819642948e+17
19551.0	7.216620030831269e+17
19552.0	7.22316622369041e+17
19553.0	7.223754211983357e+17
19554.0	7.224309354681683e+17
19555.0	7.225666226006698e+17
19556.0	7.231409494862505e+17
19557.0	7.231788629185876e+17
19558.0	7.232136830517245e+17
19559.0	7.232452633646419e+17
19560.0	7.235332017750011e+17
19561.0	7.238003104328361e+17
19562.0	7.238175904060756e+17
19563.0	7.238311789723645e+17
19564.0	7.238418445281962e+17
19565.0	7.239093960310784e+17
19566.0	7.242628321334612e+17
19567.0	7.242617027472041e+17
19568.0	7.242560629462356e+17
19569.0	7.242504779508393e+17
19570.0	7.24241745130291e+17
19571.0	7.242302626638506e+17
19572.0	7.244680103548244e+17
19573.0	7.245170982518783e+17
19574.0	7.244884539517608e+17
19575.0	7.244664549670911e+17
19576.0	7.244381708178772e+17
19577.0	7.244079317035689e+17
19578.0	7.243753363690835e+17
19579.0	7.243432539979775e+17
19580.0	7.243302867479206e+17
19581.0	7.245190614657705e+17
19582.0	7.244805451721385e+17
19583.0	7.244398706294783e+17
19584.0	7.243976225237674e+17
19585.0	7.243489638438228e+17
19586.0	7.243026566305108e+17
19587.0	7.242620353555114e+17
19588.0	7.241964374196223e+17
19589.0	7.241650561963348e+17
19590.0	7.24112696742161e+17
19591.0	7.241787894661119e+17
19592.0	7.24187660558882e+17
19593.0	7.241310360567808e+17
19594.0	7.240640558181033e+17
19595.0	7.240157303057066e+17
19596.0	7.239494013026301e+17
19597.0	7.23896687010338e+17
19598.0	7.238238748715689e+17
19599.0	7.237734811478697e+17
19600.0	7.237098153880234e+17
19601.0	7.236419342128467e+17
19602.0	7.235762591017642e+17
19603.0	7.234948494786557e+17
19604.0	7.234405962962259e+17
19605.0	7.234783151128573e+17
19606.0	7.234207674444457e+17
19607.0	7.233478659670015e+17
19608.0	7.232735508692991e+17
19609.0	7.231966323671039e+17
19610.0	7.231224966458025e+17
19611.0	7.230454298050557e+17
19612.0	7.229679389201748e+17
19613.0	7.228892961396051e+17
19614.0	7.228076341592063e+17
19615.0	7.227292122786474e+17
19616.0	7.226469348540416e+17
19617.0	7.225654483353599e+17
19618.0	7.224584776450047e+17
19619.0	7.22368532054016e+17
19620.0	7.222866755977216e+17
19621.0	7.222285870039039e+17
19622.0	7.22142772662545e+17
19623.0	7.220559451171497e+17
19624.0	7.219683038767786e+17
19625.0	7.21879904166434e+17
19626.0	7.217907385761791e+17
19627.0	7.217443498535593e+17
19628.0	7.216828866625535e+17
19629.0	7.217181520909651e+17
19630.0	7.216864860744361e+17
19631.0	7.214977456100692e+17
19632.0	7.215154603928233e+17
19633.0	7.214222471593983e+17
19634.0	7.213286989408938e+17
19635.0	7.212310418423808e+17
19636.0	7.211369507411284e+17
19637.0	7.210200244507987e+17
19638.0	7.209424233955327e+17
19639.0	7.208440303364778e+17
19640.0	7.207420220669951e+17
19641.0	7.208465151819779e+17
19642.0	7.208865863041024e+17
19643.0	7.207865852887039e+17
19644.0	7.206832024059901e+17
19645.0	7.205744164208639e+17
19646.0	7.20484686836531e+17
19647.0	7.203831958645417e+17
19648.0	7.202811076236627e+17
19649.0	7.201784321802237e+17
19650.0	7.20075532341521e+17
19651.0	7.199720629163347e+17
19652.0	7.198681645536595e+17
19653.0	7.19763787620898e+17
19654.0	7.196591384778067e+17
19655.0	7.197823063119186e+17
19656.0	7.197216947044352e+17
19657.0	7.196159028931241e+17
19658.0	7.195093905003862e+17
19659.0	7.194024263811071e+17
19660.0	7.192952143784617e+17
19661.0	7.191875460355412e+17
19662.0	7.190794635750058e+17
19663.0	7.189691858157568e+17
19664.0	7.188662861168637e+17
19665.0	7.188044578815999e+17
