# Flux units: erg / (cm m2 s)
# Wavelength units: Angstrom
wave	flux
19000.0	5.823336363851775e+17
19001.0	5.822208795126442e+17
19002.0	5.821247729784148e+17
19003.0	5.820200234516477e+17
19004.0	5.819156857356288e+17
19005.0	5.818099148259327e+17
19006.0	5.817049347522559e+17
19007.0	5.816000722589012e+17
19008.0	5.814927351261866e+17
19009.0	5.813819437744125e+17
19010.0	5.812759816044543e+17
19011.0	5.81177808326929e+17
19012.0	5.81069754737186e+17
19013.0	5.809732231801514e+17
19014.0	5.808655167389695e+17
19015.0	5.807621885220179e+17
19016.0	5.806612181330602e+17
19017.0	5.805573269706068e+17
19018.0	5.80452245045248e+17
19019.0	5.803481963167743e+17
19020.0	5.802433479442431e+17
19021.0	5.801403574386687e+17
19022.0	5.800355667378175e+17
19023.0	5.799280826646527e+17
19024.0	5.798246949584895e+17
19025.0	5.797221172423337e+17
19026.0	5.79617302843665e+17
19027.0	5.795133891717802e+17
19028.0	5.79408950792465e+17
19029.0	5.793037057086803e+17
19030.0	5.792010969546752e+17
19031.0	5.790965648326655e+17
19032.0	5.789904004273492e+17
19033.0	5.788760655178409e+17
19034.0	5.78768684065314e+17
19035.0	5.78629945926178e+17
19036.0	5.784507853919572e+17
19037.0	5.784292393222144e+17
19038.0	5.783533686969684e+17
19039.0	5.782591278590633e+17
19040.0	5.781587462105769e+17
19041.0	5.780556384742058e+17
19042.0	5.779162665757354e+17
19043.0	5.778494481672873e+17
19044.0	5.777446988502356e+17
19045.0	5.776409670713343e+17
19046.0	5.77534978826786e+17
19047.0	5.774297897369599e+17
19048.0	5.773192088693418e+17
19049.0	5.771548022188712e+17
19050.0	5.771101474215252e+17
19051.0	5.769971028197376e+17
19052.0	5.769007400135338e+17
19053.0	5.768055868446035e+17
19054.0	5.767055504572415e+17
19055.0	5.76575008547362e+17
19056.0	5.76495830573602e+17
19057.0	5.7639714174621005e+17
19058.0	5.762622670503935e+17
19059.0	5.7617886904756896e+17
19060.0	5.76087174292002e+17
19061.0	5.759837535906473e+17
19062.0	5.75880019784499e+17
19063.0	5.757760475321684e+17
19064.0	5.756697324115284e+17
19065.0	5.755595476959231e+17
19066.0	5.7545032116906656e+17
19067.0	5.7536202156277754e+17
19068.0	5.752598901205674e+17
19069.0	5.7515662915229e+17
19070.0	5.750516217457321e+17
19071.0	5.749495484645375e+17
19072.0	5.748352961828179e+17
19073.0	5.7474337752132256e+17
19074.0	5.746400576929792e+17
19075.0	5.745366567048533e+17
19076.0	5.744330551590911e+17
19077.0	5.7432920209489914e+17
19078.0	5.742248287272958e+17
19079.0	5.7412325834315085e+17
19080.0	5.740193318786388e+17
19081.0	5.7391326778709325e+17
19082.0	5.7381351528420685e+17
19083.0	5.7370381997397325e+17
19084.0	5.735902417868116e+17
19085.0	5.735032990378666e+17
19086.0	5.733562709966847e+17
19087.0	5.7327107035190605e+17
19088.0	5.7317315341626016e+17
19089.0	5.7307789881507834e+17
19090.0	5.7298681607837e+17
19091.0	5.7288323753137485e+17
19092.0	5.7275493461087565e+17
19093.0	5.7268061070513485e+17
19094.0	5.7257781893966496e+17
19095.0	5.724749554515967e+17
19096.0	5.723719925585235e+17
19097.0	5.7226921232738976e+17
19098.0	5.7215346372771834e+17
19099.0	5.72047502746146e+17
19100.0	5.7195882390487046e+17
19101.0	5.7185622913187834e+17
19102.0	5.717517714587647e+17
19103.0	5.7165136394540365e+17
19104.0	5.715493828689919e+17
19105.0	5.714181930789547e+17
19106.0	5.713433590759424e+17
19107.0	5.7123297953491616e+17
19108.0	5.711261884306773e+17
19109.0	5.7103375331054925e+17
19110.0	5.7093162501406714e+17
19111.0	5.7082143736244896e+17
19112.0	5.7071725714254496e+17
19113.0	5.706242659975168e+17
19114.0	5.7051539521754445e+17
19115.0	5.7041446320646816e+17
19116.0	5.70310735831586e+17
19117.0	5.702008593973247e+17
19118.0	5.7004036994717005e+17
19119.0	5.696594883466579e+17
19120.0	5.6986303225746765e+17
19121.0	5.697933942980607e+17
19122.0	5.696974313488383e+17
19123.0	5.695966120247296e+17
19124.0	5.694909600235519e+17
19125.0	5.6938729514379936e+17
19126.0	5.6927482516165965e+17
19127.0	5.6915424570245114e+17
19128.0	5.69069233312017e+17
19129.0	5.689725362197843e+17
19130.0	5.688804621593258e+17
19131.0	5.6878150664410445e+17
19132.0	5.6868042168074234e+17
19133.0	5.6857610996940794e+17
19134.0	5.684765906698239e+17
19135.0	5.6837475926016e+17
19136.0	5.6827250219854496e+17
19137.0	5.681691525906431e+17
19138.0	5.6806814780839245e+17
19139.0	5.6796733980890445e+17
19140.0	5.678659146874878e+17
19141.0	5.677640479058602e+17
19142.0	5.6766004748178765e+17
19143.0	5.675590570300756e+17
19144.0	5.674552865936724e+17
19145.0	5.6735600762770765e+17
19146.0	5.6720562631038285e+17
19147.0	5.671509470565716e+17
19148.0	5.6704067419067725e+17
19149.0	5.6693692458598394e+17
19150.0	5.66847465394449e+17
19151.0	5.667451455580841e+17
19152.0	5.666429828683092e+17
19153.0	5.665182919426047e+17
19154.0	5.664366600912896e+17
19155.0	5.6633728605443405e+17
19156.0	5.6623587882871456e+17
19157.0	5.661272888573952e+17
19158.0	5.660168735249749e+17
19159.0	5.659300765280937e+17
19160.0	5.6582764330571085e+17
19161.0	5.6572594191947085e+17
19162.0	5.656229327492436e+17
19163.0	5.6552242680954874e+17
19164.0	5.654218657846611e+17
19165.0	5.6529703253224096e+17
19166.0	5.6521711810860365e+17
19167.0	5.651177728726356e+17
19168.0	5.650177678726485e+17
19169.0	5.649169010130943e+17
19170.0	5.6481582059356154e+17
19171.0	5.6471422679121914e+17
19172.0	5.646132580799828e+17
19173.0	5.6451171446947834e+17
19174.0	5.644095498922666e+17
19175.0	5.643087346226515e+17
19176.0	5.6420765993533434e+17
19177.0	5.640951392021162e+17
19178.0	5.640055479599103e+17
19179.0	5.639039716338345e+17
19180.0	5.638013198882132e+17
19181.0	5.636976757003604e+17
19182.0	5.6359788481959245e+17
19183.0	5.634987862086996e+17
19184.0	5.633978810411691e+17
19185.0	5.6329617546062496e+17
19186.0	5.631953435536041e+17
19187.0	5.6308917075968e+17
19188.0	5.6299235839399245e+17
19189.0	5.628907697646249e+17
19190.0	5.627889375860052e+17
19191.0	5.6268455135586976e+17
19192.0	5.6258439843676154e+17
19193.0	5.624780328446634e+17
19194.0	5.6237182349038925e+17
19195.0	5.622731754176511e+17
19196.0	5.6216659864234643e+17
19197.0	5.6205947569875616e+17
19198.0	5.61949256519953e+17
19199.0	5.618323427426303e+17
19200.0	5.617352999698431e+17
19201.0	5.616475761016831e+17
19202.0	5.6155585918621005e+17
19203.0	5.614610319846057e+17
19204.0	5.613657201311743e+17
19205.0	5.6126751015348896e+17
19206.0	5.611695380627455e+17
19207.0	5.610610812605779e+17
19208.0	5.6096696792951456e+17
19209.0	5.6087091850772474e+17
19210.0	5.6077218640909645e+17
19211.0	5.606736096395262e+17
19212.0	5.605730191147007e+17
19213.0	5.604656879239167e+17
19214.0	5.60370072682496e+17
19215.0	5.6027066453196794e+17
19216.0	5.601690279477246e+17
19217.0	5.6006455755188896e+17
19218.0	5.599583613397674e+17
19219.0	5.5985148544068256e+17
19220.0	5.5976334941224954e+17
19221.0	5.596641927801515e+17
19222.0	5.595665968485717e+17
19223.0	5.5946696479211514e+17
19224.0	5.5936550010443085e+17
19225.0	5.592681489803945e+17
19226.0	5.591681451687935e+17
19227.0	5.590686248206335e+17
19228.0	5.5897091452436474e+17
19229.0	5.588709704116905e+17
19230.0	5.587705510843732e+17
19231.0	5.586696921939967e+17
19232.0	5.5857054891376634e+17
19233.0	5.584665754730494e+17
19234.0	5.5837031535738874e+17
19235.0	5.582676929019903e+17
19236.0	5.5817033094266874e+17
19237.0	5.5806989938196474e+17
19238.0	5.579653061629268e+17
19239.0	5.5787031566308685e+17
19240.0	5.5777028906243405e+17
19241.0	5.5766910448435194e+17
19242.0	5.575694299256149e+17
19243.0	5.5745807297194643e+17
19244.0	5.573709117696681e+17
19245.0	5.572704240751956e+17
19246.0	5.571707595128831e+17
19247.0	5.5707033536211616e+17
19248.0	5.569711722987519e+17
19249.0	5.5687040680154445e+17
19250.0	5.5676533990577485e+17
19251.0	5.5666072900075514e+17
19252.0	5.5654708733979296e+17
19253.0	5.564704045574826e+17
19254.0	5.5637189475696634e+17
19255.0	5.562561652413779e+17
19256.0	5.5617134019652256e+17
19257.0	5.560722548675924e+17
19258.0	5.55972059935539e+17
19259.0	5.558649385997653e+17
19260.0	5.5576602880245754e+17
19261.0	5.556692046228138e+17
19262.0	5.5556421727901005e+17
19263.0	5.554620847882239e+17
19264.0	5.553564058036906e+17
19265.0	5.5525922741507405e+17
19266.0	5.5515934761506125e+17
19267.0	5.550704296285524e+17
19268.0	5.5497187145373005e+17
19269.0	5.5487219584641696e+17
19270.0	5.547705728237568e+17
19271.0	5.546676677421738e+17
19272.0	5.545720155908779e+17
19273.0	5.5446187023182496e+17
19274.0	5.543453728789844e+17
19275.0	5.542768511636819e+17
19276.0	5.5417604127675725e+17
19277.0	5.5407698824396794e+17
19278.0	5.5397674102292474e+17
19279.0	5.538761112813568e+17
19280.0	5.53776738013457e+17
19281.0	5.536775824998399e+17
19282.0	5.5357913288758605e+17
19283.0	5.534788181382485e+17
19284.0	5.533771845599232e+17
19285.0	5.532747676953258e+17
19286.0	5.531700334777684e+17
19287.0	5.530601917863252e+17
19288.0	5.529024024892756e+17
19289.0	5.5278981961045325e+17
19290.0	5.527591213596671e+17
19291.0	5.5265602103323296e+17
19292.0	5.525816125423615e+17
19293.0	5.5248450762397005e+17
19294.0	5.523850983549609e+17
19295.0	5.522875642893653e+17
19296.0	5.521737087888042e+17
19297.0	5.5208577765212154e+17
19298.0	5.5198752636054176e+17
19299.0	5.518744567327402e+17
19300.0	5.5179056729729696e+17
19301.0	5.516915706079913e+17
19302.0	5.5159110080921594e+17
19303.0	5.5148831135061325e+17
19304.0	5.5139248877076474e+17
19305.0	5.512916061825705e+17
19306.0	5.511922025059668e+17
19307.0	5.510899995508735e+17
19308.0	5.509904106258432e+17
19309.0	5.508904542797823e+17
19310.0	5.507880544021161e+17
19311.0	5.5068468934519456e+17
19312.0	5.5057871689919136e+17
19313.0	5.504468265205758e+17
19314.0	5.498076242378752e+17
19315.0	5.497308655386624e+17
19316.0	5.5013112817909754e+17
19317.0	5.5008124685953696e+17
19318.0	5.49991174251042e+17
19319.0	5.498965714447018e+17
19320.0	5.497929151632724e+17
19321.0	5.49686788436787e+17
19322.0	5.496002897947306e+17
19323.0	5.4949987242475514e+17
19324.0	5.494007422866772e+17
19325.0	5.4930169351809696e+17
19326.0	5.492023114421589e+17
19327.0	5.4910258543329274e+17
19328.0	5.489775772084907e+17
19329.0	5.489033668984832e+17
19330.0	5.488033817515349e+17
19331.0	5.487005297278975e+17
19332.0	5.486039272172202e+17
19333.0	5.485030356112724e+17
19334.0	5.484034565428564e+17
19335.0	5.482522695696384e+17
19336.0	5.482029783886506e+17
19337.0	5.4810262344389965e+17
19338.0	5.4798634048989856e+17
19339.0	5.4789959759953914e+17
19340.0	5.477906177676628e+17
19341.0	5.476714825471317e+17
19342.0	5.475822004950357e+17
19343.0	5.4748676707669325e+17
19344.0	5.47355987349777e+17
19345.0	5.472340110475262e+17
19346.0	5.471457010952873e+17
19347.0	5.4705182306467834e+17
19348.0	5.4698580800525645e+17
19349.0	5.468869909719722e+17
19350.0	5.4677942720703136e+17
19351.0	5.466875195206313e+17
19352.0	5.465602512650239e+17
19353.0	5.464895944392702e+17
19354.0	5.463885819674623e+17
19355.0	5.462793223755094e+17
19356.0	5.461853475962879e+17
19357.0	5.460829177293483e+17
19358.0	5.459804009704106e+17
19359.0	5.4587119835108685e+17
19360.0	5.457540127129599e+17
19361.0	5.456727569509034e+17
19362.0	5.455704041892522e+17
19363.0	5.4546763220691616e+17
19364.0	5.453645341174443e+17
19365.0	5.452611492773887e+17
19366.0	5.451575014544726e+17
19367.0	5.4505347257903776e+17
19368.0	5.449490493691221e+17
19369.0	5.448431636054015e+17
19370.0	5.447385668911104e+17
19371.0	5.4463008876789754e+17
19372.0	5.4452887538892794e+17
19373.0	5.444219562186068e+17
19374.0	5.443165192454143e+17
19375.0	5.4421020650154656e+17
19376.0	5.4410311019178656e+17
19377.0	5.439949149044735e+17
19378.0	5.4388691402315085e+17
19379.0	5.437785792053246e+17
19380.0	5.4366971947035296e+17
19381.0	5.4355963961234765e+17
19382.0	5.434432085295104e+17
19383.0	5.433358137251156e+17
19384.0	5.4322608814598816e+17
19385.0	5.4311426101084154e+17
19386.0	5.430017858557268e+17
19387.0	5.4288754238204576e+17
19388.0	5.4277121734519456e+17
19389.0	5.426500890613076e+17
19390.0	5.4251315936624634e+17
19391.0	5.4231703042566816e+17
19392.0	5.4225109128314874e+17
19393.0	5.4217307065767245e+17
19394.0	5.420628196021589e+17
19395.0	5.41936741060881e+17
19396.0	5.4182020959436794e+17
19397.0	5.416963789204138e+17
19398.0	5.415583609432747e+17
19399.0	5.4141994639469216e+17
19400.0	5.412942747708074e+17
19401.0	5.411775012230485e+17
19402.0	5.4104766933893114e+17
19403.0	5.409121350888105e+17
19404.0	5.4077633568877216e+17
19405.0	5.4063489641786016e+17
19406.0	5.404915000147967e+17
19407.0	5.4033324619857914e+17
19408.0	5.401823112331262e+17
19409.0	5.400351964397567e+17
19410.0	5.3988527272099834e+17
19411.0	5.397259061559294e+17
19412.0	5.395608100317866e+17
19413.0	5.393812452365653e+17
19414.0	5.3921366964961274e+17
19415.0	5.3903134248577696e+17
19416.0	5.3883505059648845e+17
19417.0	5.386532575772671e+17
19418.0	5.384537457207978e+17
19419.0	5.382454563045374e+17
19420.0	5.3802769195554125e+17
19421.0	5.3779923171191456e+17
19422.0	5.375571149542741e+17
19423.0	5.37317199786803e+17
19424.0	5.37052991070754e+17
19425.0	5.36774494458129e+17
19426.0	5.3648094973132794e+17
19427.0	5.361712992266922e+17
19428.0	5.358439108007252e+17
19429.0	5.3548919375790074e+17
19430.0	5.351065033637887e+17
19431.0	5.347175902303572e+17
19432.0	5.3429278203357856e+17
19433.0	5.338274681148757e+17
19434.0	5.333212035284991e+17
19435.0	5.3277038410902176e+17
19436.0	5.3215922032913056e+17
19437.0	5.315040630538239e+17
19438.0	5.30630719971874e+17
19439.0	5.2993341637263366e+17
19440.0	5.291420279635967e+17
19441.0	5.282114253619199e+17
19442.0	5.2713203933293216e+17
19443.0	5.258772125581311e+17
19444.0	5.244407344616787e+17
19445.0	5.2279859754653005e+17
19446.0	5.207786057105407e+17
19447.0	5.1834591197702816e+17
19448.0	5.151699309516118e+17
19449.0	5.1073784885193376e+17
19450.0	5.027603366805499e+17
19451.0	4.958255367323649e+17
19452.0	5.074325913381545e+17
19453.0	5.1285431086830944e+17
19454.0	5.163350294702761e+17
19455.0	5.1889753991850656e+17
19456.0	5.20889117511953e+17
19457.0	5.224334424888659e+17
19458.0	5.222598817699163e+17
19459.0	5.24537536691132e+17
19460.0	5.2596405757979296e+17
19461.0	5.268166397657088e+17
19462.0	5.275605798311253e+17
19463.0	5.2821157950259194e+17
19464.0	5.287763212151466e+17
19465.0	5.292554844460372e+17
19466.0	5.2966963253957965e+17
19467.0	5.300491950314836e+17
19468.0	5.3037817379771725e+17
19469.0	5.306510855547561e+17
19470.0	5.30926769606929e+17
19471.0	5.311445531798185e+17
19472.0	5.3132937833130656e+17
19473.0	5.314999075471359e+17
19474.0	5.316234402157908e+17
19475.0	5.317443854183081e+17
19476.0	5.3186969234746016e+17
19477.0	5.319703560628907e+17
19478.0	5.3205321341992954e+17
19479.0	5.3209816412542285e+17
19480.0	5.321619610970793e+17
19481.0	5.3220350295190176e+17
19482.0	5.3223738230265165e+17
19483.0	5.3225847699537914e+17
19484.0	5.3226900337022285e+17
19485.0	5.3227212833641805e+17
19486.0	5.322506935555413e+17
19487.0	5.3225913794778445e+17
19488.0	5.322414981731669e+17
19489.0	5.3220827655918925e+17
19490.0	5.3217477287826765e+17
19491.0	5.3216474380806816e+17
19492.0	5.321425959256062e+17
19493.0	5.32107811304243e+17
19494.0	5.3206584589462176e+17
19495.0	5.3201657526572365e+17
19496.0	5.3195371411319456e+17
19497.0	5.318901439135743e+17
19498.0	5.3176367362430285e+17
19499.0	5.316425253475669e+17
19500.0	5.3171334707937274e+17
19501.0	5.316862290864809e+17
19502.0	5.3163570764622496e+17
19503.0	5.315785227851092e+17
19504.0	5.3151654907740154e+17
19505.0	5.3145035806692685e+17
19506.0	5.313833641967616e+17
19507.0	5.3131100119804576e+17
19508.0	5.3123561047108256e+17
19509.0	5.311470589269332e+17
19510.0	5.309946027573247e+17
19511.0	5.30256488580164e+17
19512.0	5.307631966442836e+17
19513.0	5.307632470458367e+17
19514.0	5.3071268464121165e+17
19515.0	5.306900859409749e+17
19516.0	5.3062837661422925e+17
19517.0	5.3055979918458874e+17
19518.0	5.3048029125891405e+17
19519.0	5.3040210411956896e+17
19520.0	5.3030964851725645e+17
19521.0	5.3024986248861005e+17
19522.0	5.301628170491221e+17
19523.0	5.300817730994175e+17
19524.0	5.2998987128504326e+17
19525.0	5.2992093517250554e+17
19526.0	5.298382404845567e+17
19527.0	5.297537827908265e+17
19528.0	5.2966760039929165e+17
19529.0	5.295817849394517e+17
19530.0	5.295001762267135e+17
19531.0	5.2941457684343456e+17
19532.0	5.293286138139989e+17
19533.0	5.2924426069824845e+17
19534.0	5.2916003676706125e+17
19535.0	5.2907109242634234e+17
19536.0	5.289815913616724e+17
19537.0	5.288944359615145e+17
19538.0	5.287829011693567e+17
19539.0	5.287104896565247e+17
19540.0	5.2862798790656e+17
19541.0	5.2853938987554125e+17
19542.0	5.2845343977854285e+17
19543.0	5.283461643720021e+17
19544.0	5.2827073785364474e+17
19545.0	5.2816949853989536e+17
19546.0	5.280799013557589e+17
19547.0	5.280056544854015e+17
19548.0	5.279223400890366e+17
19549.0	5.278275192487936e+17
19550.0	5.277477813354494e+17
19551.0	5.2765921056740685e+17
19552.0	5.2756984728562336e+17
19553.0	5.27479851782417e+17
19554.0	5.273902041967274e+17
19555.0	5.272976824642217e+17
19556.0	5.2721004443948365e+17
19557.0	5.2712140048083616e+17
19558.0	5.2703185537597434e+17
19559.0	5.2694217262803616e+17
19560.0	5.268430271807487e+17
19561.0	5.2675959464482125e+17
19562.0	5.266639239686826e+17
19563.0	5.2658106269696e+17
19564.0	5.26490524590626e+17
19565.0	5.2639986359118496e+17
19566.0	5.263082064445439e+17
19567.0	5.262184216352083e+17
19568.0	5.2612586453073914e+17
19569.0	5.2603586658085536e+17
19570.0	5.259460143830356e+17
19571.0	5.2585526292643834e+17
19572.0	5.2576169128973645e+17
19573.0	5.2567067796875936e+17
19574.0	5.255740391074473e+17
19575.0	5.254916557766655e+17
19576.0	5.253987720058196e+17
19577.0	5.2530397143804576e+17
19578.0	5.252176561569791e+17
19579.0	5.251245725275476e+17
19580.0	5.2503395158370976e+17
19581.0	5.2494460046540794e+17
19582.0	5.248535965816149e+17
19583.0	5.247623286663849e+17
19584.0	5.246708154542762e+17
19585.0	5.245698912725673e+17
19586.0	5.244761358554453e+17
19587.0	5.2439245851197446e+17
19588.0	5.2429613534194336e+17
19589.0	5.242076092432383e+17
19590.0	5.241160754091347e+17
19591.0	5.2403068035836576e+17
19592.0	5.239411235793579e+17
19593.0	5.238465883013119e+17
19594.0	5.237369761781076e+17
19595.0	5.236656609864362e+17
19596.0	5.235741360302762e+17
19597.0	5.23480314482961e+17
19598.0	5.2337149228701005e+17
19599.0	5.232962115207167e+17
19600.0	5.2320835979618976e+17
19601.0	5.2311348009588045e+17
19602.0	5.2302099520334496e+17
19603.0	5.2292699511848954e+17
19604.0	5.2283678493682336e+17
19605.0	5.2273633289393485e+17
19606.0	5.226601761472511e+17
19607.0	5.2257045774772896e+17
19608.0	5.2247861206712314e+17
19609.0	5.2238600323290445e+17
19610.0	5.2228806043238394e+17
19611.0	5.221919964703402e+17
19612.0	5.221142033159509e+17
19613.0	5.220216671830015e+17
19614.0	5.2192724186562534e+17
19615.0	5.218373495422975e+17
19616.0	5.2173407696977914e+17
19617.0	5.216319479043413e+17
19618.0	5.2153736627923616e+17
19619.0	5.2143874365194234e+17
19620.0	5.213541841764351e+17
19621.0	5.2126164965130234e+17
19622.0	5.211950934567594e+17
19623.0	5.211047686307839e+17
19624.0	5.210112320165204e+17
19625.0	5.2092355246817274e+17
19626.0	5.208306923951445e+17
19627.0	5.2073735438117536e+17
19628.0	5.2064131327808845e+17
19629.0	5.204923092303871e+17
19630.0	5.204410215606954e+17
19631.0	5.2033931989483514e+17
19632.0	5.202667169819306e+17
19633.0	5.2018143280059725e+17
19634.0	5.2009862011289594e+17
19635.0	5.200057151608147e+17
19636.0	5.1989958514879136e+17
19637.0	5.197836267640149e+17
19638.0	5.1973819273489056e+17
19639.0	5.196459135729662e+17
19640.0	5.1953335627939834e+17
19641.0	5.1942413918972576e+17
19642.0	5.193688056943956e+17
19643.0	5.1928149650309114e+17
19644.0	5.1918946389633696e+17
19645.0	5.190997280904532e+17
19646.0	5.189900512351571e+17
19647.0	5.1892299004641274e+17
19648.0	5.1883281719405216e+17
19649.0	5.1874225168493216e+17
19650.0	5.1865196607569914e+17
19651.0	5.185606776083796e+17
19652.0	5.18469830381841e+17
19653.0	5.183795894419455e+17
19654.0	5.182881260721492e+17
19655.0	5.1819732624124576e+17
19656.0	5.181070588772351e+17
