# Flux units: erg / (cm m2 s)
# Wavelength units: Angstrom
wave	flux
19000.0	7.840364499741353e+17
19001.0	7.838962831851519e+17
19002.0	7.837559683372374e+17
19003.0	7.836404086909608e+17
19004.0	7.836593062674432e+17
19005.0	7.835184661528575e+17
19006.0	7.833774838513663e+17
19007.0	7.832363653748054e+17
19008.0	7.830948133470207e+17
19009.0	7.829533166840489e+17
19010.0	7.828099144089599e+17
19011.0	7.82670504412228e+17
19012.0	7.82528585802274e+17
19013.0	7.823871155634173e+17
19014.0	7.822451620009299e+17
19015.0	7.821030960310953e+17
19016.0	7.819606300644692e+17
19017.0	7.818185401871017e+17
19018.0	7.816762280116224e+17
19019.0	7.815337537961983e+17
19020.0	7.813911352967165e+17
19021.0	7.812484262002688e+17
19022.0	7.811056650944511e+17
19023.0	7.809627701903357e+17
19024.0	7.808197305827327e+17
19025.0	7.806766837050025e+17
19026.0	7.805333531525119e+17
19027.0	7.80389862797039e+17
19028.0	7.802468985470977e+17
19029.0	7.801034557270697e+17
19030.0	7.799599252460884e+17
19031.0	7.798163166112426e+17
19032.0	7.796726150026579e+17
19033.0	7.795288286691327e+17
19034.0	7.793849488026281e+17
19035.0	7.792408354532009e+17
19036.0	7.790722386930345e+17
19037.0	7.789527702350505e+17
19038.0	7.788087179826515e+17
19039.0	7.786644904083453e+17
19040.0	7.78520177410048e+17
19041.0	7.783757887744681e+17
19042.0	7.782313212859731e+17
19043.0	7.780867857099433e+17
19044.0	7.779421696032767e+17
19045.0	7.777975107147091e+17
19046.0	7.776525097107453e+17
19047.0	7.775078666207232e+17
19048.0	7.773620608696317e+17
19049.0	7.772181537401514e+17
19050.0	7.77073137496883e+17
19051.0	7.769241828021586e+17
19052.0	7.767821949861887e+17
19053.0	7.766377912511144e+17
19054.0	7.764925637547348e+17
19055.0	7.76346296770014e+17
19056.0	7.762019247718399e+17
19057.0	7.7605650839197e+17
19058.0	7.759425799105193e+17
19059.0	7.757994972413951e+17
19060.0	7.756536991798612e+17
19061.0	7.755080730847913e+17
19062.0	7.753622481797117e+17
19063.0	7.752164031419731e+17
19064.0	7.750700061338284e+17
19065.0	7.749241963282432e+17
19066.0	7.747785576502611e+17
19067.0	7.746325019186518e+17
19068.0	7.744863887250772e+17
19069.0	7.743402361050451e+17
19070.0	7.7419398575773e+17
19071.0	7.740477759553535e+17
19072.0	7.739014793308841e+17
19073.0	7.737551017563476e+17
19074.0	7.736087287955455e+17
19075.0	7.73462284112145e+17
19076.0	7.733156803248125e+17
19077.0	7.731691878263464e+17
19078.0	7.730225447523668e+17
19079.0	7.728760490382676e+17
19080.0	7.727293791207421e+17
19081.0	7.725826613881513e+17
19082.0	7.724356735423828e+17
19083.0	7.722890067006803e+17
19084.0	7.72140871013717e+17
19085.0	7.719953476790953e+17
19086.0	7.718465088869714e+17
19087.0	7.717008544104447e+17
19088.0	7.715542509027325e+17
19089.0	7.714060708959572e+17
19090.0	7.712601969175208e+17
19091.0	7.711130664654164e+17
19092.0	7.709658027742547e+17
19093.0	7.708187047581011e+17
19094.0	7.7067095914141e+17
19095.0	7.70523548230178e+17
19096.0	7.703767220049236e+17
19097.0	7.702294215436969e+17
19098.0	7.700820132888575e+17
19099.0	7.69934548410914e+17
19100.0	7.697870452249939e+17
19101.0	7.696394826197674e+17
19102.0	7.694914473164799e+17
19103.0	7.693442886227283e+17
19104.0	7.69196618363699e+17
19105.0	7.690488965147305e+17
19106.0	7.689010433840468e+17
19107.0	7.687532733005824e+17
19108.0	7.686054856010408e+17
19109.0	7.684555667756372e+17
19110.0	7.683095205511167e+17
19111.0	7.681618020575914e+17
19112.0	7.680138373584211e+17
19113.0	7.678658093252607e+17
19114.0	7.677177460599466e+17
19115.0	7.675694816078505e+17
19116.0	7.674214843329193e+17
19117.0	7.672732559518378e+17
19118.0	7.671247896139092e+17
19119.0	7.669620001472511e+17
19120.0	7.668282117761704e+17
19121.0	7.666799337624915e+17
19122.0	7.665317052416e+17
19123.0	7.663832590363305e+17
19124.0	7.662347687908691e+17
19125.0	7.660862269554687e+17
19126.0	7.659375605492394e+17
19127.0	7.6578023290525e+17
19128.0	7.656402617106432e+17
19129.0	7.654916687047338e+17
19130.0	7.653429666469204e+17
19131.0	7.651941723144192e+17
19132.0	7.650453150673577e+17
19133.0	7.648960438424915e+17
19134.0	7.647475447889917e+17
19135.0	7.645985776511657e+17
19136.0	7.644495592030208e+17
19137.0	7.642996819012264e+17
19138.0	7.641513049019731e+17
19139.0	7.640022263354708e+17
19140.0	7.63853026693393e+17
19141.0	7.637037708476415e+17
19142.0	7.635544554427732e+17
19143.0	7.634048365101055e+17
19144.0	7.632556416215721e+17
19145.0	7.631062322642943e+17
19146.0	7.629535302385663e+17
19147.0	7.628067119824896e+17
19148.0	7.626575177930067e+17
19149.0	7.625078497869821e+17
19150.0	7.623580899257e+17
19151.0	7.622083418084691e+17
19152.0	7.620585000184488e+17
19153.0	7.619085982498816e+17
19154.0	7.617579858264063e+17
19155.0	7.616086115614719e+17
19156.0	7.614585125208063e+17
19157.0	7.613082289307647e+17
19158.0	7.611569475158015e+17
19159.0	7.610077661888511e+17
19160.0	7.608575815843837e+17
19161.0	7.60707170906931e+17
19162.0	7.605535163547645e+17
19163.0	7.603756677988353e+17
19164.0	7.600826654654463e+17
19165.0	7.599319972577279e+17
19166.0	7.597807682715645e+17
19167.0	7.596302826558803e+17
19168.0	7.594796141685417e+17
19169.0	7.593287087030271e+17
19170.0	7.591778215526399e+17
19171.0	7.590266538033151e+17
19172.0	7.588756471152641e+17
19173.0	7.587244458115071e+17
19174.0	7.585728884113407e+17
19175.0	7.584218016120832e+17
19176.0	7.582703574581248e+17
19177.0	7.581179972681727e+17
19178.0	7.579670887268352e+17
19179.0	7.578152930902015e+17
19180.0	7.576636648062972e+17
19181.0	7.575113118864723e+17
19182.0	7.573597827279528e+17
19183.0	7.572078249115648e+17
19184.0	7.57055588873011e+17
19185.0	7.569034076400296e+17
19186.0	7.567511085471059e+17
19187.0	7.565986630729728e+17
19188.0	7.564461400042154e+17
19189.0	7.562935317910867e+17
19190.0	7.561407724432041e+17
19191.0	7.559879061405693e+17
19192.0	7.558349920228692e+17
19193.0	7.55681918521617e+17
19194.0	7.555287695228927e+17
19195.0	7.553754758206803e+17
19196.0	7.552219757587114e+17
19197.0	7.550683314126847e+17
19198.0	7.549139962647892e+17
19199.0	7.547410858027689e+17
19200.0	7.545918800090451e+17
19201.0	7.544526105214973e+17
19202.0	7.542992087460521e+17
19203.0	7.541452032704511e+17
19204.0	7.539908265989459e+17
19205.0	7.538365283609258e+17
19206.0	7.536818987728896e+17
19207.0	7.535271068652883e+17
19208.0	7.533713611729577e+17
19209.0	7.532173775077373e+17
19210.0	7.530622148236628e+17
19211.0	7.529069085545812e+17
19212.0	7.52751439127074e+17
19213.0	7.525956748399955e+17
19214.0	7.524394839922003e+17
19215.0	7.520865398816768e+17
19216.0	7.519022181165738e+17
19217.0	7.517458308355412e+17
19218.0	7.515852375064575e+17
19219.0	7.514317069658794e+17
19220.0	7.512758079018323e+17
19221.0	7.511171705165139e+17
19222.0	7.509614431393108e+17
19223.0	7.508040913081684e+17
19224.0	7.50646454404164e+17
19225.0	7.504879572484093e+17
19226.0	7.503306582654973e+17
19227.0	7.501724555498838e+17
19228.0	7.50014018372676e+17
19229.0	7.498553580584957e+17
19230.0	7.496964677566461e+17
19231.0	7.495374113603583e+17
19232.0	7.49378026410257e+17
19233.0	7.49218432024576e+17
19234.0	7.490586589615446e+17
19235.0	7.488987694366717e+17
19236.0	7.487385137490602e+17
19237.0	7.485779376166228e+17
19238.0	7.484170875961344e+17
19239.0	7.482562732272296e+17
19240.0	7.480948112577876e+17
19241.0	7.479333927692969e+17
19242.0	7.475372154508627e+17
19243.0	7.473207632199679e+17
19244.0	7.471591171205802e+17
19245.0	7.469962335617021e+17
19246.0	7.468330228471123e+17
19247.0	7.466696974882132e+17
19248.0	7.465060003741693e+17
19249.0	7.463419710712489e+17
19250.0	7.461776016102739e+17
19251.0	7.460123615515987e+17
19252.0	7.458463887480148e+17
19253.0	7.456827794347348e+17
19254.0	7.455172561207296e+17
19255.0	7.453503046462121e+17
19256.0	7.45184961687279e+17
19257.0	7.450184915790505e+17
19258.0	7.448514783084543e+17
19259.0	7.446840999936e+17
19260.0	7.443102264459261e+17
19261.0	7.439901045817343e+17
19262.0	7.438211138366122e+17
19263.0	7.436515042918399e+17
19264.0	7.434793328661844e+17
19265.0	7.433106273337343e+17
19266.0	7.431400914070186e+17
19267.0	7.429383452448084e+17
19268.0	7.427637263029586e+17
19269.0	7.425915378204671e+17
19270.0	7.424188208556713e+17
19271.0	7.422440478430548e+17
19272.0	7.420717607944191e+17
19273.0	7.41767205949713e+17
19274.0	7.412822845685757e+17
19275.0	7.411109229232128e+17
19276.0	7.409344148668415e+17
19277.0	7.407573169515178e+17
19278.0	7.405796216274941e+17
19279.0	7.404013147739476e+17
19280.0	7.402220461664936e+17
19281.0	7.400428769640445e+17
19282.0	7.398627200030036e+17
19283.0	7.396751998014804e+17
19284.0	7.392394612484777e+17
19285.0	7.390562080522239e+17
19286.0	7.388735978427731e+17
19287.0	7.386895787666089e+17
19288.0	7.384981236088832e+17
19289.0	7.383028761012906e+17
19290.0	7.381316781735936e+17
19291.0	7.379427597309267e+17
19292.0	7.377559090801322e+17
19293.0	7.375670408293033e+17
19294.0	7.37377619349777e+17
19295.0	7.371873953600854e+17
19296.0	7.369963915094697e+17
19297.0	7.368045878050815e+17
19298.0	7.366120113700861e+17
19299.0	7.364185867070121e+17
19300.0	7.362243294745939e+17
19301.0	7.360292231752361e+17
19302.0	7.358332820695721e+17
19303.0	7.356362819021481e+17
19304.0	7.354385681438036e+17
19305.0	7.352401195433981e+17
19306.0	7.350405774879402e+17
19307.0	7.348399804252157e+17
19308.0	7.346386257313791e+17
19309.0	7.344355811524607e+17
19310.0	7.341847634509823e+17
19311.0	7.339621145553578e+17
19312.0	7.337564806927699e+17
19313.0	7.335496289441108e+17
19314.0	7.333279267028991e+17
19315.0	7.331199775845034e+17
19316.0	7.329227082825727e+17
19317.0	7.327116302133929e+17
19318.0	7.32499347120674e+17
19319.0	7.32285966098978e+17
19320.0	7.320713245491199e+17
19321.0	7.318545741032106e+17
19322.0	7.316351418193236e+17
19323.0	7.314147240138067e+17
19324.0	7.311928952444244e+17
19325.0	7.309690829886804e+17
19326.0	7.307451900624896e+17
19327.0	7.305194159909545e+17
19328.0	7.302921568561833e+17
19329.0	7.300462357250047e+17
19330.0	7.297224628589908e+17
19331.0	7.294895249162237e+17
19332.0	7.292547528043177e+17
19333.0	7.290181528147283e+17
19334.0	7.287797055138472e+17
19335.0	7.285394355082582e+17
19336.0	7.282972197650432e+17
19337.0	7.28053050315025e+17
19338.0	7.278058453073917e+17
19339.0	7.275587220886867e+17
19340.0	7.273081391284223e+17
19341.0	7.270302715215873e+17
19342.0	7.266338867249152e+17
19343.0	7.263770439057407e+17
19344.0	7.261161341495978e+17
19345.0	7.258437429056851e+17
19346.0	7.255835252097023e+17
19347.0	7.253193388632745e+17
19348.0	7.250492729414995e+17
19349.0	7.247760001946963e+17
19350.0	7.242897289467222e+17
19351.0	7.239856955938131e+17
19352.0	7.236990100220585e+17
19353.0	7.234096688966314e+17
19354.0	7.231175385590441e+17
19355.0	7.228221003137024e+17
19356.0	7.222163348826794e+17
19357.0	7.219091799889236e+17
19358.0	7.216009486969514e+17
19359.0	7.212894222199466e+17
19360.0	7.209191100557993e+17
19361.0	7.202542828126207e+17
19362.0	7.199273306641748e+17
19363.0	7.195966497794729e+17
19364.0	7.192614863022762e+17
19365.0	7.184332215724716e+17
19366.0	7.180807146482345e+17
19367.0	7.177276465261225e+17
19368.0	7.172080887223638e+17
19369.0	7.164113755045887e+17
19370.0	7.160380715433983e+17
19371.0	7.156595658063871e+17
19372.0	7.145983515295745e+17
19373.0	7.141475213115391e+17
19374.0	7.134535755322716e+17
19375.0	7.124716983331497e+17
19376.0	7.120240754993837e+17
19377.0	7.110981890430294e+17
19378.0	7.106251032887296e+17
19379.0	7.101477499699199e+17
19380.0	7.09662848721442e+17
19381.0	7.091702148541097e+17
19382.0	7.086696723469651e+17
19383.0	7.081607577294164e+17
19384.0	7.076442073814356e+17
19385.0	7.071209903270569e+17
19386.0	7.06590008217873e+17
19387.0	7.060501052435113e+17
19388.0	7.055005862679891e+17
19389.0	7.0494024892416e+17
19390.0	7.043704857209513e+17
19391.0	7.037726398349311e+17
19392.0	7.031804479406077e+17
19393.0	7.025812800798719e+17
19394.0	7.019712246448127e+17
19395.0	7.013503827880618e+17
19396.0	7.007183236846932e+17
19397.0	7.000746819409236e+17
19398.0	6.994176630237866e+17
19399.0	6.987404074287104e+17
19400.0	6.980567671242751e+17
19401.0	6.973184127533053e+17
19402.0	6.965923921526783e+17
19403.0	6.95867342393617e+17
19404.0	6.951299139851604e+17
19405.0	6.943792315760639e+17
19406.0	6.935734764874409e+17
19407.0	6.927341877985279e+17
19408.0	6.919322250597715e+17
19409.0	6.911092895427242e+17
19410.0	6.901768334082045e+17
19411.0	6.892128356881747e+17
19412.0	6.883017428216489e+17
19413.0	6.872100100898816e+17
19414.0	6.861643446572371e+17
19415.0	6.85019810112034e+17
19416.0	6.837970285887487e+17
19417.0	6.82484269807479e+17
19418.0	6.811519301277012e+17
19419.0	6.795233197730478e+17
19420.0	6.779365140463617e+17
19421.0	6.761811158237184e+17
19422.0	6.742078305686867e+17
19423.0	6.72088927886813e+17
19424.0	6.698867229720579e+17
19425.0	6.674693950712481e+17
19426.0	6.651764276548945e+17
19427.0	6.632495793569791e+17
19428.0	6.613258471473151e+17
19429.0	6.593224858664959e+17
19430.0	6.571613761830913e+17
19431.0	6.54840288055569e+17
19432.0	6.523761521415506e+17
19433.0	6.497449451454464e+17
19434.0	6.46961156010803e+17
19435.0	6.439306902110204e+17
19436.0	6.405422342034775e+17
19437.0	6.367415278152362e+17
19438.0	6.325991756529659e+17
19439.0	6.281704731836417e+17
19440.0	6.232580645628588e+17
19441.0	6.177913998497107e+17
19442.0	6.11800727945216e+17
19443.0	6.052026690218665e+17
19444.0	5.977472096359761e+17
19445.0	5.893703243661313e+17
19446.0	5.797447717967188e+17
19447.0	5.6858716244978285e+17
19448.0	5.554021169364997e+17
19449.0	5.395058584278356e+17
19450.0	5.1997763380619795e+17
19451.0	5.1069812844352934e+17
19452.0	5.30236208980514e+17
19453.0	5.477192630097243e+17
19454.0	5.618982095334053e+17
19455.0	5.7374970391210656e+17
19456.0	5.838493440453294e+17
19457.0	5.926047267334822e+17
19458.0	6.001857135990099e+17
19459.0	6.069806700691459e+17
19460.0	6.130138260089512e+17
19461.0	6.18510083703876e+17
19462.0	6.23461439443217e+17
19463.0	6.278548155968169e+17
19464.0	6.319005849616383e+17
19465.0	6.35602251948578e+17
19466.0	6.38906502829397e+17
19467.0	6.418872757736787e+17
19468.0	6.445439590421844e+17
19469.0	6.46953689101107e+17
19470.0	6.492866692688553e+17
19471.0	6.513942628488534e+17
19472.0	6.534110451335165e+17
19473.0	6.552148553411242e+17
19474.0	6.56914742439663e+17
19475.0	6.585568825704447e+17
19476.0	6.604044352443734e+17
19477.0	6.625565015190181e+17
19478.0	6.646548445615442e+17
19479.0	6.665161346296492e+17
19480.0	6.682268082896892e+17
19481.0	6.697633573765114e+17
19482.0	6.713209549488127e+17
19483.0	6.725994616455165e+17
19484.0	6.73704221955413e+17
19485.0	6.749308885226835e+17
19486.0	6.757806926812503e+17
19487.0	6.768149249305257e+17
19488.0	6.77550467649809e+17
19489.0	6.78420496322833e+17
19490.0	6.791147929556308e+17
19491.0	6.797634733867007e+17
19492.0	6.805097707907754e+17
19493.0	6.810887056086355e+17
19494.0	6.816339852612948e+17
19495.0	6.821724256818516e+17
19496.0	6.827610565421737e+17
19497.0	6.832542751653888e+17
19498.0	6.8373031433885e+17
19499.0	6.84169481036322e+17
19500.0	6.846490258090665e+17
19501.0	6.851252302381055e+17
19502.0	6.85562914738449e+17
19503.0	6.859754723519146e+17
19504.0	6.863731007597225e+17
19505.0	6.867541173469183e+17
19506.0	6.871229403234304e+17
19507.0	6.874800058269695e+17
19508.0	6.878258387047764e+17
19509.0	6.88160679989521e+17
19510.0	6.884910396604415e+17
19511.0	6.887917650356905e+17
19512.0	6.891180096749567e+17
19513.0	6.894072221750612e+17
19514.0	6.896942700647763e+17
19515.0	6.899712391817898e+17
19516.0	6.902370036350975e+17
19517.0	6.904917411932842e+17
19518.0	6.907401854779391e+17
19519.0	6.9098053580445e+17
19520.0	6.912124566284969e+17
19521.0	6.914363703164927e+17
19522.0	6.916522051458387e+17
19523.0	6.918602440922452e+17
19524.0	6.920606373817002e+17
19525.0	6.925283915464701e+17
19526.0	6.928791720252756e+17
19527.0	6.932630502462801e+17
19528.0	6.939807652861268e+17
19529.0	6.941227384220329e+17
19530.0	6.946787474538496e+17
19531.0	6.950349580883284e+17
19532.0	6.951374527572649e+17
19533.0	6.954060263456768e+17
19534.0	6.958828905387348e+17
19535.0	6.959645429421395e+17
19536.0	6.960426136895487e+17
19537.0	6.963719796599466e+17
19538.0	6.966408249693524e+17
19539.0	6.966981650896212e+17
19540.0	6.967561880425812e+17
19541.0	6.969282712480429e+17
19542.0	6.972223626324649e+17
19543.0	6.972623727274666e+17
19544.0	6.973015348740096e+17
19545.0	6.973325033777833e+17
19546.0	6.974851314439507e+17
19547.0	6.976749538989395e+17
19548.0	6.976949137528148e+17
19549.0	6.977120911054163e+17
19550.0	6.977265168547839e+17
19551.0	6.977373785642323e+17
19552.0	6.978237996116649e+17
19553.0	6.979587326782121e+17
19554.0	6.9795696883357e+17
19555.0	6.979526263308287e+17
19556.0	6.979455842342227e+17
19557.0	6.979363609597267e+17
19558.0	6.979247848904019e+17
19559.0	6.979108110073853e+17
19560.0	6.978944969124521e+17
19561.0	6.980130085098836e+17
19562.0	6.980035035179689e+17
19563.0	6.97979058065681e+17
19564.0	6.979525330774698e+17
19565.0	6.979239690982739e+17
19566.0	6.978933248841044e+17
19567.0	6.97860925563426e+17
19568.0	6.978265571568297e+17
19569.0	6.977902934141609e+17
19570.0	6.977522892450474e+17
19571.0	6.97712495506227e+17
19572.0	6.976709651158356e+17
19573.0	6.976646010284713e+17
19574.0	6.976807370052948e+17
19575.0	6.976335445841236e+17
19576.0	6.975847895749972e+17
19577.0	6.975348651939156e+17
19578.0	6.974836598723923e+17
19579.0	6.974313506100563e+17
19580.0	6.973773901900457e+17
19581.0	6.973215177266516e+17
19582.0	6.972635032322047e+17
19583.0	6.97203924472081e+17
19584.0	6.971431585841151e+17
19585.0	6.970813086782804e+17
19586.0	6.970182694775465e+17
19587.0	6.969540961370111e+17
19588.0	6.968868248835412e+17
19589.0	6.968227097739261e+17
19590.0	6.967551723918676e+17
19591.0	6.966870457100969e+17
19592.0	6.966176513698474e+17
19593.0	6.965472687117651e+17
19594.0	6.964979777404925e+17
19595.0	6.964608932424361e+17
19596.0	6.96385914605841e+17
19597.0	6.963128452164265e+17
19598.0	6.962363076968447e+17
19599.0	6.961611436021076e+17
19600.0	6.960839727426217e+17
19601.0	6.960057331744768e+17
19602.0	6.959267584846505e+17
19603.0	6.958451707434323e+17
19604.0	6.957666935679657e+17
19605.0	6.956839950352383e+17
19606.0	6.956033840076116e+17
19607.0	6.955205292370602e+17
19608.0	6.95436877898274e+17
19609.0	6.953524271251455e+17
19610.0	6.95267656606242e+17
19611.0	6.951820816897364e+17
19612.0	6.950958457509204e+17
19613.0	6.950088792342528e+17
19614.0	6.949210921719126e+17
19615.0	6.948321961355945e+17
19616.0	6.947424282432852e+17
19617.0	6.946523102664019e+17
19618.0	6.945586585883987e+17
19619.0	6.946090820217513e+17
19620.0	6.946022606154408e+17
19621.0	6.945120337963689e+17
19622.0	6.944180407719252e+17
19623.0	6.943234401326419e+17
19624.0	6.942282520810836e+17
19625.0	6.941324995461119e+17
19626.0	6.940361916153855e+17
19627.0	6.93939314307891e+17
19628.0	6.938414604965204e+17
19629.0	6.937439001466195e+17
19630.0	6.939768578725204e+17
19631.0	6.939016806356308e+17
19632.0	6.938225334201e+17
19633.0	6.937220963368959e+17
19634.0	6.936210017965396e+17
19635.0	6.935194267287551e+17
19636.0	6.934174011927209e+17
19637.0	6.933127632344403e+17
19638.0	6.932120173106516e+17
19639.0	6.93108758159906e+17
19640.0	6.930048878291626e+17
19641.0	6.928977706177876e+17
19642.0	6.927964908290047e+17
19643.0	6.926916256792575e+17
19644.0	6.928256614443689e+17
19645.0	6.927840024286548e+17
19646.0	6.927023963024042e+17
19647.0	6.926001686708223e+17
19648.0	6.924929462523219e+17
19649.0	6.923853807397545e+17
19650.0	6.922775364457811e+17
19651.0	6.921694463655933e+17
19652.0	6.920610722611199e+17
19653.0	6.919523789701117e+17
19654.0	6.918434189213695e+17
19655.0	6.917341210214399e+17
19656.0	6.916245718827007e+17
19657.0	6.915148396625919e+17
19658.0	6.914048146101587e+17
19659.0	6.912945161590099e+17
19660.0	6.911839637427539e+17
19661.0	6.910731535865172e+17
19662.0	6.909620869485908e+17
19663.0	6.911027970397527e+17
19664.0	6.910144343091881e+17
19665.0	6.909023158796287e+17
19666.0	6.907898174461267e+17
