# Flux units: erg / (cm m2 s)
# Wavelength units: Angstrom
wave	flux
19000.0	4.9739460572610554e+17
19001.0	4.9729374173265914e+17
19002.0	4.9721086836735994e+17
19003.0	4.9711859493765114e+17
19004.0	4.9702675184353274e+17
19005.0	4.9693432490229754e+17
19006.0	4.9684325628641274e+17
19007.0	4.967493229608959e+17
19008.0	4.966534144677204e+17
19009.0	4.965548140702377e+17
19010.0	4.964336706868564e+17
19011.0	4.963793474595498e+17
19012.0	4.962743891263487e+17
19013.0	4.961993120634196e+17
19014.0	4.961028771151871e+17
19015.0	4.9601220828637856e+17
19016.0	4.9591866803705165e+17
19017.0	4.95831857967923e+17
19018.0	4.9573939062155936e+17
19019.0	4.956480486768639e+17
19020.0	4.95555005452561e+17
19021.0	4.954649661887827e+17
19022.0	4.95372968464657e+17
19023.0	4.9527854042098336e+17
19024.0	4.951882469124778e+17
19025.0	4.9509737640755194e+17
19026.0	4.9500345293864954e+17
19027.0	4.9490459948482554e+17
19028.0	4.948233708459349e+17
19029.0	4.9473077368586234e+17
19030.0	4.9464109261564576e+17
19031.0	4.945495403266047e+17
19032.0	4.944573576336725e+17
19033.0	4.9435808908356256e+17
19034.0	4.942736411066366e+17
19035.0	4.941783024795647e+17
19036.0	4.9323571612221446e+17
19037.0	4.9399881255266976e+17
19038.0	4.939065054287189e+17
19039.0	4.938171089420287e+17
19040.0	4.93725623062801e+17
19041.0	4.9363308224621216e+17
19042.0	4.9353273729788576e+17
19043.0	4.934512437187924e+17
19044.0	4.933586720041642e+17
19045.0	4.932680013578239e+17
19046.0	4.931716462411775e+17
19047.0	4.9308253958089376e+17
19048.0	4.929744664876372e+17
19049.0	4.928929904547156e+17
19050.0	4.9280698275594234e+17
19051.0	4.9260949674830483e+17
19052.0	4.925998367768574e+17
19053.0	4.925368351151445e+17
19054.0	4.924457788025513e+17
19055.0	4.923315463738708e+17
19056.0	4.9226087109317965e+17
19057.0	4.921716444058964e+17
19058.0	4.920782568991401e+17
19059.0	4.9198857198414496e+17
19060.0	4.918965099473577e+17
19061.0	4.9180754708179616e+17
19062.0	4.9171588259512314e+17
19063.0	4.9162487808218445e+17
19064.0	4.9152203829193376e+17
19065.0	4.914276777765546e+17
19066.0	4.9134633344477856e+17
19067.0	4.9125912484686496e+17
19068.0	4.9116939106822816e+17
19069.0	4.9107841262987936e+17
19070.0	4.909847750027945e+17
19071.0	4.9089609700037965e+17
19072.0	4.908045006012415e+17
19073.0	4.907139225791147e+17
19074.0	4.9062341530091514e+17
19075.0	4.905324437132628e+17
19076.0	4.9043976015052794e+17
19077.0	4.903487801043625e+17
19078.0	4.902564459271509e+17
19079.0	4.901684258013183e+17
19080.0	4.9007616942844576e+17
19081.0	4.8998341015852365e+17
19082.0	4.8989220054411936e+17
19083.0	4.8979645849490765e+17
19084.0	4.8969513298821114e+17
19085.0	4.8962267638661114e+17
19086.0	4.895008958884521e+17
19087.0	4.8941789823194445e+17
19088.0	4.8934214749388794e+17
19089.0	4.892349583501994e+17
19090.0	4.89167174902306e+17
19091.0	4.890758704267262e+17
19092.0	4.889783490139477e+17
19093.0	4.8889740076427936e+17
19094.0	4.8880651648805536e+17
19095.0	4.887158035491497e+17
19096.0	4.886238956530346e+17
19097.0	4.885343871784277e+17
19098.0	4.8844324341459616e+17
19099.0	4.8835248384901114e+17
19100.0	4.8826066899653965e+17
19101.0	4.8817111144857594e+17
19102.0	4.8807123591277216e+17
19103.0	4.8799101278836045e+17
19104.0	4.8790080484365645e+17
19105.0	4.8780847562970445e+17
19106.0	4.877159113250132e+17
19107.0	4.8762703667964576e+17
19108.0	4.875381580496896e+17
19109.0	4.873924284951209e+17
19110.0	4.873550722760704e+17
19111.0	4.872670327166293e+17
19112.0	4.871765738826409e+17
19113.0	4.870864874329428e+17
19114.0	4.8699582804131834e+17
19115.0	4.8690050367488e+17
19116.0	4.868138121647444e+17
19117.0	4.867233044671146e+17
19118.0	4.866224773136383e+17
19119.0	4.858808162232995e+17
19120.0	4.864473927341395e+17
19121.0	4.863592604805801e+17
19122.0	4.8627412827286176e+17
19123.0	4.8618386580220576e+17
19124.0	4.860905173024766e+17
19125.0	4.8600275883130874e+17
19126.0	4.8591280527114234e+17
19127.0	4.856548624258389e+17
19128.0	4.8571771085564576e+17
19129.0	4.8563653066096634e+17
19130.0	4.855505560971947e+17
19131.0	4.854622787906217e+17
19132.0	4.853721232747178e+17
19133.0	4.8526921357940045e+17
19134.0	4.8518501257707514e+17
19135.0	4.851017527765674e+17
19136.0	4.8501245960956576e+17
19137.0	4.8490759823469216e+17
19138.0	4.848302215047849e+17
19139.0	4.8474235691772576e+17
19140.0	4.846525821747198e+17
19141.0	4.8456255011116365e+17
19142.0	4.844705185529855e+17
19143.0	4.8437769993366176e+17
19144.0	4.842891334997332e+17
19145.0	4.8420293405136205e+17
19146.0	4.8406155084431354e+17
19147.0	4.8401130252315296e+17
19148.0	4.8393245778684576e+17
19149.0	4.838420306897578e+17
19150.0	4.8375304160979616e+17
19151.0	4.836634867182249e+17
19152.0	4.835729077174271e+17
19153.0	4.834816272192851e+17
19154.0	4.8338270113409696e+17
19155.0	4.8330503080290976e+17
19156.0	4.832150755650219e+17
19157.0	4.8312425825785165e+17
19158.0	4.829959377212756e+17
19159.0	4.8294452918572365e+17
19160.0	4.8285492633927674e+17
19161.0	4.8276542548432205e+17
19162.0	4.825898237471402e+17
19163.0	4.8258336941233485e+17
19164.0	4.824979721246036e+17
19165.0	4.824044225779028e+17
19166.0	4.823049552876883e+17
19167.0	4.8222105599563085e+17
19168.0	4.821377432769876e+17
19169.0	4.8204721488745805e+17
19170.0	4.8196062599796045e+17
19171.0	4.818655841178966e+17
19172.0	4.817812855280981e+17
19173.0	4.816919506976766e+17
19174.0	4.8159738703817376e+17
19175.0	4.8151310180024314e+17
19176.0	4.814236000365226e+17
19177.0	4.813207507391828e+17
19178.0	4.8124259862227616e+17
19179.0	4.8114802874122234e+17
19180.0	4.8106445192123725e+17
19181.0	4.809653089206271e+17
19182.0	4.808843748616874e+17
19183.0	4.807981010343253e+17
19184.0	4.8070721494056954e+17
19185.0	4.806189736351061e+17
19186.0	4.805300398500523e+17
19187.0	4.8043529066250234e+17
19188.0	4.8035120675116365e+17
19189.0	4.8026188226669216e+17
19190.0	4.8017212688738976e+17
19191.0	4.8008057690521594e+17
19192.0	4.799944488998228e+17
19193.0	4.799042833874943e+17
19194.0	4.7981477791880525e+17
19195.0	4.7972681784142496e+17
19196.0	4.7963618424477e+17
19197.0	4.7954764738068474e+17
19198.0	4.794587871357611e+17
19199.0	4.788641610771112e+17
19200.0	4.7891923221872646e+17
19201.0	4.7919150455412045e+17
19202.0	4.791028037626538e+17
19203.0	4.7901230745954976e+17
19204.0	4.789223174089387e+17
19205.0	4.788051658145791e+17
19206.0	4.787020837333674e+17
19207.0	4.786028996285781e+17
19208.0	4.7850576528015354e+17
19209.0	4.78435623375121e+17
19210.0	4.783469132862805e+17
19211.0	4.7825864394888525e+17
19212.0	4.7816962865452365e+17
19213.0	4.7807019303130445e+17
19214.0	4.779763373004118e+17
19215.0	4.7790048890497696e+17
19216.0	4.778133521694719e+17
19217.0	4.777240748709204e+17
19218.0	4.775590840238079e+17
19219.0	4.7753405919832736e+17
19220.0	4.774553475612672e+17
19221.0	4.773396648820734e+17
19222.0	4.772777722642432e+17
19223.0	4.7718879723519994e+17
19224.0	4.7709741111050234e+17
19225.0	4.769988093149183e+17
19226.0	4.769220539711487e+17
19227.0	4.768330061010261e+17
19228.0	4.767460207798955e+17
19229.0	4.766570915386709e+17
19230.0	4.765678289900883e+17
19231.0	4.7647822628345165e+17
19232.0	4.763892069345962e+17
19233.0	4.762953556776276e+17
19234.0	4.7621036551700474e+17
19235.0	4.761211767182676e+17
19236.0	4.760346543783936e+17
19237.0	4.7594427474684576e+17
19238.0	4.758480725824853e+17
19239.0	4.757679067802282e+17
19240.0	4.756758234923007e+17
19241.0	4.7558722021840205e+17
19242.0	4.754992982392832e+17
19243.0	4.7539907457624723e+17
19244.0	4.7532355767063885e+17
19245.0	4.752342616375295e+17
19246.0	4.7514414582770336e+17
19247.0	4.750563451338752e+17
19248.0	4.7496798491989325e+17
19249.0	4.748783697701546e+17
19250.0	4.74788050047249e+17
19251.0	4.7468794976665594e+17
19252.0	4.7459029434586445e+17
19253.0	4.745209910220117e+17
19254.0	4.7443381653777056e+17
19255.0	4.743311466168319e+17
19256.0	4.742515365598549e+17
19257.0	4.741674757171882e+17
19258.0	4.740784362356734e+17
19259.0	4.7398395555348474e+17
19260.0	4.738820431937534e+17
19261.0	4.738100360118271e+17
19262.0	4.737173744691882e+17
19263.0	4.736259323505323e+17
19264.0	4.7349297459145376e+17
19265.0	4.7343509920808954e+17
19266.0	4.7334202089144314e+17
19267.0	4.732771176022015e+17
19268.0	4.731873957074261e+17
19269.0	4.730984842919934e+17
19270.0	4.730091853228713e+17
19271.0	4.72888546304546e+17
19272.0	4.72828094779665e+17
19273.0	4.726254278279166e+17
19274.0	4.725711428386815e+17
19275.0	4.725636107774634e+17
19276.0	4.7247253929547085e+17
19277.0	4.7238373986795514e+17
19278.0	4.722944841700691e+17
19279.0	4.7220396850326163e+17
19280.0	4.7210840471197005e+17
19281.0	4.72025763221777e+17
19282.0	4.719381047148543e+17
19283.0	4.718403237445632e+17
19284.0	4.7175279064733005e+17
19285.0	4.716533486627497e+17
19286.0	4.71576719986961e+17
19287.0	4.714901805203455e+17
19288.0	4.71125981484373e+17
19289.0	4.707877133833551e+17
19290.0	4.7122122441140896e+17
19291.0	4.711094119563264e+17
19292.0	4.7104140054801056e+17
19293.0	4.709510684519082e+17
19294.0	4.7086094124755616e+17
19295.0	4.707718216548351e+17
19296.0	4.7068046859523405e+17
19297.0	4.70589926084881e+17
19298.0	4.704989556157098e+17
19299.0	4.7041046999203834e+17
19300.0	4.703203076953429e+17
19301.0	4.70230180630801e+17
19302.0	4.7013829111971834e+17
19303.0	4.700433125037397e+17
19304.0	4.699557362051755e+17
19305.0	4.698667384569855e+17
19306.0	4.6977688192505165e+17
19307.0	4.696822195595946e+17
19308.0	4.6959297113183565e+17
19309.0	4.694844710584319e+17
19310.0	4.6938746281874765e+17
19311.0	4.6931740591827616e+17
19312.0	4.692306720456702e+17
19313.0	4.6913997364701856e+17
19314.0	4.6782425270845555e+17
19315.0	4.677957932373339e+17
19316.0	4.688629072221525e+17
19317.0	4.687733917570389e+17
19318.0	4.6868123534841165e+17
19319.0	4.6859062754672634e+17
19320.0	4.684980932313088e+17
19321.0	4.684057281560576e+17
19322.0	4.6830553315409914e+17
19323.0	4.6821330984632314e+17
19324.0	4.681285022777342e+17
19325.0	4.680177519602346e+17
19326.0	4.679430544119124e+17
19327.0	4.6784858365624314e+17
19328.0	4.677550503974228e+17
19329.0	4.6766336822476794e+17
19330.0	4.6756633076476576e+17
19331.0	4.6747180974735354e+17
19332.0	4.6738122270747296e+17
19333.0	4.6728658564765e+17
19334.0	4.671928549769215e+17
19335.0	4.6709554656488096e+17
19336.0	4.670032906114387e+17
19337.0	4.669079802260138e+17
19338.0	4.667940662149119e+17
19339.0	4.667171912635734e+17
19340.0	4.666082925914794e+17
19341.0	4.6651820712045203e+17
19342.0	4.663934737623721e+17
19343.0	4.6633184042243405e+17
19344.0	4.6623398136818336e+17
19345.0	4.659609748897788e+17
19346.0	4.659429662960297e+17
19347.0	4.659345595127125e+17
19348.0	4.6584445334978554e+17
19349.0	4.657425184107177e+17
19350.0	4.65643370376943e+17
19351.0	4.655437494353919e+17
19352.0	4.6543888176906234e+17
19353.0	4.653467832418304e+17
19354.0	4.6524636929720314e+17
19355.0	4.6513653263892474e+17
19356.0	4.650433217822719e+17
19357.0	4.6494131295354874e+17
19358.0	4.6483740172834125e+17
19359.0	4.6472788942957216e+17
19360.0	4.646263941234687e+17
19361.0	4.645239721558015e+17
19362.0	4.6442247454283085e+17
19363.0	4.6431666308819616e+17
19364.0	4.6421018355083936e+17
19365.0	4.6410357867369805e+17
19366.0	4.639959164125182e+17
19367.0	4.6388758257336314e+17
19368.0	4.637785497534464e+17
19369.0	4.636626026233855e+17
19370.0	4.635451598744234e+17
19371.0	4.6344161418280954e+17
19372.0	4.633334134429012e+17
19373.0	4.63218104476194e+17
19374.0	4.631049742406995e+17
19375.0	4.629897724384596e+17
19376.0	4.6287351877468154e+17
19377.0	4.627548560424959e+17
19378.0	4.6263633360977914e+17
19379.0	4.6251659433956685e+17
19380.0	4.623952622824106e+17
19381.0	4.622723886088191e+17
19382.0	4.6214275168993274e+17
19383.0	4.6201311868573e+17
19384.0	4.6189573346863776e+17
19385.0	4.6176814791393274e+17
19386.0	4.6163862899479885e+17
19387.0	4.61506991952145e+17
19388.0	4.6137360791197005e+17
19389.0	4.6123834349540685e+17
19390.0	4.611012012889429e+17
19391.0	4.6020904472630515e+17
19392.0	4.607835891564542e+17
19393.0	4.6067787368147616e+17
19394.0	4.6053140362253645e+17
19395.0	4.6038255266693114e+17
19396.0	4.602328995506858e+17
19397.0	4.600817618605396e+17
19398.0	4.599242130369193e+17
19399.0	4.5970174246911994e+17
19400.0	4.59598631936546e+17
19401.0	4.594452633660074e+17
19402.0	4.592804655267839e+17
19403.0	4.591096561314474e+17
19404.0	4.5893890622532256e+17
19405.0	4.5876204333083296e+17
19406.0	4.585315201886891e+17
19407.0	4.583277639761919e+17
19408.0	4.580666026317141e+17
19409.0	4.579482755137536e+17
19410.0	4.5775763202375674e+17
19411.0	4.5755960047697914e+17
19412.0	4.5735664831255885e+17
19413.0	4.571496237585748e+17
19414.0	4.5693467155060045e+17
19415.0	4.567196755121492e+17
19416.0	4.564408999783081e+17
19417.0	4.561473632206846e+17
19418.0	4.559223467802623e+17
19419.0	4.5568068999796045e+17
19420.0	4.5543355482548896e+17
19421.0	4.550557246510421e+17
19422.0	4.547484579091796e+17
19423.0	4.544698514756949e+17
19424.0	4.539790270311081e+17
19425.0	4.536462290015569e+17
19426.0	4.5309012790476794e+17
19427.0	4.5253070387063475e+17
19428.0	4.518631509590015e+17
19429.0	4.51024589352687e+17
19430.0	4.498933922747735e+17
19431.0	4.483472991890092e+17
19432.0	4.4667444375060506e+17
19433.0	4.4573187962306554e+17
19434.0	4.448635582414847e+17
19435.0	4.4385503113379834e+17
19436.0	4.427686634061823e+17
19437.0	4.4171093417656314e+17
19438.0	4.391136082788355e+17
19439.0	4.389983471970987e+17
19440.0	4.375536983867392e+17
19441.0	4.357068965631317e+17
19442.0	4.329048204028585e+17
19443.0	4.2737739217851635e+17
19444.0	4.2210024646246374e+17
19445.0	4.178740724629505e+17
19446.0	4.131401295899307e+17
19447.0	4.077025129485642e+17
19448.0	3.9627725359895866e+17
19449.0	3.799803899849379e+17
19450.0	3.300151281057772e+17
19451.0	3.1150846166520986e+17
19452.0	3.60198897489239e+17
19453.0	3.8863278769001837e+17
19454.0	4.031711205654512e+17
19455.0	4.100640108882603e+17
19456.0	4.149173550404951e+17
19457.0	4.192380341190654e+17
19458.0	4.2032549516192666e+17
19459.0	4.2920264359826835e+17
19460.0	4.331450691573074e+17
19461.0	4.3519554952888326e+17
19462.0	4.3666556884527776e+17
19463.0	4.3791872055487123e+17
19464.0	4.390943377588224e+17
19465.0	4.400897877955925e+17
19466.0	4.4098798660266656e+17
19467.0	4.4186375699824634e+17
19468.0	4.426170585404757e+17
19469.0	4.4324627474459296e+17
19470.0	4.445059583836162e+17
19471.0	4.4608751794476384e+17
19472.0	4.47080244550041e+17
19473.0	4.478760294285311e+17
19474.0	4.484960517881854e+17
19475.0	4.488704255066112e+17
19476.0	4.492666484031486e+17
19477.0	4.495816580399104e+17
19478.0	4.498067467621716e+17
19479.0	4.500330693088596e+17
19480.0	4.5013865839547725e+17
19481.0	4.5032931244113914e+17
19482.0	4.5047400663176525e+17
19483.0	4.5055387953179296e+17
19484.0	4.506240191299583e+17
19485.0	4.5068411427880954e+17
19486.0	4.508425625010176e+17
19487.0	4.5090883355279354e+17
19488.0	4.5095684092723194e+17
19489.0	4.509786695532544e+17
19490.0	4.509051040475818e+17
19491.0	4.5106478630393165e+17
19492.0	4.510964590313472e+17
19493.0	4.5112042095028896e+17
19494.0	4.5114036654353056e+17
19495.0	4.511567566252714e+17
19496.0	4.511291547495082e+17
19497.0	4.5124637561978874e+17
19498.0	4.5108841952925e+17
19499.0	4.500743483206313e+17
19500.0	4.512565575024639e+17
19501.0	4.512524465952085e+17
19502.0	4.512446598698325e+17
19503.0	4.51235922645265e+17
19504.0	4.512235053383678e+17
19505.0	4.5120832880858445e+17
19506.0	4.5119171663844685e+17
19507.0	4.5117000859866445e+17
19508.0	4.511501893937833e+17
19509.0	4.5112572947114656e+17
19510.0	4.510797758376617e+17
19511.0	4.489651217760252e+17
19512.0	4.508111793203881e+17
19513.0	4.5064867296924966e+17
19514.0	4.507039106946386e+17
19515.0	4.508903224814251e+17
19516.0	4.508970670620672e+17
19517.0	4.508540873998334e+17
19518.0	4.5081878345373005e+17
19519.0	4.507752819501738e+17
19520.0	4.50728790397201e+17
19521.0	4.506873579438079e+17
19522.0	4.5063785732724045e+17
19523.0	4.5059265090901325e+17
19524.0	4.50543063540258e+17
19525.0	4.5049219103675725e+17
19526.0	4.504420428196521e+17
19527.0	4.5038911245079885e+17
19528.0	4.503350353592319e+17
19529.0	4.5028030388633594e+17
19530.0	4.502263933086378e+17
19531.0	4.501700672312661e+17
19532.0	4.5011286838913696e+17
19533.0	4.5005483271345485e+17
19534.0	4.499956465401855e+17
19535.0	4.499355109163007e+17
19536.0	4.4987234959141536e+17
19537.0	4.4981498563351885e+17
19538.0	4.497372480536574e+17
19539.0	4.496423550713856e+17
19540.0	4.496253345857534e+17
19541.0	4.495636226725205e+17
19542.0	4.494993412587519e+17
19543.0	4.494337229105835e+17
19544.0	4.493694387006121e+17
19545.0	4.492524486568618e+17
19546.0	4.491571526019753e+17
19547.0	4.4917112459755514e+17
19548.0	4.4910324782639776e+17
19549.0	4.490284672308565e+17
19550.0	4.489681447507285e+17
19551.0	4.4889990999572474e+17
19552.0	4.4883096178961056e+17
19553.0	4.487591708939604e+17
19554.0	4.486887369255594e+17
19555.0	4.4862081995898874e+17
19556.0	4.4855200492202656e+17
19557.0	4.4848112558844576e+17
19558.0	4.4841037816572576e+17
19559.0	4.483390808697515e+17
19560.0	4.4826522616681805e+17
19561.0	4.4819369196257274e+17
19562.0	4.481238275806548e+17
19563.0	4.4805202494095354e+17
19564.0	4.4797955540691616e+17
19565.0	4.4790684008666445e+17
19566.0	4.4783116729275725e+17
19567.0	4.477604957869396e+17
19568.0	4.4768513959307936e+17
19569.0	4.476117701012138e+17
19570.0	4.475399820716714e+17
19571.0	4.4746523817629005e+17
19572.0	4.473890882103978e+17
19573.0	4.4731496325447674e+17
19574.0	4.472357475319807e+17
19575.0	4.471682406285312e+17
19576.0	4.470933060321279e+17
19577.0	4.470152198356991e+17
19578.0	4.469392075128831e+17
19579.0	4.468658564759551e+17
19580.0	4.467902772849323e+17
19581.0	4.4671596770973005e+17
19582.0	4.466418389090304e+17
19583.0	4.465660885204991e+17
19584.0	4.464889607225343e+17
19585.0	4.464048676536319e+17
19586.0	4.463255947487914e+17
19587.0	4.462585743147008e+17
19588.0	4.46140893818607e+17
19589.0	4.461070338315604e+17
19590.0	4.4602204576808954e+17
19591.0	4.4595530292701856e+17
19592.0	4.4587917616960845e+17
19593.0	4.458008139180714e+17
19594.0	4.4570587598684154e+17
19595.0	4.4564352842683725e+17
19596.0	4.4553860777246714e+17
19597.0	4.4549112874052256e+17
19598.0	4.4537403698490016e+17
19599.0	4.453399398099626e+17
19600.0	4.452634568862378e+17
19601.0	4.45179972620561e+17
19602.0	4.4510466990407674e+17
19603.0	4.449900361504084e+17
19604.0	4.449503467798527e+17
19605.0	4.4485330813146445e+17
19606.0	4.4480095538817696e+17
19607.0	4.447240807863638e+17
19608.0	4.4464455084059296e+17
19609.0	4.445639435878399e+17
19610.0	4.4449009279959034e+17
19611.0	4.444114184918357e+17
19612.0	4.443350074305193e+17
19613.0	4.442561787723776e+17
19614.0	4.4417570671602336e+17
19615.0	4.441007048709461e+17
19616.0	4.440161070175572e+17
19617.0	4.4394321658511354e+17
19618.0	4.438096054233768e+17
19619.0	4.437208160621908e+17
19620.0	4.4364696066020685e+17
19621.0	4.4363142097360205e+17
19622.0	4.4355426898848416e+17
19623.0	4.4347602333859834e+17
19624.0	4.43396916388386e+17
19625.0	4.4331939949882016e+17
19626.0	4.432411064532991e+17
19627.0	4.43162564895266e+17
19628.0	4.430713762523818e+17
19629.0	4.4299530863465805e+17
19630.0	4.428683307646975e+17
19631.0	4.4228352860487686e+17
19632.0	4.427701416187221e+17
19633.0	4.4268823497058976e+17
19634.0	4.426136147372714e+17
19635.0	4.42531835875601e+17
19636.0	4.42454917583121e+17
19637.0	4.423476331588266e+17
19638.0	4.422983179304959e+17
19639.0	4.4221958888707405e+17
19640.0	4.4212397294660256e+17
19641.0	4.4196561000857606e+17
19642.0	4.4198450695591245e+17
19643.0	4.419055386973525e+17
19644.0	4.41821866107426e+17
19645.0	4.4172354092619085e+17
19646.0	4.4166974799871994e+17
19647.0	4.415923354774187e+17
19648.0	4.4151383747024205e+17
19649.0	4.4143449431080954e+17
19650.0	4.4135644775055354e+17
19651.0	4.412774398558206e+17
19652.0	4.411990011980459e+17
19653.0	4.411201480731306e+17
19654.0	4.41041274605841e+17
19655.0	4.4096220980838394e+17
