# Flux units: erg / (cm m2 s)
# Wavelength units: Angstrom
wave	flux
19000.0	6.479946142012755e+17
19001.0	6.47869975704371e+17
19002.0	6.477518817897129e+17
19003.0	6.476303229605204e+17
19004.0	6.475087670673407e+17
19005.0	6.473878119383039e+17
19006.0	6.472663818043391e+17
19007.0	6.47135350628898e+17
19008.0	6.470215983781204e+17
19009.0	6.469000537396566e+17
19010.0	6.467658967591594e+17
19011.0	6.466582072350035e+17
19012.0	6.465208587386879e+17
19013.0	6.464183073767423e+17
19014.0	6.462935861122388e+17
19015.0	6.461729828154025e+17
19016.0	6.460513468110163e+17
19017.0	6.459304004201129e+17
19018.0	6.458091549753343e+17
19019.0	6.45688935247599e+17
19020.0	6.455664528326655e+17
19021.0	6.454509212183209e+17
19022.0	6.453290527795882e+17
19023.0	6.452027004900692e+17
19024.0	6.450818647588863e+17
19025.0	6.449696817370452e+17
19026.0	6.448476883779583e+17
19027.0	6.447144823859882e+17
19028.0	6.446077900576084e+17
19029.0	6.444862359120553e+17
19030.0	6.443658140188672e+17
19031.0	6.442447313829887e+17
19032.0	6.441235801003348e+17
19033.0	6.439995940973225e+17
19034.0	6.438809995225769e+17
19035.0	6.437616620666879e+17
19036.0	6.422917427844435e+17
19037.0	6.435187414007808e+17
19038.0	6.43397132030225e+17
19039.0	6.432779245278548e+17
19040.0	6.431569472389119e+17
19041.0	6.430360457969664e+17
19042.0	6.429121169063933e+17
19043.0	6.427941435779753e+17
19044.0	6.426728103324329e+17
19045.0	6.425517404891817e+17
19046.0	6.424297432154111e+17
19047.0	6.423101829720745e+17
19048.0	6.421830262150484e+17
19049.0	6.420667183748436e+17
19050.0	6.419466845246803e+17
19051.0	6.416767644947794e+17
19052.0	6.416835948489385e+17
19053.0	6.415832986244436e+17
19054.0	6.414649958334463e+17
19055.0	6.413358126683476e+17
19056.0	6.412225670195882e+17
19057.0	6.411022734721023e+17
19058.0	6.409794079774036e+17
19059.0	6.408614291963901e+17
19060.0	6.407400045849257e+17
19061.0	6.406201664689491e+17
19062.0	6.404993858928639e+17
19063.0	6.403788594916009e+17
19064.0	6.402545986218666e+17
19065.0	6.401319354324308e+17
19066.0	6.400152675811327e+17
19067.0	6.398966389626195e+17
19068.0	6.397697740592468e+17
19069.0	6.3964927506077e+17
19070.0	6.395280021433001e+17
19071.0	6.39407910691362e+17
19072.0	6.392878559395839e+17
19073.0	6.391674309705727e+17
19074.0	6.39047233053218e+17
19075.0	6.38926874284305e+17
19076.0	6.388058279990611e+17
19077.0	6.386857975043411e+17
19078.0	6.38564918501922e+17
19079.0	6.384459084813652e+17
19080.0	6.383259540433578e+17
19081.0	6.382037118222333e+17
19082.0	6.380833685722451e+17
19083.0	6.379610073027924e+17
19084.0	6.378366914876756e+17
19085.0	6.377243132209834e+17
19086.0	6.375908496288426e+17
19087.0	6.374534530378409e+17
19088.0	6.373611104720212e+17
19089.0	6.372218107155796e+17
19090.0	6.371226802279763e+17
19091.0	6.370027841606996e+17
19092.0	6.368748120309759e+17
19093.0	6.367636280224425e+17
19094.0	6.366432204597929e+17
19095.0	6.365231209687722e+17
19096.0	6.364025166932649e+17
19097.0	6.362835932850857e+17
19098.0	6.361639012007935e+17
19099.0	6.360439725577556e+17
19100.0	6.359223304017236e+17
19101.0	6.358036315985236e+17
19102.0	6.356812550198612e+17
19103.0	6.35564588147234e+17
19104.0	6.354447805098665e+17
19105.0	6.353250104115199e+17
19106.0	6.351990455358803e+17
19107.0	6.350833435628884e+17
19108.0	6.349640663651667e+17
19109.0	6.347514006121128e+17
19110.0	6.347233372230995e+17
19111.0	6.346047160844287e+17
19112.0	6.344854054720852e+17
19113.0	6.343658290107734e+17
19114.0	6.342460212335956e+17
19115.0	6.341231502863017e+17
19116.0	6.340062811783165e+17
19117.0	6.338868181030227e+17
19118.0	6.337610540646397e+17
19119.0	6.335335426424828e+17
19120.0	6.335218111741951e+17
19121.0	6.334036744776362e+17
19122.0	6.3329006532253e+17
19123.0	6.331705052889087e+17
19124.0	6.330460921659391e+17
19125.0	6.329308818352809e+17
19126.0	6.328111817119059e+17
19127.0	6.326367197768361e+17
19128.0	6.325137585821011e+17
19129.0	6.324517064409087e+17
19130.0	6.323346271982932e+17
19131.0	6.322138218758144e+17
19132.0	6.320964472842921e+17
19133.0	6.319585954714964e+17
19134.0	6.318306548689578e+17
19135.0	6.317384268775423e+17
19136.0	6.316197933656746e+17
19137.0	6.314952216980137e+17
19138.0	6.313767066053289e+17
19139.0	6.312622249650858e+17
19140.0	6.311431762870272e+17
19141.0	6.310240609195348e+17
19142.0	6.309039402472788e+17
19143.0	6.307841472899753e+17
19144.0	6.306658917548031e+17
19145.0	6.305475865171286e+17
19146.0	6.304083522617343e+17
19147.0	6.30306871775505e+17
19148.0	6.30190497665297e+17
19149.0	6.300717788692479e+17
19150.0	6.299527920571732e+17
19151.0	6.298342610261334e+17
19152.0	6.2971402256384e+17
19153.0	6.295958627986089e+17
19154.0	6.294735073312767e+17
19155.0	6.293586110840831e+17
19156.0	6.292398820818941e+17
19157.0	6.291203768538451e+17
19158.0	6.289380654885545e+17
19159.0	6.288828432121855e+17
19160.0	6.287633831428095e+17
19161.0	6.286407639935657e+17
19162.0	6.283843788428628e+17
19163.0	6.28406863597841e+17
19164.0	6.282900558665044e+17
19165.0	6.281687367417855e+17
19166.0	6.280457584902144e+17
19167.0	6.279204468075177e+17
19168.0	6.278128617215316e+17
19169.0	6.276929306318163e+17
19170.0	6.275782008285865e+17
19171.0	6.274511609528319e+17
19172.0	6.273405380023636e+17
19173.0	6.272221870467753e+17
19174.0	6.271023190114303e+17
19175.0	6.269856120132948e+17
19176.0	6.268671854204244e+17
19177.0	6.267437617337684e+17
19178.0	6.266274120204287e+17
19179.0	6.264998347145215e+17
19180.0	6.263856229777408e+17
19181.0	6.262712598964906e+17
19182.0	6.261558016824659e+17
19183.0	6.260370828165119e+17
19184.0	6.259165626367999e+17
19185.0	6.258010617806847e+17
19186.0	6.256829354999807e+17
19187.0	6.255620217547433e+17
19188.0	6.254455285263018e+17
19189.0	6.25325267764292e+17
19190.0	6.252063877671593e+17
19191.0	6.25088662741538e+17
19192.0	6.249726875795455e+17
19193.0	6.248508148766035e+17
19194.0	6.247340876759039e+17
19195.0	6.246176492530345e+17
19196.0	6.244995891724287e+17
19197.0	6.243811812442111e+17
19198.0	6.242622655954943e+17
19199.0	6.2330350117847e+17
19200.0	6.234633333811885e+17
19201.0	6.239078839571795e+17
19202.0	6.237906401580371e+17
19203.0	6.236706207083177e+17
19204.0	6.23553412071424e+17
19205.0	6.234362158077268e+17
19206.0	6.233179139954004e+17
19207.0	6.231971461420372e+17
19208.0	6.230754200999252e+17
19209.0	6.229636299445588e+17
19210.0	6.22846041793058e+17
19211.0	6.227267542493866e+17
19212.0	6.226046142993748e+17
19213.0	6.224766650286077e+17
19214.0	6.223544059603626e+17
19215.0	6.222471051083773e+17
19216.0	6.221318984127827e+17
19217.0	6.220142758679892e+17
19218.0	6.218691549768361e+17
19219.0	6.21773063192576e+17
19220.0	6.216587363221503e+17
19221.0	6.215309235060736e+17
19222.0	6.214239140184063e+17
19223.0	6.213063810220032e+17
19224.0	6.211860600018259e+17
19225.0	6.210650351774377e+17
19226.0	6.209518604823209e+17
19227.0	6.208336837301588e+17
19228.0	6.207158066610175e+17
19229.0	6.205977493067091e+17
19230.0	6.204774257000447e+17
19231.0	6.203596274838185e+17
19232.0	6.202427168522237e+17
19233.0	6.201230544076799e+17
19234.0	6.200067748790271e+17
19235.0	6.198887317154473e+17
19236.0	6.197714238133588e+17
19237.0	6.196528358096895e+17
19238.0	6.195310409809919e+17
19239.0	6.194172670596435e+17
19240.0	6.192942662986409e+17
19241.0	6.191787991367679e+17
19242.0	6.190623471523155e+17
19243.0	6.189392138513065e+17
19244.0	6.188266710979924e+17
19245.0	6.187086563158697e+17
19246.0	6.18589961846784e+17
19247.0	6.184722239586303e+17
19248.0	6.183541841504938e+17
19249.0	6.182354401187155e+17
19250.0	6.18116921041442e+17
19251.0	6.179954808411475e+17
19252.0	6.178716966540628e+17
19253.0	6.17762204557858e+17
19254.0	6.176439477643946e+17
19255.0	6.175203033874431e+17
19256.0	6.174053486297087e+17
19257.0	6.172895747244031e+17
19258.0	6.171713326809087e+17
19259.0	6.17265460132796e+17
19260.0	6.172793704721065e+17
19261.0	6.171775033409536e+17
19262.0	6.170569726754815e+17
19263.0	6.169386297589759e+17
19264.0	6.168044002869247e+17
19265.0	6.166971909406719e+17
19266.0	6.165793000303274e+17
19267.0	6.164666345936212e+17
19268.0	6.163477178264234e+17
19269.0	6.162250260458154e+17
19270.0	6.160936216472234e+17
19271.0	6.159640251334655e+17
19272.0	6.158551142279849e+17
19273.0	6.155987798283603e+17
19274.0	6.155423468661417e+17
19275.0	6.154999491635882e+17
19276.0	6.15380418629905e+17
19277.0	6.152616437000873e+17
19278.0	6.151428916991316e+17
19279.0	6.150215553777663e+17
19280.0	6.149022913221972e+17
19281.0	6.147106295250943e+17
19282.0	6.145126316026537e+17
19283.0	6.143798732827305e+17
19284.0	6.142533089711444e+17
19285.0	6.141478470418431e+17
19286.0	6.140340948609706e+17
19287.0	6.139157091625642e+17
19288.0	6.13534403937348e+17
19289.0	6.130341488798365e+17
19290.0	6.135567630729215e+17
19291.0	6.134283524986195e+17
19292.0	6.133171145233747e+17
19293.0	6.131967603681962e+17
19294.0	6.130766570323968e+17
19295.0	6.12956724334865e+17
19296.0	6.128363815043072e+17
19297.0	6.127151886980435e+17
19298.0	6.125945999414612e+17
19299.0	6.124748553584639e+17
19300.0	6.123540166912681e+17
19301.0	6.122330115801087e+17
19302.0	6.121117541116585e+17
19303.0	6.119884101866836e+17
19304.0	6.118682182811647e+17
19305.0	6.117477755562666e+17
19306.0	6.11626069926434e+17
19307.0	6.115026304412332e+17
19308.0	6.113817854825812e+17
19309.0	6.112277702901759e+17
19310.0	6.110943525557587e+17
19311.0	6.110078613935444e+17
19312.0	6.108892223591764e+17
19313.0	6.107658998251519e+17
19314.0	6.099775503291735e+17
19315.0	6.09896614872133e+17
19316.0	6.103962982460074e+17
19317.0	6.102749197019818e+17
19318.0	6.101507896945321e+17
19319.0	6.100276794621951e+17
19320.0	6.099056510806698e+17
19321.0	6.097826284393812e+17
19322.0	6.096531360841727e+17
19323.0	6.095196984967167e+17
19324.0	6.094079116967935e+17
19325.0	6.092559896018944e+17
19326.0	6.091576131103401e+17
19327.0	6.090315263202644e+17
19328.0	6.089060024756905e+17
19329.0	6.087251375161343e+17
19330.0	6.084727676425555e+17
19331.0	6.083452576552276e+17
19332.0	6.082189793252692e+17
19333.0	6.080905702888788e+17
19334.0	6.079621383236266e+17
19335.0	6.078337728380927e+17
19336.0	6.076896208311636e+17
19337.0	6.075550604984319e+17
19338.0	6.07418263483187e+17
19339.0	6.072911163031551e+17
19340.0	6.071541667550547e+17
19341.0	6.070243733886292e+17
19342.0	6.068789352682836e+17
19343.0	6.067602217151145e+17
19344.0	6.066272252286292e+17
19345.0	6.064300856705023e+17
19346.0	6.063336084996095e+17
19347.0	6.062222378445482e+17
19348.0	6.06081356276258e+17
19349.0	6.059372611021484e+17
19350.0	6.055952360931328e+17
19351.0	6.054560224597332e+17
19352.0	6.053154035946836e+17
19353.0	6.051779954693459e+17
19354.0	6.049712840201556e+17
19355.0	6.048057843340627e+17
19356.0	6.046641603040596e+17
19357.0	6.045205930530131e+17
19358.0	6.043552489755988e+17
19359.0	6.041983742465364e+17
19360.0	6.04057736716834e+17
19361.0	6.03886107894306e+17
19362.0	6.036441842144595e+17
19363.0	6.03485214220834e+17
19364.0	6.033402374739284e+17
19365.0	6.031846722065748e+17
19366.0	6.030295431468371e+17
19367.0	6.028731179772585e+17
19368.0	6.027151342742186e+17
19369.0	6.025515817937578e+17
19370.0	6.023490114508116e+17
19371.0	6.021977901542057e+17
19372.0	6.020344796151807e+17
19373.0	6.018667979123369e+17
19374.0	6.016987376735572e+17
19375.0	6.015274010542079e+17
19376.0	6.013539587544404e+17
19377.0	6.011696629940223e+17
19378.0	6.009612866857642e+17
19379.0	6.007802363379712e+17
19380.0	6.005965144981504e+17
19381.0	6.004098973302783e+17
19382.0	6.002150840729599e+17
19383.0	5.999903667563177e+17
19384.0	5.997828230174036e+17
19385.0	5.995837300320937e+17
19386.0	5.993811505315837e+17
19387.0	5.991448387605844e+17
19388.0	5.98903883964962e+17
19389.0	5.986886241746941e+17
19390.0	5.984657945045673e+17
19391.0	5.972763910427976e+17
19392.0	5.979438597887314e+17
19393.0	5.977066249213267e+17
19394.0	5.97438095233297e+17
19395.0	5.971912061266601e+17
19396.0	5.969391144053417e+17
19397.0	5.967019932035754e+17
19398.0	5.964346314194944e+17
19399.0	5.961109397132628e+17
19400.0	5.958523101205844e+17
19401.0	5.955676382341802e+17
19402.0	5.952297221750783e+17
19403.0	5.949442967819604e+17
19404.0	5.946331022142121e+17
19405.0	5.942636491833344e+17
19406.0	5.939324180059476e+17
19407.0	5.936145501607252e+17
19408.0	5.932322699695444e+17
19409.0	5.928387696656383e+17
19410.0	5.924902640375124e+17
19411.0	5.920252049926822e+17
19412.0	5.914186559258623e+17
19413.0	5.909908831251114e+17
19414.0	5.90503874798114e+17
19415.0	5.901272258095786e+17
19416.0	5.895043532106412e+17
19417.0	5.8879947819363e+17
19418.0	5.881885961311574e+17
19419.0	5.872573779454638e+17
19420.0	5.863361868726273e+17
19421.0	5.854091847314089e+17
19422.0	5.841450531728042e+17
19423.0	5.829326101195433e+17
19424.0	5.817712989874852e+17
19425.0	5.802899782587738e+17
19426.0	5.784902691717124e+17
19427.0	5.7641246290957824e+17
19428.0	5.7346024898123117e+17
19429.0	5.7103042240402643e+17
19430.0	5.706967281915227e+17
19431.0	5.707039280638628e+17
19432.0	5.7188413761126355e+17
19433.0	5.7095461965660154e+17
19434.0	5.68710149159867e+17
19435.0	5.6578824571890355e+17
19436.0	5.628684359346859e+17
19437.0	5.6058636231420563e+17
19438.0	5.56779228854136e+17
19439.0	5.551194358764885e+17
19440.0	5.5096880996024506e+17
19441.0	5.447339033143959e+17
19442.0	5.354079663073941e+17
19443.0	5.328872657999189e+17
19444.0	5.304457170518012e+17
19445.0	5.227434303553535e+17
19446.0	5.1498797491377466e+17
19447.0	4.997392609487524e+17
19448.0	4.9033351619324576e+17
19449.0	4.695631571801412e+17
19450.0	4.331130587185146e+17
19451.0	4.22680615732291e+17
19452.0	4.5252711082011514e+17
19453.0	4.814220374485676e+17
19454.0	4.942861703315446e+17
19455.0	5.0780706019737485e+17
19456.0	5.185074821595133e+17
19457.0	5.25567122001101e+17
19458.0	5.298463907162797e+17
19459.0	5.3153886606022035e+17
19460.0	5.3846093734434336e+17
19461.0	5.464357193034413e+17
19462.0	5.5114944751861843e+17
19463.0	5.5443259280151904e+17
19464.0	5.568386963952981e+17
19465.0	5.589604320499031e+17
19466.0	5.612611137000784e+17
19467.0	5.641643419325776e+17
19468.0	5.664684954178905e+17
19469.0	5.680653927798091e+17
19470.0	5.674558389136048e+17
19471.0	5.6658302641110976e+17
19472.0	5.664674407601494e+17
19473.0	5.676368942945597e+17
19474.0	5.702612132648281e+17
19475.0	5.724717605104285e+17
19476.0	5.7436673447471654e+17
19477.0	5.754905783085743e+17
19478.0	5.768469328254295e+17
19479.0	5.776299741500758e+17
19480.0	5.78518725986441e+17
19481.0	5.79696790147345e+17
19482.0	5.800739897780904e+17
19483.0	5.80988203975748e+17
19484.0	5.814482158048595e+17
19485.0	5.818571271001428e+17
19486.0	5.824195734099287e+17
19487.0	5.825666979201021e+17
19488.0	5.828178882854912e+17
19489.0	5.830285874692095e+17
19490.0	5.832113109248684e+17
19491.0	5.836676574915241e+17
19492.0	5.838340822313641e+17
19493.0	5.83968116178944e+17
19494.0	5.841445265080319e+17
19495.0	5.842681685082112e+17
19496.0	5.843452391238314e+17
19497.0	5.844755852995241e+17
19498.0	5.845083753196202e+17
19499.0	5.832193171521528e+17
19500.0	5.847401389970774e+17
19501.0	5.848675293768361e+17
19502.0	5.84910191600162e+17
19503.0	5.849613039479466e+17
19504.0	5.850352742039551e+17
19505.0	5.850771195166719e+17
19506.0	5.850900975321087e+17
19507.0	5.851143448035327e+17
19508.0	5.851341457631914e+17
19509.0	5.851801065269929e+17
19510.0	5.851867442227881e+17
19511.0	5.837735779980622e+17
19512.0	5.850430953226236e+17
19513.0	5.848501284678307e+17
19514.0	5.84948135790728e+17
19515.0	5.852194194587648e+17
19516.0	5.852564206299818e+17
19517.0	5.852363452230314e+17
19518.0	5.85212905984273e+17
19519.0	5.851833531280042e+17
19520.0	5.85191530692608e+17
19521.0	5.851593038277289e+17
19522.0	5.851200680711508e+17
19523.0	5.850815053605545e+17
19524.0	5.850392833294336e+17
19525.0	5.849923206862163e+17
19526.0	5.849789049951572e+17
19527.0	5.849298344345599e+17
19528.0	5.848768487008937e+17
19529.0	5.848221578428415e+17
19530.0	5.847654169488042e+17
19531.0	5.847066273469779e+17
19532.0	5.846457049415679e+17
19533.0	5.84583417499921e+17
19534.0	5.845293049664852e+17
19535.0	5.844823363114324e+17
19536.0	5.844143791494484e+17
19537.0	5.843472438613331e+17
19538.0	5.842744938681686e+17
19539.0	5.841889081862826e+17
19540.0	5.841352778579967e+17
19541.0	5.840647348376915e+17
19542.0	5.839898473573034e+17
19543.0	5.839140807507967e+17
19544.0	5.839192338027859e+17
19545.0	5.838527576495444e+17
19546.0	5.837494597014867e+17
19547.0	5.836975570070186e+17
19548.0	5.836212635260244e+17
19549.0	5.835538972016639e+17
19550.0	5.834740215054335e+17
19551.0	5.833902458754388e+17
19552.0	5.833085730597545e+17
19553.0	5.832279819550719e+17
19554.0	5.83141806833664e+17
19555.0	5.830560526106623e+17
19556.0	5.829694594569556e+17
19557.0	5.828816726742356e+17
19558.0	5.827934645736788e+17
19559.0	5.828286566716754e+17
19560.0	5.828043794808831e+17
19561.0	5.827135261026985e+17
19562.0	5.826240663519232e+17
19563.0	5.825322240267604e+17
19564.0	5.824404674751146e+17
19565.0	5.823482304659455e+17
19566.0	5.822546681266176e+17
19567.0	5.821624603377663e+17
19568.0	5.820682009051135e+17
19569.0	5.819750117190314e+17
19570.0	5.818811566871892e+17
19571.0	5.817865103299924e+17
19572.0	5.816960830231892e+17
19573.0	5.81608356848162e+17
19574.0	5.815197194605908e+17
19575.0	5.81433695543842e+17
19576.0	5.813669230630228e+17
19577.0	5.813119520254634e+17
19578.0	5.812154314435242e+17
19579.0	5.811190402558633e+17
19580.0	5.810316176086356e+17
19581.0	5.809420216128852e+17
19582.0	5.808449641600339e+17
19583.0	5.807471042669225e+17
19584.0	5.806484949914964e+17
19585.0	5.805471862620159e+17
19586.0	5.804469572861951e+17
19587.0	5.803477708046335e+17
19588.0	5.802392194908159e+17
19589.0	5.801537196523519e+17
19590.0	5.800534155285844e+17
19591.0	5.799572759292586e+17
19592.0	5.799437840416767e+17
19593.0	5.799181037862912e+17
19594.0	5.798099236683775e+17
19595.0	5.79717205922065e+17
19596.0	5.794863404548095e+17
19597.0	5.79513364914722e+17
19598.0	5.794066609121961e+17
19599.0	5.793164264035667e+17
19600.0	5.792157608706048e+17
19601.0	5.791125491853993e+17
19602.0	5.790122238104916e+17
19603.0	5.788862030807037e+17
19604.0	5.788083839915348e+17
19605.0	5.78700304327202e+17
19606.0	5.786084241134931e+17
19607.0	5.785070880511316e+17
19608.0	5.784048821600255e+17
19609.0	5.783019577846441e+17
19610.0	5.782019909528233e+17
19611.0	5.780999260602367e+17
19612.0	5.779982424298835e+17
19613.0	5.778959896324777e+17
19614.0	5.777928007363241e+17
19615.0	5.776918658591402e+17
19616.0	5.775819054688938e+17
19617.0	5.774874089881599e+17
19618.0	5.773674239317331e+17
19619.0	5.772605330729641e+17
19620.0	5.771588641226751e+17
19621.0	5.77077787107874e+17
19622.0	5.76975203869218e+17
19623.0	5.768725846294527e+17
19624.0	5.76769651446033e+17
19625.0	5.766670376588628e+17
19626.0	5.765639832600576e+17
19627.0	5.764610773396138e+17
19628.0	5.7633790922588154e+17
19629.0	5.7625234731171834e+17
19630.0	5.7611203085598714e+17
19631.0	5.751303930118143e+17
19632.0	5.7594588196154016e+17
19633.0	5.7584135976605e+17
19634.0	5.7574025984300365e+17
19635.0	5.756358562764116e+17
19636.0	5.755340915561811e+17
19637.0	5.7541837196711245e+17
19638.0	5.753274843354452e+17
19639.0	5.7522393913316685e+17
19640.0	5.751182703547732e+17
19641.0	5.7499467533079885e+17
19642.0	5.749147117638997e+17
19643.0	5.748126121983999e+17
19644.0	5.7470802743787514e+17
19645.0	5.7459783006945274e+17
19646.0	5.7450336224979616e+17
19647.0	5.7439996077233485e+17
19648.0	5.742965167226879e+17
19649.0	5.741929874587647e+17
19650.0	5.740896247087103e+17
19651.0	5.739860040089599e+17
19652.0	5.738825954011817e+17
19653.0	5.7377885369576096e+17
19654.0	5.736756729785002e+17
19655.0	5.7357201501934925e+17
19656.0	5.7346842228162554e+17
19657.0	5.7336511706344096e+17
19658.0	5.7326153047736326e+17
19659.0	5.731579787040084e+17
19660.0	5.73056943722769e+17
19661.0	5.7295591747966285e+17
19662.0	5.728523339694079e+17
19663.0	5.7274704673286816e+17
19664.0	5.7264168232113485e+17
