# Flux units: erg / (cm m2 s)
# Wavelength units: Angstrom
wave	flux
19000.0	7.405730810298364e+17
19001.0	7.40433967850018e+17
19002.0	7.403072639380138e+17
19003.0	7.401740211060736e+17
19004.0	7.400407097671679e+17
19005.0	7.399075318071296e+17
19006.0	7.397740606652416e+17
19007.0	7.396395375919101e+17
19008.0	7.395030643070294e+17
19009.0	7.393681483672233e+17
19010.0	7.392107996119037e+17
19011.0	7.391030872287914e+17
19012.0	7.38962595521058e+17
19013.0	7.388359963268436e+17
19014.0	7.386980239977129e+17
19015.0	7.385653067120639e+17
19016.0	7.384302537583274e+17
19017.0	7.382983627505663e+17
19018.0	7.381632077354323e+17
19019.0	7.380287661714089e+17
19020.0	7.378927216842067e+17
19021.0	7.377598136975357e+17
19022.0	7.376251626979327e+17
19023.0	7.374872710392489e+17
19024.0	7.373531370575187e+17
19025.0	7.372191802152275e+17
19026.0	7.370823800542548e+17
19027.0	7.369443979384148e+17
19028.0	7.36813575779123e+17
19029.0	7.366770056058195e+17
19030.0	7.365424784779944e+17
19031.0	7.364068200065705e+17
19032.0	7.362710626893824e+17
19033.0	7.361295310738772e+17
19034.0	7.359982981524138e+17
19035.0	7.358596805995177e+17
19036.0	7.354303038270121e+17
19037.0	7.355902687095464e+17
19038.0	7.354534942736383e+17
19039.0	7.35319035093538e+17
19040.0	7.351828337393663e+17
19041.0	7.350465301839871e+17
19042.0	7.349050248527871e+17
19043.0	7.347737765522089e+17
19044.0	7.346371489169408e+17
19045.0	7.345007213499731e+17
19046.0	7.343610666855081e+17
19047.0	7.342417493622783e+17
19048.0	7.341096930989395e+17
19049.0	7.339811504040617e+17
19050.0	7.338454793497257e+17
19051.0	7.336604409178794e+17
19052.0	7.335661170327552e+17
19053.0	7.334372225755817e+17
19054.0	7.33300207526434e+17
19055.0	7.331469296227667e+17
19056.0	7.330245008250195e+17
19057.0	7.328880592770387e+17
19058.0	7.327505978141353e+17
19059.0	7.326139227832319e+17
19060.0	7.324752005125459e+17
19061.0	7.323392045394602e+17
19062.0	7.322014343757823e+17
19063.0	7.320640077256019e+17
19064.0	7.319195950426794e+17
19065.0	7.31777561788416e+17
19066.0	7.316473652794708e+17
19067.0	7.315136265409875e+17
19068.0	7.313759212492118e+17
19069.0	7.31238207988258e+17
19070.0	7.310988762852008e+17
19071.0	7.309625632227327e+17
19072.0	7.308246772962644e+17
19073.0	7.306864369511081e+17
19074.0	7.305487937350314e+17
19075.0	7.304107835173544e+17
19076.0	7.302714709682857e+17
19077.0	7.301338727710717e+17
19078.0	7.2999496595101e+17
19079.0	7.298583894862505e+17
19080.0	7.297198516251305e+17
19081.0	7.29579332374801e+17
19082.0	7.294409671791955e+17
19083.0	7.292979425312765e+17
19084.0	7.291516853332649e+17
19085.0	7.290285915985236e+17
19086.0	7.288656048597674e+17
19087.0	7.287438867169279e+17
19088.0	7.286076301377535e+17
19089.0	7.284587745684138e+17
19090.0	7.283338496005459e+17
19091.0	7.281958662264148e+17
19092.0	7.280542535210323e+17
19093.0	7.279203876951382e+17
19094.0	7.277811678401875e+17
19095.0	7.276423584677887e+17
19096.0	7.275034069084841e+17
19097.0	7.273655211218259e+17
19098.0	7.272269025902591e+17
19099.0	7.270880600828586e+17
19100.0	7.26949199679761e+17
19101.0	7.268101543078569e+17
19102.0	7.266656219474602e+17
19103.0	7.265323809330518e+17
19104.0	7.263933723312127e+17
19105.0	7.262542429334185e+17
19106.0	7.261137399010644e+17
19107.0	7.259750791468374e+17
19108.0	7.258365802927446e+17
19109.0	7.256725894376105e+17
19110.0	7.255566395812521e+17
19111.0	7.254193029687977e+17
19112.0	7.252801753885353e+17
19113.0	7.251409305075711e+17
19114.0	7.250015962879316e+17
19115.0	7.24859538706705e+17
19116.0	7.247213281411071e+17
19117.0	7.245820127958355e+17
19118.0	7.244376535203839e+17
19119.0	7.241011292711589e+17
19120.0	7.241620656575827e+17
19121.0	7.240233298253139e+17
19122.0	7.238857682583551e+17
19123.0	7.237460965370536e+17
19124.0	7.236046899118079e+17
19125.0	7.234664889931092e+17
19126.0	7.233260755790506e+17
19127.0	7.230828341886975e+17
19128.0	7.230410259256659e+17
19129.0	7.229019324590761e+17
19130.0	7.227672828575743e+17
19131.0	7.226276370011476e+17
19132.0	7.224875037665961e+17
19133.0	7.223398929268735e+17
19134.0	7.222046526275581e+17
19135.0	7.220673801879551e+17
19136.0	7.219276511444992e+17
19137.0	7.217778677951145e+17
19138.0	7.216464055850323e+17
19139.0	7.215071265903956e+17
19140.0	7.213669821710335e+17
19141.0	7.212266867567274e+17
19142.0	7.210847741586089e+17
19143.0	7.209427540464978e+17
19144.0	7.208038880509952e+17
19145.0	7.206650416289106e+17
19146.0	7.204879502846634e+17
19147.0	7.203787152293887e+17
19148.0	7.202432071936681e+17
19149.0	7.2010258476346e+17
19150.0	7.199615085095593e+17
19151.0	7.198212344862036e+17
19152.0	7.196801826990761e+17
19153.0	7.195382127788032e+17
19154.0	7.193909766302378e+17
19155.0	7.192575835024042e+17
19156.0	7.191163516398249e+17
19157.0	7.189740240852308e+17
19158.0	7.188184713308841e+17
19159.0	7.186914280996863e+17
19160.0	7.185515398124883e+17
19161.0	7.1840957478557e+17
19162.0	7.182300455720276e+17
19163.0	7.181253691659603e+17
19164.0	7.179866359900841e+17
19165.0	7.178445675036671e+17
19166.0	7.176965716268372e+17
19167.0	7.175584968168787e+17
19168.0	7.174191733626195e+17
19169.0	7.172774537024851e+17
19170.0	7.171369709426004e+17
19171.0	7.169932917036372e+17
19172.0	7.168532114571261e+17
19173.0	7.167114051147091e+17
19174.0	7.165660814289578e+17
19175.0	7.164273960681471e+17
19176.0	7.162852393615357e+17
19177.0	7.161335095754751e+17
19178.0	7.15999360773871e+17
19179.0	7.15855454343441e+17
19180.0	7.157151923437565e+17
19181.0	7.155666913329148e+17
19182.0	7.154295062746454e+17
19183.0	7.152879130028713e+17
19184.0	7.151441139466237e+17
19185.0	7.150019475931135e+17
19186.0	7.147774613127165e+17
19187.0	7.143476755955711e+17
19188.0	7.142088121166505e+17
19189.0	7.140652304651603e+17
19190.0	7.139212391699795e+17
19191.0	7.137755244352851e+17
19192.0	7.136338798531923e+17
19193.0	7.134895360966655e+17
19194.0	7.133446365948585e+17
19195.0	7.132010234860884e+17
19196.0	7.130556129782441e+17
19197.0	7.129102090414761e+17
19198.0	7.127608456817321e+17
19199.0	7.123838651334655e+17
19200.0	7.123034259324927e+17
19201.0	7.123277017251839e+17
19202.0	7.121874576211965e+17
19203.0	7.120436075342505e+17
19204.0	7.118973897626964e+17
19205.0	7.117538130045608e+17
19206.0	7.116077641236479e+17
19207.0	7.114570822145364e+17
19208.0	7.113051353033385e+17
19209.0	7.111708866772991e+17
19210.0	7.110258431710548e+17
19211.0	7.108797401836202e+17
19212.0	7.10733475156241e+17
19213.0	7.105810889616041e+17
19214.0	7.104325367802538e+17
19215.0	7.10292884492561e+17
19216.0	7.101469134858921e+17
19217.0	7.099997450054313e+17
19218.0	7.098042019392169e+17
19219.0	7.096951202556585e+17
19220.0	7.095565809964372e+17
19221.0	7.093184725953196e+17
19222.0	7.090434186674175e+17
19223.0	7.088955328211626e+17
19224.0	7.087440211389097e+17
19225.0	7.085897391188649e+17
19226.0	7.084481211006975e+17
19227.0	7.082987040538624e+17
19228.0	7.081507692740607e+17
19229.0	7.080010846306304e+17
19230.0	7.078510286514857e+17
19231.0	7.077003238135123e+17
19232.0	7.075503282323455e+17
19233.0	7.073959687574868e+17
19234.0	7.072483155552936e+17
19235.0	7.070973487131305e+17
19236.0	7.069475673210879e+17
19237.0	7.067952089486676e+17
19238.0	7.066387446322516e+17
19239.0	7.064926928153258e+17
19240.0	7.063383933190143e+17
19241.0	7.06185962524945e+17
19242.0	7.060343603855359e+17
19243.0	7.058717268071764e+17
19244.0	7.057293609446057e+17
19245.0	7.055758545911807e+17
19246.0	7.054211427947859e+17
19247.0	7.05267942625553e+17
19248.0	7.051138507472893e+17
19249.0	7.049593021093203e+17
19250.0	7.048034300286292e+17
19251.0	7.046426216715603e+17
19252.0	7.044759366751571e+17
19253.0	7.043372314613076e+17
19254.0	7.041823700680704e+17
19255.0	7.040143419157161e+17
19256.0	7.038677683273728e+17
19257.0	7.037127129475753e+17
19258.0	7.035552923997523e+17
19259.0	7.03387356172561e+17
19260.0	7.032251776761855e+17
19261.0	7.030720871880019e+17
19262.0	7.029101086201172e+17
19263.0	7.027501315041961e+17
19264.0	7.025630405197823e+17
19265.0	7.02422737625634e+17
19266.0	7.022636563431423e+17
19267.0	7.021127740861097e+17
19268.0	7.019514141780649e+17
19269.0	7.017895745814527e+17
19270.0	7.01626971202082e+17
19271.0	7.014450940870655e+17
19272.0	7.012988412930729e+17
19273.0	7.010663802426707e+17
19274.0	7.009222859773267e+17
19275.0	7.008085222621183e+17
19276.0	7.00642320519441e+17
19277.0	7.004768868936362e+17
19278.0	7.003116255139155e+17
19279.0	7.001437194158079e+17
19280.0	6.999729116282879e+17
19281.0	6.998082252177407e+17
19282.0	6.996406963273725e+17
19283.0	6.994686981963773e+17
19284.0	6.992986193788927e+17
19285.0	6.991205516705791e+17
19286.0	6.989580150505471e+17
19287.0	6.987886624068948e+17
19288.0	6.985376166750889e+17
19289.0	6.98252984285047e+17
19290.0	6.98270606233873e+17
19291.0	6.980812139047594e+17
19292.0	6.979231920335529e+17
19293.0	6.977478351738195e+17
19294.0	6.975726024654847e+17
19295.0	6.973961973792768e+17
19296.0	6.972190183740755e+17
19297.0	6.970409430461097e+17
19298.0	6.968611774136319e+17
19299.0	6.966827588517887e+17
19300.0	6.965022527848447e+17
19301.0	6.963207012876287e+17
19302.0	6.96138089959697e+17
19303.0	6.959513336108372e+17
19304.0	6.957699010920447e+17
19305.0	6.955860269989887e+17
19306.0	6.954007914348543e+17
19307.0	6.952114406293503e+17
19308.0	6.950250058437972e+17
19309.0	6.948306213841577e+17
19310.0	6.946367669447337e+17
19311.0	6.944551969226751e+17
19312.0	6.942657481102676e+17
19313.0	6.940735897774761e+17
19314.0	6.936833122369535e+17
19315.0	6.935018393130327e+17
19316.0	6.934879351952724e+17
19317.0	6.932911840296959e+17
19318.0	6.930922509871785e+17
19319.0	6.92893698228224e+17
19320.0	6.92692602462754e+17
19321.0	6.924903316630186e+17
19322.0	6.922815686399316e+17
19323.0	6.920768423548244e+17
19324.0	6.918712398796116e+17
19325.0	6.916557779937962e+17
19326.0	6.914509663546025e+17
19327.0	6.912386664147625e+17
19328.0	6.910265295634432e+17
19329.0	6.908123584746835e+17
19330.0	6.905946738174633e+17
19331.0	6.903775308546047e+17
19332.0	6.901623038498132e+17
19333.0	6.899434361891498e+17
19334.0	6.897230717911039e+17
19335.0	6.895017733914623e+17
19336.0	6.892789663006717e+17
19337.0	6.890548693914966e+17
19338.0	6.888176733214036e+17
19339.0	6.886042006541652e+17
19340.0	6.88373185520162e+17
19341.0	6.881469999874047e+17
19342.0	6.878973001378473e+17
19343.0	6.876875220232874e+17
19344.0	6.874553487021395e+17
19345.0	6.871120640737276e+17
19346.0	6.869413845620052e+17
19347.0	6.867489986183167e+17
19348.0	6.865159642065578e+17
19349.0	6.862716675293183e+17
19350.0	6.860248865658196e+17
19351.0	6.857740641807017e+17
19352.0	6.854958237002409e+17
19353.0	6.852474231062527e+17
19354.0	6.849927102944596e+17
19355.0	6.847309119750143e+17
19356.0	6.844767756004009e+17
19357.0	6.842158090114388e+17
19358.0	6.839519531062612e+17
19359.0	6.836830735433727e+17
19360.0	6.834169452341929e+17
19361.0	6.831473357225983e+17
19362.0	6.828777041909076e+17
19363.0	6.826035436497577e+17
19364.0	6.823268895948799e+17
19365.0	6.820477505546921e+17
19366.0	6.817660299203924e+17
19367.0	6.814817240569172e+17
19368.0	6.811947070652415e+17
19369.0	6.809013262658217e+17
19370.0	6.806047009625428e+17
19371.0	6.802677734309887e+17
19372.0	6.799586572806825e+17
19373.0	6.79654261470003e+17
19374.0	6.793488291069951e+17
19375.0	6.790387070926845e+17
19376.0	6.787253744085673e+17
19377.0	6.784080270065661e+17
19378.0	6.780872438404435e+17
19379.0	6.777623266284884e+17
19380.0	6.774214849025363e+17
19381.0	6.770029124474196e+17
19382.0	6.76660183704098e+17
19383.0	6.763157126468948e+17
19384.0	6.759739672581459e+17
19385.0	6.756207391233363e+17
19386.0	6.752621526253567e+17
19387.0	6.747676889229994e+17
19388.0	6.743722224691881e+17
19389.0	6.739920513837738e+17
19390.0	6.736047027956393e+17
19391.0	6.728946389352443e+17
19392.0	6.725886587262291e+17
19393.0	6.72178836358212e+17
19394.0	6.717314141519873e+17
19395.0	6.710337285215572e+17
19396.0	6.705833558321834e+17
19397.0	6.699273299864234e+17
19398.0	6.692778997536083e+17
19399.0	6.686087900561404e+17
19400.0	6.678193726903636e+17
19401.0	6.670804982256978e+17
19402.0	6.661931934242131e+17
19403.0	6.652168262123519e+17
19404.0	6.643747743159631e+17
19405.0	6.630073608874661e+17
19406.0	6.61890535452399e+17
19407.0	6.606191433438552e+17
19408.0	6.595172659189078e+17
19409.0	6.587861030316714e+17
19410.0	6.579990566360403e+17
19411.0	6.571914053025791e+17
19412.0	6.563628466219689e+17
19413.0	6.555113200025599e+17
19414.0	6.546248764314963e+17
19415.0	6.537001306161151e+17
19416.0	6.527623902877012e+17
19417.0	6.518076512840361e+17
19418.0	6.50823235272704e+17
19419.0	6.497682677825535e+17
19420.0	6.486705454448639e+17
19421.0	6.475853514932223e+17
19422.0	6.463849209965225e+17
19423.0	6.451879392662868e+17
19424.0	6.438937211262291e+17
19425.0	6.425474427955882e+17
19426.0	6.410237741367295e+17
19427.0	6.394022102827007e+17
19428.0	6.375947711632724e+17
19429.0	6.355239108782764e+17
19430.0	6.331911296603474e+17
19431.0	6.304378391276195e+17
19432.0	6.27204838077235e+17
19433.0	6.236244985337183e+17
19434.0	6.207096857034751e+17
19435.0	6.181611331300008e+17
19436.0	6.153928141264214e+17
19437.0	6.124364748204714e+17
19438.0	6.089042751913983e+17
19439.0	6.054286880407553e+17
19440.0	6.012446637206185e+17
19441.0	5.965736427476307e+17
19442.0	5.909790212838744e+17
19443.0	5.844821884622167e+17
19444.0	5.771124182177101e+17
19445.0	5.686206433416538e+17
19446.0	5.590972256397995e+17
19447.0	5.475712681115641e+17
19448.0	5.330771857724763e+17
19449.0	5.14162249695232e+17
19450.0	4.883093035592351e+17
19451.0	4.7688017279713325e+17
19452.0	5.020664092164099e+17
19453.0	5.242628998168584e+17
19454.0	5.404202726937935e+17
19455.0	5.53052653363746e+17
19456.0	5.631868486899032e+17
19457.0	5.719416840912889e+17
19458.0	5.793449564788055e+17
19459.0	5.86291790234693e+17
19460.0	5.921028807764649e+17
19461.0	5.969649006368081e+17
19462.0	6.011354443939837e+17
19463.0	6.048476227960831e+17
19464.0	6.080797693968381e+17
19465.0	6.109803814322176e+17
19466.0	6.135849438325416e+17
19467.0	6.159935435964415e+17
19468.0	6.18353561995401e+17
19469.0	6.214716331742536e+17
19470.0	6.247598323837604e+17
19471.0	6.27389300840858e+17
19472.0	6.297148109531816e+17
19473.0	6.316458744567118e+17
19474.0	6.332990363795457e+17
19475.0	6.347693764902911e+17
19476.0	6.361168418788695e+17
19477.0	6.372275071396521e+17
19478.0	6.383871218854569e+17
19479.0	6.393205358591997e+17
19480.0	6.403124716983635e+17
19481.0	6.411841640420691e+17
19482.0	6.420127036385961e+17
19483.0	6.428741404196863e+17
19484.0	6.436285289857023e+17
19485.0	6.443503856910335e+17
19486.0	6.450465292156928e+17
19487.0	6.457219167376723e+17
19488.0	6.463844021611178e+17
19489.0	6.469921730985983e+17
19490.0	6.475206304464895e+17
19491.0	6.481486931471017e+17
19492.0	6.486968862332244e+17
19493.0	6.49220963050018e+17
19494.0	6.498393636121253e+17
19495.0	6.506819511910394e+17
19496.0	6.519180251627519e+17
19497.0	6.527142375806292e+17
19498.0	6.533768077290153e+17
19499.0	6.539629524156412e+17
19500.0	6.547490592172708e+17
19501.0	6.554851336344916e+17
19502.0	6.558403911832916e+17
19503.0	6.564352805743274e+17
19504.0	6.56671517127475e+17
19505.0	6.572342643086675e+17
19506.0	6.574356078176938e+17
19507.0	6.577449993240573e+17
19508.0	6.580751464835753e+17
19509.0	6.582394616982185e+17
19510.0	6.583935612660393e+17
19511.0	6.58352110916949e+17
19512.0	6.588228528941736e+17
19513.0	6.588875076009981e+17
19514.0	6.590530048404137e+17
19515.0	6.593031462802774e+17
19516.0	6.594972606267391e+17
19517.0	6.595962145341439e+17
19518.0	6.596953201355433e+17
19519.0	6.597855904355668e+17
19520.0	6.598694539362303e+17
19521.0	6.599715375633748e+17
19522.0	6.601176288766633e+17
19523.0	6.601909588721663e+17
19524.0	6.602583709843455e+17
19525.0	6.603210273849343e+17
19526.0	6.603812775832233e+17
19527.0	6.604372194623487e+17
19528.0	6.604889278207316e+17
19529.0	6.605381021204479e+17
19530.0	6.605839455136425e+17
19531.0	6.60639584494114e+17
19532.0	6.607172855835305e+17
19533.0	6.607521574464169e+17
19534.0	6.607838714178217e+17
19535.0	6.608123009695743e+17
19536.0	6.608369385209855e+17
19537.0	6.608627865485311e+17
19538.0	6.608782968750079e+17
19539.0	6.6087180304384e+17
19540.0	6.609160693088255e+17
19541.0	6.609313482495316e+17
19542.0	6.609425560589652e+17
19543.0	6.6095175710365e+17
19544.0	6.609584755397972e+17
19545.0	6.609376269828095e+17
19546.0	6.609158145747625e+17
19547.0	6.609657743977129e+17
19548.0	6.609638759858175e+17
19549.0	6.60953921364514e+17
19550.0	6.609536811007999e+17
19551.0	6.609456520844627e+17
19552.0	6.609538873207465e+17
19553.0	6.609454855705939e+17
19554.0	6.609265026400255e+17
19555.0	6.609061500594857e+17
19556.0	6.608841591138985e+17
19557.0	6.608597714731008e+17
19558.0	6.608344577299796e+17
19559.0	6.608077839837865e+17
19560.0	6.607782345528659e+17
19561.0	6.607490074542079e+17
19562.0	6.60720322748962e+17
19563.0	6.606885735454035e+17
19564.0	6.60655714738722e+17
19565.0	6.606216766335657e+17
19566.0	6.60585224147217e+17
19567.0	6.605497453685417e+17
19568.0	6.60510299267618e+17
19569.0	6.604724622415188e+17
19570.0	6.6043263858333e+17
19571.0	6.603908882016937e+17
19572.0	6.603464138293245e+17
19573.0	6.603031688074579e+17
19574.0	6.602533348835327e+17
19575.0	6.602127079462227e+17
19576.0	6.601651228682921e+17
19577.0	6.601158223899306e+17
19578.0	6.600640313338538e+17
19579.0	6.600135298165417e+17
19580.0	6.599596787280553e+17
19581.0	6.599043167813631e+17
19582.0	6.598482256549204e+17
19583.0	6.597899151824212e+17
19584.0	6.597301761998847e+17
19585.0	6.596629132651177e+17
19586.0	6.595991945871359e+17
19587.0	6.59543151345664e+17
19588.0	6.594540924305407e+17
19589.0	6.594139449720831e+17
19590.0	6.593440874408618e+17
19591.0	6.592814390793556e+17
19592.0	6.592129246341801e+17
19593.0	6.591422725619711e+17
19594.0	6.590588104562003e+17
19595.0	6.589999348012372e+17
19596.0	6.589135745712127e+17
19597.0	6.58855250956561e+17
19598.0	6.587639227132585e+17
19599.0	6.587074292831572e+17
19600.0	6.586316231802877e+17
19601.0	6.585508349433172e+17
19602.0	6.584742443657897e+17
19603.0	6.583729432559615e+17
19604.0	6.583164886930772e+17
19605.0	6.58222087213329e+17
19606.0	6.581593982369791e+17
19607.0	6.580782753644543e+17
19608.0	6.579956248565076e+17
19609.0	6.57910145290513e+17
19610.0	6.578298821804032e+17
19611.0	6.577454090376532e+17
19612.0	6.576609493166762e+17
19613.0	6.575758322783572e+17
19614.0	6.574877502865405e+17
19615.0	6.57404159136017e+17
19616.0	6.573152596044458e+17
19617.0	6.572299604634282e+17
19618.0	6.571095635962536e+17
19619.0	6.570125676598611e+17
19620.0	6.569260802725203e+17
19621.0	6.568746553791827e+17
19622.0	6.567846067481257e+17
19623.0	6.566938733969407e+17
19624.0	6.566025769604435e+17
19625.0	6.565107446317055e+17
19626.0	6.564183762010111e+17
19627.0	6.563253264056319e+17
19628.0	6.562264087090516e+17
19629.0	6.561319849295871e+17
19630.0	6.560218438347433e+17
19631.0	6.556946776369834e+17
19632.0	6.558521118162943e+17
19633.0	6.5575622555293e+17
19634.0	6.556628300070911e+17
19635.0	6.555640820400128e+17
19636.0	6.554699060740095e+17
19637.0	6.553486829289472e+17
19638.0	6.552746951267668e+17
19639.0	6.551762841021097e+17
19640.0	6.550736456384511e+17
19641.0	6.549387185138346e+17
19642.0	6.54881064100386e+17
19643.0	6.54780973256977e+17
19644.0	6.546779975712765e+17
19645.0	6.545659433145683e+17
19646.0	6.544814675853311e+17
19647.0	6.543807950618623e+17
19648.0	6.542797563756543e+17
19649.0	6.541782468089172e+17
19650.0	6.540767497551872e+17
19651.0	6.539748053789353e+17
19652.0	6.538990514951507e+17
19653.0	6.538016174637055e+17
19654.0	6.536988942052009e+17
19655.0	6.535956457499306e+17
19656.0	6.534923372462079e+17
19657.0	6.533893238117716e+17
19658.0	6.53285626426163e+17
19659.0	6.531815821716138e+17
19660.0	6.530774760510803e+17
19661.0	6.529730272559101e+17
19662.0	6.528683172255059e+17
19663.0	6.527607819119273e+17
19664.0	6.526573410779135e+17
19665.0	6.525528980149588e+17
