# Flux units: erg / (cm m2 s)
# Wavelength units: Angstrom
wave	flux
19000.0	7.066931742550698e+17
19001.0	7.065517076512768e+17
19002.0	7.064258729388714e+17
19003.0	7.062919339922772e+17
19004.0	7.061583821799423e+17
19005.0	7.060244454703101e+17
19006.0	7.058909466460159e+17
19007.0	7.057541586485247e+17
19008.0	7.056177917591552e+17
19009.0	7.05488154211123e+17
19010.0	7.053183995434323e+17
19011.0	7.052208266106198e+17
19012.0	7.050803958601044e+17
19013.0	7.049551384237398e+17
19014.0	7.048167038823081e+17
19015.0	7.04685346390016e+17
19016.0	7.045512216357545e+17
19017.0	7.043991897199956e+17
19018.0	7.042866991857663e+17
19019.0	7.041535276569939e+17
19020.0	7.040145977682602e+17
19021.0	7.038839088480255e+17
19022.0	7.03753760084241e+17
19023.0	7.0361706135552e+17
19024.0	7.034853876127059e+17
19025.0	7.033531604314793e+17
19026.0	7.032184895788372e+17
19027.0	7.030854654099455e+17
19028.0	7.029534686358185e+17
19029.0	7.028189429759999e+17
19030.0	7.026877316552019e+17
19031.0	7.025549253804032e+17
19032.0	7.024215222561449e+17
19033.0	7.022813121959252e+17
19034.0	7.021533818694313e+17
19035.0	7.020189754676563e+17
19036.0	7.016596377698301e+17
19037.0	7.017546298075817e+17
19038.0	7.016203725832191e+17
19039.0	7.01488874791458e+17
19040.0	7.013561805744809e+17
19041.0	7.012223747970387e+17
19042.0	7.010826376445951e+17
19043.0	7.009569346333353e+17
19044.0	7.008227877191679e+17
19045.0	7.006908440728916e+17
19046.0	7.005529832423423e+17
19047.0	7.00424574275857e+17
19048.0	7.002748439844179e+17
19049.0	7.001531927407274e+17
19050.0	7.000220625797119e+17
19051.0	6.998582722123091e+17
19052.0	6.997579762674346e+17
19053.0	6.996262203162623e+17
19054.0	6.994945228756307e+17
19055.0	6.993414797131777e+17
19056.0	6.992264973429417e+17
19057.0	6.990953538999636e+17
19058.0	6.989613878302035e+17
19059.0	6.988301933565267e+17
19060.0	6.986958187615571e+17
19061.0	6.985651040463529e+17
19062.0	6.984321047636649e+17
19063.0	6.982996570319529e+17
19064.0	6.981566478330538e+17
19065.0	6.980197543488169e+17
19066.0	6.978966049696425e+17
19067.0	6.97768124490274e+17
19068.0	6.976366649365844e+17
19069.0	6.975042411124051e+17
19070.0	6.973692175887018e+17
19071.0	6.972386872830633e+17
19072.0	6.971067562896042e+17
19073.0	6.96973522964753e+17
19074.0	6.968418762752e+17
19075.0	6.967094689486163e+17
19076.0	6.965752457680211e+17
19077.0	6.964440652054525e+17
19078.0	6.96305685958929e+17
19079.0	6.961797544280063e+17
19080.0	6.960465994667347e+17
19081.0	6.959114912180905e+17
19082.0	6.957772363005951e+17
19083.0	6.956414946421417e+17
19084.0	6.954986591573331e+17
19085.0	6.95385521721617e+17
19086.0	6.952228465497427e+17
19087.0	6.951159308746751e+17
19088.0	6.949842311271764e+17
19089.0	6.948396518604799e+17
19090.0	6.947232985819817e+17
19091.0	6.945917020842665e+17
19092.0	6.944558719959039e+17
19093.0	6.943298880361812e+17
19094.0	6.941964838633471e+17
19095.0	6.940641347676841e+17
19096.0	6.939319660270931e+17
19097.0	6.938019369407828e+17
19098.0	6.936697967214591e+17
19099.0	6.935373060680361e+17
19100.0	6.93405751583266e+17
19101.0	6.932746579826003e+17
19102.0	6.931358651077971e+17
19103.0	6.930104558376276e+17
19104.0	6.928793279135741e+17
19105.0	6.927473210731177e+17
19106.0	6.926147374459561e+17
19107.0	6.924826308509695e+17
19108.0	6.923525048063315e+17
19109.0	6.921964360826879e+17
19110.0	6.92089129148962e+17
19111.0	6.919576600881833e+17
19112.0	6.918260940690772e+17
19113.0	6.916944003334143e+17
19114.0	6.915626166299306e+17
19115.0	6.914274401539412e+17
19116.0	6.912981147320319e+17
19117.0	6.911669874371242e+17
19118.0	6.910292116111359e+17
19119.0	6.907212026172754e+17
19120.0	6.907715853658793e+17
19121.0	6.9064181429917e+17
19122.0	6.905115910864895e+17
19123.0	6.903784492673706e+17
19124.0	6.902476020820649e+17
19125.0	6.901173180519763e+17
19126.0	6.899850140450815e+17
19127.0	6.897259177661778e+17
19128.0	6.897017840904874e+17
19129.0	6.895851815305215e+17
19130.0	6.894604199307946e+17
19131.0	6.893298079061331e+17
19132.0	6.891989456912383e+17
19133.0	6.890130550467242e+17
19134.0	6.88926012613154e+17
19135.0	6.888056049106943e+17
19136.0	6.886750718088531e+17
19137.0	6.8853155509917e+17
19138.0	6.884085474874708e+17
19139.0	6.882820280549375e+17
19140.0	6.88151153746466e+17
19141.0	6.880202444155562e+17
19142.0	6.878873699134121e+17
19143.0	6.877537767172778e+17
19144.0	6.876243400764074e+17
19145.0	6.874963044029779e+17
19146.0	6.873194968033962e+17
19147.0	6.872281603112959e+17
19148.0	6.871042137347412e+17
19149.0	6.869729579543209e+17
19150.0	6.868418863038463e+17
19151.0	6.867116595959124e+17
19152.0	6.865786857586688e+17
19153.0	6.864490212272809e+17
19154.0	6.863101913726975e+17
19155.0	6.861895260700671e+17
19156.0	6.860587025825791e+17
19157.0	6.859279950675968e+17
19158.0	6.857804005856595e+17
19159.0	6.856656093358761e+17
19160.0	6.855328879258281e+17
19161.0	6.854037359383891e+17
19162.0	6.852372267532288e+17
19163.0	6.851447587078143e+17
19164.0	6.850147958915071e+17
19165.0	6.848796413657087e+17
19166.0	6.847417678823423e+17
19167.0	6.846159997894655e+17
19168.0	6.844747345821693e+17
19169.0	6.84351243157504e+17
19170.0	6.842284044364457e+17
19171.0	6.840959848764755e+17
19172.0	6.839679108251647e+17
19173.0	6.838376013496319e+17
19174.0	6.837028117282816e+17
19175.0	6.835770773995519e+17
19176.0	6.834464235716607e+17
19177.0	6.833050352615423e+17
19178.0	6.831860748036777e+17
19179.0	6.830536110637055e+17
19180.0	6.829187691533652e+17
19181.0	6.827882578619049e+17
19182.0	6.826542260114772e+17
19183.0	6.825351497908223e+17
19184.0	6.823929812003497e+17
19185.0	6.822741685917012e+17
19186.0	6.821455056601087e+17
19187.0	6.820089265389567e+17
19188.0	6.818851034147497e+17
19189.0	6.817547451454803e+17
19190.0	6.816245756897961e+17
19191.0	6.814927766771027e+17
19192.0	6.813652598390783e+17
19193.0	6.812293857105235e+17
19194.0	6.811017915574953e+17
19195.0	6.809750389915647e+17
19196.0	6.80844337348608e+17
19197.0	6.807151357984767e+17
19198.0	6.805858304393213e+17
19199.0	6.802218652357971e+17
19200.0	6.801765273960447e+17
19201.0	6.801964206303913e+17
19202.0	6.800668726307498e+17
19203.0	6.799355582698836e+17
19204.0	6.79802749268787e+17
19205.0	6.796739537272832e+17
19206.0	6.795436078312105e+17
19207.0	6.794086381344084e+17
19208.0	6.792686595298643e+17
19209.0	6.791545293023913e+17
19210.0	6.790248048623615e+17
19211.0	6.788955220126378e+17
19212.0	6.787666174891348e+17
19213.0	6.786288497721341e+17
19214.0	6.784982483730432e+17
19215.0	6.783770478772223e+17
19216.0	6.782433280131072e+17
19217.0	6.781177870417919e+17
19218.0	6.779258164740093e+17
19219.0	6.778460036923391e+17
19220.0	6.777275511646889e+17
19221.0	6.77574169731618e+17
19222.0	6.774703249162239e+17
19223.0	6.773386693487274e+17
19224.0	6.771996815086931e+17
19225.0	6.770675949764608e+17
19226.0	6.769493344780287e+17
19227.0	6.768196455497727e+17
19228.0	6.766926858551295e+17
19229.0	6.765630343260842e+17
19230.0	6.764310012712276e+17
19231.0	6.763009766588415e+17
19232.0	6.761670784669011e+17
19233.0	6.760386701295615e+17
19234.0	6.759125776771753e+17
19235.0	6.757822802952191e+17
19236.0	6.756556757882196e+17
19237.0	6.755245089270442e+17
19238.0	6.753892479358292e+17
19239.0	6.752670203947689e+17
19240.0	6.751089967759359e+17
19241.0	6.749982476468224e+17
19242.0	6.748748628972884e+17
19243.0	6.747332432013993e+17
19244.0	6.746183110230015e+17
19245.0	6.744884682336937e+17
19246.0	6.743580401292628e+17
19247.0	6.742282091539114e+17
19248.0	6.741001693560831e+17
19249.0	6.739703371224403e+17
19250.0	6.738390108078079e+17
19251.0	6.737037357656745e+17
19252.0	6.735524072346964e+17
19253.0	6.734496804110335e+17
19254.0	6.733174309999955e+17
19255.0	6.731749047052968e+17
19256.0	6.73060265079603e+17
19257.0	6.729319265075199e+17
19258.0	6.728019370573823e+17
19259.0	6.726660293743956e+17
19260.0	6.725387443415721e+17
19261.0	6.724115868155903e+17
19262.0	6.722778485664426e+17
19263.0	6.72148922442274e+17
19264.0	6.719829121695743e+17
19265.0	6.718781443975849e+17
19266.0	6.717522589341012e+17
19267.0	6.716325934137343e+17
19268.0	6.715018185102675e+17
19269.0	6.713719659342505e+17
19270.0	6.712418847686655e+17
19271.0	6.710867118784511e+17
19272.0	6.709787037270015e+17
19273.0	6.701264943448054e+17
19274.0	6.70375554423193e+17
19275.0	6.705902841233408e+17
19276.0	6.704582791004159e+17
19277.0	6.703280075833343e+17
19278.0	6.701977717877417e+17
19279.0	6.700625139422547e+17
19280.0	6.699298038568276e+17
19281.0	6.698052283443881e+17
19282.0	6.696758623076351e+17
19283.0	6.695412398992041e+17
19284.0	6.694045733967188e+17
19285.0	6.692645984272383e+17
19286.0	6.691491914536276e+17
19287.0	6.690207719314772e+17
19288.0	6.688377264231763e+17
19289.0	6.685984294961147e+17
19290.0	6.686269081212244e+17
19291.0	6.684740810353324e+17
19292.0	6.683638141113684e+17
19293.0	6.68231497032226e+17
19294.0	6.680994576160084e+17
19295.0	6.679685839366825e+17
19296.0	6.678360543461373e+17
19297.0	6.677026219316564e+17
19298.0	6.675697570764116e+17
19299.0	6.674401063862272e+17
19300.0	6.673075408644778e+17
19301.0	6.671740953078441e+17
19302.0	6.670413120318121e+17
19303.0	6.669010901576361e+17
19304.0	6.667707748100778e+17
19305.0	6.666415046830761e+17
19306.0	6.665069375695529e+17
19307.0	6.663684718504617e+17
19308.0	6.662372589917523e+17
19309.0	6.660983072227327e+17
19310.0	6.659595767731539e+17
19311.0	6.658348815133353e+17
19312.0	6.657011232014335e+17
19313.0	6.655536899904854e+17
19314.0	6.653539189260284e+17
19315.0	6.652248789265068e+17
19316.0	6.651650003435519e+17
19317.0	6.650290518360063e+17
19318.0	6.648931775676415e+17
19319.0	6.647588284880212e+17
19320.0	6.646193221621076e+17
19321.0	6.644869889348948e+17
19322.0	6.643381629353983e+17
19323.0	6.642096409324201e+17
19324.0	6.640763535709524e+17
19325.0	6.639342269934249e+17
19326.0	6.638018990789972e+17
19327.0	6.636608155549695e+17
19328.0	6.635207484506111e+17
19329.0	6.633821828371796e+17
19330.0	6.632399545477801e+17
19331.0	6.631004824054441e+17
19332.0	6.629641398430378e+17
19333.0	6.628230061271721e+17
19334.0	6.626788476889769e+17
19335.0	6.625428164837375e+17
19336.0	6.624012588635475e+17
19337.0	6.622588036623017e+17
19338.0	6.621006759548243e+17
19339.0	6.619740353069055e+17
19340.0	6.618229090811904e+17
19341.0	6.616800921911295e+17
19342.0	6.615030434889727e+17
19343.0	6.613914053771263e+17
19344.0	6.612457895581012e+17
19345.0	6.609381293206181e+17
19346.0	6.609128509494612e+17
19347.0	6.608003516071936e+17
19348.0	6.606572877425321e+17
19349.0	6.60505457992226e+17
19350.0	6.603562367494825e+17
19351.0	6.602042155991037e+17
19352.0	6.600503810413908e+17
19353.0	6.599039763436884e+17
19354.0	6.597502674752852e+17
19355.0	6.595885372801023e+17
19356.0	6.594405100858025e+17
19357.0	6.592835211318612e+17
19358.0	6.591161606427987e+17
19359.0	6.589218443405994e+17
19360.0	6.587977939550208e+17
19361.0	6.586352919379967e+17
19362.0	6.58477501522466e+17
19363.0	6.58313296548113e+17
19364.0	6.581471384261972e+17
19365.0	6.579803275307689e+17
19366.0	6.5781217886208e+17
19367.0	6.576419033317376e+17
19368.0	6.574698386511188e+17
19369.0	6.572819033533097e+17
19370.0	6.570311108875604e+17
19371.0	6.569372601199273e+17
19372.0	6.567575408345087e+17
19373.0	6.565683857631913e+17
19374.0	6.563850520363007e+17
19375.0	6.561978471765332e+17
19376.0	6.560077894909951e+17
19377.0	6.558140551484755e+17
19378.0	6.55617641484561e+17
19379.0	6.554186552442879e+17
19380.0	6.552074674241535e+17
19381.0	6.549900365922303e+17
19382.0	6.547726724497407e+17
19383.0	6.545579386251946e+17
19384.0	6.543490984269139e+17
19385.0	6.541269524283391e+17
19386.0	6.539007513067519e+17
19387.0	6.536566151315455e+17
19388.0	6.534178894686889e+17
19389.0	6.531745789422249e+17
19390.0	6.529263904402089e+17
19391.0	6.524632354695845e+17
19392.0	6.523941019451391e+17
19393.0	6.521130652620116e+17
19394.0	6.518358349097642e+17
19395.0	6.515357927866368e+17
19396.0	6.512444007863635e+17
19397.0	6.509396396518057e+17
19398.0	6.506124972217686e+17
19399.0	6.502384358391805e+17
19400.0	6.499284659382953e+17
19401.0	6.495873473882793e+17
19402.0	6.492278695307944e+17
19403.0	6.488564005076991e+17
19404.0	6.484567421965652e+17
19405.0	6.480482269833897e+17
19406.0	6.476345605357568e+17
19407.0	6.471893696992595e+17
19408.0	6.466637566487212e+17
19409.0	6.462369177097558e+17
19410.0	6.457145105055743e+17
19411.0	6.451924373777065e+17
19412.0	6.44609643450641e+17
19413.0	6.440247372021759e+17
19414.0	6.433428991202644e+17
19415.0	6.426639783865001e+17
19416.0	6.419248463915689e+17
19417.0	6.411489337060008e+17
19418.0	6.403058932820652e+17
19419.0	6.39392388620834e+17
19420.0	6.385313096138751e+17
19421.0	6.376525790882474e+17
19422.0	6.36673267474978e+17
19423.0	6.356756045234175e+17
19424.0	6.345623887762772e+17
19425.0	6.334065122738176e+17
19426.0	6.321289659329194e+17
19427.0	6.307254454889132e+17
19428.0	6.292131340266156e+17
19429.0	6.275428508150442e+17
19430.0	6.256633952862208e+17
19431.0	6.235167356791465e+17
19432.0	6.211920823932244e+17
19433.0	6.190288151598422e+17
19434.0	6.167856674766847e+17
19435.0	6.143439507466921e+17
19436.0	6.116404643583316e+17
19437.0	6.086485172289536e+17
19438.0	6.050370831428262e+17
19439.0	6.013535282091351e+17
19440.0	5.966914963286701e+17
19441.0	5.919823122923516e+17
19442.0	5.87175722606046e+17
19443.0	5.817073691962025e+17
19444.0	5.752141826927269e+17
19445.0	5.6749416758203757e+17
19446.0	5.593840322871294e+17
19447.0	5.4967200043936365e+17
19448.0	5.382078117969925e+17
19449.0	5.22791828778735e+17
19450.0	4.8949706439174566e+17
19451.0	4.7652112821125094e+17
19452.0	5.086747399203504e+17
19453.0	5.3134146051331475e+17
19454.0	5.437356614789796e+17
19455.0	5.541629166703955e+17
19456.0	5.626633274785793e+17
19457.0	5.7035319043686374e+17
19458.0	5.771794810142721e+17
19459.0	5.829732625022977e+17
19460.0	5.878453681258492e+17
19461.0	5.92224768439091e+17
19462.0	5.968623040462849e+17
19463.0	6.008637755490304e+17
19464.0	6.042472626345299e+17
19465.0	6.071811385764524e+17
19466.0	6.097734446612477e+17
19467.0	6.121071110870356e+17
19468.0	6.141903419124394e+17
19469.0	6.160089471079763e+17
19470.0	6.181585339897175e+17
19471.0	6.201808499594582e+17
19472.0	6.21898601157973e+17
19473.0	6.234284843772585e+17
19474.0	6.247677608067071e+17
19475.0	6.259214255128573e+17
19476.0	6.270416363803988e+17
19477.0	6.280248201751209e+17
19478.0	6.289057167791443e+17
19479.0	6.297096193835007e+17
19480.0	6.304472056375978e+17
19481.0	6.311279712359763e+17
19482.0	6.317319849159337e+17
19483.0	6.323807318966272e+17
19484.0	6.330172515024895e+17
19485.0	6.335718066487296e+17
19486.0	6.340832823083007e+17
19487.0	6.345462004405587e+17
19488.0	6.349589945428649e+17
19489.0	6.353418222305279e+17
19490.0	6.355864946475005e+17
19491.0	6.359786840915967e+17
19492.0	6.362602961633279e+17
19493.0	6.365142658143571e+17
19494.0	6.367267008806911e+17
19495.0	6.369473343433385e+17
19496.0	6.371004655162708e+17
19497.0	6.372847953903615e+17
19498.0	6.374376182819497e+17
19499.0	6.372479873668431e+17
19500.0	6.376977037874516e+17
19501.0	6.378045870265683e+17
19502.0	6.378982525457748e+17
19503.0	6.380016978537129e+17
19504.0	6.380685650558975e+17
19505.0	6.381465986138111e+17
19506.0	6.381980646812329e+17
19507.0	6.382362952029524e+17
19508.0	6.382867612783956e+17
19509.0	6.383118603430569e+17
19510.0	6.383243454578687e+17
19511.0	6.38123789988659e+17
19512.0	6.383349205565436e+17
19513.0	6.382578401542141e+17
19514.0	6.383046693486591e+17
19515.0	6.383157678265686e+17
19516.0	6.383452161747625e+17
19517.0	6.383247637697876e+17
19518.0	6.383031635935231e+17
19519.0	6.382725093829289e+17
19520.0	6.382358225747967e+17
19521.0	6.381999421216084e+17
19522.0	6.381562447440553e+17
19523.0	6.381233620997459e+17
19524.0	6.380806157806249e+17
19525.0	6.380285270687743e+17
19526.0	6.379789918491988e+17
19527.0	6.379220007649279e+17
19528.0	6.378633078418092e+17
19529.0	6.378016445825021e+17
19530.0	6.377385749730644e+17
19531.0	6.376729260763817e+17
19532.0	6.376082098530985e+17
19533.0	6.375425375382186e+17
19534.0	6.374704364038825e+17
19535.0	6.373949605325482e+17
19536.0	6.37319273058577e+17
19537.0	6.372454772157097e+17
19538.0	6.371645143558825e+17
19539.0	6.370430533937837e+17
19540.0	6.370030156163754e+17
19541.0	6.369224240922623e+17
19542.0	6.368378719567871e+17
19543.0	6.36752836637491e+17
19544.0	6.366665304440832e+17
19545.0	6.365536909437608e+17
19546.0	6.364181730514262e+17
19547.0	6.363993340553898e+17
19548.0	6.363106798206975e+17
19549.0	6.362105656989011e+17
19550.0	6.361318290358272e+17
19551.0	6.360398323602771e+17
19552.0	6.359457483893417e+17
19553.0	6.358496021490346e+17
19554.0	6.357521776246783e+17
19555.0	6.356581668443475e+17
19556.0	6.35562433323554e+17
19557.0	6.3546451310237e+17
19558.0	6.353662495774035e+17
19559.0	6.352647974726314e+17
19560.0	6.351660699178324e+17
19561.0	6.350661591498752e+17
19562.0	6.349673364542804e+17
19563.0	6.348662073808212e+17
19564.0	6.347656114034004e+17
19565.0	6.346629601471146e+17
19566.0	6.345589436448767e+17
19567.0	6.344578300204372e+17
19568.0	6.343527306188116e+17
19569.0	6.342497753453908e+17
19570.0	6.34147699827234e+17
19571.0	6.340431897253204e+17
19572.0	6.33935372554513e+17
19573.0	6.338322303549439e+17
19574.0	6.337195297559891e+17
19575.0	6.336215828310698e+17
19576.0	6.335158292578303e+17
19577.0	6.334007333617663e+17
19578.0	6.33299719561762e+17
19579.0	6.33193779761425e+17
19580.0	6.330870810716841e+17
19581.0	6.329803642765311e+17
19582.0	6.328740652340564e+17
19583.0	6.32766161031441e+17
19584.0	6.326579810533375e+17
19585.0	6.325407313122643e+17
19586.0	6.324293238172332e+17
19587.0	6.323342871101437e+17
19588.0	6.321908433114452e+17
19589.0	6.321161998696447e+17
19590.0	6.320044046811133e+17
19591.0	6.319004593422333e+17
19592.0	6.317912788129107e+17
19593.0	6.31679789109521e+17
19594.0	6.315513877626879e+17
19595.0	6.314596356150612e+17
19596.0	6.312975496030889e+17
19597.0	6.312391220396031e+17
19598.0	6.311100387688447e+17
19599.0	6.310187551249748e+17
19600.0	6.309085771901609e+17
19601.0	6.30792355053568e+17
19602.0	6.306833654349823e+17
19603.0	6.305428084359167e+17
19604.0	6.304602111956308e+17
19605.0	6.303283180907178e+17
19606.0	6.302392312135679e+17
19607.0	6.301295832290644e+17
19608.0	6.300167558223188e+17
19609.0	6.299059588781396e+17
19610.0	6.297984460739924e+17
19611.0	6.296856559965524e+17
19612.0	6.295744515757395e+17
19613.0	6.294610257816233e+17
19614.0	6.293467029656916e+17
19615.0	6.292378331643904e+17
19616.0	6.291237839568896e+17
19617.0	6.290128425888425e+17
19618.0	6.28863350743586e+17
19619.0	6.287360404051283e+17
19620.0	6.286270844807849e+17
19621.0	6.285622647980031e+17
19622.0	6.284500661174272e+17
19623.0	6.283372991086591e+17
19624.0	6.282236494086144e+17
19625.0	6.281115411851946e+17
19626.0	6.279979765596159e+17
19627.0	6.278856979076436e+17
19628.0	6.277671661076479e+17
19629.0	6.276528679682047e+17
19630.0	6.275434966679551e+17
19631.0	6.271917485632169e+17
19632.0	6.273201465546068e+17
19633.0	6.272038303956991e+17
19634.0	6.270938127532032e+17
19635.0	6.269772532547583e+17
19636.0	6.268664233852927e+17
19637.0	6.26721266143505e+17
19638.0	6.266399548069204e+17
19639.0	6.265261923500032e+17
19640.0	6.264086415278079e+17
19641.0	6.262570463090006e+17
19642.0	6.261858976311977e+17
19643.0	6.260705916005033e+17
19644.0	6.259550998320468e+17
19645.0	6.258264534679551e+17
19646.0	6.2573287323293e+17
19647.0	6.256193077684906e+17
19648.0	6.255053394411519e+17
19649.0	6.253915065898324e+17
19650.0	6.252784974299136e+17
19651.0	6.251642715024041e+17
19652.0	6.250505079969108e+17
19653.0	6.249374092886013e+17
19654.0	6.248230642428585e+17
19655.0	6.247089574335828e+17
19656.0	6.245959340829353e+17
19657.0	6.244821310111744e+17
19658.0	6.243689296822272e+17
19659.0	6.242552678187007e+17
19660.0	6.241416669822975e+17
19661.0	6.240279373108564e+17
19662.0	6.239142011382442e+17
19663.0	6.237969251827711e+17
19664.0	6.236851172016127e+17
19665.0	6.235729701109759e+17
