# Flux units: erg / (cm m2 s)
# Wavelength units: Angstrom
wave	flux
19000.0	6.669077533687807e+17
19001.0	6.667810551190867e+17
19002.0	6.666549683290111e+17
19003.0	6.665285933902505e+17
19004.0	6.664022356481364e+17
19005.0	6.662759127886504e+17
19006.0	6.661495991566335e+17
19007.0	6.66019491357218e+17
19008.0	6.658967458895188e+17
19009.0	6.657706900673876e+17
19010.0	6.656431100351828e+17
19011.0	6.655181998172841e+17
19012.0	6.653887060639743e+17
19013.0	6.652659402539008e+17
19014.0	6.651396148778324e+17
19015.0	6.650136388872873e+17
19016.0	6.648873507706196e+17
19017.0	6.647592927275689e+17
19018.0	6.646350684880895e+17
19019.0	6.645092783052116e+17
19020.0	6.643830055676586e+17
19021.0	6.642570497097727e+17
19022.0	6.641312352698365e+17
19023.0	6.640052536868861e+17
19024.0	6.638792614084607e+17
19025.0	6.637531046434131e+17
19026.0	6.636270084860586e+17
19027.0	6.634997249212415e+17
19028.0	6.633757043851261e+17
19029.0	6.632498633113599e+17
19030.0	6.631240341913599e+17
19031.0	6.629982388355071e+17
19032.0	6.628724573208575e+17
19033.0	6.627464298102783e+17
19034.0	6.626209433649151e+17
19035.0	6.624952354603005e+17
19036.0	6.621564837560317e+17
19037.0	6.622438802587648e+17
19038.0	6.62118245404945e+17
19039.0	6.619926266991955e+17
19040.0	6.618670258891433e+17
19041.0	6.617414516430164e+17
19042.0	6.616156536307712e+17
19043.0	6.614903790676649e+17
19044.0	6.613648569008127e+17
19045.0	6.612392516867412e+17
19046.0	6.611135096684543e+17
19047.0	6.609884851557716e+17
19048.0	6.608624636570282e+17
19049.0	6.607374781513727e+17
19050.0	6.606121889082025e+17
19051.0	6.604663370896723e+17
19052.0	6.603602669862911e+17
19053.0	6.602353849401343e+17
19054.0	6.601110854828031e+17
19055.0	6.599850730717183e+17
19056.0	6.598606117841578e+17
19057.0	6.597353506428244e+17
19058.0	6.596092876204714e+17
19059.0	6.594850864496639e+17
19060.0	6.59359879275042e+17
19061.0	6.592348421794474e+17
19062.0	6.591097587367936e+17
19063.0	6.58984706122274e+17
19064.0	6.588593387951444e+17
19065.0	6.587341056857428e+17
19066.0	6.586094817989972e+17
19067.0	6.584847285878783e+17
19068.0	6.583597918759593e+17
19069.0	6.582348832658771e+17
19070.0	6.581098956630697e+17
19071.0	6.579850210268499e+17
19072.0	6.578602812375039e+17
19073.0	6.577354785335978e+17
19074.0	6.576107054694399e+17
19075.0	6.574859443590483e+17
19076.0	6.5736113927837e+17
19077.0	6.572364667376979e+17
19078.0	6.57111403078178e+17
19079.0	6.569871429773993e+17
19080.0	6.568624958821716e+17
19081.0	6.567377357504511e+17
19082.0	6.566129798829395e+17
19083.0	6.56488427299362e+17
19084.0	6.563634282321236e+17
19085.0	6.562396813044394e+17
19086.0	6.561137990565887e+17
19087.0	6.559864244753748e+17
19088.0	6.558660527041193e+17
19089.0	6.557390862985897e+17
19090.0	6.556174693083817e+17
19091.0	6.55492999422498e+17
19092.0	6.553675861677396e+17
19093.0	6.55244463841826e+17
19094.0	6.551172006193833e+17
19095.0	6.549921545060351e+17
19096.0	6.54870541640226e+17
19097.0	6.547473299756372e+17
19098.0	6.546232626730323e+17
19099.0	6.544990521349459e+17
19100.0	6.543746320214698e+17
19101.0	6.542507398310569e+17
19102.0	6.541265290832553e+17
19103.0	6.540027132291753e+17
19104.0	6.538786747973631e+17
19105.0	6.537546596439382e+17
19106.0	6.536285190269609e+17
19107.0	6.535044592041983e+17
19108.0	6.533805579261267e+17
19109.0	6.532329576420691e+17
19110.0	6.531326743500116e+17
19111.0	6.530089065207123e+17
19112.0	6.528850746583721e+17
19113.0	6.527612639772671e+17
19114.0	6.526374790911316e+17
19115.0	6.525133823584938e+17
19116.0	6.523899817405097e+17
19117.0	6.522662185249449e+17
19118.0	6.521415197698729e+17
19119.0	6.520125131849727e+17
19120.0	6.518941857174867e+17
19121.0	6.517709897116329e+17
19122.0	6.516480869575338e+17
19123.0	6.515243516340906e+17
19124.0	6.514001795437908e+17
19125.0	6.512770190497108e+17
19126.0	6.511520109647188e+17
19127.0	6.510256391017811e+17
19128.0	6.508840442920959e+17
19129.0	6.507833980529321e+17
19130.0	6.506602978170195e+17
19131.0	6.505361957715967e+17
19132.0	6.504135942384297e+17
19133.0	6.502853072562857e+17
19134.0	6.501558368512681e+17
19135.0	6.500436922772137e+17
19136.0	6.499205015841449e+17
19137.0	6.497967788436138e+17
19138.0	6.49668048523537e+17
19139.0	6.49550803116578e+17
19140.0	6.494270185799679e+17
19141.0	6.493039135206057e+17
19142.0	6.491808233510228e+17
19143.0	6.490574884438015e+17
19144.0	6.489344599304874e+17
19145.0	6.488115842296489e+17
19146.0	6.48686180831505e+17
19147.0	6.485654989613738e+17
19148.0	6.484426474476884e+17
19149.0	6.483197795762175e+17
19150.0	6.481964341832361e+17
19151.0	6.480741132490067e+17
19152.0	6.479508236402687e+17
19153.0	6.478284519549609e+17
19154.0	6.477052783187283e+17
19155.0	6.475828770635776e+17
19156.0	6.474601096456874e+17
19157.0	6.473371871783593e+17
19158.0	6.471980435199316e+17
19159.0	6.470919239237631e+17
19160.0	6.46968776781551e+17
19161.0	6.468442915864575e+17
19162.0	6.466877400984234e+17
19163.0	6.466013989524822e+17
19164.0	6.464789807104e+17
19165.0	6.463560685890217e+17
19166.0	6.462331678621696e+17
19167.0	6.461079959896064e+17
19168.0	6.459882750345215e+17
19169.0	6.458658325353812e+17
19170.0	6.457441015999145e+17
19171.0	6.456203917918207e+17
19172.0	6.454992041585321e+17
19173.0	6.453769368414889e+17
19174.0	6.452545082534569e+17
19175.0	6.451323641790463e+17
19176.0	6.450100791760212e+17
19177.0	6.448873690802857e+17
19178.0	6.447653409084756e+17
19179.0	6.446414515142655e+17
19180.0	6.445104861194921e+17
19181.0	6.443986124974761e+17
19182.0	6.442757650382847e+17
19183.0	6.441535133799763e+17
19184.0	6.440315783217151e+17
19185.0	6.439104972936532e+17
19186.0	6.437884746443433e+17
19187.0	6.436662246637567e+17
19188.0	6.435441653841919e+17
19189.0	6.434213737791487e+17
19190.0	6.432992109701802e+17
19191.0	6.43178014319138e+17
19192.0	6.430551437213696e+17
19193.0	6.42919369347345e+17
19194.0	6.428062753925801e+17
19195.0	6.426895774821033e+17
19196.0	6.425689882361855e+17
19197.0	6.424471212654591e+17
19198.0	6.423251794264063e+17
19199.0	6.419835868501332e+17
19200.0	6.41943881191697e+17
19201.0	6.419599176237055e+17
19202.0	6.418383408988159e+17
19203.0	6.417162346430464e+17
19204.0	6.415949211107327e+17
19205.0	6.414733305446399e+17
19206.0	6.413516589585748e+17
19207.0	6.412299208927914e+17
19208.0	6.411077671714816e+17
19209.0	6.409868639120042e+17
19210.0	6.408652746741076e+17
19211.0	6.407436405571583e+17
19212.0	6.406222032928767e+17
19213.0	6.404985954762751e+17
19214.0	6.403760068755455e+17
19215.0	6.402569240838143e+17
19216.0	6.401357915357183e+17
19217.0	6.400147739115519e+17
19218.0	6.398909368762367e+17
19219.0	6.397714396872703e+17
19220.0	6.396504116472489e+17
19221.0	6.395279924264959e+17
19222.0	6.394078230304084e+17
19223.0	6.392864596557823e+17
19224.0	6.391644142174207e+17
19225.0	6.390432055427071e+17
19226.0	6.389225198977023e+17
19227.0	6.388012424364031e+17
19228.0	6.386799725248511e+17
19229.0	6.385587153360212e+17
19230.0	6.384365339323049e+17
19231.0	6.383154728271871e+17
19232.0	6.381943870455807e+17
19233.0	6.380736075879764e+17
19234.0	6.379525666155178e+17
19235.0	6.378314753114111e+17
19236.0	6.377103080204969e+17
19237.0	6.375891115791699e+17
19238.0	6.374674128699392e+17
19239.0	6.373469032458921e+17
19240.0	6.372244222989652e+17
19241.0	6.371043111337983e+17
19242.0	6.369834340188159e+17
19243.0	6.368619252416511e+17
19244.0	6.367413920595968e+17
19245.0	6.366203598252714e+17
19246.0	6.3649926887069e+17
19247.0	6.363781658225321e+17
19248.0	6.362572343214079e+17
19249.0	6.361361298052436e+17
19250.0	6.360151621631997e+17
19251.0	6.358938989625343e+17
19252.0	6.357719021780991e+17
19253.0	6.356521187278847e+17
19254.0	6.355309357083305e+17
19255.0	6.354095039665491e+17
19256.0	6.352884217501012e+17
19257.0	6.351681401563817e+17
19258.0	6.350471474184191e+17
19259.0	6.349259609036115e+17
19260.0	6.348034563287721e+17
19261.0	6.34684250783744e+17
19262.0	6.345632713976489e+17
19263.0	6.344422259512659e+17
19264.0	6.343199243108351e+17
19265.0	6.341997939916799e+17
19266.0	6.340789811194538e+17
19267.0	6.339583706223956e+17
19268.0	6.338373827078826e+17
19269.0	6.337163897602047e+17
19270.0	6.335951766115667e+17
19271.0	6.334732486836223e+17
19272.0	6.333532748819113e+17
19273.0	6.33197218112034e+17
19274.0	6.330942782876329e+17
19275.0	6.329902947106815e+17
19276.0	6.328692493342036e+17
19277.0	6.327481903262378e+17
19278.0	6.326271239782399e+17
19279.0	6.325051724223827e+17
19280.0	6.323847122212179e+17
19281.0	6.322638214048425e+17
19282.0	6.321426837536765e+17
19283.0	6.320180192520874e+17
19284.0	6.318919646882472e+17
19285.0	6.317785161050793e+17
19286.0	6.316579763519487e+17
19287.0	6.31536742301696e+17
19288.0	6.313682260721663e+17
19289.0	6.311454880475813e+17
19290.0	6.311728911832404e+17
19291.0	6.310507365531647e+17
19292.0	6.309301773664255e+17
19293.0	6.308087524753407e+17
19294.0	6.306873175179263e+17
19295.0	6.305658485866495e+17
19296.0	6.304443559575551e+17
19297.0	6.303227085586431e+17
19298.0	6.302012192849919e+17
19299.0	6.300795823718399e+17
19300.0	6.299578913521663e+17
19301.0	6.298361403539455e+17
19302.0	6.297143576188244e+17
19303.0	6.295922076723881e+17
19304.0	6.294703251128319e+17
19305.0	6.293483513970687e+17
19306.0	6.292262493356031e+17
19307.0	6.291039339937791e+17
19308.0	6.289819505612116e+17
19309.0	6.288538149235369e+17
19310.0	6.287274448082259e+17
19311.0	6.286147028254719e+17
19312.0	6.284927778335402e+17
19313.0	6.283682146243924e+17
19314.0	6.281966759094953e+17
19315.0	6.280776593178624e+17
19316.0	6.280013000562004e+17
19317.0	6.278787421437951e+17
19318.0	6.27755770253585e+17
19319.0	6.276327088149844e+17
19320.0	6.275091676878163e+17
19321.0	6.273862370415956e+17
19322.0	6.272621038185129e+17
19323.0	6.271355871821824e+17
19324.0	6.270155337586004e+17
19325.0	6.268880201362089e+17
19326.0	6.267678667483818e+17
19327.0	6.266437551958697e+17
19328.0	6.26519079719185e+17
19329.0	6.263923835666431e+17
19330.0	6.262677000508756e+17
19331.0	6.261429619392511e+17
19332.0	6.260181709094912e+17
19333.0	6.258929810014205e+17
19334.0	6.257673253158911e+17
19335.0	6.256422807404543e+17
19336.0	6.255164660908031e+17
19337.0	6.253905765728255e+17
19338.0	6.25263822119458e+17
19339.0	6.251380417931946e+17
19340.0	6.250112426005843e+17
19341.0	6.248844176130047e+17
19342.0	6.247556837976746e+17
19343.0	6.246297289184595e+17
19344.0	6.245019306426367e+17
19345.0	6.24367722631441e+17
19346.0	6.242439048899241e+17
19347.0	6.241163491147773e+17
19348.0	6.239874224313684e+17
19349.0	6.238578768784042e+17
19350.0	6.237278566001322e+17
19351.0	6.235975372679849e+17
19352.0	6.234666238825812e+17
19353.0	6.233356280791039e+17
19354.0	6.232038930295465e+17
19355.0	6.230714763356841e+17
19356.0	6.229389903659007e+17
19357.0	6.228057016063316e+17
19358.0	6.226715801376084e+17
19359.0	6.225355636124329e+17
19360.0	6.224021848850431e+17
19361.0	6.222663602492756e+17
19362.0	6.221301911213395e+17
19363.0	6.219929973249364e+17
19364.0	6.218550024863744e+17
19365.0	6.217162705687891e+17
19366.0	6.215766819646121e+17
19367.0	6.214362689699839e+17
19368.0	6.212948089372671e+17
19369.0	6.211517376626687e+17
19370.0	6.210045174524585e+17
19371.0	6.208640235077631e+17
19372.0	6.207183944766806e+17
19373.0	6.20571345953314e+17
19374.0	6.204230020191571e+17
19375.0	6.202730866890067e+17
19376.0	6.201215876595712e+17
19377.0	6.199689615507455e+17
19378.0	6.198145845297151e+17
19379.0	6.196584518429353e+17
19380.0	6.195004860355924e+17
19381.0	6.193405543579647e+17
19382.0	6.191782539471529e+17
19383.0	6.190133055324159e+17
19384.0	6.188447772792147e+17
19385.0	6.186757190057984e+17
19386.0	6.185040255210835e+17
19387.0	6.183294929119913e+17
19388.0	6.181519317357908e+17
19389.0	6.17971144790289e+17
19390.0	6.177862983876607e+17
19391.0	6.174081669223761e+17
19392.0	6.174067819631956e+17
19393.0	6.172108572153172e+17
19394.0	6.170101245367635e+17
19395.0	6.168044630616746e+17
19396.0	6.165934895005695e+17
19397.0	6.163778467004415e+17
19398.0	6.161554986063188e+17
19399.0	6.159238733408938e+17
19400.0	6.156901323287209e+17
19401.0	6.154471976818004e+17
19402.0	6.151958559719423e+17
19403.0	6.149356951786836e+17
19404.0	6.146656140875092e+17
19405.0	6.143833051321684e+17
19406.0	6.140915654939988e+17
19407.0	6.137876874002432e+17
19408.0	6.134691206441642e+17
19409.0	6.131400854645417e+17
19410.0	6.127941573061289e+17
19411.0	6.124293885438633e+17
19412.0	6.120404018703017e+17
19413.0	6.116362737593002e+17
19414.0	6.112107387595433e+17
19415.0	6.107615884301652e+17
19416.0	6.102826012901375e+17
19417.0	6.097712490130089e+17
19418.0	6.092382004401492e+17
19419.0	6.086603567005695e+17
19420.0	6.080453908540074e+17
19421.0	6.073806757385556e+17
19422.0	6.066660416247124e+17
19423.0	6.059058821158227e+17
19424.0	6.050862087886164e+17
19425.0	6.041900184939178e+17
19426.0	6.032274682281983e+17
19427.0	6.021822946476031e+17
19428.0	6.01045243859217e+17
19429.0	5.997997589878099e+17
19430.0	5.984187426624854e+17
19431.0	5.968743124085418e+17
19432.0	5.952937777954815e+17
19433.0	5.935260254601215e+17
19434.0	5.915609237116244e+17
19435.0	5.893455895767721e+17
19436.0	5.86819301137886e+17
19437.0	5.84072069836527e+17
19438.0	5.810194627952637e+17
19439.0	5.781327735422976e+17
19440.0	5.745549649117183e+17
19441.0	5.703547186315259e+17
19442.0	5.655032322763435e+17
19443.0	5.6069592473490765e+17
19444.0	5.5519884733317075e+17
19445.0	5.4851043604125005e+17
19446.0	5.409870770951508e+17
19447.0	5.3261882300388634e+17
19448.0	5.2233770050956e+17
19449.0	5.081188715375276e+17
19450.0	4.759006818773654e+17
19451.0	4.6380874189154963e+17
19452.0	4.94276606339755e+17
19453.0	5.162102048860848e+17
19454.0	5.272244359353682e+17
19455.0	5.3642013588848614e+17
19456.0	5.4388181367958195e+17
19457.0	5.5097026251762304e+17
19458.0	5.566804937495895e+17
19459.0	5.6160216604999686e+17
19460.0	5.6620339457338e+17
19461.0	5.7055827617382374e+17
19462.0	5.741947942950231e+17
19463.0	5.772955475421865e+17
19464.0	5.800165764672169e+17
19465.0	5.825454332881577e+17
19466.0	5.849730452728489e+17
19467.0	5.871079457292285e+17
19468.0	5.889461562201428e+17
19469.0	5.905703180260692e+17
19470.0	5.920188860639914e+17
19471.0	5.933584877617151e+17
19472.0	5.945641300306601e+17
19473.0	5.956341262712832e+17
19474.0	5.965836493083988e+17
19475.0	5.974408924845395e+17
19476.0	5.98203278959138e+17
19477.0	5.988975612613974e+17
19478.0	5.995174958202877e+17
19479.0	6.000729031092906e+17
19480.0	6.005697197462868e+17
19481.0	6.010272110084095e+17
19482.0	6.014295222867284e+17
19483.0	6.017922856823466e+17
19484.0	6.021141527265279e+17
19485.0	6.024000003462484e+17
19486.0	6.026608698370729e+17
19487.0	6.028888434715305e+17
19488.0	6.03091974942447e+17
19489.0	6.032719477735423e+17
19490.0	6.034289586077695e+17
19491.0	6.035777402175487e+17
19492.0	6.037007218245631e+17
19493.0	6.038060329686356e+17
19494.0	6.038965202539859e+17
19495.0	6.03972738097698e+17
19496.0	6.040367362561364e+17
19497.0	6.040920940085247e+17
19498.0	6.041273499298474e+17
19499.0	6.03848281983112e+17
19500.0	6.041934725731668e+17
19501.0	6.042082751108436e+17
19502.0	6.042162731592361e+17
19503.0	6.042169486518953e+17
19504.0	6.042104718076586e+17
19505.0	6.041993320158548e+17
19506.0	6.041816372958548e+17
19507.0	6.041583257736532e+17
19508.0	6.041301332699817e+17
19509.0	6.040973255639039e+17
19510.0	6.04059708039714e+17
19511.0	6.03826617004851e+17
19512.0	6.039374482724179e+17
19513.0	6.038416349899433e+17
19514.0	6.038173896059561e+17
19515.0	6.038151898333183e+17
19516.0	6.037625848026452e+17
19517.0	6.03702042820608e+17
19518.0	6.036397465709225e+17
19519.0	6.0357459064477e+17
19520.0	6.035073460251305e+17
19521.0	6.03438026203682e+17
19522.0	6.033666524315647e+17
19523.0	6.032935038397097e+17
19524.0	6.032199302949546e+17
19525.0	6.031441903921833e+17
19526.0	6.030665980051455e+17
19527.0	6.029870175879167e+17
19528.0	6.029060756996095e+17
19529.0	6.028237945700351e+17
19530.0	6.027402676622676e+17
19531.0	6.026555726408362e+17
19532.0	6.025697561324202e+17
19533.0	6.024829081747455e+17
19534.0	6.023950586172756e+17
19535.0	6.023062605878611e+17
19536.0	6.02216447746594e+17
19537.0	6.021260305061204e+17
19538.0	6.020345844028756e+17
19539.0	6.019409156680361e+17
19540.0	6.018497154908159e+17
19541.0	6.017561783872169e+17
19542.0	6.016619866226687e+17
19543.0	6.015671644542294e+17
19544.0	6.014717470441471e+17
19545.0	6.013747982237695e+17
19546.0	6.012764898197503e+17
19547.0	6.011819891447124e+17
19548.0	6.010842141163519e+17
19549.0	6.009860433554089e+17
19550.0	6.008885348051625e+17
19551.0	6.007896630362111e+17
19552.0	6.006903735145811e+17
19553.0	6.005906447095124e+17
19554.0	6.004905423317673e+17
19555.0	6.003902579212287e+17
19556.0	6.002895096206675e+17
19557.0	6.001884309487615e+17
19558.0	6.000870622407338e+17
19559.0	5.999852671817044e+17
19560.0	5.998834391973887e+17
19561.0	5.997812110764714e+17
19562.0	5.996787083684521e+17
19563.0	5.995758916468733e+17
19564.0	5.99473003831842e+17
19565.0	5.993698089937577e+17
19566.0	5.992663408967677e+17
19567.0	5.991626960098644e+17
19568.0	5.990589342416896e+17
19569.0	5.989548933425834e+17
19570.0	5.988507094177108e+17
19571.0	5.987463266828287e+17
19572.0	5.986417777836031e+17
19573.0	5.985370212663295e+17
19574.0	5.984318574821376e+17
19575.0	5.983271450050559e+17
19576.0	5.982220210667519e+17
19577.0	5.981161352331263e+17
19578.0	5.980111717269504e+17
19579.0	5.979056690429951e+17
19580.0	5.977999942527658e+17
19581.0	5.976942430562986e+17
19582.0	5.97588392874257e+17
19583.0	5.974823863145812e+17
19584.0	5.973762708428116e+17
19585.0	5.97269630873327e+17
19586.0	5.971611047952383e+17
19587.0	5.970529946522964e+17
19588.0	5.969491629091497e+17
19589.0	5.96839108846114e+17
19590.0	5.96737275339298e+17
19591.0	5.966310027908435e+17
19592.0	5.965241791108436e+17
19593.0	5.964172199548244e+17
19594.0	5.963092430509395e+17
19595.0	5.962034801104212e+17
19596.0	5.96040600396322e+17
19597.0	5.959891759224148e+17
19598.0	5.958815462369962e+17
19599.0	5.957750181855231e+17
19600.0	5.956677609542995e+17
19601.0	5.955603397956948e+17
19602.0	5.95452983648802e+17
19603.0	5.953410978633044e+17
19604.0	5.952379666388308e+17
19605.0	5.951298782363647e+17
19606.0	5.950231475301034e+17
19607.0	5.949157137885866e+17
19608.0	5.948081105272831e+17
19609.0	5.947004147815764e+17
19610.0	5.945928478010026e+17
19611.0	5.944851428278272e+17
19612.0	5.94377449808418e+17
19613.0	5.942696747903658e+17
19614.0	5.941618127405055e+17
19615.0	5.940541457257812e+17
19616.0	5.93944756949265e+17
19617.0	5.938384176414719e+17
19618.0	5.937292710860116e+17
19619.0	5.936208391700479e+17
19620.0	5.935130905062058e+17
19621.0	5.934069868483924e+17
19622.0	5.932990614645418e+17
19623.0	5.931911312572415e+17
19624.0	5.93083180917282e+17
19625.0	5.929751454329514e+17
19626.0	5.928672327718227e+17
19627.0	5.92759250485248e+17
19628.0	5.92646381834513e+17
19629.0	5.925429791686656e+17
19630.0	5.924324004681043e+17
19631.0	5.920977311498237e+17
19632.0	5.92219071385873e+17
19633.0	5.921110689666388e+17
19634.0	5.92003138060288e+17
19635.0	5.918949719932927e+17
19636.0	5.917870626177023e+17
19637.0	5.91677769191697e+17
19638.0	5.915709493564756e+17
19639.0	5.914628745854976e+17
19640.0	5.913547276724906e+17
19641.0	5.912452896129023e+17
19642.0	5.911387821135188e+17
19643.0	5.910306495310505e+17
19644.0	5.909225060433919e+17
19645.0	5.908139001337171e+17
19646.0	5.907066087189161e+17
19647.0	5.905985698791423e+17
19648.0	5.90490539847407e+17
19649.0	5.90382501007633e+17
19650.0	5.902744860753919e+17
19651.0	5.901664673682771e+17
19652.0	5.900584547429034e+17
19653.0	5.899504378533206e+17
19654.0	5.898424463392767e+17
19655.0	5.897344377683967e+17
19656.0	5.896264438775807e+17
19657.0	5.895184801857535e+17
19658.0	5.894104003816105e+17
19659.0	5.893025488175104e+17
19660.0	5.891945984775508e+17
19661.0	5.890866556873386e+17
19662.0	5.889787219148799e+17
19663.0	5.888706346308948e+17
19664.0	5.887619731466922e+17
19665.0	5.886549736554496e+17
