# Flux units: erg / (cm m2 s)
# Wavelength units: Angstrom
wave	flux
19000.0	7.932809451317928e+17
19001.0	7.931547757139284e+17
19002.0	7.930286636182185e+17
19003.0	7.92887558144e+17
19004.0	7.927463891959807e+17
19005.0	7.926052073854292e+17
19006.0	7.924637521062569e+17
19007.0	7.923220187447293e+17
19008.0	7.921777032298496e+17
19009.0	7.920316059746301e+17
19010.0	7.918767535292415e+17
19011.0	7.917527915735722e+17
19012.0	7.916067696760147e+17
19013.0	7.914694320848893e+17
19014.0	7.913237009924096e+17
19015.0	7.911826708758527e+17
19016.0	7.910403359113215e+17
19017.0	7.908993317994493e+17
19018.0	7.907560552136703e+17
19019.0	7.906132492288e+17
19020.0	7.904692716350118e+17
19021.0	7.903278525666644e+17
19022.0	7.901847197057021e+17
19023.0	7.900387684122621e+17
19024.0	7.89896312651776e+17
19025.0	7.897536171169108e+17
19026.0	7.896091380241748e+17
19027.0	7.894646232798547e+17
19028.0	7.893229108898476e+17
19029.0	7.891781095347539e+17
19030.0	7.890350542684157e+17
19031.0	7.888909101607594e+17
19032.0	7.887466405036032e+17
19033.0	7.885972080776531e+17
19034.0	7.884565021807956e+17
19035.0	7.883065923032403e+17
19036.0	7.88064697144661e+17
19037.0	7.880570574995455e+17
19038.0	7.879139675602943e+17
19039.0	7.877709908672511e+17
19040.0	7.876262012562089e+17
19041.0	7.874812486265514e+17
19042.0	7.87331652063505e+17
19043.0	7.871910401190569e+17
19044.0	7.870457009143808e+17
19045.0	7.869003579348308e+17
19046.0	7.867527215098536e+17
19047.0	7.866074383690409e+17
19048.0	7.864554904791721e+17
19049.0	7.86314542990404e+17
19050.0	7.86169779523857e+17
19051.0	7.860029611485868e+17
19052.0	7.858738006327296e+17
19053.0	7.857351795845802e+17
19054.0	7.8558966855325e+17
19055.0	7.854296070619133e+17
19056.0	7.852966058218836e+17
19057.0	7.85151264100625e+17
19058.0	7.850049600662186e+17
19059.0	7.848592489665876e+17
19060.0	7.84712333262848e+17
19061.0	7.845669010844328e+17
19062.0	7.844203245600765e+17
19063.0	7.842738134668628e+17
19064.0	7.841224878718973e+17
19065.0	7.839709311707816e+17
19066.0	7.838308014314834e+17
19067.0	7.836879406410409e+17
19068.0	7.835412907163645e+17
19069.0	7.833945766188374e+17
19070.0	7.832466309338451e+17
19071.0	7.83100980372002e+17
19072.0	7.829541163980118e+17
19073.0	7.828070225761619e+17
19074.0	7.826602352181247e+17
19075.0	7.825131861355177e+17
19076.0	7.823653065807186e+17
19077.0	7.822181392187392e+17
19078.0	7.82070692516113e+17
19079.0	7.819245717727913e+17
19080.0	7.81777070404403e+17
19081.0	7.81627455106799e+17
19082.0	7.814808762056703e+17
19083.0	7.813280972843688e+17
19084.0	7.811736981034323e+17
19085.0	7.810400591893844e+17
19086.0	7.808702393701715e+17
19087.0	7.807427216233811e+17
19088.0	7.805924503366314e+17
19089.0	7.804377188270079e+17
19090.0	7.80299743981295e+17
19091.0	7.801527533393236e+17
19092.0	7.800031809634303e+17
19093.0	7.798585649965736e+17
19094.0	7.797106527262038e+17
19095.0	7.795627412946943e+17
19096.0	7.794143466793641e+17
19097.0	7.792667846333782e+17
19098.0	7.791190019670016e+17
19099.0	7.789709210856105e+17
19100.0	7.788227496072532e+17
19101.0	7.786741777126739e+17
19102.0	7.785221727802708e+17
19103.0	7.783780682388819e+17
19104.0	7.782297717702655e+17
19105.0	7.78081311723793e+17
19106.0	7.779324666402135e+17
19107.0	7.777836328812543e+17
19108.0	7.77635016806673e+17
19109.0	7.774784276398079e+17
19110.0	7.773362468858536e+17
19111.0	7.771900198868308e+17
19112.0	7.770417259347967e+17
19113.0	7.768931285947732e+17
19114.0	7.767443508996778e+17
19115.0	7.765937517581651e+17
19116.0	7.764452999604905e+17
19117.0	7.762964899692543e+17
19118.0	7.761427923555667e+17
19119.0	7.758557690025297e+17
19120.0	7.758487049557331e+17
19121.0	7.757007914270717e+17
19122.0	7.755529389954387e+17
19123.0	7.754038479858345e+17
19124.0	7.75253538111488e+17
19125.0	7.751048213736105e+17
19126.0	7.749521955444051e+17
19127.0	7.747290787042642e+17
19128.0	7.746519658659839e+17
19129.0	7.745025881057961e+17
19130.0	7.743584750359891e+17
19131.0	7.742093262847999e+17
19132.0	7.740595685206696e+17
19133.0	7.739062502118739e+17
19134.0	7.737599644925951e+17
19135.0	7.736108765588138e+17
19136.0	7.734611225695572e+17
19137.0	7.733049954751827e+17
19138.0	7.731608066282836e+17
19139.0	7.730120315895807e+17
19140.0	7.728623154888701e+17
19141.0	7.727123779289088e+17
19142.0	7.725609564241919e+17
19143.0	7.724100870296914e+17
19144.0	7.722604226587305e+17
19145.0	7.721119147971926e+17
19146.0	7.719291358369108e+17
19147.0	7.718079863018836e+17
19148.0	7.71660978323456e+17
19149.0	7.715106460794879e+17
19150.0	7.71360019395379e+17
19151.0	7.712096541562196e+17
19152.0	7.710589159036244e+17
19153.0	7.709069025826131e+17
19154.0	7.707522681012221e+17
19155.0	7.706062627012607e+17
19156.0	7.704555223515135e+17
19157.0	7.703035838289238e+17
19158.0	7.701491991882408e+17
19159.0	7.700011919867901e+17
19160.0	7.69851270784614e+17
19161.0	7.696991779116374e+17
19162.0	7.695350188649128e+17
19163.0	7.693942522904575e+17
19164.0	7.692464198516735e+17
19165.0	7.690951510196221e+17
19166.0	7.689389818423978e+17
19167.0	7.687910630009513e+17
19168.0	7.686259022146217e+17
19169.0	7.684614532016808e+17
19170.0	7.683102209998847e+17
19171.0	7.681580954113364e+17
19172.0	7.68006595612945e+17
19173.0	7.678546752656723e+17
19174.0	7.677002794401792e+17
19175.0	7.675504696666794e+17
19176.0	7.6739841635997e+17
19177.0	7.672337205821437e+17
19178.0	7.670811765418662e+17
19179.0	7.669285396676607e+17
19180.0	7.667763582948692e+17
19181.0	7.666192983872851e+17
19182.0	7.664701734038185e+17
19183.0	7.663184253026301e+17
19184.0	7.661651466999123e+17
19185.0	7.660122437670228e+17
19186.0	7.658592636589395e+17
19187.0	7.657012997390336e+17
19188.0	7.655488001583786e+17
19189.0	7.653955988706644e+17
19190.0	7.652419629132458e+17
19191.0	7.65086461469218e+17
19192.0	7.649344563970045e+17
19193.0	7.647803343197523e+17
19194.0	7.646253106069503e+17
19195.0	7.644712293542569e+17
19196.0	7.643153047049556e+17
19197.0	7.641581542004051e+17
19198.0	7.639931288900947e+17
19199.0	7.637559839206058e+17
19200.0	7.636163882560169e+17
19201.0	7.635308793997994e+17
19202.0	7.633856781877247e+17
19203.0	7.632336534022824e+17
19204.0	7.63078753840879e+17
19205.0	7.6291840685725e+17
19206.0	7.627318762318506e+17
19207.0	7.625709673512957e+17
19208.0	7.62412904865246e+17
19209.0	7.622652129356458e+17
19210.0	7.621102648601258e+17
19211.0	7.619542131234131e+17
19212.0	7.617978937901055e+17
19213.0	7.616369263291049e+17
19214.0	7.614799905729194e+17
19215.0	7.613276482786644e+17
19216.0	7.61170945585971e+17
19217.0	7.610121159617193e+17
19218.0	7.608221851538772e+17
19219.0	7.606873683394557e+17
19220.0	7.605399027624617e+17
19221.0	7.603715491321172e+17
19222.0	7.602239732449279e+17
19223.0	7.600681930194941e+17
19224.0	7.599070095518378e+17
19225.0	7.597460265719123e+17
19226.0	7.595921357406207e+17
19227.0	7.594333700095999e+17
19228.0	7.592758298542076e+17
19229.0	7.591165394157565e+17
19230.0	7.589570168924841e+17
19231.0	7.587825173484883e+17
19232.0	7.585875676364799e+17
19233.0	7.584241248370687e+17
19234.0	7.582669068042237e+17
19235.0	7.581059948478464e+17
19236.0	7.579465050401449e+17
19237.0	7.577849092724051e+17
19238.0	7.57619602244676e+17
19239.0	7.574629263955283e+17
19240.0	7.573005009944575e+17
19241.0	7.571375970233002e+17
19242.0	7.569759793053693e+17
19243.0	7.568045066507603e+17
19244.0	7.566514313319764e+17
19245.0	7.564881440014335e+17
19246.0	7.563240324901545e+17
19247.0	7.561606403020115e+17
19248.0	7.559966554587135e+17
19249.0	7.557818457172649e+17
19250.0	7.556032164615508e+17
19251.0	7.554251607070036e+17
19252.0	7.552335024051539e+17
19253.0	7.550839402354003e+17
19254.0	7.549192128604842e+17
19255.0	7.547419067678717e+17
19256.0	7.54585227703091e+17
19257.0	7.544196885905405e+17
19258.0	7.54252399194931e+17
19259.0	7.540803766670678e+17
19260.0	7.539140231604906e+17
19261.0	7.537482514038781e+17
19262.0	7.535765235957757e+17
19263.0	7.533698382211754e+17
19264.0	7.531778161333587e+17
19265.0	7.530222456231254e+17
19266.0	7.528539252675923e+17
19267.0	7.526906905056596e+17
19268.0	7.525196087601833e+17
19269.0	7.523479284875263e+17
19270.0	7.521746589930836e+17
19271.0	7.519891031239338e+17
19272.0	7.518281799827453e+17
19273.0	7.516234129429844e+17
19274.0	7.514501950384808e+17
19275.0	7.513098863422121e+17
19276.0	7.511349297588905e+17
19277.0	7.50960218682163e+17
19278.0	7.507855547214505e+17
19279.0	7.506081820792148e+17
19280.0	7.504295925295786e+17
19281.0	7.502540255352147e+17
19282.0	7.500771960553471e+17
19283.0	7.498727017851562e+17
19284.0	7.49676845544243e+17
19285.0	7.494932651922772e+17
19286.0	7.493158714387113e+17
19287.0	7.491363051754836e+17
19288.0	7.489105151655935e+17
19289.0	7.486848360251391e+17
19290.0	7.48588067140403e+17
19291.0	7.483904348913664e+17
19292.0	7.482201661418153e+17
19293.0	7.480342991951187e+17
19294.0	7.478479322873855e+17
19295.0	7.476605766423892e+17
19296.0	7.474723218784255e+17
19297.0	7.472831309458089e+17
19298.0	7.470921574339923e+17
19299.0	7.469022396284928e+17
19300.0	7.467102192183977e+17
19301.0	7.465172205567999e+17
19302.0	7.462943576118612e+17
19303.0	7.460626509769386e+17
19304.0	7.45869251060258e+17
19305.0	7.45672595804433e+17
19306.0	7.45475071488819e+17
19307.0	7.45274180964625e+17
19308.0	7.450749487284223e+17
19309.0	7.448716647945556e+17
19310.0	7.446660299532969e+17
19311.0	7.444644600916649e+17
19312.0	7.442607377132202e+17
19313.0	7.440545433518079e+17
19314.0	7.437592900752723e+17
19315.0	7.435571235039916e+17
19316.0	7.433662337384449e+17
19317.0	7.43118101090577e+17
19318.0	7.428981470352723e+17
19319.0	7.426851401454931e+17
19320.0	7.4246952873274e+17
19321.0	7.422523159347197e+17
19322.0	7.420308267641513e+17
19323.0	7.418129818845181e+17
19324.0	7.415925273089363e+17
19325.0	7.413687133754708e+17
19326.0	7.41134320288836e+17
19327.0	7.408005402329084e+17
19328.0	7.405738924878505e+17
19329.0	7.403452070100991e+17
19330.0	7.401132763993427e+17
19331.0	7.398799366422528e+17
19332.0	7.396485519900671e+17
19333.0	7.394129633869823e+17
19334.0	7.391753857051305e+17
19335.0	7.388567505818964e+17
19336.0	7.38541192819507e+17
19337.0	7.382980957132116e+17
19338.0	7.380404394786815e+17
19339.0	7.378014197951142e+17
19340.0	7.375463058680489e+17
19341.0	7.37291263943202e+17
19342.0	7.37007220503347e+17
19343.0	7.365846364061693e+17
19344.0	7.363203270268244e+17
19345.0	7.359625199004329e+17
19346.0	7.357040074686461e+17
19347.0	7.354760682973866e+17
19348.0	7.352063140123987e+17
19349.0	7.347991348947622e+17
19350.0	7.344205305916074e+17
19351.0	7.341382098922153e+17
19352.0	7.338503787162281e+17
19353.0	7.335649462626985e+17
19354.0	7.332723507767977e+17
19355.0	7.327316171904339e+17
19356.0	7.324090128575148e+17
19357.0	7.321066120675327e+17
19358.0	7.31799629280051e+17
19359.0	7.314870448597674e+17
19360.0	7.310373964567892e+17
19361.0	7.30617122722065e+17
19362.0	7.302909115673257e+17
19363.0	7.299591001778858e+17
19364.0	7.296229529965906e+17
19365.0	7.292824459760982e+17
19366.0	7.289380894233939e+17
19367.0	7.285893513609215e+17
19368.0	7.282357920858111e+17
19369.0	7.278746188906492e+17
19370.0	7.274531260115625e+17
19371.0	7.270216313951574e+17
19372.0	7.266515183206399e+17
19373.0	7.26272785392162e+17
19374.0	7.258911393797459e+17
19375.0	7.255035085149523e+17
19376.0	7.251112112073386e+17
19377.0	7.247138063559338e+17
19378.0	7.241683060828842e+17
19379.0	7.237059508961279e+17
19380.0	7.232684294843049e+17
19381.0	7.228215644214611e+17
19382.0	7.22361197334801e+17
19383.0	7.218958625144832e+17
19384.0	7.213040492959059e+17
19385.0	7.207074098315264e+17
19386.0	7.202018140269225e+17
19387.0	7.196957681734995e+17
19388.0	7.191777635205119e+17
19389.0	7.186281185760595e+17
19390.0	7.178110976567977e+17
19391.0	7.17155629024324e+17
19392.0	7.166812424765437e+17
19393.0	7.161047153988947e+17
19394.0	7.154832341904041e+17
19395.0	7.145362824014505e+17
19396.0	7.139037591284394e+17
19397.0	7.132508574100136e+17
19398.0	7.125585142743039e+17
19399.0	7.116169439171927e+17
19400.0	7.107277654502058e+17
19401.0	7.100097988919293e+17
19402.0	7.092691000448339e+17
19403.0	7.085093618537812e+17
19404.0	7.073439378571268e+17
19405.0	7.065175088343721e+17
19406.0	7.056681619947519e+17
19407.0	7.048035666231296e+17
19408.0	7.038046128046074e+17
19409.0	7.025933175226367e+17
19410.0	7.016716423572138e+17
19411.0	7.007157527860563e+17
19412.0	6.996261014776489e+17
19413.0	6.985751473771859e+17
19414.0	6.971717184389117e+17
19415.0	6.959891793051647e+17
19416.0	6.948369063389866e+17
19417.0	6.934851562591569e+17
19418.0	6.922110551894698e+17
19419.0	6.909021239902207e+17
19420.0	6.895444170200403e+17
19421.0	6.880984987336704e+17
19422.0	6.864907981029375e+17
19423.0	6.849731219161087e+17
19424.0	6.833486377779199e+17
19425.0	6.81622933549875e+17
19426.0	6.798031494053887e+17
19427.0	6.77701415337984e+17
19428.0	6.756683229429759e+17
19429.0	6.735453652779005e+17
19430.0	6.712966230922582e+17
19431.0	6.689300780067497e+17
19432.0	6.664573776035837e+17
19433.0	6.638383741446826e+17
19434.0	6.609358583147178e+17
19435.0	6.578265949645481e+17
19436.0	6.545525915866454e+17
19437.0	6.510695739468457e+17
19438.0	6.471423535087613e+17
19439.0	6.431581124864684e+17
19440.0	6.387205598958932e+17
19441.0	6.338423684071421e+17
19442.0	6.285279493095424e+17
19443.0	6.226492342839978e+17
19444.0	6.161264866055505e+17
19445.0	6.088210006409219e+17
19446.0	6.005392279950676e+17
19447.0	5.910325097048741e+17
19448.0	5.79897305630857e+17
19449.0	5.6647223974297594e+17
19450.0	5.493344699067042e+17
19451.0	5.3978067761452397e+17
19452.0	5.585715931556522e+17
19453.0	5.73328230606439e+17
19454.0	5.852515279044602e+17
19455.0	5.952665546653696e+17
19456.0	6.03876840230093e+17
19457.0	6.113982193947985e+17
19458.0	6.179556286616919e+17
19459.0	6.239875543422294e+17
19460.0	6.29332073862485e+17
19461.0	6.341659527391914e+17
19462.0	6.385848400478208e+17
19463.0	6.425735768047613e+17
19464.0	6.462831972406611e+17
19465.0	6.496751201200812e+17
19466.0	6.527867275269459e+17
19467.0	6.557115654427988e+17
19468.0	6.584776864912726e+17
19469.0	6.609712692854781e+17
19470.0	6.632530809716735e+17
19471.0	6.654120771452927e+17
19472.0	6.674536114858665e+17
19473.0	6.693706065248255e+17
19474.0	6.71188870373922e+17
19475.0	6.729786475588265e+17
19476.0	6.746819323232255e+17
19477.0	6.761911980217684e+17
19478.0	6.776013976851796e+17
19479.0	6.789068781606228e+17
19480.0	6.801910345848148e+17
19481.0	6.814738871397033e+17
19482.0	6.825894284886015e+17
19483.0	6.836548791522644e+17
19484.0	6.846739547247955e+17
19485.0	6.857389726061908e+17
19486.0	6.867064586589524e+17
19487.0	6.875589505974271e+17
19488.0	6.88720133523593e+17
19489.0	6.895533663365802e+17
19490.0	6.903460965733714e+17
19491.0	6.911210370891773e+17
19492.0	6.917930078612138e+17
19493.0	6.925885169642152e+17
19494.0	6.934849723389267e+17
19495.0	6.940528629252095e+17
19496.0	6.946634072063997e+17
19497.0	6.951968754193748e+17
19498.0	6.959803820321449e+17
19499.0	6.964650309233321e+17
19500.0	6.970981446145364e+17
19501.0	6.975594615013375e+17
19502.0	6.980453987429033e+17
19503.0	6.988199546410323e+17
19504.0	6.992650548805632e+17
19505.0	6.996572603329193e+17
19506.0	7.000246773787306e+17
19507.0	7.00561531932945e+17
19508.0	7.010479162174121e+17
19509.0	7.013655033937919e+17
19510.0	7.016585419380052e+17
19511.0	7.017877133590527e+17
19512.0	7.023397656941906e+17
19513.0	7.027092735306409e+17
19514.0	7.029779245039615e+17
19515.0	7.032397033198932e+17
19516.0	7.034836913662634e+17
19517.0	7.037197047125331e+17
19518.0	7.04135711232273e+17
19519.0	7.043294831837181e+17
19520.0	7.045144781346132e+17
19521.0	7.046913659153066e+17
19522.0	7.048568766463999e+17
19523.0	7.050158256685055e+17
19524.0	7.052827071348736e+17
19525.0	7.054485893414911e+17
19526.0	7.055691452426921e+17
19527.0	7.056843806692692e+17
19528.0	7.057940288634879e+17
19529.0	7.058995671990271e+17
19530.0	7.06000120324642e+17
19531.0	7.060972366375593e+17
19532.0	7.062998155089236e+17
19533.0	7.063854190166015e+17
19534.0	7.06465942802705e+17
19535.0	7.065408730649939e+17
19536.0	7.066104978123433e+17
19537.0	7.066789930336253e+17
19538.0	7.067348171227135e+17
19539.0	7.067795551070892e+17
19540.0	7.068523773121875e+17
19541.0	7.069161391215954e+17
19542.0	7.071505875730432e+17
19543.0	7.072014651796138e+17
19544.0	7.072337832706045e+17
19545.0	7.072400831152127e+17
19546.0	7.072525599113215e+17
19547.0	7.075034658329939e+17
19548.0	7.075794157305853e+17
19549.0	7.07589311631633e+17
19550.0	7.076061439328255e+17
19551.0	7.076142933256874e+17
19552.0	7.076285282342228e+17
19553.0	7.078325780479999e+17
19554.0	7.078314534152874e+17
19555.0	7.078283348104531e+17
19556.0	7.078220791458474e+17
19557.0	7.078349297942527e+17
19558.0	7.07835329651234e+17
19559.0	7.079088093833901e+17
19560.0	7.079771106880169e+17
19561.0	7.079581134269097e+17
19562.0	7.079371168808959e+17
19563.0	7.079120847153833e+17
19564.0	7.078845816853844e+17
19565.0	7.078536400251561e+17
19566.0	7.078193552250195e+17
19567.0	7.079236632313855e+17
19568.0	7.078849154121727e+17
19569.0	7.078468529422335e+17
19570.0	7.078060687884287e+17
19571.0	7.077630451559081e+17
19572.0	7.077167786273449e+17
19573.0	7.076715631913642e+17
19574.0	7.076191276804778e+17
19575.0	7.076078174601216e+17
19576.0	7.076316437632339e+17
19577.0	7.075788107721386e+17
19578.0	7.075234912578217e+17
19579.0	7.07468232560913e+17
19580.0	7.074114984476672e+17
19581.0	7.073538513742505e+17
19582.0	7.072948180833619e+17
19583.0	7.072337323797162e+17
19584.0	7.071711725180244e+17
19585.0	7.071014525599743e+17
19586.0	7.070815556206591e+17
19587.0	7.070676568156841e+17
19588.0	7.0698196285085e+17
19589.0	7.069309928297811e+17
19590.0	7.06859354956322e+17
19591.0	7.067922993599828e+17
19592.0	7.067202666627071e+17
19593.0	7.066459835815251e+17
19594.0	7.065595626039977e+17
19595.0	7.064945135626922e+17
19596.0	7.064126977911465e+17
19597.0	7.063394438523561e+17
19598.0	7.062469683970045e+17
19599.0	7.061807455098195e+17
19600.0	7.06124870390033e+17
19601.0	7.060683095015423e+17
19602.0	7.059841573628586e+17
19603.0	7.058870037206356e+17
19604.0	7.058155912211114e+17
19605.0	7.057185824221866e+17
19606.0	7.056468241722025e+17
19607.0	7.055596505967274e+17
19608.0	7.054709358941523e+17
19609.0	7.053797205475327e+17
19610.0	7.05292268610082e+17
19611.0	7.052015544827901e+17
19612.0	7.051104880339626e+17
19613.0	7.050184227815423e+17
19614.0	7.049232769526441e+17
19615.0	7.04832015888111e+17
19616.0	7.047368120380074e+17
19617.0	7.046422065752745e+17
19618.0	7.045199241587369e+17
19619.0	7.044167474959699e+17
19620.0	7.043399546830847e+17
19621.0	7.042901157259944e+17
19622.0	7.041931021735254e+17
19623.0	7.040947414106111e+17
19624.0	7.039957024287402e+17
19625.0	7.038960610050047e+17
19626.0	7.037957940707327e+17
19627.0	7.036945727225855e+17
19628.0	7.035908496119123e+17
19629.0	7.034841447705257e+17
19630.0	7.033605018615805e+17
19631.0	7.031854732061353e+17
19632.0	7.031784984281087e+17
19633.0	7.030788693775699e+17
19634.0	7.029786713696938e+17
19635.0	7.028729922453504e+17
19636.0	7.027713446860116e+17
19637.0	7.026445443749203e+17
19638.0	7.025617203625983e+17
19639.0	7.024887726779049e+17
19640.0	7.024029154847401e+17
19641.0	7.022858703557972e+17
19642.0	7.02209219100672e+17
19643.0	7.021023650119679e+17
19644.0	7.019910654503593e+17
19645.0	7.018761613038931e+17
19646.0	7.017796777716394e+17
19647.0	7.016718215938047e+17
19648.0	7.015633538864467e+17
19649.0	7.014544431906815e+17
19650.0	7.013454070153215e+17
19651.0	7.012714639523839e+17
19652.0	7.011874105196541e+17
19653.0	7.01088015720994e+17
19654.0	7.00977824993553e+17
19655.0	7.008670725089961e+17
19656.0	7.007561879038634e+17
19657.0	7.006454081563305e+17
19658.0	7.005340661623465e+17
19659.0	7.00422397362176e+17
19660.0	7.003104976655699e+17
19661.0	7.001982410336938e+17
19662.0	7.000856366241108e+17
19663.0	6.999710927683583e+17
19664.0	6.998596014571519e+17
19665.0	6.997467948122111e+17
19666.0	6.996327934197759e+17
