# Flux units: erg / (cm m2 s)
# Wavelength units: Angstrom
wave	flux
19000.0	6.109518068274516e+17
19001.0	6.107640567780691e+17
19002.0	6.107342723263146e+17
19003.0	6.106195876118528e+17
19004.0	6.105112253213354e+17
19005.0	6.103911421881002e+17
19006.0	6.102785853139625e+17
19007.0	6.101630258774015e+17
19008.0	6.100219740203689e+17
19009.0	6.098391133410644e+17
19010.0	6.09702177284642e+17
19011.0	6.09679799554321e+17
19012.0	6.095418953826301e+17
19013.0	6.095009999399593e+17
19014.0	6.093551774116521e+17
19015.0	6.092558070098602e+17
19016.0	6.091763805934931e+17
19017.0	6.09063829311761e+17
19018.0	6.089516685197312e+17
19019.0	6.088448147106474e+17
19020.0	6.087297677481302e+17
19021.0	6.086326333997053e+17
19022.0	6.085189826510847e+17
19023.0	6.083791560900605e+17
19024.0	6.08280012600115e+17
19025.0	6.081808799454548e+17
19026.0	6.080690860851199e+17
19027.0	6.079632873532074e+17
19028.0	6.078483098763263e+17
19029.0	6.077282773543593e+17
19030.0	6.076367744882004e+17
19031.0	6.075246085231956e+17
19032.0	6.074042816309929e+17
19033.0	6.072038252871677e+17
19034.0	6.071068112453631e+17
19035.0	6.067614580561235e+17
19036.0	6.060289024502441e+17
19037.0	6.065975262008659e+17
19038.0	6.066674587402239e+17
19039.0	6.066158233627306e+17
19040.0	6.065248140962474e+17
19041.0	6.064184834566825e+17
19042.0	6.061477713324712e+17
19043.0	6.062065817660073e+17
19044.0	6.060903125833044e+17
19045.0	6.059784583249919e+17
19046.0	6.058418583022249e+17
19047.0	6.057249260699645e+17
19048.0	6.055778193855827e+17
19049.0	6.052535204140369e+17
19050.0	6.053440044138496e+17
19051.0	6.05153805799697e+17
19052.0	6.051120466100223e+17
19053.0	6.050723175333887e+17
19054.0	6.049817063063552e+17
19055.0	6.04659775648564e+17
19056.0	6.047506100125695e+17
19057.0	6.046701513080831e+17
19058.0	6.044520773495465e+17
19059.0	6.044142998825641e+17
19060.0	6.043440400476842e+17
19061.0	6.042366072848383e+17
19062.0	6.041218601451519e+17
19063.0	6.040095169708031e+17
19064.0	6.038660313688746e+17
19065.0	6.036893546315777e+17
19066.0	6.036010923545939e+17
19067.0	6.035701262275924e+17
19068.0	6.034719043660457e+17
19069.0	6.03363912921907e+17
19070.0	6.032393743892477e+17
19071.0	6.031415416892074e+17
19072.0	6.0299967739549e+17
19073.0	6.029261814453588e+17
19074.0	6.028198097715199e+17
19075.0	6.027093964663465e+17
19076.0	6.025962875518976e+17
19077.0	6.024798047393108e+17
19078.0	6.023578724772521e+17
19079.0	6.022687335208276e+17
19080.0	6.02150963965679e+17
19081.0	6.020111789282643e+17
19082.0	6.019359786926079e+17
19083.0	6.017608314082644e+17
19084.0	6.015486157040297e+17
19085.0	6.016003499971924e+17
19086.0	6.011619229652306e+17
19087.0	6.012980375672148e+17
19088.0	6.011735441233235e+17
19089.0	6.010344916211032e+17
19090.0	6.010415879640404e+17
19091.0	6.009387562128726e+17
19092.0	6.007218134581249e+17
19093.0	6.007387039902378e+17
19094.0	6.006309886711124e+17
19095.0	6.005244562855252e+17
19096.0	6.004144776500564e+17
19097.0	6.003059562556073e+17
19098.0	6.001510828386986e+17
19099.0	6.000320849816234e+17
19100.0	5.999659322092202e+17
19101.0	5.998511950659583e+17
19102.0	5.997237183534419e+17
19103.0	5.996412072361981e+17
19104.0	5.995421947483476e+17
19105.0	5.993323509230252e+17
19106.0	5.99318307484467e+17
19107.0	5.991792867191465e+17
19108.0	5.990570752562516e+17
19109.0	5.989763818804564e+17
19110.0	5.988722594021376e+17
19111.0	5.987404199144106e+17
19112.0	5.986295994122239e+17
19113.0	5.985507135018324e+17
19114.0	5.984156444699305e+17
19115.0	5.982946395684864e+17
19116.0	5.981775168449193e+17
19117.0	5.98017538400802e+17
19118.0	5.974639773046102e+17
19119.0	5.945870586828099e+17
19120.0	5.974688471012692e+17
19121.0	5.976033434708649e+17
19122.0	5.975389921520298e+17
19123.0	5.974366188382889e+17
19124.0	5.973037420292777e+17
19125.0	5.971708327843156e+17
19126.0	5.969448359952383e+17
19127.0	5.96576306340386e+17
19128.0	5.967085123403775e+17
19129.0	5.966769611778729e+17
19130.0	5.966671334342656e+17
19131.0	5.965884475222698e+17
19132.0	5.964884730008916e+17
19133.0	5.963561257926655e+17
19134.0	5.962725857427455e+17
19135.0	5.961664889356287e+17
19136.0	5.960532333603497e+17
19137.0	5.95928350335522e+17
19138.0	5.95832989548544e+17
19139.0	5.957399865895593e+17
19140.0	5.956371913288362e+17
19141.0	5.955303435315882e+17
19142.0	5.953991367546195e+17
19143.0	5.952990877144404e+17
19144.0	5.951738529273172e+17
19145.0	5.950917014716413e+17
19146.0	5.945108394409989e+17
19147.0	5.9486182572032e+17
19148.0	5.94735406112222e+17
19149.0	5.94622955913216e+17
19150.0	5.945579275638099e+17
19151.0	5.944463206995284e+17
19152.0	5.943364056776704e+17
19153.0	5.941362466400936e+17
19154.0	5.940972700215977e+17
19155.0	5.940041287204864e+17
19156.0	5.93901158277666e+17
19157.0	5.93767254982656e+17
19158.0	5.936262573719551e+17
19159.0	5.935713470119936e+17
19160.0	5.934553125705044e+17
19161.0	5.933457840537599e+17
19162.0	5.932258230446761e+17
19163.0	5.931266837490346e+17
19164.0	5.930306556482899e+17
19165.0	5.928385609990141e+17
19166.0	5.927879697235967e+17
19167.0	5.927056574163625e+17
19168.0	5.92610647482914e+17
19169.0	5.925062516757844e+17
19170.0	5.924042154442751e+17
19171.0	5.922928552749738e+17
19172.0	5.921843859597994e+17
19173.0	5.920796366427476e+17
19174.0	5.919611344125951e+17
19175.0	5.918594176472404e+17
19176.0	5.917556098116266e+17
19177.0	5.915355148976127e+17
19178.0	5.915428560480938e+17
19179.0	5.914339423464105e+17
19180.0	5.913142794824361e+17
19181.0	5.911732757200895e+17
19182.0	5.910837381649747e+17
19183.0	5.910014517226154e+17
19184.0	5.908964232047274e+17
19185.0	5.907818857802409e+17
19186.0	5.906812604426921e+17
19187.0	5.905198864138239e+17
19188.0	5.904611931411795e+17
19189.0	5.903505905330857e+17
19190.0	5.902404721573887e+17
19191.0	5.901023244364457e+17
19192.0	5.900103281104212e+17
19193.0	5.898760077617834e+17
19194.0	5.897336728671574e+17
19195.0	5.896304647471103e+17
19196.0	5.894801462744403e+17
19197.0	5.893248878204244e+17
19198.0	5.891332725101908e+17
19199.0	5.888734982919508e+17
19200.0	5.888011979281748e+17
19201.0	5.888187643024724e+17
19202.0	5.88793883271714e+17
19203.0	5.887354344570879e+17
19204.0	5.886621994625706e+17
19205.0	5.885689814056959e+17
19206.0	5.884769150347945e+17
19207.0	5.882851559298386e+17
19208.0	5.882309548266836e+17
19209.0	5.881718283523412e+17
19210.0	5.880843760653652e+17
19211.0	5.879939894433108e+17
19212.0	5.878832987548329e+17
19213.0	5.87704593442406e+17
19214.0	5.876410550495914e+17
19215.0	5.875516236103679e+17
19216.0	5.874316075160916e+17
19217.0	5.872740926663338e+17
19218.0	5.870871367385087e+17
19219.0	5.869361792636243e+17
19220.0	5.869618829372073e+17
19221.0	5.868568200260265e+17
19222.0	5.867793512311466e+17
19223.0	5.866848202872148e+17
19224.0	5.86566761394995e+17
19225.0	5.864857314962089e+17
19226.0	5.863825165254655e+17
19227.0	5.862865437895338e+17
19228.0	5.862024591791444e+17
19229.0	5.860985018165929e+17
19230.0	5.859918924655273e+17
19231.0	5.858783792900777e+17
19232.0	5.857803787479721e+17
19233.0	5.856332226407081e+17
19234.0	5.85565477081361e+17
19235.0	5.854355913004372e+17
19236.0	5.853581071963476e+17
19237.0	5.852454773413206e+17
19238.0	5.850945284647593e+17
19239.0	5.850412620622505e+17
19240.0	5.849348710247081e+17
19241.0	5.848168708527444e+17
19242.0	5.847137342455807e+17
19243.0	5.844928593308328e+17
19244.0	5.845147510811306e+17
19245.0	5.844016778881705e+17
19246.0	5.84298356871441e+17
19247.0	5.841853512766803e+17
19248.0	5.840889087087956e+17
19249.0	5.839794008839508e+17
19250.0	5.838479690825727e+17
19251.0	5.836905698557946e+17
19252.0	5.834222163984383e+17
19253.0	5.835438555485524e+17
19254.0	5.834510374185641e+17
19255.0	5.83188243441254e+17
19256.0	5.832296934408191e+17
19257.0	5.831301542182911e+17
19258.0	5.830232602836991e+17
19259.0	5.828477185250644e+17
19260.0	5.82763661177651e+17
19261.0	5.826762907495081e+17
19262.0	5.825169190114644e+17
19263.0	5.823775037718525e+17
19264.0	5.821872170773161e+17
19265.0	5.821267442313897e+17
19266.0	5.820256777229652e+17
19267.0	5.82038159622144e+17
19268.0	5.819393602049363e+17
19269.0	5.81829171225122e+17
19270.0	5.816953177724244e+17
19271.0	5.815443868614656e+17
19272.0	5.814905635252906e+17
19273.0	5.812777750189398e+17
19274.0	5.810148165550071e+17
19275.0	5.81212708151842e+17
19276.0	5.810952923163305e+17
19277.0	5.809926054084607e+17
19278.0	5.808850555546282e+17
19279.0	5.807595213641043e+17
19280.0	5.806522549753174e+17
19281.0	5.805583370988201e+17
19282.0	5.804623189245951e+17
19283.0	5.803529604169727e+17
19284.0	5.802244621817174e+17
19285.0	5.801000875764393e+17
19286.0	5.799660765577215e+17
19287.0	5.798154232397823e+17
19288.0	5.792665031409661e+17
19289.0	5.790493816389631e+17
19290.0	5.794824001858217e+17
19291.0	5.7927561834223e+17
19292.0	5.793934211721898e+17
19293.0	5.793003250297514e+17
19294.0	5.791904235694761e+17
19295.0	5.790975434336938e+17
19296.0	5.789390797624662e+17
19297.0	5.78859378409472e+17
19298.0	5.787575684606634e+17
19299.0	5.786189173533354e+17
19300.0	5.785646350903978e+17
19301.0	5.784601572147199e+17
19302.0	5.783422245710506e+17
19303.0	5.782025887110484e+17
19304.0	5.781329109756586e+17
19305.0	5.780147221998248e+17
19306.0	5.779115892976297e+17
19307.0	5.777794350972927e+17
19308.0	5.776740704059391e+17
19309.0	5.775734916251648e+17
19310.0	5.77444489723904e+17
19311.0	5.773208881987581e+17
19312.0	5.772003896197117e+17
19313.0	5.769681661766314e+17
19314.0	5.7388488919613504e+17
19315.0	5.739173186458975e+17
19316.0	5.765904379237719e+17
19317.0	5.766683079038292e+17
19318.0	5.766016482497876e+17
19319.0	5.765205104874835e+17
19320.0	5.764003762536447e+17
19321.0	5.762689922673322e+17
19322.0	5.7620387101409274e+17
19323.0	5.7609411537578656e+17
19324.0	5.759934701851988e+17
19325.0	5.7589200123330554e+17
19326.0	5.757843166025043e+17
19327.0	5.7567743811693216e+17
19328.0	5.754870629924864e+17
19329.0	5.754652101793108e+17
19330.0	5.7535369300322963e+17
19331.0	5.752177641390078e+17
19332.0	5.751423653729619e+17
19333.0	5.7502405719927456e+17
19334.0	5.749241619502421e+17
19335.0	5.746424574640129e+17
19336.0	5.7470338441325216e+17
19337.0	5.74593631850769e+17
19338.0	5.7432677603956006e+17
19339.0	5.743540944502783e+17
19340.0	5.741627895185407e+17
19341.0	5.7398963606650886e+17
19342.0	5.73895734198272e+17
19343.0	5.7381771070668794e+17
19344.0	5.735252877464918e+17
19345.0	5.7303675087530656e+17
19346.0	5.730201257727316e+17
19347.0	5.7321628833764685e+17
19348.0	5.733024619910485e+17
19349.0	5.732100407121236e+17
19350.0	5.730907201033556e+17
19351.0	5.730116782347604e+17
19352.0	5.7281026489057254e+17
19353.0	5.728349911515135e+17
19354.0	5.7272861290659834e+17
19355.0	5.7253972368425e+17
19356.0	5.7250792044407456e+17
19357.0	5.723929357669716e+17
19358.0	5.722759083240105e+17
19359.0	5.7213302460470586e+17
19360.0	5.719650325233664e+17
19361.0	5.7193279831845536e+17
19362.0	5.7182658882437114e+17
19363.0	5.7171374561908045e+17
19364.0	5.7159997756975776e+17
19365.0	5.714803814651221e+17
19366.0	5.7136812707020794e+17
19367.0	5.7125092766078285e+17
19368.0	5.711299636538026e+17
19369.0	5.7099594403676154e+17
19370.0	5.70883114602769e+17
19371.0	5.707343634715988e+17
19372.0	5.706585273794558e+17
19373.0	5.705252786754901e+17
19374.0	5.704146934038528e+17
19375.0	5.7029743981800096e+17
19376.0	5.701743721578494e+17
19377.0	5.700461882856788e+17
19378.0	5.6992177760938656e+17
19379.0	5.697988621325653e+17
19380.0	5.6967093614018554e+17
19381.0	5.695372201208489e+17
19382.0	5.693403672434005e+17
19383.0	5.6924196209076883e+17
19384.0	5.691386078691328e+17
19385.0	5.690099691945983e+17
19386.0	5.688774656786431e+17
19387.0	5.6873510659686394e+17
19388.0	5.685841605864106e+17
19389.0	5.684169313091582e+17
19390.0	5.681510312400213e+17
19391.0	5.673703817871357e+17
19392.0	5.676656686181034e+17
19393.0	5.678107706348884e+17
19394.0	5.677179724278442e+17
19395.0	5.675587936277845e+17
19396.0	5.674336656556031e+17
19397.0	5.672761250807807e+17
19398.0	5.670408853039786e+17
19399.0	5.6676371905467706e+17
19400.0	5.666576188921173e+17
19401.0	5.666093495833941e+17
19402.0	5.664720846935381e+17
19403.0	5.6629534343386445e+17
19404.0	5.661335719946922e+17
19405.0	5.659320169529343e+17
19406.0	5.6573537987242656e+17
19407.0	5.6548140784462496e+17
19408.0	5.6518310474984096e+17
19409.0	5.6506944652137805e+17
19410.0	5.6495178489965216e+17
19411.0	5.647619323854846e+17
19412.0	5.6454626532829856e+17
19413.0	5.6429636974455456e+17
19414.0	5.6408326449834656e+17
19415.0	5.638352186725717e+17
19416.0	5.634891397988348e+17
19417.0	5.6333124151978656e+17
19418.0	5.6305374524866554e+17
19419.0	5.627710917312511e+17
19420.0	5.6247688584232954e+17
19421.0	5.621695498944511e+17
19422.0	5.618137265340415e+17
19423.0	5.614958293286911e+17
19424.0	5.6113984232052045e+17
19425.0	5.6075937183170554e+17
19426.0	5.6036507461003936e+17
19427.0	5.5992958540840954e+17
19428.0	5.5946426834397856e+17
19429.0	5.5895384573433165e+17
19430.0	5.583823285430954e+17
19431.0	5.577773485654016e+17
19432.0	5.5728696997533005e+17
19433.0	5.566821247746048e+17
19434.0	5.5600284990177274e+17
19435.0	5.552197634883583e+17
19436.0	5.5433421253509114e+17
19437.0	5.532873160043177e+17
19438.0	5.511278432179541e+17
19439.0	5.509267362676734e+17
19440.0	5.504035234075988e+17
19441.0	5.4924763942529683e+17
19442.0	5.478649956401152e+17
19443.0	5.4630920693131936e+17
19444.0	5.445144798385491e+17
19445.0	5.423786471282006e+17
19446.0	5.39868461531136e+17
19447.0	5.3676399317920403e+17
19448.0	5.327665318505131e+17
19449.0	5.272572570632192e+17
19450.0	5.179790981420367e+17
19451.0	5.1061258337648666e+17
19452.0	5.2335125546926086e+17
19453.0	5.299785512779777e+17
19454.0	5.343609675055102e+17
19455.0	5.3761120476856314e+17
19456.0	5.400907531419648e+17
19457.0	5.418772445091156e+17
19458.0	5.3567916804669965e+17
19459.0	5.433557659593402e+17
19460.0	5.4663161329309e+17
19461.0	5.4795001690849274e+17
19462.0	5.490008467876522e+17
19463.0	5.49864684528162e+17
19464.0	5.506386824440489e+17
19465.0	5.513648808132607e+17
19466.0	5.519691065851902e+17
19467.0	5.525529911012009e+17
19468.0	5.5303620959491405e+17
19469.0	5.5337078719774694e+17
19470.0	5.5384283276465485e+17
19471.0	5.5423222202149536e+17
19472.0	5.5454167043058336e+17
19473.0	5.548252778026324e+17
19474.0	5.5499148933201894e+17
19475.0	5.550493778575358e+17
19476.0	5.554435774917287e+17
19477.0	5.557095557846356e+17
19478.0	5.559093591452329e+17
19479.0	5.560063192902312e+17
19480.0	5.5617199450794656e+17
19481.0	5.5628884991453856e+17
19482.0	5.5640820463697914e+17
19483.0	5.564975969293652e+17
19484.0	5.5655943921554765e+17
19485.0	5.566139911023274e+17
19486.0	5.566051016245248e+17
19487.0	5.5669224339319456e+17
19488.0	5.566844531725653e+17
19489.0	5.5653162433904634e+17
19490.0	5.5642307526219085e+17
19491.0	5.566722502645076e+17
19492.0	5.5678386279109965e+17
19493.0	5.567984651905706e+17
19494.0	5.567832105768276e+17
19495.0	5.567318457319423e+17
19496.0	5.565726263170388e+17
19497.0	5.5652838249157965e+17
19498.0	5.559896493086035e+17
19499.0	5.5540259382886394e+17
19500.0	5.563963316109311e+17
19501.0	5.565560519655423e+17
19502.0	5.5657314151738016e+17
19503.0	5.565530628947966e+17
19504.0	5.565115775931732e+17
19505.0	5.5646322663533216e+17
19506.0	5.5641678953840634e+17
19507.0	5.563375160743253e+17
19508.0	5.5626356881708365e+17
19509.0	5.561168236118015e+17
19510.0	5.556713896454825e+17
19511.0	5.5169947155824544e+17
19512.0	5.550132874794324e+17
19513.0	5.55234886960196e+17
19514.0	5.5531131123357e+17
19515.0	5.5562688514402976e+17
19516.0	5.556951190601728e+17
19517.0	5.5568437646895776e+17
19518.0	5.55638648419123e+17
19519.0	5.5557905588770125e+17
19520.0	5.554600416728404e+17
19521.0	5.55470294299443e+17
19522.0	5.5536105456052896e+17
19523.0	5.553091873079296e+17
19524.0	5.551997676333739e+17
19525.0	5.551680711382356e+17
19526.0	5.5509663025725434e+17
19527.0	5.550046741266432e+17
19528.0	5.549221797167102e+17
19529.0	5.548345068792489e+17
19530.0	5.547667391599955e+17
19531.0	5.546872651382783e+17
19532.0	5.546009768405674e+17
19533.0	5.5451601282443936e+17
19534.0	5.544293945748139e+17
19535.0	5.5432101180211194e+17
19536.0	5.54216243400977e+17
19537.0	5.5412889205691725e+17
19538.0	5.53901352882449e+17
19539.0	5.5384427217988256e+17
19540.0	5.5383486162971296e+17
19541.0	5.5377620254064634e+17
19542.0	5.536935500753577e+17
19543.0	5.535293720843604e+17
19544.0	5.5345301415089485e+17
19545.0	5.531943707170132e+17
19546.0	5.5308629147211085e+17
19547.0	5.5319021989396474e+17
19548.0	5.5315953842039456e+17
19549.0	5.530117381379411e+17
19550.0	5.5301219860261536e+17
19551.0	5.529323845626538e+17
19552.0	5.5284060081793696e+17
19553.0	5.527449751606613e+17
19554.0	5.526510145721684e+17
19555.0	5.5255055511934285e+17
19556.0	5.524750345087658e+17
19557.0	5.523915695368874e+17
19558.0	5.522999481117353e+17
19559.0	5.522078672704853e+17
19560.0	5.5207309959932576e+17
19561.0	5.5200288897761286e+17
19562.0	5.5190156305148576e+17
19563.0	5.518385133649919e+17
19564.0	5.517440938497364e+17
19565.0	5.516500281939284e+17
19566.0	5.5154632151094605e+17
19567.0	5.514630264083796e+17
19568.0	5.513500629663743e+17
19569.0	5.51263714480401e+17
19570.0	5.511807260513619e+17
19571.0	5.5108744794603514e+17
19572.0	5.509656559834454e+17
19573.0	5.5088766283066016e+17
19574.0	5.5072592431677414e+17
19575.0	5.507077691321002e+17
19576.0	5.5060730387715405e+17
19577.0	5.5048929629525325e+17
19578.0	5.5041526242563405e+17
19579.0	5.503050862384468e+17
19580.0	5.5021527500499616e+17
19581.0	5.501377381225813e+17
19582.0	5.5004573424680954e+17
19583.0	5.4994968804065274e+17
19584.0	5.498514360500224e+17
19585.0	5.4966053356175334e+17
19586.0	5.4954141351062195e+17
19587.0	5.49517186441762e+17
19588.0	5.4935090920161274e+17
19589.0	5.493020617080831e+17
19590.0	5.4920002841258656e+17
19591.0	5.491655626282324e+17
19592.0	5.490839181241002e+17
19593.0	5.4897006269344403e+17
19594.0	5.486941907364518e+17
19595.0	5.487814059753471e+17
19596.0	5.486871045297492e+17
19597.0	5.48572462387473e+17
19598.0	5.482863008240981e+17
19599.0	5.48368240677137e+17
19600.0	5.483011753639935e+17
19601.0	5.481684213082794e+17
19602.0	5.480527310793386e+17
19603.0	5.4792042301794976e+17
19604.0	5.478517356975446e+17
19605.0	5.476632176011952e+17
19606.0	5.477224360706047e+17
19607.0	5.476388215018836e+17
19608.0	5.475423289518761e+17
19609.0	5.4743010692300794e+17
19610.0	5.473299346401964e+17
19611.0	5.4721503951148365e+17
19612.0	5.471700206485503e+17
19613.0	5.470631266440532e+17
19614.0	5.469377752552787e+17
19615.0	5.468585568064852e+17
19616.0	5.467070900032852e+17
19617.0	5.4653401799065594e+17
19618.0	5.462777855126185e+17
19619.0	5.4610952702306976e+17
19620.0	5.461168088241492e+17
19621.0	5.4612936307507194e+17
19622.0	5.4616054681654605e+17
19623.0	5.460823317151743e+17
19624.0	5.459774672644777e+17
19625.0	5.4589942028479136e+17
19626.0	5.457874843074558e+17
19627.0	5.456837184148821e+17
19628.0	5.455483249535657e+17
19629.0	5.451876486436178e+17
19630.0	5.452011619221503e+17
19631.0	5.45002369388817e+17
19632.0	5.450809973495124e+17
19633.0	5.4503077272616954e+17
19634.0	5.450080332371285e+17
19635.0	5.448975995895806e+17
19636.0	5.4476849982122656e+17
19637.0	5.444126923991726e+17
19638.0	5.446471954464767e+17
19639.0	5.445384681117013e+17
19640.0	5.442391602014889e+17
19641.0	5.439267573246637e+17
19642.0	5.442234017819306e+17
19643.0	5.441490489354921e+17
19644.0	5.4402664089954976e+17
19645.0	5.4393475628182176e+17
19646.0	5.4381074853833363e+17
19647.0	5.4380722700069536e+17
19648.0	5.4371706750020256e+17
19649.0	5.436232905523198e+17
19650.0	5.435334387040255e+17
19651.0	5.4343404712099834e+17
19652.0	5.433373649185449e+17
19653.0	5.432485825478655e+17
19654.0	5.4314550410171725e+17
19655.0	5.4304587714833043e+17
19656.0	5.4296007084605434e+17
19657.0	5.428591379961172e+17
19658.0	5.427686092570623e+17
19659.0	5.426724551174825e+17
19660.0	5.42579788751394e+17
