# Flux units: erg / (cm m2 s)
# Wavelength units: Angstrom
wave	flux
19000.0	4.6224224861989536e+17
19001.0	4.62150537646353e+17
19002.0	4.6207169270033056e+17
19003.0	4.619858036304553e+17
19004.0	4.6190017719391565e+17
19005.0	4.6181483331365536e+17
19006.0	4.617297572397055e+17
19007.0	4.6163775972529485e+17
19008.0	4.6155476360669856e+17
19009.0	4.6146995470991354e+17
19010.0	4.613530321944574e+17
19011.0	4.6130043848840525e+17
19012.0	4.611892853779113e+17
19013.0	4.6113195951827616e+17
19014.0	4.610433097575082e+17
19015.0	4.609588738042538e+17
19016.0	4.6087244877223245e+17
19017.0	4.607905847661909e+17
19018.0	4.607037859517781e+17
19019.0	4.6062008344248314e+17
19020.0	4.605336634436266e+17
19021.0	4.6044977995011405e+17
19022.0	4.60364821176866e+17
19023.0	4.6027754721771514e+17
19024.0	4.6019323527604896e+17
19025.0	4.6010769069834234e+17
19026.0	4.600206837765461e+17
19027.0	4.5991963956783776e+17
19028.0	4.5985444547351885e+17
19029.0	4.597679312426325e+17
19030.0	4.5968472589817146e+17
19031.0	4.59600120914466e+17
19032.0	4.595147404738559e+17
19033.0	4.5942387262532256e+17
19034.0	4.593440002146304e+17
19035.0	4.592577986691071e+17
19036.0	4.576482374451191e+17
19037.0	4.5908953801250125e+17
19038.0	4.590038147574443e+17
19039.0	4.589202127716351e+17
19040.0	4.5883568111834445e+17
19041.0	4.5875029075121485e+17
19042.0	4.5865833294288205e+17
19043.0	4.585812140228607e+17
19044.0	4.5849556053306016e+17
19045.0	4.5841079329969485e+17
19046.0	4.5832251033081165e+17
19047.0	4.5824148357775354e+17
19048.0	4.581414471903914e+17
19049.0	4.580650532558164e+17
19050.0	4.5798437211340794e+17
19051.0	4.576816302566054e+17
19052.0	4.577956483563519e+17
19053.0	4.5773210884505594e+17
19054.0	4.5764898969354234e+17
19055.0	4.5754732165201926e+17
19056.0	4.574777907871743e+17
19057.0	4.573947100135423e+17
19058.0	4.573067364444842e+17
19059.0	4.5722528396957005e+17
19060.0	4.571397579866111e+17
19061.0	4.5705715033047034e+17
19062.0	4.569722852300117e+17
19063.0	4.5688796266277536e+17
19064.0	4.5679492719793485e+17
19065.0	4.5670791419439776e+17
19066.0	4.56630370251571e+17
19067.0	4.56549405364497e+17
19068.0	4.564657881393834e+17
19069.0	4.563815056976553e+17
19070.0	4.5629507968696314e+17
19071.0	4.562115380991317e+17
19072.0	4.5612763244571296e+17
19073.0	4.560437382567253e+17
19074.0	4.5595979107969696e+17
19075.0	4.558754951462911e+17
19076.0	4.5578972037119994e+17
19077.0	4.557060411402923e+17
19078.0	4.556196570027349e+17
19079.0	4.5553828757504e+17
19080.0	4.5545333628163405e+17
19081.0	4.5536714703940256e+17
19082.0	4.55282701509154e+17
19083.0	4.551956260104874e+17
19084.0	4.5510342654033914e+17
19085.0	4.550325228797951e+17
19086.0	4.549241504530431e+17
19087.0	4.5482513971281914e+17
19088.0	4.5477566398245536e+17
19089.0	4.546655492418218e+17
19090.0	4.546112502016682e+17
19091.0	4.5452736894511776e+17
19092.0	4.5443174685300045e+17
19093.0	4.5436108380569594e+17
19094.0	4.5427687287685114e+17
19095.0	4.541930427908096e+17
19096.0	4.54107680735232e+17
19097.0	4.5402518024355834e+17
19098.0	4.539404197210794e+17
19099.0	4.538563107837268e+17
19100.0	4.537707771112106e+17
19101.0	4.5368892449969485e+17
19102.0	4.5359786832691194e+17
19103.0	4.535217073160191e+17
19104.0	4.534383570583551e+17
19105.0	4.533528343609344e+17
19106.0	4.532635179854506e+17
19107.0	4.5318535887803725e+17
19108.0	4.5310271480135674e+17
19109.0	4.5291049089761254e+17
19110.0	4.5293522981137056e+17
19111.0	4.528513087788372e+17
19112.0	4.527680068255744e+17
19113.0	4.526846945263615e+17
19114.0	4.5260066122629126e+17
19115.0	4.5251135988039674e+17
19116.0	4.5243269158447776e+17
19117.0	4.523491264386389e+17
19118.0	4.5225558807674874e+17
19119.0	4.517377751034531e+17
19120.0	4.520872347260244e+17
19121.0	4.5200827597455354e+17
19122.0	4.5193288426891936e+17
19123.0	4.5184934806377805e+17
19124.0	4.517593428437674e+17
19125.0	4.5168194395395405e+17
19126.0	4.5159823242690554e+17
19127.0	4.513938444124159e+17
19128.0	4.513872609629523e+17
19129.0	4.5134350402628256e+17
19130.0	4.5126449948699296e+17
19131.0	4.511806038299989e+17
19132.0	4.510985775742976e+17
19133.0	4.509993534838102e+17
19134.0	4.509110113752404e+17
19135.0	4.5084825053648205e+17
19136.0	4.507657870944938e+17
19137.0	4.506713056433493e+17
19138.0	4.50596478910464e+17
19139.0	4.505160694890496e+17
19140.0	4.504329439062698e+17
19141.0	4.5034977533187405e+17
19142.0	4.502645472144042e+17
19143.0	4.501792848434518e+17
19144.0	4.5009804481003514e+17
19145.0	4.500167812885162e+17
19146.0	4.4989298780405766e+17
19147.0	4.49844433841903e+17
19148.0	4.497668164288512e+17
19149.0	4.4968347882400416e+17
19150.0	4.496013615519061e+17
19151.0	4.495186142953472e+17
19152.0	4.4943427823643296e+17
19153.0	4.493505144902996e+17
19154.0	4.492613491097599e+17
19155.0	4.4918673146292896e+17
19156.0	4.491040385226068e+17
19157.0	4.490201137851049e+17
19158.0	4.488647332768425e+17
19159.0	4.4885411266996896e+17
19160.0	4.4877045469020154e+17
19161.0	4.486861313540095e+17
19162.0	4.484381804593153e+17
19163.0	4.485231940381355e+17
19164.0	4.4844144369773216e+17
19165.0	4.483535092755114e+17
19166.0	4.4826321366985376e+17
19167.0	4.48177228550417e+17
19168.0	4.4810799296457376e+17
19169.0	4.480231673604778e+17
19170.0	4.479449575718911e+17
19171.0	4.4785134000756045e+17
19172.0	4.477789544295081e+17
19173.0	4.476964651925504e+17
19174.0	4.4761024323474765e+17
19175.0	4.4753169601440416e+17
19176.0	4.4744896203980794e+17
19177.0	4.473565845214549e+17
19178.0	4.4728166215843834e+17
19179.0	4.471856647460181e+17
19180.0	4.471148459502251e+17
19181.0	4.4702707957978445e+17
19182.0	4.469522759155711e+17
19183.0	4.4687108201949856e+17
19184.0	4.4678645941971616e+17
19185.0	4.467057861066751e+17
19186.0	4.466240344380757e+17
19187.0	4.465370767294464e+17
19188.0	4.4645847645115725e+17
19189.0	4.4637510997551776e+17
19190.0	4.462921095927125e+17
19191.0	4.4620834689515514e+17
19192.0	4.4612982435130016e+17
19193.0	4.460459052062036e+17
19194.0	4.459634856645972e+17
19195.0	4.458825894942038e+17
19196.0	4.45799457689873e+17
19197.0	4.457177009881087e+17
19198.0	4.45635624051234e+17
19199.0	4.445830921235111e+17
19200.0	4.44850750864316e+17
19201.0	4.453890827223039e+17
19202.0	4.4530729365449376e+17
19203.0	4.4522249007049376e+17
19204.0	4.4514071435455123e+17
19205.0	4.450602155944618e+17
19206.0	4.449776904962047e+17
19207.0	4.4489003597387085e+17
19208.0	4.44797986939426e+17
19209.0	4.4473148687865165e+17
19210.0	4.44649545277986e+17
19211.0	4.445683703261865e+17
19212.0	4.4448612981145594e+17
19213.0	4.443904532632916e+17
19214.0	4.4430362921314976e+17
19215.0	4.4423679018270714e+17
19216.0	4.4415800053159245e+17
19217.0	4.440758296423081e+17
19218.0	4.439384070466217e+17
19219.0	4.4390292344449696e+17
19220.0	4.4382822876228256e+17
19221.0	4.437257376585045e+17
19222.0	4.436669314891776e+17
19223.0	4.435835232802132e+17
19224.0	4.43500007067921e+17
19225.0	4.434111171133438e+17
19226.0	4.4333782507629216e+17
19227.0	4.432561287026004e+17
19228.0	4.431759374548992e+17
19229.0	4.430940629630976e+17
19230.0	4.4301021225506125e+17
19231.0	4.429284612156074e+17
19232.0	4.4284772638610765e+17
19233.0	4.427621079187455e+17
19234.0	4.4268339054946976e+17
19235.0	4.426011070431232e+17
19236.0	4.4252153627279354e+17
19237.0	4.4237571143761914e+17
19238.0	4.422061561391785e+17
19239.0	4.4213216756804256e+17
19240.0	4.4204615581477523e+17
19241.0	4.41966289625634e+17
19242.0	4.418861408103082e+17
19243.0	4.4179492196843514e+17
19244.0	4.4172389177972045e+17
19245.0	4.416419968057344e+17
19246.0	4.415595513293482e+17
19247.0	4.4147860259034445e+17
19248.0	4.4139733676195846e+17
19249.0	4.4131531595885216e+17
19250.0	4.4123287453695994e+17
19251.0	4.4114564405876045e+17
19252.0	4.410529257532074e+17
19253.0	4.4098803742365005e+17
19254.0	4.409076037451776e+17
19255.0	4.408146481818281e+17
19256.0	4.4074255529629005e+17
19257.0	4.406636241573204e+17
19258.0	4.405822942958934e+17
19259.0	4.404962146648063e+17
19260.0	4.403899985297407e+17
19261.0	4.403370282450943e+17
19262.0	4.4025267505943885e+17
19263.0	4.4017119602059936e+17
19264.0	4.400558209236991e+17
19265.0	4.399981326761983e+17
19266.0	4.399127869085013e+17
19267.0	4.398492141922985e+17
19268.0	4.397672997147989e+17
19269.0	4.396860808626174e+17
19270.0	4.396048437652138e+17
19271.0	4.394997779180203e+17
19272.0	4.3943968276916896e+17
19273.0	4.392258852530857e+17
19274.0	4.391999030078121e+17
19275.0	4.391977620253353e+17
19276.0	4.391150071491242e+17
19277.0	4.390339455134378e+17
19278.0	4.3895275126784e+17
19279.0	4.3886875732432205e+17
19280.0	4.387841034769748e+17
19281.0	4.3870809751551994e+17
19282.0	4.386278089599657e+17
19283.0	4.3853120386280083e+17
19284.0	4.384500436609706e+17
19285.0	4.383711790017193e+17
19286.0	4.3829976915858765e+17
19287.0	4.3822060174049274e+17
19288.0	4.377621538974375e+17
19289.0	4.370210527466818e+17
19290.0	4.379762937386325e+17
19291.0	4.378784660018518e+17
19292.0	4.3781341751978656e+17
19293.0	4.377314096491178e+17
19294.0	4.3764974822795936e+17
19295.0	4.375689502042794e+17
19296.0	4.374863103219029e+17
19297.0	4.374036354170879e+17
19298.0	4.373223126160726e+17
19299.0	4.3724202615767034e+17
19300.0	4.3716085763713696e+17
19301.0	4.370791851709781e+17
19302.0	4.369972598581929e+17
19303.0	4.369105182261246e+17
19304.0	4.368320531442346e+17
19305.0	4.3675176976165536e+17
19306.0	4.3666996552444576e+17
19307.0	4.365850454086997e+17
19308.0	4.3650530351076685e+17
19309.0	4.363898332730708e+17
19310.0	4.362953241395199e+17
19311.0	4.362574039263913e+17
19312.0	4.3617988696692045e+17
19313.0	4.360981833930068e+17
19314.0	4.340418693038071e+17
19315.0	4.341343340636874e+17
19316.0	4.3584978685351245e+17
19317.0	4.3577047172601165e+17
19318.0	4.356883388650836e+17
19319.0	4.356073074283861e+17
19320.0	4.355248400018091e+17
19321.0	4.354426649182206e+17
19322.0	4.3535444227741005e+17
19323.0	4.352622858687829e+17
19324.0	4.3519554148980045e+17
19325.0	4.350800808290985e+17
19326.0	4.3503179110809594e+17
19327.0	4.349483302606164e+17
19328.0	4.3486565731314336e+17
19329.0	4.347844567760896e+17
19330.0	4.3469903404291405e+17
19331.0	4.346161529880576e+17
19332.0	4.345358707239594e+17
19333.0	4.3445204993529165e+17
19334.0	4.343702892489386e+17
19335.0	4.3428496710915405e+17
19336.0	4.3420372393000954e+17
19337.0	4.3412091753376416e+17
19338.0	4.340240820994047e+17
19339.0	4.3395409356608845e+17
19340.0	4.3386086621184e+17
19341.0	4.3378451596793165e+17
19342.0	4.336756680469161e+17
19343.0	4.3361987499567776e+17
19344.0	4.335346052846933e+17
19345.0	4.33304562460262e+17
19346.0	4.3331712230359034e+17
19347.0	4.3327778784105805e+17
19348.0	4.3319916470381216e+17
19349.0	4.3311201356786336e+17
19350.0	4.3302706395217914e+17
19351.0	4.329422647022932e+17
19352.0	4.328536970799786e+17
19353.0	4.327747782443008e+17
19354.0	4.32689393050146e+17
19355.0	4.32597317591586e+17
19356.0	4.3251768369698125e+17
19357.0	4.324316924958036e+17
19358.0	4.32344016093184e+17
19359.0	4.3225086675298995e+17
19360.0	4.3216809558889805e+17
19361.0	4.320820141402793e+17
19362.0	4.319978104116565e+17
19363.0	4.3191002202112e+17
19364.0	4.318217344385022e+17
19365.0	4.3173375667514016e+17
19366.0	4.316453559162197e+17
19367.0	4.315565007044607e+17
19368.0	4.314673198749012e+17
19369.0	4.31372360552721e+17
19370.0	4.312720162335401e+17
19371.0	4.311935312986112e+17
19372.0	4.311061389202772e+17
19373.0	4.310129415553023e+17
19374.0	4.309224362344447e+17
19375.0	4.307196466692095e+17
19376.0	4.3056606943204685e+17
19377.0	4.3047146893257376e+17
19378.0	4.3037726898913274e+17
19379.0	4.3028229631508474e+17
19380.0	4.301865340633087e+17
19381.0	4.3008962487910394e+17
19382.0	4.299876470183253e+17
19383.0	4.298869751240021e+17
19384.0	4.297951297230165e+17
19385.0	4.296952894193663e+17
19386.0	4.2959465541358925e+17
19387.0	4.294925204761257e+17
19388.0	4.293896569880576e+17
19389.0	4.2928541602065056e+17
19390.0	4.291797429081429e+17
19391.0	4.276660322260287e+17
19392.0	4.289580227013289e+17
19393.0	4.288555866128383e+17
19394.0	4.285773338989908e+17
19395.0	4.284208472129536e+17
19396.0	4.283059023817386e+17
19397.0	4.281914210910207e+17
19398.0	4.280691351093247e+17
19399.0	4.278964746977278e+17
19400.0	4.278222069956607e+17
19401.0	4.276990577562964e+17
19402.0	4.2748604723145344e+17
19403.0	4.271918707725653e+17
19404.0	4.270558766170112e+17
19405.0	4.2691430697314976e+17
19406.0	4.2677109630784845e+17
19407.0	4.265446048705194e+17
19408.0	4.2613034912317446e+17
19409.0	4.2602322771749536e+17
19410.0	4.2585983350210554e+17
19411.0	4.254299703301461e+17
19412.0	4.2518156365441696e+17
19413.0	4.249140312320682e+17
19414.0	4.244235633732265e+17
19415.0	4.241419678689965e+17
19416.0	4.2356253295028896e+17
19417.0	4.230783095712427e+17
19418.0	4.225741856877228e+17
19419.0	4.2208305967267834e+17
19420.0	4.217853468562772e+17
19421.0	4.214679988950357e+17
19422.0	4.211290258014208e+17
19423.0	4.2077413595327136e+17
19424.0	4.2039507139515725e+17
19425.0	4.199912345785685e+17
19426.0	4.195593317864789e+17
19427.0	4.190963432598186e+17
19428.0	4.1858907120162125e+17
19429.0	4.180169709322238e+17
19430.0	4.174409673736192e+17
19431.0	4.166168128520197e+17
19432.0	4.1623143390904314e+17
19433.0	4.1555195812904954e+17
19434.0	4.1478390025639245e+17
19435.0	4.1392039806020256e+17
19436.0	4.1297222572878483e+17
19437.0	4.12106690203921e+17
19438.0	4.0835457783343776e+17
19439.0	4.094246864814079e+17
19440.0	4.072621303223627e+17
19441.0	4.035107822938799e+17
19442.0	3.995004055147862e+17
19443.0	3.968004786225151e+17
19444.0	3.9376957521701523e+17
19445.0	3.9040588433762995e+17
19446.0	3.8656387265331245e+17
19447.0	3.795744078517575e+17
19448.0	3.683431198228484e+17
19449.0	3.5454056884688346e+17
19450.0	3.067135978547884e+17
19451.0	2.9022859366672986e+17
19452.0	3.349603334225925e+17
19453.0	3.6323932559988096e+17
19454.0	3.734635943034881e+17
19455.0	3.8353634167794445e+17
19456.0	3.879382075921751e+17
19457.0	3.913714791088127e+17
19458.0	3.892112475728647e+17
19459.0	3.970487717025121e+17
19460.0	4.0000879332775354e+17
19461.0	4.042856419295224e+17
19462.0	4.069220896385702e+17
19463.0	4.085318886096893e+17
19464.0	4.096554324109996e+17
19465.0	4.1054619779290464e+17
19466.0	4.1132276241312416e+17
19467.0	4.119962193668778e+17
19468.0	4.126891682998955e+17
19469.0	4.1320213601320954e+17
19470.0	4.1373696353020576e+17
19471.0	4.142004356601174e+17
19472.0	4.146135993505108e+17
19473.0	4.1500561221440845e+17
19474.0	4.154156987536725e+17
19475.0	4.156760255015593e+17
19476.0	4.1601966818372256e+17
19477.0	4.162841213577897e+17
19478.0	4.1652002327538336e+17
19479.0	4.1672981788753914e+17
19480.0	4.169190973199701e+17
19481.0	4.1708930238600525e+17
19482.0	4.172423792427008e+17
19483.0	4.174421726767789e+17
19484.0	4.1774020572829e+17
19485.0	4.1821012023924096e+17
19486.0	4.184237298505048e+17
19487.0	4.1882381919627936e+17
19488.0	4.188986965404332e+17
19489.0	4.1926826547391136e+17
19490.0	4.19196042495044e+17
19491.0	4.1944448167662944e+17
19492.0	4.196504134746112e+17
19493.0	4.19657168261393e+17
19494.0	4.1965866667649696e+17
19495.0	4.1985601413229235e+17
19496.0	4.1988903127394995e+17
19497.0	4.19903312110114e+17
19498.0	4.197990312968194e+17
19499.0	4.176141935269186e+17
19500.0	4.1990869787607034e+17
19501.0	4.200513021848234e+17
19502.0	4.2001976891801594e+17
19503.0	4.1998793310207994e+17
19504.0	4.199522834055168e+17
19505.0	4.199157663268863e+17
19506.0	4.1987710484043085e+17
19507.0	4.19834287427857e+17
19508.0	4.1979327629230074e+17
19509.0	4.197487585787902e+17
19510.0	4.1983335286702086e+17
19511.0	4.162820723703778e+17
19512.0	4.194989374439413e+17
19513.0	4.191152550969331e+17
19514.0	4.1926105287884736e+17
19515.0	4.1959690317332486e+17
19516.0	4.1959094180904954e+17
19517.0	4.1953181966882125e+17
19518.0	4.194806804075861e+17
19519.0	4.194226062841172e+17
19520.0	4.193632153589077e+17
19521.0	4.193077985367381e+17
19522.0	4.19245948281378e+17
19523.0	4.191883138607786e+17
19524.0	4.19127117287697e+17
19525.0	4.1906520453720736e+17
19526.0	4.19004710649856e+17
19527.0	4.1894173695016954e+17
19528.0	4.188786613288959e+17
19529.0	4.1881499633800525e+17
19530.0	4.187521489567744e+17
19531.0	4.186877582813866e+17
19532.0	4.186229258758827e+17
19533.0	4.1855768319754234e+17
19534.0	4.1849184094344525e+17
19535.0	4.184247104787797e+17
19536.0	4.1850682733144736e+17
19537.0	4.184530252464128e+17
19538.0	4.183800960166571e+17
19539.0	4.182769498324992e+17
19540.0	4.1824837690545485e+17
19541.0	4.1818166342451194e+17
19542.0	4.181130836880042e+17
19543.0	4.180435971429717e+17
19544.0	4.179758313810602e+17
19545.0	4.178771849161385e+17
19546.0	4.17771883139345e+17
19547.0	4.1776823828916915e+17
19548.0	4.1769859271010976e+17
19549.0	4.1762213704936096e+17
19550.0	4.1755854357135354e+17
19551.0	4.174884752064512e+17
19552.0	4.1741799789690874e+17
19553.0	4.1734601406327456e+17
19554.0	4.1727362701721594e+17
19555.0	4.1720485126690125e+17
19556.0	4.1713483099668474e+17
19557.0	4.1706358228473165e+17
19558.0	4.169923300076202e+17
19559.0	4.1692077965530445e+17
19560.0	4.168477057919659e+17
19561.0	4.1677637256478714e+17
19562.0	4.1670575243919354e+17
19563.0	4.166348301139967e+17
19564.0	4.1656299615682554e+17
19565.0	4.164908618874879e+17
19566.0	4.1641689100233376e+17
19567.0	4.163468369679701e+17
19568.0	4.162730996356436e+17
19569.0	4.162009279670954e+17
19570.0	4.161300791820287e+17
19571.0	4.160573679162708e+17
19572.0	4.1598289518264314e+17
19573.0	4.159112580082346e+17
19574.0	4.1583393475570336e+17
19575.0	4.1576716332346016e+17
19576.0	4.156943204264618e+17
19577.0	4.156180745508181e+17
19578.0	4.1554579397017594e+17
19579.0	4.1547432435821216e+17
19580.0	4.1540158834606074e+17
19581.0	4.153290815526228e+17
19582.0	4.152573563677355e+17
19583.0	4.1518431871522125e+17
19584.0	4.151105935463765e+17
19585.0	4.1503071554327885e+17
19586.0	4.149555969567402e+17
19587.0	4.148852266718548e+17
19588.0	4.147858347393024e+17
19589.0	4.1474352022377805e+17
19590.0	4.146639923052544e+17
19591.0	4.1459814138292896e+17
19592.0	4.1452520250627405e+17
19593.0	4.1445065064011085e+17
19594.0	4.143612454851925e+17
19595.0	4.143032950237866e+17
19596.0	4.141407558172672e+17
19597.0	4.1415663789888845e+17
19598.0	4.140545258203818e+17
19599.0	4.1401108953825274e+17
19600.0	4.139381979174229e+17
19601.0	4.1386018686894074e+17
19602.0	4.137883349461674e+17
19603.0	4.136728037512533e+17
19604.0	4.136404916720981e+17
19605.0	4.1355024038625274e+17
19606.0	4.134963631532714e+17
19607.0	4.13423451050257e+17
19608.0	4.133486771656021e+17
19609.0	4.132726087090175e+17
19610.0	4.1320216928802125e+17
19611.0	4.1312754493030394e+17
19612.0	4.1305545917508256e+17
19613.0	4.129810332079445e+17
19614.0	4.1290562947863885e+17
19615.0	4.1283445004260685e+17
19616.0	4.1274817020340896e+17
19617.0	4.12685957070848e+17
19618.0	4.1257469700560205e+17
19619.0	4.124896378486783e+17
19620.0	4.1241926553654605e+17
19621.0	4.123913261591211e+17
19622.0	4.1231910653569696e+17
19623.0	4.122454102376447e+17
19624.0	4.121710476744021e+17
19625.0	4.120980328109398e+17
19626.0	4.1202403102774605e+17
19627.0	4.119508404229459e+17
19628.0	4.1185257179490995e+17
19629.0	4.117953684089515e+17
19630.0	4.117056348400298e+17
19631.0	4.10541093185126e+17
19632.0	4.115821528525483e+17
19633.0	4.115046574937429e+17
19634.0	4.114353356450474e+17
19635.0	4.113592843152042e+17
19636.0	4.112864024111787e+17
19637.0	4.111912476344319e+17
19638.0	4.1114002497645216e+17
19639.0	4.110661258138965e+17
19640.0	4.109885793544874e+17
19641.0	4.108442811760642e+17
19642.0	4.108458145437013e+17
19643.0	4.1077150608698016e+17
19644.0	4.1069516632883194e+17
19645.0	4.106064405812564e+17
19646.0	4.105510457791829e+17
19647.0	4.1047861518226765e+17
19648.0	4.1040481766167885e+17
19649.0	4.103310444680533e+17
19650.0	4.1025790985721165e+17
19651.0	4.101840676672852e+17
19652.0	4.101104282719572e+17
19653.0	4.100367658079574e+17
19654.0	4.0996337534457165e+17
19655.0	4.0988948338223776e+17
