# Flux units: erg / (cm m2 s)
# Wavelength units: Angstrom
wave	flux
19000.0	6.485110531904852e+17
19001.0	6.483838252701012e+17
19002.0	6.482658922769065e+17
19003.0	6.481431549181952e+17
19004.0	6.480206534890836e+17
19005.0	6.478979200450559e+17
19006.0	6.477754961406634e+17
19007.0	6.476496809317716e+17
19008.0	6.475266252952916e+17
19009.0	6.474068168889684e+17
19010.0	6.472628782323028e+17
19011.0	6.471618632439124e+17
19012.0	6.470341739500884e+17
19013.0	6.469179103597907e+17
19014.0	6.467926165028863e+17
19015.0	6.466715310009001e+17
19016.0	6.465488243305129e+17
19017.0	6.464079761069395e+17
19018.0	6.463055386902527e+17
19019.0	6.461835261072723e+17
19020.0	6.460575357162836e+17
19021.0	6.459370845328724e+17
19022.0	6.458171247820799e+17
19023.0	6.456929509441533e+17
19024.0	6.455717800181759e+17
19025.0	6.454499426871978e+17
19026.0	6.453270769128788e+17
19027.0	6.452048373481471e+17
19028.0	6.450841193370964e+17
19029.0	6.449613089974953e+17
19030.0	6.448404745945087e+17
19031.0	6.447187080773631e+17
19032.0	6.445965957398527e+17
19033.0	6.444703335579647e+17
19034.0	6.44351512490803e+17
19035.0	6.442289318592511e+17
19036.0	6.43892894708531e+17
19037.0	6.439862527153492e+17
19038.0	6.438637124190207e+17
19039.0	6.437427166751401e+17
19040.0	6.436211543506943e+17
19041.0	6.434989434470399e+17
19042.0	6.433731703209983e+17
19043.0	6.432557572816895e+17
19044.0	6.431332983548586e+17
19045.0	6.430120817808723e+17
19046.0	6.428873609357993e+17
19047.0	6.42768623055667e+17
19048.0	6.426369524585812e+17
19049.0	6.425219935065428e+17
19050.0	6.424013159705257e+17
19051.0	6.422548117979135e+17
19052.0	6.421588922597376e+17
19053.0	6.42037802283827e+17
19054.0	6.419172319821823e+17
19055.0	6.417838880675156e+17
19056.0	6.416729620785833e+17
19057.0	6.41552397369344e+17
19058.0	6.414294978308778e+17
19059.0	6.413097584907603e+17
19060.0	6.411873624784895e+17
19061.0	6.410671356903423e+17
19062.0	6.409455977627647e+17
19063.0	6.408243750371327e+17
19064.0	6.406968858815145e+17
19065.0	6.405728828915711e+17
19066.0	6.404573746255187e+17
19067.0	6.403385611780095e+17
19068.0	6.402179788526932e+17
19069.0	6.400968317643434e+17
19070.0	6.39974127960064e+17
19071.0	6.398540383256576e+17
19072.0	6.397333151416319e+17
19073.0	6.396117539356671e+17
19074.0	6.394911228166143e+17
19075.0	6.393700487790591e+17
19076.0	6.392479063823699e+17
19077.0	6.391275908147882e+17
19078.0	6.390018216034301e+17
19079.0	6.388857801714346e+17
19080.0	6.387643536026281e+17
19081.0	6.386416817449642e+17
19082.0	6.385190017084074e+17
19083.0	6.383966778381651e+17
19084.0	6.382695129022463e+17
19085.0	6.38159892390434e+17
19086.0	6.380197766321492e+17
19087.0	6.379121174467923e+17
19088.0	6.37793008161041e+17
19089.0	6.376641197157034e+17
19090.0	6.375534592961193e+17
19091.0	6.374328460727636e+17
19092.0	6.373096170018134e+17
19093.0	6.371930319181139e+17
19094.0	6.370705238480212e+17
19095.0	6.369495284536659e+17
19096.0	6.36829536756258e+17
19097.0	6.367105537190569e+17
19098.0	6.365899112054783e+17
19099.0	6.364688521975124e+17
19100.0	6.363485764758186e+17
19101.0	6.362285860367017e+17
19102.0	6.361041221626538e+17
19103.0	6.359875035245225e+17
19104.0	6.358674882691072e+17
19105.0	6.357469621474644e+17
19106.0	6.356258581206356e+17
19107.0	6.355055445103956e+17
19108.0	6.353861716825427e+17
19109.0	6.352428592354644e+17
19110.0	6.3514558346909e+17
19111.0	6.350254504236371e+17
19112.0	6.34905262362897e+17
19113.0	6.347850078224383e+17
19114.0	6.346647092417876e+17
19115.0	6.345422644357801e+17
19116.0	6.344235951325183e+17
19117.0	6.343036989953364e+17
19118.0	6.341792721010688e+17
19119.0	6.339543134022312e+17
19120.0	6.339424089888084e+17
19121.0	6.338236872567465e+17
19122.0	6.33704616558592e+17
19123.0	6.335830085162324e+17
19124.0	6.334636368767657e+17
19125.0	6.333443691861331e+17
19126.0	6.332233073819647e+17
19127.0	6.33028276859699e+17
19128.0	6.329632485102931e+17
19129.0	6.328610359782058e+17
19130.0	6.327450984251391e+17
19131.0	6.326252330461866e+17
19132.0	6.325061092201812e+17
19133.0	6.323486272258048e+17
19134.0	6.322559503739561e+17
19135.0	6.321470111569236e+17
19136.0	6.32027696140561e+17
19137.0	6.319006536084137e+17
19138.0	6.317832997087914e+17
19139.0	6.316689042614953e+17
19140.0	6.31549415391232e+17
19141.0	6.314299196003668e+17
19142.0	6.313092616377684e+17
19143.0	6.311880089927679e+17
19144.0	6.310693232618153e+17
19145.0	6.309517924324691e+17
19146.0	6.308048183579988e+17
19147.0	6.307091940988244e+17
19148.0	6.305936958291968e+17
19149.0	6.304742335927638e+17
19150.0	6.303545966635689e+17
19151.0	6.30235782517009e+17
19152.0	6.301142259946835e+17
19153.0	6.299965345234943e+17
19154.0	6.298724602303827e+17
19155.0	6.297591935401983e+17
19156.0	6.296399015226025e+17
19157.0	6.295206355795967e+17
19158.0	6.293854446332585e+17
19159.0	6.292817063531859e+17
19160.0	6.291602286837759e+17
19161.0	6.29041993490978e+17
19162.0	6.288895204043433e+17
19163.0	6.288061953824083e+17
19164.0	6.286875104204116e+17
19165.0	6.285676925769044e+17
19166.0	6.284445901739348e+17
19167.0	6.283273351200768e+17
19168.0	6.282017803774633e+17
19169.0	6.280876945397076e+17
19170.0	6.279739748646911e+17
19171.0	6.278534553840297e+17
19172.0	6.277361423788714e+17
19173.0	6.276175635327657e+17
19174.0	6.274961243810474e+17
19175.0	6.27380051701487e+17
19176.0	6.272610606951082e+17
19177.0	6.271357088169983e+17
19178.0	6.27023624081681e+17
19179.0	6.269030384009215e+17
19180.0	6.267777517442388e+17
19181.0	6.266633599320063e+17
19182.0	6.265384210530304e+17
19183.0	6.264298720460799e+17
19184.0	6.263031694622719e+17
19185.0	6.261927717459284e+17
19186.0	6.260751201905321e+17
19187.0	6.259527409554772e+17
19188.0	6.258378349215744e+17
19189.0	6.257188595739306e+17
19190.0	6.25600240881937e+17
19191.0	6.254810291852627e+17
19192.0	6.253637529501695e+17
19193.0	6.252368642091689e+17
19194.0	6.251230951112703e+17
19195.0	6.250084074607956e+17
19196.0	6.248901847110995e+17
19197.0	6.247722873694889e+17
19198.0	6.246543583608831e+17
19199.0	6.243174421539497e+17
19200.0	6.242794837726548e+17
19201.0	6.242996743831551e+17
19202.0	6.241816166793215e+17
19203.0	6.240630256697343e+17
19204.0	6.239441100210175e+17
19205.0	6.238265193529343e+17
19206.0	6.237080482305363e+17
19207.0	6.235868348721833e+17
19208.0	6.234622137816403e+17
19209.0	6.233538292613119e+17
19210.0	6.232356791429802e+17
19211.0	6.231176054308863e+17
19212.0	6.230003922501632e+17
19213.0	6.228769096335359e+17
19214.0	6.227579715452927e+17
19215.0	6.22645810962978e+17
19216.0	6.22523976847633e+17
19217.0	6.224101072262484e+17
19218.0	6.222551481057277e+17
19219.0	6.221669212007081e+17
19220.0	6.22055504548113e+17
19221.0	6.219234174566399e+17
19222.0	6.218210895811924e+17
19223.0	6.217018922150569e+17
19224.0	6.215758122756776e+17
19225.0	6.214585269529257e+17
19226.0	6.213482057127252e+17
19227.0	6.212303464693759e+17
19228.0	6.211141167131305e+17
19229.0	6.209963019993087e+17
19230.0	6.208766422111572e+17
19231.0	6.207584384756393e+17
19232.0	6.206363448027817e+17
19233.0	6.205217469104127e+17
19234.0	6.204061021197652e+17
19235.0	6.202879759788714e+17
19236.0	6.201719864863402e+17
19237.0	6.200534298700457e+17
19238.0	6.199322631383722e+17
19239.0	6.19819099628066e+17
19240.0	6.196820558479359e+17
19241.0	6.195774708776959e+17
19242.0	6.194635737137151e+17
19243.0	6.193392453156863e+17
19244.0	6.192303407715668e+17
19245.0	6.191127385691475e+17
19246.0	6.189947087574356e+17
19247.0	6.188766221828096e+17
19248.0	6.187603749502975e+17
19249.0	6.186426171391999e+17
19250.0	6.185241368592383e+17
19251.0	6.184032486992553e+17
19252.0	6.182719731357012e+17
19253.0	6.181712941110611e+17
19254.0	6.18051856900642e+17
19255.0	6.179270866326867e+17
19256.0	6.178182661144576e+17
19257.0	6.177017916904788e+17
19258.0	6.175840069659306e+17
19259.0	6.174629968915114e+17
19260.0	6.173463672083796e+17
19261.0	6.17231023079424e+17
19262.0	6.171106499100672e+17
19263.0	6.169933712982015e+17
19264.0	6.168538586808319e+17
19265.0	6.16751786238498e+17
19266.0	6.16636660912401e+17
19267.0	6.165252743888895e+17
19268.0	6.164072824657236e+17
19269.0	6.16289848594705e+17
19270.0	6.161722119290879e+17
19271.0	6.160397130268672e+17
19272.0	6.159352836653055e+17
19273.0	6.15323705068748e+17
19274.0	6.15468048545655e+17
19275.0	6.155840327953065e+17
19276.0	6.154654103284393e+17
19277.0	6.15347842589218e+17
19278.0	6.152303101520553e+17
19279.0	6.151086446477311e+17
19280.0	6.149908362253652e+17
19281.0	6.148767139670697e+17
19282.0	6.147596439519231e+17
19283.0	6.146383600593578e+17
19284.0	6.145152097015126e+17
19285.0	6.143950744190973e+17
19286.0	6.142866306891775e+17
19287.0	6.14170311664162e+17
19288.0	6.140040380590762e+17
19289.0	6.137833741877244e+17
19290.0	6.138163552583679e+17
19291.0	6.136856137695231e+17
19292.0	6.135801510712659e+17
19293.0	6.134616322736127e+17
19294.0	6.133432820869802e+17
19295.0	6.132256477981353e+17
19296.0	6.131070493087059e+17
19297.0	6.129878376120319e+17
19298.0	6.128691670504788e+17
19299.0	6.127523231083177e+17
19300.0	6.126337764884479e+17
19301.0	6.125146875450707e+17
19302.0	6.123960264207018e+17
19303.0	6.122728264302591e+17
19304.0	6.121556109426687e+17
19305.0	6.120395818838697e+17
19306.0	6.119210580530516e+17
19307.0	6.117997544472575e+17
19308.0	6.116822329152852e+17
19309.0	6.115580520868521e+17
19310.0	6.114344683874986e+17
19311.0	6.113243015675903e+17
19312.0	6.112048913405268e+17
19313.0	6.110725287531859e+17
19314.0	6.109010432360445e+17
19315.0	6.10786425560542e+17
19316.0	6.107288674762751e+17
19317.0	6.10608744567057e+17
19318.0	6.104886069777748e+17
19319.0	6.103693984967338e+17
19320.0	6.102457488769023e+17
19321.0	6.101291865822547e+17
19322.0	6.100007799925418e+17
19323.0	6.098844567732224e+17
19324.0	6.097672816907604e+17
19325.0	6.096424380923903e+17
19326.0	6.095257756237823e+17
19327.0	6.094039384326144e+17
19328.0	6.092834822160383e+17
19329.0	6.091620299920724e+17
19330.0	6.090384237832874e+17
19331.0	6.089164962048682e+17
19332.0	6.08796427751697e+17
19333.0	6.086734945888937e+17
19334.0	6.085471066477908e+17
19335.0	6.084292075585535e+17
19336.0	6.083062105025193e+17
19337.0	6.081826149193044e+17
19338.0	6.080498861692244e+17
19339.0	6.079358753396051e+17
19340.0	6.078094326628351e+17
19341.0	6.076875621269503e+17
19342.0	6.075427284058112e+17
19343.0	6.074383961423872e+17
19344.0	6.073126784510634e+17
19345.0	6.070906905777491e+17
19346.0	6.07037816832e+17
19347.0	6.06932396286498e+17
19348.0	6.068085514218153e+17
19349.0	6.066752556018346e+17
19350.0	6.065470563505492e+17
19351.0	6.064180626980864e+17
19352.0	6.062883948811604e+17
19353.0	6.061632158782804e+17
19354.0	6.060335940588884e+17
19355.0	6.058993536816468e+17
19356.0	6.057734915664554e+17
19357.0	6.05641991467827e+17
19358.0	6.0550659702784e+17
19359.0	6.053510514737151e+17
19360.0	6.052400217456637e+17
19361.0	6.051052379963391e+17
19362.0	6.049742217106772e+17
19363.0	6.048388764838569e+17
19364.0	6.047022818437801e+17
19365.0	6.045657717888339e+17
19366.0	6.044284113387519e+17
19367.0	6.04289755128354e+17
19368.0	6.04150100533794e+17
19369.0	6.040001061410132e+17
19370.0	6.038063750840319e+17
19371.0	6.037216853054804e+17
19372.0	6.035800599472809e+17
19373.0	6.034331705977514e+17
19374.0	6.032867625446058e+17
19375.0	6.031377936591529e+17
19376.0	6.029878081443158e+17
19377.0	6.028354083181907e+17
19378.0	6.02682271343138e+17
19379.0	6.02526803034112e+17
19380.0	6.023690195391827e+17
19381.0	6.022083579128489e+17
19382.0	6.020429892987561e+17
19383.0	6.018789721593172e+17
19384.0	6.017182840389632e+17
19385.0	6.015491191603199e+17
19386.0	6.013750038145705e+17
19387.0	6.012000005346644e+17
19388.0	6.010225542823935e+17
19389.0	6.008415894284969e+17
19390.0	6.006565959456084e+17
19391.0	6.00275544266069e+17
19392.0	6.002747934157481e+17
19393.0	6.000762786152447e+17
19394.0	5.998720264962047e+17
19395.0	5.996623902889299e+17
19396.0	5.994502138014378e+17
19397.0	5.992336225992703e+17
19398.0	5.990087301005311e+17
19399.0	5.987462436356096e+17
19400.0	5.985362737015466e+17
19401.0	5.982930810350249e+17
19402.0	5.980399923276457e+17
19403.0	5.977767564804095e+17
19404.0	5.975023910475092e+17
19405.0	5.972113622739625e+17
19406.0	5.969179588952063e+17
19407.0	5.96611766943744e+17
19408.0	5.96256607961088e+17
19409.0	5.959499493234003e+17
19410.0	5.956010972457642e+17
19411.0	5.952235590647807e+17
19412.0	5.948310560964607e+17
19413.0	5.944244567714473e+17
19414.0	5.939852744152404e+17
19415.0	5.935280485127508e+17
19416.0	5.930396749398015e+17
19417.0	5.92518984044817e+17
19418.0	5.919795097283242e+17
19419.0	5.913877312525652e+17
19420.0	5.907663806267391e+17
19421.0	5.900995098487466e+17
19422.0	5.893823748112383e+17
19423.0	5.886173190116692e+17
19424.0	5.877768684306431e+17
19425.0	5.868604190883837e+17
19426.0	5.858775992893437e+17
19427.0	5.84766905786914e+17
19428.0	5.835957044161196e+17
19429.0	5.823924617084927e+17
19430.0	5.810890541279914e+17
19431.0	5.796188928344064e+17
19432.0	5.78080934810965e+17
19433.0	5.763296899279531e+17
19434.0	5.743372362842111e+17
19435.0	5.720407568373077e+17
19436.0	5.6939617965834234e+17
19437.0	5.6688959382268576e+17
19438.0	5.639792900789588e+17
19439.0	5.6124184492769286e+17
19440.0	5.577912072448683e+17
19441.0	5.5370672214725946e+17
19442.0	5.4874797366749894e+17
19443.0	5.4381405980153165e+17
19444.0	5.385119367954429e+17
19445.0	5.3212138763714566e+17
19446.0	5.242097764401151e+17
19447.0	5.158275284729849e+17
19448.0	5.052981815454385e+17
19449.0	4.908352982570323e+17
19450.0	4.575506085183469e+17
19451.0	4.450595920412668e+17
19452.0	4.7660736233253594e+17
19453.0	4.990408114656603e+17
19454.0	5.1045472564237594e+17
19455.0	5.1954309055993165e+17
19456.0	5.2747687913936256e+17
19457.0	5.344411234511529e+17
19458.0	5.399075657962839e+17
19459.0	5.447364636573698e+17
19460.0	5.496547874351785e+17
19461.0	5.539280080338942e+17
19462.0	5.574308115338582e+17
19463.0	5.604074170176851e+17
19464.0	5.6299620827572896e+17
19465.0	5.653043286638592e+17
19466.0	5.67719161582933e+17
19467.0	5.6995407368028154e+17
19468.0	5.7186602835421875e+17
19469.0	5.7342305207582694e+17
19470.0	5.7493145724299936e+17
19471.0	5.7621108221105485e+17
19472.0	5.773375984457044e+17
19473.0	5.783424091903316e+17
19474.0	5.793276996441428e+17
19475.0	5.802008924301993e+17
19476.0	5.810480804615507e+17
19477.0	5.817568497500159e+17
19478.0	5.824149420594516e+17
19479.0	5.829846443054419e+17
19480.0	5.834941041825108e+17
19481.0	5.839509999233706e+17
19482.0	5.8437717735069e+17
19483.0	5.847514341179391e+17
19484.0	5.85090051674385e+17
19485.0	5.853924863683242e+17
19486.0	5.856685294529194e+17
19487.0	5.859105638623913e+17
19488.0	5.861344915314003e+17
19489.0	5.863267626909695e+17
19490.0	5.864374363925161e+17
19491.0	5.866518266336596e+17
19492.0	5.86798452441088e+17
19493.0	5.869155569194324e+17
19494.0	5.87015412392482e+17
19495.0	5.870990222775636e+17
19496.0	5.871603362911571e+17
19497.0	5.872403406127101e+17
19498.0	5.872912941361834e+17
19499.0	5.870194742263803e+17
19500.0	5.873775380441769e+17
19501.0	5.87400732615202e+17
19502.0	5.874170889327956e+17
19503.0	5.874267757477888e+17
19504.0	5.874289795050154e+17
19505.0	5.874270369830228e+17
19506.0	5.874173609334099e+17
19507.0	5.874007481341268e+17
19508.0	5.873810536398845e+17
19509.0	5.873577322610687e+17
19510.0	5.873220613832703e+17
19511.0	5.87083720897331e+17
19512.0	5.872246648908457e+17
19513.0	5.871198524495187e+17
19514.0	5.871174509308585e+17
19515.0	5.871035958864554e+17
19516.0	5.870762882411178e+17
19517.0	5.87019784884497e+17
19518.0	5.86966282412578e+17
19519.0	5.869071109193728e+17
19520.0	5.868455305674751e+17
19521.0	5.867834173292543e+17
19522.0	5.867155971112959e+17
19523.0	5.866505127679316e+17
19524.0	5.86581163446545e+17
19525.0	5.865063963426815e+17
19526.0	5.864372868655786e+17
19527.0	5.863643191181312e+17
19528.0	5.862900188403027e+17
19529.0	5.862139124951721e+17
19530.0	5.861360560067924e+17
19531.0	5.860567772299263e+17
19532.0	5.859757859886422e+17
19533.0	5.858940668258986e+17
19534.0	5.858109847240703e+17
19535.0	5.85725891453474e+17
19536.0	5.856402627100672e+17
19537.0	5.855568844204713e+17
19538.0	5.854689948773034e+17
19539.0	5.853568234597036e+17
19540.0	5.852933533641385e+17
19541.0	5.852056360670548e+17
19542.0	5.851156003684351e+17
19543.0	5.850252557593257e+17
19544.0	5.849343882603178e+17
19545.0	5.848276405671251e+17
19546.0	5.847072865517568e+17
19547.0	5.846561304434004e+17
19548.0	5.845646040891391e+17
19549.0	5.844657066650282e+17
19550.0	5.843766903919956e+17
19551.0	5.842821136602452e+17
19552.0	5.841869023302995e+17
19553.0	5.840905121912148e+17
19554.0	5.839934028688042e+17
19555.0	5.838983707754495e+17
19556.0	5.838023560265728e+17
19557.0	5.83705078932002e+17
19558.0	5.836076353235626e+17
19559.0	5.835080175277396e+17
19560.0	5.834106969522176e+17
19561.0	5.833123263326889e+17
19562.0	5.832147138336083e+17
19563.0	5.831154571673599e+17
19564.0	5.830171737893546e+17
19565.0	5.829194771245738e+17
19566.0	5.828200874289834e+17
19567.0	5.827209988844202e+17
19568.0	5.826201202808147e+17
19569.0	5.825202306241875e+17
19570.0	5.824208520435028e+17
19571.0	5.823202331372202e+17
19572.0	5.822176232647338e+17
19573.0	5.821177858271914e+17
19574.0	5.820122061777577e+17
19575.0	5.819154610607444e+17
19576.0	5.818142819352576e+17
19577.0	5.817048462524415e+17
19578.0	5.816089169974612e+17
19579.0	5.815076773341865e+17
19580.0	5.814059105168041e+17
19581.0	5.813041662787583e+17
19582.0	5.812026837652822e+17
19583.0	5.811002694871721e+17
19584.0	5.809977184048468e+17
19585.0	5.808897694629887e+17
19586.0	5.807841867377321e+17
19587.0	5.806855615239508e+17
19588.0	5.805632749830144e+17
19589.0	5.804793733141844e+17
19590.0	5.803765902169428e+17
19591.0	5.802768951760212e+17
19592.0	5.801738936953514e+17
19593.0	5.800694959308799e+17
19594.0	5.799550047835476e+17
19595.0	5.798625303767724e+17
19596.0	5.797076384350207e+17
19597.0	5.79655601103394e+17
19598.0	5.79540775600128e+17
19599.0	5.794487716544511e+17
19600.0	5.793452405030911e+17
19601.0	5.792383896999252e+17
19602.0	5.791357204081322e+17
19603.0	5.790129912283135e+17
19604.0	5.789272484697428e+17
19605.0	5.788111202855593e+17
19606.0	5.787198934745087e+17
19607.0	5.786172501174954e+17
19608.0	5.78512368050722e+17
19609.0	5.784062486642687e+17
19610.0	5.783047213416447e+17
19611.0	5.781999344156671e+17
19612.0	5.780966782009344e+17
19613.0	5.779924918992895e+17
19614.0	5.778869690826751e+17
19615.0	5.777845775237119e+17
19616.0	5.776785266442239e+17
19617.0	5.775754577750697e+17
19618.0	5.774490278909267e+17
19619.0	5.773357177896959e+17
19620.0	5.772333560102911e+17
19621.0	5.771572793049087e+17
19622.0	5.77052888600849e+17
19623.0	5.769484205118806e+17
19624.0	5.768433241161727e+17
19625.0	5.767391225053183e+17
19626.0	5.766340044390399e+17
19627.0	5.765298829393919e+17
19628.0	5.7642015134842874e+17
19629.0	5.76316496674816e+17
19630.0	5.762132138262526e+17
19631.0	5.758843004911613e+17
19632.0	5.76006178157363e+17
19633.0	5.758995073597439e+17
19634.0	5.757968442195967e+17
19635.0	5.7569020613754874e+17
19636.0	5.755869283221503e+17
19637.0	5.7546331057902925e+17
19638.0	5.753774315055786e+17
19639.0	5.752725023227903e+17
19640.0	5.751653830841683e+17
19641.0	5.750378960956075e+17
19642.0	5.7495831204331494e+17
19643.0	5.748523393176916e+17
19644.0	5.7474654254312096e+17
19645.0	5.746328032247807e+17
19646.0	5.745399058923519e+17
19647.0	5.7443514308362234e+17
19648.0	5.743301500076031e+17
19649.0	5.742252448022528e+17
19650.0	5.741208563351551e+17
19651.0	5.740157437214719e+17
19652.0	5.739109203050496e+17
19653.0	5.738065005903871e+17
19654.0	5.7370136239144954e+17
19655.0	5.735963584102399e+17
19656.0	5.734920198553598e+17
19657.0	5.733872069246974e+17
19658.0	5.7328272807034874e+17
19659.0	5.731779927343102e+17
19660.0	5.7307348389068794e+17
19661.0	5.72968778334208e+17
19662.0	5.7286408137605114e+17
19663.0	5.7275727866757114e+17
19664.0	5.7265343608913914e+17
