# Flux units: erg / (cm m2 s)
# Wavelength units: Angstrom
wave	flux
19000.0	5.7329526512462496e+17
19001.0	5.731849574460074e+17
19002.0	5.7308105803475616e+17
19003.0	5.7297390824762016e+17
19004.0	5.7286673986573645e+17
19005.0	5.72759536181794e+17
19006.0	5.7265270453261645e+17
19007.0	5.7254415154107725e+17
19008.0	5.7243635051834016e+17
19009.0	5.7233074877890554e+17
19010.0	5.722075482991274e+17
19011.0	5.721165621013162e+17
19012.0	5.720056858847913e+17
19013.0	5.7190316786756256e+17
19014.0	5.717944116619945e+17
19015.0	5.71688128418065e+17
19016.0	5.71580771082786e+17
19017.0	5.71474247365427e+17
19018.0	5.713681539836586e+17
19019.0	5.712615650448723e+17
19020.0	5.7115344993867085e+17
19021.0	5.7104736089101645e+17
19022.0	5.709409983747413e+17
19023.0	5.708330025964886e+17
19024.0	5.70726810788386e+17
19025.0	5.706208257594709e+17
19026.0	5.7051297615271245e+17
19027.0	5.704052236440916e+17
19028.0	5.703003907904852e+17
19029.0	5.7019309217546234e+17
19030.0	5.700873500666537e+17
19031.0	5.699806533342549e+17
19032.0	5.6987387264587085e+17
19033.0	5.697644145235285e+17
19034.0	5.6966021095533216e+17
19035.0	5.6955288815315616e+17
19036.0	5.692798186203817e+17
19037.0	5.693404771341653e+17
19038.0	5.692334668775423e+17
19039.0	5.691276985543338e+17
19040.0	5.690211576403285e+17
19041.0	5.689143615029247e+17
19042.0	5.6880514755898016e+17
19043.0	5.6870164478907725e+17
19044.0	5.6859477084733434e+17
19045.0	5.6848871605316256e+17
19046.0	5.683806364587347e+17
19047.0	5.682758145103189e+17
19048.0	5.6816209287796045e+17
19049.0	5.680608753745919e+17
19050.0	5.679551071212884e+17
19051.0	5.678226708540073e+17
19052.0	5.6774261969605965e+17
19053.0	5.6763735972249594e+17
19054.0	5.6753145109981856e+17
19055.0	5.674169674323285e+17
19056.0	5.673179328544766e+17
19057.0	5.6721242688498336e+17
19058.0	5.671058285090132e+17
19059.0	5.6700011590014285e+17
19060.0	5.6689326726403405e+17
19061.0	5.667879419991381e+17
19062.0	5.666816409993215e+17
19063.0	5.665756237441705e+17
19064.0	5.664653073973247e+17
19065.0	5.663577797033983e+17
19066.0	5.6625543931494394e+17
19067.0	5.661509241099604e+17
19068.0	5.6604531293334176e+17
19069.0	5.65939356775219e+17
19070.0	5.658323646240085e+17
19071.0	5.657272007000064e+17
19072.0	5.6562145355803296e+17
19073.0	5.6551534703411194e+17
19074.0	5.65409615900399e+17
19075.0	5.653037264317098e+17
19076.0	5.651971008626687e+17
19077.0	5.6509168269393914e+17
19078.0	5.6498486530539494e+17
19079.0	5.648803445779115e+17
19080.0	5.6477414067623245e+17
19081.0	5.646672782688255e+17
19082.0	5.645613261651967e+17
19083.0	5.6445404041270605e+17
19084.0	5.6434411371670176e+17
19085.0	5.64245678924322e+17
19086.0	5.6412822876542285e+17
19087.0	5.640298469610836e+17
19088.0	5.6392667686939296e+17
19089.0	5.638149746546005e+17
19090.0	5.637167061663743e+17
19091.0	5.636114752034132e+17
19092.0	5.6350384614714016e+17
19093.0	5.634010562691071e+17
19094.0	5.632952303441236e+17
19095.0	5.631896469897215e+17
19096.0	5.63083844063505e+17
19097.0	5.629790853791743e+17
19098.0	5.6287367867487565e+17
19099.0	5.6276822814010016e+17
19100.0	5.6266241815347194e+17
19101.0	5.6255749239603194e+17
19102.0	5.624487559036926e+17
19103.0	5.6234667430379514e+17
19104.0	5.622414828371968e+17
19105.0	5.621361863032831e+17
19106.0	5.620300371372713e+17
19107.0	5.619251733157204e+17
19108.0	5.6182041099632634e+17
19109.0	5.617007737176062e+17
19110.0	5.616099592765439e+17
19111.0	5.615048267399167e+17
19112.0	5.6139967386091514e+17
19113.0	5.612944579974484e+17
19114.0	5.611893977426602e+17
19115.0	5.610826033528831e+17
19116.0	5.609785267322879e+17
19117.0	5.6087375805153274e+17
19118.0	5.607659443060735e+17
19119.0	5.605339139407869e+17
19120.0	5.605573405966335e+17
19121.0	5.604532706869247e+17
19122.0	5.60349206020096e+17
19123.0	5.602441542238207e+17
19124.0	5.601384946728958e+17
19125.0	5.600343854066345e+17
19126.0	5.599145623901524e+17
19127.0	5.597305374419625e+17
19128.0	5.5966419858227174e+17
19129.0	5.595656292226389e+17
19130.0	5.5946330980570445e+17
19131.0	5.59358894215441e+17
19132.0	5.5925410847784954e+17
19133.0	5.591383708532735e+17
19134.0	5.5904007684969805e+17
19135.0	5.589399390300842e+17
19136.0	5.58835497435136e+17
19137.0	5.587255655661567e+17
19138.0	5.586251790942207e+17
19139.0	5.5852162109931514e+17
19140.0	5.584170557024938e+17
19141.0	5.583124970165588e+17
19142.0	5.58207144628497e+17
19143.0	5.5810139448060576e+17
19144.0	5.579978606029483e+17
19145.0	5.578944097026047e+17
19146.0	5.5777064641713485e+17
19147.0	5.57682488578321e+17
19148.0	5.5758101151744e+17
19149.0	5.574764206751743e+17
19150.0	5.573719814569983e+17
19151.0	5.5726774817914874e+17
19152.0	5.5716316964017485e+17
19153.0	5.570585132968617e+17
19154.0	5.5695082013764256e+17
19155.0	5.5685065309771085e+17
19156.0	5.5674629049548794e+17
19157.0	5.566419750092799e+17
19158.0	5.5652796536804685e+17
19159.0	5.5643295739194016e+17
19160.0	5.5632873900386976e+17
19161.0	5.5622439094190074e+17
19162.0	5.560985751737684e+17
19163.0	5.5601691305355936e+17
19164.0	5.55912857194769e+17
19165.0	5.558080870460073e+17
19166.0	5.5570058151198714e+17
19167.0	5.555984891467092e+17
19168.0	5.554939452107434e+17
19169.0	5.55390799515921e+17
19170.0	5.552884468940799e+17
19171.0	5.551831102346579e+17
19172.0	5.5508050889058976e+17
19173.0	5.5497649504474445e+17
19174.0	5.548707499999231e+17
19175.0	5.5476861499255456e+17
19176.0	5.546645761906004e+17
19177.0	5.545560499027967e+17
19178.0	5.544567570956287e+17
19179.0	5.543510433682773e+17
19180.0	5.5424771368331936e+17
19181.0	5.5414153599604045e+17
19182.0	5.540404820705279e+17
19183.0	5.539377382599339e+17
19184.0	5.5383180936478714e+17
19185.0	5.5372985086771194e+17
19186.0	5.5362651705835514e+17
19187.0	5.5352050064206496e+17
19188.0	5.534190404982101e+17
19189.0	5.5331517093642234e+17
19190.0	5.532113407311871e+17
19191.0	5.531069245117781e+17
19192.0	5.530044934564522e+17
19193.0	5.529001477013504e+17
19194.0	5.527965710417919e+17
19195.0	5.5269354740121594e+17
19196.0	5.525894807071402e+17
19197.0	5.5248620114411514e+17
19198.0	5.5238289138210125e+17
19199.0	5.5214464484857165e+17
19200.0	5.520928246420821e+17
19201.0	5.520723801363796e+17
19202.0	5.5196896635562643e+17
19203.0	5.518651960590335e+17
19204.0	5.517611892036949e+17
19205.0	5.5165824665299616e+17
19206.0	5.515548123201535e+17
19207.0	5.5144898345915725e+17
19208.0	5.513407573437098e+17
19209.0	5.512445762207743e+17
19210.0	5.5114113287017805e+17
19211.0	5.510382058384042e+17
19212.0	5.509349243879424e+17
19213.0	5.508277944538452e+17
19214.0	5.5072412433121274e+17
19215.0	5.506245113588394e+17
19216.0	5.5052122962875725e+17
19217.0	5.5041816103922323e+17
19218.0	5.502887991967742e+17
19219.0	5.502069265225044e+17
19220.0	5.5010781462964896e+17
19221.0	5.4999461525804365e+17
19222.0	5.499021835632639e+17
19223.0	5.497981935550462e+17
19224.0	5.496936849910442e+17
19225.0	5.4958753414731085e+17
19226.0	5.494885701735763e+17
19227.0	5.493853226270719e+17
19228.0	5.492830779386538e+17
19229.0	5.4917990742753274e+17
19230.0	5.490762591152811e+17
19231.0	5.489729106957653e+17
19232.0	5.4886974822372685e+17
19233.0	5.487650304338602e+17
19234.0	5.486633637904383e+17
19235.0	5.485601113505792e+17
19236.0	5.48457992561186e+17
19237.0	5.4835438668130976e+17
19238.0	5.482487783707989e+17
19239.0	5.481488082534399e+17
19240.0	5.480406422563498e+17
19241.0	5.4794067458566816e+17
19242.0	5.4783900304889165e+17
19243.0	5.4773107423969274e+17
19244.0	5.476334080535211e+17
19245.0	5.475302163611647e+17
19246.0	5.4742680258041165e+17
19247.0	5.473242859612841e+17
19248.0	5.4722131551846394e+17
19249.0	5.471182223922517e+17
19250.0	5.4701455240942925e+17
19251.0	5.4690953262967456e+17
19252.0	5.467986307579904e+17
19253.0	5.4670533279962445e+17
19254.0	5.4660234047651834e+17
19255.0	5.464933718993577e+17
19256.0	5.463966061603498e+17
19257.0	5.4629399181393914e+17
19258.0	5.46190904979183e+17
19259.0	5.460853779682645e+17
19260.0	5.4598167680778214e+17
19261.0	5.4588137240439456e+17
19262.0	5.4577681455732045e+17
19263.0	5.4567400538548896e+17
19264.0	5.455557020352511e+17
19265.0	5.45462991978496e+17
19266.0	5.4536027752802976e+17
19267.0	5.4526337868977485e+17
19268.0	5.451600380297216e+17
19269.0	5.4505704661538125e+17
19270.0	5.449540245826217e+17
19271.0	5.44840198721809e+17
19272.0	5.447466352639998e+17
19273.0	5.4450331502073146e+17
19274.0	5.444711780537683e+17
19275.0	5.4443824689534285e+17
19276.0	5.4433455405356365e+17
19277.0	5.442322502953642e+17
19278.0	5.4412914451633485e+17
19279.0	5.440249008226303e+17
19280.0	5.439198091804671e+17
19281.0	5.4381911198050976e+17
19282.0	5.4371634782754125e+17
19283.0	5.436109198721023e+17
19284.0	5.4350597349266765e+17
19285.0	5.433995463142057e+17
19286.0	5.433016957184681e+17
19287.0	5.4319933911203834e+17
19288.0	5.4306021775332685e+17
19289.0	5.428722004568743e+17
19290.0	5.428888039587839e+17
19291.0	5.42776887484962e+17
19292.0	5.4268160205564576e+17
19293.0	5.4257766811129165e+17
19294.0	5.424738715303936e+17
19295.0	5.423705040966996e+17
19296.0	5.4226649954822816e+17
19297.0	5.421622890594302e+17
19298.0	5.42058101149969e+17
19299.0	5.419550970828117e+17
19300.0	5.418510180155391e+17
19301.0	5.4174679550306976e+17
19302.0	5.416427379665578e+17
19303.0	5.4153578489227936e+17
19304.0	5.4143293874066765e+17
19305.0	5.413296544240981e+17
19306.0	5.4122554865309e+17
19307.0	5.411196422673749e+17
19308.0	5.410161043352234e+17
19309.0	5.409076601159679e+17
19310.0	5.4080068704884045e+17
19311.0	5.407017638996651e+17
19312.0	5.405978067468287e+17
19313.0	5.404922042384383e+17
19314.0	5.402589808033788e+17
19315.0	5.401673358901249e+17
19316.0	5.401781663520085e+17
19317.0	5.400727646808745e+17
19318.0	5.399672873025535e+17
19319.0	5.3986246598328314e+17
19320.0	5.397565467350357e+17
19321.0	5.396511958149803e+17
19322.0	5.395418737978026e+17
19323.0	5.394245956053675e+17
19324.0	5.392531307801258e+17
19325.0	5.3914276165495456e+17
19326.0	5.390405426916011e+17
19327.0	5.389334960843434e+17
19328.0	5.3882738145143456e+17
19329.0	5.387205528780799e+17
19330.0	5.3861216842765645e+17
19331.0	5.3850493000089594e+17
19332.0	5.383989886626473e+17
19333.0	5.3829118295627085e+17
19334.0	5.381832760273577e+17
19335.0	5.3807575846966605e+17
19336.0	5.379674955841535e+17
19337.0	5.3785894937340576e+17
19338.0	5.3774374533420365e+17
19339.0	5.376414975000575e+17
19340.0	5.375293100042921e+17
19341.0	5.374228393448789e+17
19342.0	5.373007094611967e+17
19343.0	5.372034188749483e+17
19344.0	5.370931156003498e+17
19345.0	5.3690951917021843e+17
19346.0	5.368551566562646e+17
19347.0	5.367584447441578e+17
19348.0	5.3664918808821754e+17
19349.0	5.365359977343657e+17
19350.0	5.364240296706047e+17
19351.0	5.363107661960532e+17
19352.0	5.361967157302612e+17
19353.0	5.3608553633546234e+17
19354.0	5.3597151823571616e+17
19355.0	5.358539142157653e+17
19356.0	5.357419521638398e+17
19357.0	5.3562640964430496e+17
19358.0	5.3550945161707514e+17
19359.0	5.35386266865937e+17
19360.0	5.352753603106133e+17
19361.0	5.351572093534207e+17
19362.0	5.35040294457617e+17
19363.0	5.3492105465910605e+17
19364.0	5.348009255982421e+17
19365.0	5.346804997204649e+17
19366.0	5.3455906196684794e+17
19367.0	5.3443682540803405e+17
19368.0	5.3431372782851405e+17
19369.0	5.341866070725973e+17
19370.0	5.340482865463294e+17
19371.0	5.3393685325632845e+17
19372.0	5.338055165258409e+17
19373.0	5.335633318903807e+17
19374.0	5.334297851811157e+17
19375.0	5.3329910695635616e+17
19376.0	5.331670971099817e+17
19377.0	5.3303324169994234e+17
19378.0	5.3289846899561805e+17
19379.0	5.327620788278613e+17
19380.0	5.3262409000113485e+17
19381.0	5.324841258669396e+17
19382.0	5.3233996994532685e+17
19383.0	5.3219585268121594e+17
19384.0	5.320538675915434e+17
19385.0	5.319062379473577e+17
19386.0	5.3175657867946656e+17
19387.0	5.315986629241515e+17
19388.0	5.3132167612115616e+17
19389.0	5.311637772129619e+17
19390.0	5.3100297752412154e+17
19391.0	5.306870103976616e+17
19392.0	5.306721257914367e+17
19393.0	5.305019812631892e+17
19394.0	5.3032771380401485e+17
19395.0	5.3012563831903584e+17
19396.0	5.298119696012628e+17
19397.0	5.2962536180066976e+17
19398.0	5.294326159856981e+17
19399.0	5.292126359257087e+17
19400.0	5.290223769834836e+17
19401.0	5.2864013628866554e+17
19402.0	5.284246437145257e+17
19403.0	5.282016109701802e+17
19404.0	5.278872100667391e+17
19405.0	5.275168051385685e+17
19406.0	5.2726950918444365e+17
19407.0	5.268619267145728e+17
19408.0	5.264701710314154e+17
19409.0	5.2610356166874445e+17
19410.0	5.256364366495743e+17
19411.0	5.2515073358998163e+17
19412.0	5.246820722671617e+17
19413.0	5.2398384256559795e+17
19414.0	5.2348240751056224e+17
19415.0	5.230342772359168e+17
19416.0	5.2262642793840634e+17
19417.0	5.2220606556405754e+17
19418.0	5.217616075423743e+17
19419.0	5.212822729042603e+17
19420.0	5.207359239837013e+17
19421.0	5.2022200360413856e+17
19422.0	5.196726859552085e+17
19423.0	5.190946826223614e+17
19424.0	5.1848290996933965e+17
19425.0	5.178160774294186e+17
19426.0	5.1704147015106554e+17
19427.0	5.16310008209954e+17
19428.0	5.154960843647657e+17
19429.0	5.145698634825727e+17
19430.0	5.135924362302802e+17
19431.0	5.124775600280917e+17
19432.0	5.112371908793681e+17
19433.0	5.097735321550847e+17
19434.0	5.079800234377215e+17
19435.0	5.0576488273018816e+17
19436.0	5.026644439160148e+17
19437.0	4.9971727951025504e+17
19438.0	4.973810572154195e+17
19439.0	4.95261934682112e+17
19440.0	4.927435370572457e+17
19441.0	4.8990079642064205e+17
19442.0	4.866588426982744e+17
19443.0	4.826985143817557e+17
19444.0	4.769789177582928e+17
19445.0	4.689918161496747e+17
19446.0	4.623531886597462e+17
19447.0	4.541103439085564e+17
19448.0	4.4112957120621306e+17
19449.0	4.230316010329432e+17
19450.0	3.829609783099381e+17
19451.0	3.717281766266187e+17
19452.0	4.047743764223328e+17
19453.0	4.3343168566285734e+17
19454.0	4.480493510022479e+17
19455.0	4.5804059557014176e+17
19456.0	4.650230114942978e+17
19457.0	4.720487185776633e+17
19458.0	4.787881280623963e+17
19459.0	4.835104478898861e+17
19460.0	4.8683879399860915e+17
19461.0	4.896663195178326e+17
19462.0	4.921379193356288e+17
19463.0	4.9438729961471974e+17
19464.0	4.964143747213994e+17
19465.0	4.9855357909292384e+17
19466.0	5.017041254394539e+17
19467.0	5.040808250048506e+17
19468.0	5.05840047104546e+17
19469.0	5.0725920657025683e+17
19470.0	5.0841484707321165e+17
19471.0	5.093663828869119e+17
19472.0	5.10264162053871e+17
19473.0	5.1094999793663994e+17
19474.0	5.116709785217706e+17
19475.0	5.121997052138836e+17
19476.0	5.1276880683554125e+17
19477.0	5.1331266545800525e+17
19478.0	5.137460478607359e+17
19479.0	5.1414472806017696e+17
19480.0	5.1451044207875405e+17
19481.0	5.148463846479189e+17
19482.0	5.151612199414442e+17
19483.0	5.1549845197946874e+17
19484.0	5.157575971919188e+17
19485.0	5.1599438648442874e+17
19486.0	5.1621106387954336e+17
19487.0	5.164092849389568e+17
19488.0	5.1673306710234464e+17
19489.0	5.1707836751325824e+17
19490.0	5.1737682852358816e+17
19491.0	5.1779548025105075e+17
19492.0	5.17958614978833e+17
19493.0	5.18311853040162e+17
19494.0	5.184016591006378e+17
19495.0	5.1863061056716774e+17
19496.0	5.187523510796287e+17
19497.0	5.188108089819135e+17
19498.0	5.190047401771006e+17
19499.0	5.1883129109654144e+17
19500.0	5.1911019322845856e+17
19501.0	5.1912620540340896e+17
19502.0	5.193048805867519e+17
19503.0	5.193163943007572e+17
19504.0	5.193141267901098e+17
19505.0	5.19307307131426e+17
19506.0	5.192962179508906e+17
19507.0	5.193577590161406e+17
19508.0	5.194087076462591e+17
19509.0	5.193844900844885e+17
19510.0	5.193507059444394e+17
19511.0	5.190555622091432e+17
19512.0	5.192648950284287e+17
19513.0	5.1917646267241786e+17
19514.0	5.1917093367098016e+17
19515.0	5.191567685976064e+17
19516.0	5.1922548276155725e+17
19517.0	5.192009109908138e+17
19518.0	5.1915384342009165e+17
19519.0	5.191022455816192e+17
19520.0	5.1904803650928634e+17
19521.0	5.1899389908964685e+17
19522.0	5.189357378644651e+17
19523.0	5.1887858613835085e+17
19524.0	5.188185639703893e+17
19525.0	5.1875600655537485e+17
19526.0	5.18694071575074e+17
19527.0	5.186298209195347e+17
19528.0	5.1856427443377485e+17
19529.0	5.184976412038485e+17
19530.0	5.1843040574177274e+17
19531.0	5.183616313895594e+17
19532.0	5.182918508937215e+17
19533.0	5.182211074555903e+17
19534.0	5.182108418965504e+17
19535.0	5.1817154217683616e+17
19536.0	5.180970980343806e+17
19537.0	5.180240669529428e+17
19538.0	5.1794807077819725e+17
19539.0	5.1785335171973126e+17
19540.0	5.1779568870795936e+17
19541.0	5.177193797779455e+17
19542.0	5.1764140312275616e+17
19543.0	5.175631337051477e+17
19544.0	5.174842461170346e+17
19545.0	5.1739405306210976e+17
19546.0	5.1729225080285856e+17
19547.0	5.172443473073492e+17
19548.0	5.1716354494955514e+17
19549.0	5.170789129824938e+17
19550.0	5.1701083544398496e+17
19551.0	5.1693781002485754e+17
19552.0	5.168551303664981e+17
19553.0	5.167715376780628e+17
19554.0	5.166873757526698e+17
19555.0	5.166045581017087e+17
19556.0	5.165209832390655e+17
19557.0	5.1643645745780045e+17
19558.0	5.1635184254757536e+17
19559.0	5.1626649824788474e+17
19560.0	5.161807772996949e+17
19561.0	5.160952232848041e+17
19562.0	5.160103930669738e+17
19563.0	5.1592431511360845e+17
19564.0	5.158381127991294e+17
19565.0	5.1575163072457376e+17
19566.0	5.156639110507178e+17
19567.0	5.15577942708497e+17
19568.0	5.154900030433962e+17
19569.0	5.154028417013077e+17
19570.0	5.1531609265930234e+17
19571.0	5.1522838528873805e+17
19572.0	5.1513934601693856e+17
19573.0	5.1505209456721914e+17
19574.0	5.149611442307072e+17
19575.0	5.1487606752761165e+17
19576.0	5.1478747725605536e+17
19577.0	5.1469668273793696e+17
19578.0	5.1460894377028256e+17
19579.0	5.145204219357865e+17
19580.0	5.1443162481513805e+17
19581.0	5.143427008167935e+17
19582.0	5.1425408887466656e+17
19583.0	5.1416475012956154e+17
19584.0	5.1407530631714125e+17
19585.0	5.1398210356947616e+17
19586.0	5.138915224016213e+17
19587.0	5.1380524563824634e+17
19588.0	5.1370110491470496e+17
19589.0	5.136257826248021e+17
19590.0	5.1353364495073274e+17
19591.0	5.134463001078442e+17
19592.0	5.133563148806825e+17
19593.0	5.1326546667547296e+17
19594.0	5.1316761209514656e+17
19595.0	5.130847926965587e+17
19596.0	5.1297403217291936e+17
19597.0	5.1290396143124474e+17
19598.0	5.1280293728529056e+17
19599.0	5.127231013650432e+17
19600.0	5.126327159313747e+17
19601.0	5.125398079034708e+17
19602.0	5.124498827946666e+17
19603.0	5.123453537484798e+17
19604.0	5.122681167588011e+17
19605.0	5.1216870406444365e+17
19606.0	5.120872171962367e+17
19607.0	5.11996598419456e+17
19608.0	5.119049865712981e+17
19609.0	5.1181264701139616e+17
19610.0	5.117233307058174e+17
19611.0	5.1163179051035296e+17
19612.0	5.1154098305979725e+17
19613.0	5.114493147982506e+17
19614.0	5.113571723706367e+17
19615.0	5.1126720993252685e+17
19616.0	5.111745950165674e+17
19617.0	5.1108439748771834e+17
19618.0	5.1097677765891405e+17
19619.0	5.10878273450803e+17
19620.0	5.1078917350140576e+17
19621.0	5.107189571474771e+17
19622.0	5.106275035643903e+17
19623.0	5.105360312467455e+17
19624.0	5.1044422359449594e+17
19625.0	5.103529983213566e+17
19626.0	5.102614962241535e+17
19627.0	5.1016995323248634e+17
19628.0	5.100752995352575e+17
19629.0	5.0998403420651514e+17
19630.0	5.0989395607552e+17
19631.0	5.096558402644649e+17
19632.0	5.097119237013503e+17
19633.0	5.096191500309845e+17
19634.0	5.09528765436177e+17
19635.0	5.094358894247936e+17
19636.0	5.093452594632019e+17
19637.0	5.0924200017264634e+17
19638.0	5.091619063726079e+17
19639.0	5.090702306312192e+17
19640.0	5.089768966018389e+17
19641.0	5.088608709683883e+17
19642.0	5.087951635611647e+17
19643.0	5.0870312836792314e+17
19644.0	5.086101262477994e+17
19645.0	5.0851162455627085e+17
19646.0	5.084287397265407e+17
19647.0	5.0833704560011936e+17
19648.0	5.0824535063483725e+17
19649.0	5.0815341386792954e+17
19650.0	5.0806195874693114e+17
19651.0	5.079700330250239e+17
19652.0	5.0787831016762016e+17
19653.0	5.0778681051709434e+17
19654.0	5.076948943721812e+17
19655.0	5.0760312740468045e+17
19656.0	5.0751155791899296e+17
