# Flux units: erg / (cm m2 s)
# Wavelength units: Angstrom
wave	flux
19000.0	7.59101887034163e+17
19001.0	7.589488648432297e+17
19002.0	7.588137207332861e+17
19003.0	7.586689330795859e+17
19004.0	7.585244843256489e+17
19005.0	7.583803800638804e+17
19006.0	7.58236019949568e+17
19007.0	7.580611693423274e+17
19008.0	7.57938410033425e+17
19009.0	7.577994670025385e+17
19010.0	7.576171907994964e+17
19011.0	7.575125294929236e+17
19012.0	7.573399754069331e+17
19013.0	7.572262657283411e+17
19014.0	7.570761687848275e+17
19015.0	7.569348266120531e+17
19016.0	7.567902552446292e+17
19017.0	7.565745750452905e+17
19018.0	7.565026474852351e+17
19019.0	7.563608338726908e+17
19020.0	7.562084608202068e+17
19021.0	7.560687017175718e+17
19022.0	7.559300262832809e+17
19023.0	7.557820151671464e+17
19024.0	7.556404016229034e+17
19025.0	7.554938065037994e+17
19026.0	7.553500074475517e+17
19027.0	7.551981125457236e+17
19028.0	7.550666057362089e+17
19029.0	7.549211978847572e+17
19030.0	7.547801319768063e+17
19031.0	7.546369596893868e+17
19032.0	7.54493080661743e+17
19033.0	7.543409443078141e+17
19034.0	7.542030490140671e+17
19035.0	7.540583596468905e+17
19036.0	7.523423279732044e+17
19037.0	7.537732129652735e+17
19038.0	7.536287458962089e+17
19039.0	7.534869820560723e+17
19040.0	7.533439938985981e+17
19041.0	7.531997178101757e+17
19042.0	7.530484217151487e+17
19043.0	7.529136637607935e+17
19044.0	7.527686658326527e+17
19045.0	7.526256874618879e+17
19046.0	7.524750528086015e+17
19047.0	7.523393719675561e+17
19048.0	7.521772309402966e+17
19049.0	7.52046170264917e+17
19050.0	7.519049866368342e+17
19051.0	7.516120740615505e+17
19052.0	7.516088120115199e+17
19053.0	7.514714479962794e+17
19054.0	7.513363631658322e+17
19055.0	7.511698850884264e+17
19056.0	7.510471143150931e+17
19057.0	7.509057468366845e+17
19058.0	7.507537494540288e+17
19059.0	7.506202249046698e+17
19060.0	7.504753019147602e+17
19061.0	7.503346868944896e+17
19062.0	7.501911172666706e+17
19063.0	7.500483512674985e+17
19064.0	7.498932860310867e+17
19065.0	7.497448895982249e+17
19066.0	7.496134691913728e+17
19067.0	7.49475565928448e+17
19068.0	7.493338745099604e+17
19069.0	7.491910124612266e+17
19070.0	7.490447098249216e+17
19071.0	7.489039250751487e+17
19072.0	7.487626558832639e+17
19073.0	7.486191834234879e+17
19074.0	7.484773819744255e+17
19075.0	7.483346795888637e+17
19076.0	7.481898948711764e+17
19077.0	7.480485993949864e+17
19078.0	7.478912082771965e+17
19079.0	7.477634724265983e+17
19080.0	7.476200235947347e+17
19081.0	7.474739344485033e+17
19082.0	7.473265359803731e+17
19083.0	7.471818963856041e+17
19084.0	7.470270864424957e+17
19085.0	7.46907189326643e+17
19086.0	7.467269663752191e+17
19087.0	7.46591148520243e+17
19088.0	7.464737872805884e+17
19089.0	7.463042577072127e+17
19090.0	7.461938715951101e+17
19091.0	7.460506551276883e+17
19092.0	7.458989271591594e+17
19093.0	7.457697632878592e+17
19094.0	7.456238352029011e+17
19095.0	7.454805099631956e+17
19096.0	7.453339265881427e+17
19097.0	7.452000976721236e+17
19098.0	7.4505893473594e+17
19099.0	7.449150190780416e+17
19100.0	7.447722961403903e+17
19101.0	7.446325085164883e+17
19102.0	7.44483835678993e+17
19103.0	7.443487746162688e+17
19104.0	7.442075760285011e+17
19105.0	7.440653162818217e+17
19106.0	7.439174586772138e+17
19107.0	7.437800191645011e+17
19108.0	7.436398990721023e+17
19109.0	7.433109280653307e+17
19110.0	7.433549955203071e+17
19111.0	7.432138739679232e+17
19112.0	7.430724740535635e+17
19113.0	7.429309768313513e+17
19114.0	7.42789079891968e+17
19115.0	7.426414086542676e+17
19116.0	7.425040138807978e+17
19117.0	7.423624797487103e+17
19118.0	7.4220755222528e+17
19119.0	7.419079447019516e+17
19120.0	7.419302999228415e+17
19121.0	7.41793156248371e+17
19122.0	7.416568072546986e+17
19123.0	7.415090233300308e+17
19124.0	7.413671852507133e+17
19125.0	7.412277067470164e+17
19126.0	7.410767421418153e+17
19127.0	7.408021720967848e+17
19128.0	7.40624726194039e+17
19129.0	7.4065855409466e+17
19130.0	7.405246376574975e+17
19131.0	7.403779947233279e+17
19132.0	7.402428311797757e+17
19133.0	7.400014808612864e+17
19134.0	7.398729919933098e+17
19135.0	7.398195278992723e+17
19136.0	7.396792895275007e+17
19137.0	7.395233543924393e+17
19138.0	7.393482131199318e+17
19139.0	7.392554460206419e+17
19140.0	7.391151111798783e+17
19141.0	7.389742390487721e+17
19142.0	7.388303414263807e+17
19143.0	7.386859526509908e+17
19144.0	7.385448803117736e+17
19145.0	7.384090409260372e+17
19146.0	7.382102036534612e+17
19147.0	7.381210172314964e+17
19148.0	7.37986609221905e+17
19149.0	7.378458058773844e+17
19150.0	7.377009126670336e+17
19151.0	7.375651659754153e+17
19152.0	7.374159682906794e+17
19153.0	7.372824895990441e+17
19154.0	7.371322711605247e+17
19155.0	7.370026513683795e+17
19156.0	7.368622274685608e+17
19157.0	7.367194427348308e+17
19158.0	7.364488091839144e+17
19159.0	7.364386725298175e+17
19160.0	7.36288545527125e+17
19161.0	7.361395851001855e+17
19162.0	7.357305245575852e+17
19163.0	7.358765948294483e+17
19164.0	7.357385563701245e+17
19165.0	7.355946039421608e+17
19166.0	7.354459312444755e+17
19167.0	7.352902618884777e+17
19168.0	7.351549936271357e+17
19169.0	7.35023218382165e+17
19170.0	7.34896422195473e+17
19171.0	7.347458686320639e+17
19172.0	7.3461460383389e+17
19173.0	7.344755327369215e+17
19174.0	7.343306030361258e+17
19175.0	7.341955958003028e+17
19176.0	7.340548580267348e+17
19177.0	7.339016703006036e+17
19178.0	7.337726028982956e+17
19179.0	7.336200497703594e+17
19180.0	7.334089475140268e+17
19181.0	7.333455088058368e+17
19182.0	7.331798469399894e+17
19183.0	7.330651102161577e+17
19184.0	7.329118848811007e+17
19185.0	7.327927275006633e+17
19186.0	7.326550724007251e+17
19187.0	7.325065509776042e+17
19188.0	7.32372982248243e+17
19189.0	7.322271414048084e+17
19190.0	7.32085886473557e+17
19191.0	7.319492370279081e+17
19192.0	7.318019843817471e+17
19193.0	7.315426663639721e+17
19194.0	7.314776433273514e+17
19195.0	7.313861538130602e+17
19196.0	7.312548157543764e+17
19197.0	7.311154844707497e+17
19198.0	7.309744964370432e+17
19199.0	7.291384264392699e+17
19200.0	7.295939120551258e+17
19201.0	7.305559538313897e+17
19202.0	7.304184062454442e+17
19203.0	7.302760208094548e+17
19204.0	7.301370260488191e+17
19205.0	7.299990864352596e+17
19206.0	7.298590078664703e+17
19207.0	7.297131487079081e+17
19208.0	7.295615851560957e+17
19209.0	7.294390587708755e+17
19210.0	7.293006271654569e+17
19211.0	7.29159930356258e+17
19212.0	7.290236748955647e+17
19213.0	7.288616710220457e+17
19214.0	7.287121983307775e+17
19215.0	7.285991928758271e+17
19216.0	7.284513151385597e+17
19217.0	7.283255643122348e+17
19218.0	7.28114266461525e+17
19219.0	7.28032160723763e+17
19220.0	7.279050024288255e+17
19221.0	7.277374286594047e+17
19222.0	7.276301610123261e+17
19223.0	7.274882486938281e+17
19224.0	7.273238063917736e+17
19225.0	7.271922524662441e+17
19226.0	7.270699472606548e+17
19227.0	7.269304234584744e+17
19228.0	7.26794148983603e+17
19229.0	7.266550838984704e+17
19230.0	7.265058144911357e+17
19231.0	7.263659319361535e+17
19232.0	7.26216387941717e+17
19233.0	7.260907811198292e+17
19234.0	7.259560424592726e+17
19235.0	7.258156094717951e+17
19236.0	7.256800670427817e+17
19237.0	7.255391986865491e+17
19238.0	7.253910062366719e+17
19239.0	7.252621591751338e+17
19240.0	7.250807876834644e+17
19241.0	7.249697212552531e+17
19242.0	7.248381951519402e+17
19243.0	7.246867935002623e+17
19244.0	7.24565489754658e+17
19245.0	7.24426304852241e+17
19246.0	7.242864094347263e+17
19247.0	7.241445154313555e+17
19248.0	7.240094708662271e+17
19249.0	7.238698926779049e+17
19250.0	7.237293156859901e+17
19251.0	7.235820490588157e+17
19252.0	7.234141439393792e+17
19253.0	7.233114917044224e+17
19254.0	7.231676374231721e+17
19255.0	7.230149277078867e+17
19256.0	7.22887380041728e+17
19257.0	7.22754853736721e+17
19258.0	7.226148158526804e+17
19259.0	7.224693833946451e+17
19260.0	7.223235233972223e+17
19261.0	7.221969290963625e+17
19262.0	7.220527438845267e+17
19263.0	7.219147498848255e+17
19264.0	7.217317606501033e+17
19265.0	7.2162459282746e+17
19266.0	7.214908213734057e+17
19267.0	7.213618117126825e+17
19268.0	7.212206890418173e+17
19269.0	7.210824172393812e+17
19270.0	7.209414132673194e+17
19271.0	7.207730227270998e+17
19272.0	7.206603962974207e+17
19273.0	7.194640929958556e+17
19274.0	7.198641554980858e+17
19275.0	7.202448336049492e+17
19276.0	7.201033204443816e+17
19277.0	7.199631932216662e+17
19278.0	7.198239364568403e+17
19279.0	7.196684246668628e+17
19280.0	7.195365932182186e+17
19281.0	7.194039512902313e+17
19282.0	7.192653190572713e+17
19283.0	7.190965103449428e+17
19284.0	7.189145515109033e+17
19285.0	7.188217644187647e+17
19286.0	7.187015253273257e+17
19287.0	7.185647409648982e+17
19288.0	7.180453953929212e+17
19289.0	7.172143446665876e+17
19290.0	7.181435843291817e+17
19291.0	7.179776819899049e+17
19292.0	7.178622905352191e+17
19293.0	7.177209252937727e+17
19294.0	7.17579577668403e+17
19295.0	7.174399443948883e+17
19296.0	7.17298245706274e+17
19297.0	7.171545786307926e+17
19298.0	7.170133088796671e+17
19299.0	7.168749308215296e+17
19300.0	7.167336662433791e+17
19301.0	7.165910657794047e+17
19302.0	7.164486888718335e+17
19303.0	7.162981783699455e+17
19304.0	7.1615933068957e+17
19305.0	7.160232543256575e+17
19306.0	7.158806776294058e+17
19307.0	7.157328997165736e+17
19308.0	7.155939959723347e+17
19309.0	7.154068325662717e+17
19310.0	7.152316166351526e+17
19311.0	7.151629901321556e+17
19312.0	7.150220429230079e+17
19313.0	7.148372884455424e+17
19314.0	7.144249321586684e+17
19315.0	7.142977549893636e+17
19316.0	7.144528863559679e+17
19317.0	7.143102769441449e+17
19318.0	7.14165796872738e+17
19319.0	7.140232407285757e+17
19320.0	7.138675824175785e+17
19321.0	7.137343271425364e+17
19322.0	7.135710680536403e+17
19323.0	7.134150575609172e+17
19324.0	7.132981417563475e+17
19325.0	7.131250733088768e+17
19326.0	7.13007409799714e+17
19327.0	7.128598664882858e+17
19328.0	7.127157102171475e+17
19329.0	7.125690524631039e+17
19330.0	7.124182901631657e+17
19331.0	7.122707339892054e+17
19332.0	7.121260636362068e+17
19333.0	7.119765559924051e+17
19334.0	7.118158748625577e+17
19335.0	7.116819628993194e+17
19336.0	7.115319112542889e+17
19337.0	7.11381292679168e+17
19338.0	7.112136783648083e+17
19339.0	7.110816732719785e+17
19340.0	7.109271472832511e+17
19341.0	7.107792385081343e+17
19342.0	7.105836090392575e+17
19343.0	7.104752036173139e+17
19344.0	7.103211197082281e+17
19345.0	7.099928673255418e+17
19346.0	7.099595427414016e+17
19347.0	7.098515247333375e+17
19348.0	7.097028903436288e+17
19349.0	7.095432007472468e+17
19350.0	7.093866554807635e+17
19351.0	7.092290037568851e+17
19352.0	7.090676579696639e+17
19353.0	7.089158873590441e+17
19354.0	7.087545843537236e+17
19355.0	7.085854579927721e+17
19356.0	7.084329595305983e+17
19357.0	7.08269045850658e+17
19358.0	7.080953952337919e+17
19359.0	7.078823324199594e+17
19360.0	7.077707486942548e+17
19361.0	7.075995278376959e+17
19362.0	7.074398044072617e+17
19363.0	7.072697432757587e+17
19364.0	7.070976325277011e+17
19365.0	7.069248567028394e+17
19366.0	7.067516899688447e+17
19367.0	7.065758845982036e+17
19368.0	7.063991987033427e+17
19369.0	7.061974409368916e+17
19370.0	7.059052700543657e+17
19371.0	7.058517280860842e+17
19372.0	7.056722391378602e+17
19373.0	7.054823663512233e+17
19374.0	7.052953490467497e+17
19375.0	7.051032788642474e+17
19376.0	7.049084401614845e+17
19377.0	7.047123577077759e+17
19378.0	7.045134201913343e+17
19379.0	7.043103143755775e+17
19380.0	7.041056094115156e+17
19381.0	7.038967302761129e+17
19382.0	7.036769811824639e+17
19383.0	7.034588881398441e+17
19384.0	7.032493336515923e+17
19385.0	7.030247732718249e+17
19386.0	7.027956582973439e+17
19387.0	7.025613918786899e+17
19388.0	7.023230774673407e+17
19389.0	7.02079196865058e+17
19390.0	7.018234746940073e+17
19391.0	7.001940305117162e+17
19392.0	7.013041412156073e+17
19393.0	7.010405179544916e+17
19394.0	7.007631311547049e+17
19395.0	7.004776313825961e+17
19396.0	7.001812452944553e+17
19397.0	6.998841375763114e+17
19398.0	6.995698193006591e+17
19399.0	6.991900453459283e+17
19400.0	6.989118154211327e+17
19401.0	6.985709251810644e+17
19402.0	6.982097414302378e+17
19403.0	6.978370787082239e+17
19404.0	6.974527700118185e+17
19405.0	6.970490406393172e+17
19406.0	6.9662671910557e+17
19407.0	6.961905443449514e+17
19408.0	6.956698103185408e+17
19409.0	6.952348094737066e+17
19410.0	6.947449704109395e+17
19411.0	6.942134160588797e+17
19412.0	6.936519948369919e+17
19413.0	6.930663315865599e+17
19414.0	6.924451914448893e+17
19415.0	6.917870060918099e+17
19416.0	6.910733318444372e+17
19417.0	6.903245659526484e+17
19418.0	6.895734756474879e+17
19419.0	6.887345513037823e+17
19420.0	6.878614888906751e+17
19421.0	6.869086489979562e+17
19422.0	6.85893324181777e+17
19423.0	6.848070862678697e+17
19424.0	6.836444350556841e+17
19425.0	6.823858974403241e+17
19426.0	6.810352659114666e+17
19427.0	6.795870206252374e+17
19428.0	6.780666608528041e+17
19429.0	6.763848595931135e+17
19430.0	6.745135668789249e+17
19431.0	6.72282533604011e+17
19432.0	6.703645403206995e+17
19433.0	6.680128945913856e+17
19434.0	6.655670881353727e+17
19435.0	6.628762351304703e+17
19436.0	6.598342205942441e+17
19437.0	6.566809113198592e+17
19438.0	6.515983421625684e+17
19439.0	6.489059966844928e+17
19440.0	6.447703892426751e+17
19441.0	6.402349591429117e+17
19442.0	6.350701281498456e+17
19443.0	6.291161234800637e+17
19444.0	6.227647655488166e+17
19445.0	6.158369166808407e+17
19446.0	6.07733318488337e+17
19447.0	5.987536040099835e+17
19448.0	5.881104272370351e+17
19449.0	5.7335243215994874e+17
19450.0	5.3814229900547085e+17
19451.0	5.2437279764206944e+17
19452.0	5.5856153773124326e+17
19453.0	5.816647296221189e+17
19454.0	5.931864334969508e+17
19455.0	6.026268243918847e+17
19456.0	6.109741622580567e+17
19457.0	6.182041380978684e+17
19458.0	6.241593439464111e+17
19459.0	6.304872359351639e+17
19460.0	6.35767566386244e+17
19461.0	6.403424878155092e+17
19462.0	6.443953003954176e+17
19463.0	6.482444581251752e+17
19464.0	6.519025413302953e+17
19465.0	6.550896981486249e+17
19466.0	6.578707800697512e+17
19467.0	6.604656754382166e+17
19468.0	6.627555335471104e+17
19469.0	6.647352195896659e+17
19470.0	6.669027747998376e+17
19471.0	6.687243336941567e+17
19472.0	6.703600596855465e+17
19473.0	6.718440802877439e+17
19474.0	6.731864267380052e+17
19475.0	6.743432109577555e+17
19476.0	6.755108322803711e+17
19477.0	6.765515348028074e+17
19478.0	6.77484552135202e+17
19479.0	6.7834412021405e+17
19480.0	6.791178082407766e+17
19481.0	6.798328584295764e+17
19482.0	6.804816853816659e+17
19483.0	6.810695326061908e+17
19484.0	6.81600691015953e+17
19485.0	6.820923431365289e+17
19486.0	6.825383241099946e+17
19487.0	6.829483912855551e+17
19488.0	6.833185279180799e+17
19489.0	6.836506182287359e+17
19490.0	6.838457091489788e+17
19491.0	6.84230750380578e+17
19492.0	6.844840204217e+17
19493.0	6.8470692132509e+17
19494.0	6.84910385963554e+17
19495.0	6.850737232762195e+17
19496.0	6.852131120218111e+17
19497.0	6.853968221874857e+17
19498.0	6.85441139273455e+17
19499.0	6.83390561034784e+17
19500.0	6.85734382150178e+17
19501.0	6.858185477805396e+17
19502.0	6.858938507766441e+17
19503.0	6.859556980959913e+17
19504.0	6.859985720617642e+17
19505.0	6.860480241642154e+17
19506.0	6.860810281637204e+17
19507.0	6.861029933842431e+17
19508.0	6.861203526298281e+17
19509.0	6.861273083237716e+17
19510.0	6.861114985938943e+17
19511.0	6.848162028672334e+17
19512.0	6.85816241262864e+17
19513.0	6.854602762747891e+17
19514.0	6.856410551113038e+17
19515.0	6.859735618464426e+17
19516.0	6.860049121017855e+17
19517.0	6.85960848281873e+17
19518.0	6.8592504682141e+17
19519.0	6.858789659607039e+17
19520.0	6.858266504069119e+17
19521.0	6.857756441750185e+17
19522.0	6.857138441114963e+17
19523.0	6.856586995695615e+17
19524.0	6.855954300316329e+17
19525.0	6.85521375470114e+17
19526.0	6.854589099802623e+17
19527.0	6.853876449105236e+17
19528.0	6.853150299040425e+17
19529.0	6.852385506852863e+17
19530.0	6.851617283724628e+17
19531.0	6.850824878336681e+17
19532.0	6.850000917102591e+17
19533.0	6.849168290436435e+17
19534.0	6.84831557095697e+17
19535.0	6.847425916436479e+17
19536.0	6.846525396571476e+17
19537.0	6.845656361249449e+17
19538.0	6.844699962769407e+17
19539.0	6.843334168062636e+17
19540.0	6.842843758155092e+17
19541.0	6.841914663195988e+17
19542.0	6.840942564737023e+17
19543.0	6.839963080108713e+17
19544.0	6.838980756635647e+17
19545.0	6.837662452634962e+17
19546.0	6.836188651104938e+17
19547.0	6.835898305303891e+17
19548.0	6.834935822985897e+17
19549.0	6.833805067288575e+17
19550.0	6.832866430287871e+17
19551.0	6.83182263509538e+17
19552.0	6.830764176616106e+17
19553.0	6.829684164307625e+17
19554.0	6.828594523275264e+17
19555.0	6.827541177652563e+17
19556.0	6.826468175424169e+17
19557.0	6.825372986026666e+17
19558.0	6.824282733324969e+17
19559.0	6.823136866948436e+17
19560.0	6.822053459350868e+17
19561.0	6.820941371102548e+17
19562.0	6.819844964657834e+17
19563.0	6.818706102069929e+17
19564.0	6.817608081517225e+17
19565.0	6.8164789469184e+17
19566.0	6.815332551360511e+17
19567.0	6.814202419216383e+17
19568.0	6.813050068445866e+17
19569.0	6.811915421133481e+17
19570.0	6.810793681791657e+17
19571.0	6.809640659233449e+17
19572.0	6.808456247203156e+17
19573.0	6.807320967249919e+17
19574.0	6.8060698916509e+17
19575.0	6.804999250815657e+17
19576.0	6.803838797348863e+17
19577.0	6.802519435684522e+17
19578.0	6.801469247673684e+17
19579.0	6.800313862324223e+17
19580.0	6.799142351273983e+17
19581.0	6.797978029260799e+17
19582.0	6.796814235729919e+17
19583.0	6.795633089664339e+17
19584.0	6.794442013584042e+17
19585.0	6.793146446905343e+17
19586.0	6.791748257491626e+17
19587.0	6.790504807137279e+17
19588.0	6.78921299436066e+17
19589.0	6.788041783902205e+17
19590.0	6.787220590908755e+17
19591.0	6.786111377156778e+17
19592.0	6.784918886197929e+17
19593.0	6.783687706978985e+17
19594.0	6.782262786566825e+17
19595.0	6.781300906830506e+17
19596.0	6.77563923676092e+17
19597.0	6.778880306184192e+17
19598.0	6.777510089981951e+17
19599.0	6.776512040665087e+17
19600.0	6.775311085600768e+17
19601.0	6.774056795067732e+17
19602.0	6.772873291104255e+17
19603.0	6.771099711482536e+17
19604.0	6.770425915419306e+17
19605.0	6.768998075771562e+17
19606.0	6.768028270897833e+17
19607.0	6.766853126881277e+17
19608.0	6.765624012658003e+17
19609.0	6.764370080737961e+17
19610.0	6.76321325953843e+17
19611.0	6.761992249409535e+17
19612.0	6.760785552343039e+17
19613.0	6.759550747148287e+17
19614.0	6.758311120601088e+17
19615.0	6.757131055267839e+17
19616.0	6.755797405007871e+17
19617.0	6.754686738628608e+17
19618.0	6.753043487916031e+17
19619.0	6.751683810601641e+17
19620.0	6.750486152260265e+17
19621.0	6.749807864097449e+17
19622.0	6.748591941659305e+17
19623.0	6.747372846230185e+17
19624.0	6.746140933008041e+17
19625.0	6.744922396120404e+17
19626.0	6.743693395143338e+17
19627.0	6.74248103297024e+17
19628.0	6.740866011321686e+17
19629.0	6.73995000119296e+17
19630.0	6.73845109395729e+17
19631.0	6.720104888795128e+17
19632.0	6.736345047236607e+17
19633.0	6.735085155909631e+17
19634.0	6.733906065752061e+17
19635.0	6.732642155582804e+17
19636.0	6.731444760783529e+17
19637.0	6.729832309544276e+17
19638.0	6.728994509903187e+17
19639.0	6.727746037568852e+17
19640.0	6.726488190266025e+17
19641.0	6.724897561291436e+17
19642.0	6.724084919085738e+17
19643.0	6.722830087487487e+17
19644.0	6.721588424605695e+17
19645.0	6.720192306479103e+17
19646.0	6.71919073534498e+17
19647.0	6.717963258298367e+17
19648.0	6.716730993453737e+17
19649.0	6.715500349707604e+17
19650.0	6.7142800113664e+17
19651.0	6.713045290756777e+17
19652.0	6.711815152424275e+17
19653.0	6.710587973173247e+17
19654.0	6.709357692234409e+17
19655.0	6.708123619644755e+17
19656.0	6.706895928688637e+17
19657.0	6.705672522214057e+17
19658.0	6.704443719767379e+17
19659.0	6.703223064756223e+17
19660.0	6.701998867655338e+17
19661.0	6.700767900947796e+17
19662.0	6.699542407806975e+17
19663.0	6.698269118474921e+17
19664.0	6.696998163273044e+17
19665.0	6.695857827086333e+17
19666.0	6.694612127885993e+17
