# Flux units: erg / (cm m2 s)
# Wavelength units: Angstrom
wave	flux
19000.0	6.836410313779881e+17
19001.0	6.835087886778367e+17
19002.0	6.833873341470036e+17
19003.0	6.832603062250153e+17
19004.0	6.831333088515412e+17
19005.0	6.830064993828861e+17
19006.0	6.828795213032105e+17
19007.0	6.827459364257791e+17
19008.0	6.826221829969236e+17
19009.0	6.824925881608872e+17
19010.0	6.823476626543955e+17
19011.0	6.822413119520767e+17
19012.0	6.820981908351658e+17
19013.0	6.819900579031721e+17
19014.0	6.818590839100755e+17
19015.0	6.817331546161151e+17
19016.0	6.816053231353855e+17
19017.0	6.814801000923133e+17
19018.0	6.813522944065536e+17
19019.0	6.81226586292224e+17
19020.0	6.810977228029951e+17
19021.0	6.809719308025855e+17
19022.0	6.808452651985578e+17
19023.0	6.80715631005969e+17
19024.0	6.805892392200873e+17
19025.0	6.804619945224873e+17
19026.0	6.803329979340116e+17
19027.0	6.801926574309375e+17
19028.0	6.800815229151914e+17
19029.0	6.799533281378303e+17
19030.0	6.79826871689762e+17
19031.0	6.796995596735828e+17
19032.0	6.795722035473066e+17
19033.0	6.794399486836736e+17
19034.0	6.79317415727377e+17
19035.0	6.791867193273001e+17
19036.0	6.779776117942954e+17
19037.0	6.789348119456426e+17
19038.0	6.788066405165738e+17
19039.0	6.786806916491945e+17
19040.0	6.785533385987412e+17
19041.0	6.784258557345791e+17
19042.0	6.782942532250281e+17
19043.0	6.781712706393428e+17
19044.0	6.780437720465408e+17
19045.0	6.779165049793193e+17
19046.0	6.777863727830355e+17
19047.0	6.776604815873363e+17
19048.0	6.77523732177442e+17
19049.0	6.774034038871379e+17
19050.0	6.772772458637993e+17
19051.0	6.76994893427507e+17
19052.0	6.769895227610452e+17
19053.0	6.768957318321492e+17
19054.0	6.767699075355988e+17
19055.0	6.766288074440704e+17
19056.0	6.7651416635037e+17
19057.0	6.763874219633322e+17
19058.0	6.762588227851604e+17
19059.0	6.76133081186304e+17
19060.0	6.760045770091178e+17
19061.0	6.758784780555604e+17
19062.0	6.757508607639551e+17
19063.0	6.756235920190122e+17
19064.0	6.754900169981951e+17
19065.0	6.753594432116052e+17
19066.0	6.752384943041194e+17
19067.0	6.751141408101716e+17
19068.0	6.749869849619113e+17
19069.0	6.74859666584371e+17
19070.0	6.747310683149652e+17
19071.0	6.746050782035967e+17
19072.0	6.744777587075753e+17
19073.0	6.743501649040723e+17
19074.0	6.742231501242367e+17
19075.0	6.740958534871721e+17
19076.0	6.739674741604351e+17
19077.0	6.738404601495551e+17
19078.0	6.737125313609727e+17
19079.0	6.735867101402451e+17
19080.0	6.734589341641385e+17
19081.0	6.733301708488703e+17
19082.0	6.73202526364194e+17
19083.0	6.730714554826751e+17
19084.0	6.729375068891817e+17
19085.0	6.728230775379284e+17
19086.0	6.726747048028841e+17
19087.0	6.725364176912384e+17
19088.0	6.724353473380351e+17
19089.0	6.722878095491071e+17
19090.0	6.721849543098365e+17
19091.0	6.720580582987092e+17
19092.0	6.719226198185299e+17
19093.0	6.718054418699603e+17
19094.0	6.716776680609108e+17
19095.0	6.715503534582441e+17
19096.0	6.714230348709887e+17
19097.0	6.712967000577366e+17
19098.0	6.711698138333183e+17
19099.0	6.710426394602153e+17
19100.0	6.709136335044607e+17
19101.0	6.707881648149844e+17
19102.0	6.706562853415593e+17
19103.0	6.705342529754452e+17
19104.0	6.704071482277887e+17
19105.0	6.702799824530089e+17
19106.0	6.701470731381417e+17
19107.0	6.700249601714857e+17
19108.0	6.698985801296553e+17
19109.0	6.696784801125715e+17
19110.0	6.696404779007999e+17
19111.0	6.695176385505961e+17
19112.0	6.693906889921876e+17
19113.0	6.692636893118461e+17
19114.0	6.691366701279914e+17
19115.0	6.690055069717846e+17
19116.0	6.688813990543359e+17
19117.0	6.687542662048426e+17
19118.0	6.686188580634623e+17
19119.0	6.68300659217749e+17
19120.0	6.683658864470697e+17
19121.0	6.682409358939476e+17
19122.0	6.681208484265983e+17
19123.0	6.679938164501161e+17
19124.0	6.678616332391764e+17
19125.0	6.67738916851985e+17
19126.0	6.676124700508159e+17
19127.0	6.673924918083583e+17
19128.0	6.673190944243711e+17
19129.0	6.672280375525375e+17
19130.0	6.671047318656339e+17
19131.0	6.669776606724096e+17
19132.0	6.668513941564073e+17
19133.0	6.667084702416896e+17
19134.0	6.665807699028649e+17
19135.0	6.664707219215702e+17
19136.0	6.663442159108095e+17
19137.0	6.662087094829055e+17
19138.0	6.660879816851453e+17
19139.0	6.659635244520788e+17
19140.0	6.658368592674816e+17
19141.0	6.657100091140777e+17
19142.0	6.655818894846634e+17
19143.0	6.654536989715114e+17
19144.0	6.65328023572753e+17
19145.0	6.652023480341843e+17
19146.0	6.65044100509423e+17
19147.0	6.64943351439906e+17
19148.0	6.6482174178973e+17
19149.0	6.646950760458921e+17
19150.0	6.645681880039423e+17
19151.0	6.644418605307219e+17
19152.0	6.643136766585514e+17
19153.0	6.641873045159935e+17
19154.0	6.640546249790804e+17
19155.0	6.639347168182272e+17
19156.0	6.638076584176297e+17
19157.0	6.636789717882196e+17
19158.0	6.634901340859049e+17
19159.0	6.634259305463807e+17
19160.0	6.632992002102612e+17
19161.0	6.631731425705983e+17
19162.0	6.629099047660202e+17
19163.0	6.629213278830591e+17
19164.0	6.628006332203007e+17
19165.0	6.626710952869885e+17
19166.0	6.625376972658004e+17
19167.0	6.624065917812735e+17
19168.0	6.622909852986026e+17
19169.0	6.62162844557858e+17
19170.0	6.620397439025151e+17
19171.0	6.619045026245289e+17
19172.0	6.617854152889684e+17
19173.0	6.616590590148607e+17
19174.0	6.615297822468778e+17
19175.0	6.614060576888148e+17
19176.0	6.612792303943679e+17
19177.0	6.611441713588906e+17
19178.0	6.610214012147028e+17
19179.0	6.608869579030527e+17
19180.0	6.607684986645162e+17
19181.0	6.606392361571668e+17
19182.0	6.605163710119935e+17
19183.0	6.603909200784042e+17
19184.0	6.602624885325823e+17
19185.0	6.601371169412435e+17
19186.0	6.600105155799721e+17
19187.0	6.598803732474536e+17
19188.0	6.597561748029439e+17
19189.0	6.596280121120084e+17
19190.0	6.595004531212288e+17
19191.0	6.593734837097812e+17
19192.0	6.592486970141353e+17
19193.0	6.591202510678698e+17
19194.0	6.589935772150441e+17
19195.0	6.588677405452969e+17
19196.0	6.587398486665897e+17
19197.0	6.586121221832703e+17
19198.0	6.58482059682338e+17
19199.0	6.575070711382012e+17
19200.0	6.576253879102125e+17
19201.0	6.581014649722195e+17
19202.0	6.579774342998698e+17
19203.0	6.578489260681897e+17
19204.0	6.577228511619753e+17
19205.0	6.575970827195732e+17
19206.0	6.574691277864959e+17
19207.0	6.573370148301481e+17
19208.0	6.572052231574868e+17
19209.0	6.570884955373568e+17
19210.0	6.569612102249129e+17
19211.0	6.568338643047764e+17
19212.0	6.567065288703999e+17
19213.0	6.565687747848873e+17
19214.0	6.564360428191744e+17
19215.0	6.563207513986388e+17
19216.0	6.561966389373609e+17
19217.0	6.560694347147945e+17
19218.0	6.558976662918483e+17
19219.0	6.558060002672637e+17
19220.0	6.556855175566675e+17
19221.0	6.555422497090217e+17
19222.0	6.554307931406333e+17
19223.0	6.553036646252543e+17
19224.0	6.551741508790953e+17
19225.0	6.550404159853908e+17
19226.0	6.549196310751913e+17
19227.0	6.547915742205268e+17
19228.0	6.546647934828541e+17
19229.0	6.545368379206314e+17
19230.0	6.544071624840531e+17
19231.0	6.542790160809983e+17
19232.0	6.541518649163775e+17
19233.0	6.540207013407401e+17
19234.0	6.538951111562579e+17
19235.0	6.537669155400361e+17
19236.0	6.536397842983594e+17
19237.0	6.535105458383529e+17
19238.0	6.533769308318378e+17
19239.0	6.532545235648511e+17
19240.0	6.531221267240276e+17
19241.0	6.529948312054441e+17
19242.0	6.528675902827178e+17
19243.0	6.527310214376105e+17
19244.0	6.526112738486954e+17
19245.0	6.52482383446016e+17
19246.0	6.523525851862356e+17
19247.0	6.522243123249153e+17
19248.0	6.520953000077994e+17
19249.0	6.519659194307923e+17
19250.0	6.518357596220073e+17
19251.0	6.516999380620628e+17
19252.0	6.515634246516735e+17
19253.0	6.514472365588479e+17
19254.0	6.513182603127465e+17
19255.0	6.511797579634004e+17
19256.0	6.510556555684521e+17
19257.0	6.50929300972066e+17
19258.0	6.507994183368701e+17
19259.0	6.506656403816447e+17
19260.0	6.505200980328445e+17
19261.0	6.504087226941439e+17
19262.0	6.502757108984489e+17
19263.0	6.501440737858902e+17
19264.0	6.499888269361151e+17
19265.0	6.498758584609449e+17
19266.0	6.497460451715754e+17
19267.0	6.496243294055082e+17
19268.0	6.494931406640467e+17
19269.0	6.493618097356799e+17
19270.0	6.492295627713194e+17
19271.0	6.49041106051618e+17
19272.0	6.489250700722175e+17
19273.0	6.486775923649193e+17
19274.0	6.485887872750931e+17
19275.0	6.485308010222931e+17
19276.0	6.483973917463892e+17
19277.0	6.482650765546836e+17
19278.0	6.481332441273684e+17
19279.0	6.479990576469332e+17
19280.0	6.478631603798015e+17
19281.0	6.477328429350911e+17
19282.0	6.476002448375807e+17
19283.0	6.474535230504959e+17
19284.0	6.473183849523882e+17
19285.0	6.471880161973588e+17
19286.0	6.470625269557929e+17
19287.0	6.46929879994641e+17
19288.0	6.464664305838757e+17
19289.0	6.459878803505142e+17
19290.0	6.465250541611689e+17
19291.0	6.46375714778863e+17
19292.0	6.462540492745385e+17
19293.0	6.461177398471337e+17
19294.0	6.459819775666857e+17
19295.0	6.458455007865514e+17
19296.0	6.457087397724159e+17
19297.0	6.455715238860116e+17
19298.0	6.454333694541823e+17
19299.0	6.452966760382463e+17
19300.0	6.451585752236031e+17
19301.0	6.450200149229568e+17
19302.0	6.44880643723537e+17
19303.0	6.447386777179475e+17
19304.0	6.44601092313361e+17
19305.0	6.444626593098409e+17
19306.0	6.443234767841961e+17
19307.0	6.44179560636962e+17
19308.0	6.440397774170793e+17
19309.0	6.438703140438015e+17
19310.0	6.437190459108009e+17
19311.0	6.436115777759913e+17
19312.0	6.43474293592337e+17
19313.0	6.433313899500884e+17
19314.0	6.424094708858885e+17
19315.0	6.423021827566255e+17
19316.0	6.42897877803554e+17
19317.0	6.427560342017364e+17
19318.0	6.426097578497364e+17
19319.0	6.424648015151103e+17
19320.0	6.423182087028736e+17
19321.0	6.421713698947071e+17
19322.0	6.420167252071763e+17
19323.0	6.418624551408979e+17
19324.0	6.417261316625748e+17
19325.0	6.415492900891306e+17
19326.0	6.414265151913983e+17
19327.0	6.412755596039508e+17
19328.0	6.411248970585428e+17
19329.0	6.409728261357567e+17
19330.0	6.408178875673258e+17
19331.0	6.406638244899498e+17
19332.0	6.405114360583508e+17
19333.0	6.403564651937791e+17
19334.0	6.402001136342356e+17
19335.0	6.400434622518612e+17
19336.0	6.398856358352212e+17
19337.0	6.397268253649578e+17
19338.0	6.395563097806164e+17
19339.0	6.394072495292415e+17
19340.0	6.392422465885526e+17
19341.0	6.390815862205098e+17
19342.0	6.388982877257727e+17
19343.0	6.38754966610466e+17
19344.0	6.385894272182954e+17
19345.0	6.383250293391359e+17
19346.0	6.382044380659711e+17
19347.0	6.38081363415313e+17
19348.0	6.379147095266644e+17
19349.0	6.377413913782953e+17
19350.0	6.375679443249834e+17
19351.0	6.373936131123882e+17
19352.0	6.372150658553172e+17
19353.0	6.370415175095636e+17
19354.0	6.368626329605459e+17
19355.0	6.366775787301546e+17
19356.0	6.364997781291007e+17
19357.0	6.363159786247507e+17
19358.0	6.361291834086739e+17
19359.0	6.359368788344831e+17
19360.0	6.357521359612585e+17
19361.0	6.355080531935231e+17
19362.0	6.353017485219156e+17
19363.0	6.351068945099433e+17
19364.0	6.349099482393257e+17
19365.0	6.347109973011114e+17
19366.0	6.34509763612945e+17
19367.0	6.343062934519807e+17
19368.0	6.34100486574353e+17
19369.0	6.338882930300243e+17
19370.0	6.336684662718464e+17
19371.0	6.334652137253546e+17
19372.0	6.332518336124244e+17
19373.0	6.330320182487721e+17
19374.0	6.328113411653631e+17
19375.0	6.325865123501395e+17
19376.0	6.323589324210173e+17
19377.0	6.321278656970751e+17
19378.0	6.318942823907327e+17
19379.0	6.316226824022697e+17
19380.0	6.313093070760618e+17
19381.0	6.310648783481514e+17
19382.0	6.308126014483114e+17
19383.0	6.305582748620116e+17
19384.0	6.303079800504319e+17
19385.0	6.300475349532671e+17
19386.0	6.297828812215636e+17
19387.0	6.295135732804265e+17
19388.0	6.29207896948736e+17
19389.0	6.288056872424788e+17
19390.0	6.285195129563817e+17
19391.0	6.273147494640287e+17
19392.0	6.2790016986426e+17
19393.0	6.276272391629482e+17
19394.0	6.272239696259754e+17
19395.0	6.267892970553343e+17
19396.0	6.264626758374739e+17
19397.0	6.26131967480081e+17
19398.0	6.256859865066152e+17
19399.0	6.251413439687337e+17
19400.0	6.248116974693034e+17
19401.0	6.243472894503592e+17
19402.0	6.237370087811753e+17
19403.0	6.23341571477777e+17
19404.0	6.225986448261115e+17
19405.0	6.221088234493267e+17
19406.0	6.212703211924141e+17
19407.0	6.206561309425663e+17
19408.0	6.196465516238164e+17
19409.0	6.187144444553901e+17
19410.0	6.17652895123593e+17
19411.0	6.165364769554432e+17
19412.0	6.156243430626644e+17
19413.0	6.149728584597503e+17
19414.0	6.142936631388841e+17
19415.0	6.135915127417513e+17
19416.0	6.128513485286058e+17
19417.0	6.120864442133161e+17
19418.0	6.113057195425792e+17
19419.0	6.104817625027924e+17
19420.0	6.095994184444586e+17
19421.0	6.086781887141206e+17
19422.0	6.077490239198548e+17
19423.0	6.067862308738387e+17
19424.0	6.057336879011156e+17
19425.0	6.046236249423872e+17
19426.0	6.035092303162025e+17
19427.0	6.022108057086634e+17
19428.0	6.009216551966036e+17
19429.0	5.994806612328443e+17
19430.0	5.978380667890349e+17
19431.0	5.958371396725416e+17
19432.0	5.936880787565224e+17
19433.0	5.907501643988987e+17
19434.0	5.868654800753996e+17
19435.0	5.834251690486441e+17
19436.0	5.808428002486954e+17
19437.0	5.781120392800938e+17
19438.0	5.740444582062765e+17
19439.0	5.720066168804692e+17
19440.0	5.686799570217643e+17
19441.0	5.6481691320975334e+17
19442.0	5.60109100151603e+17
19443.0	5.53475840741648e+17
19444.0	5.450787097761102e+17
19445.0	5.3807176283586586e+17
19446.0	5.296740125114368e+17
19447.0	5.1836356342579066e+17
19448.0	5.029744602338652e+17
19449.0	4.8231521071049395e+17
19450.0	4.461644270796752e+17
19451.0	4.3582333687343763e+17
19452.0	4.652231702522548e+17
19453.0	4.940516328909491e+17
19454.0	5.1065744837836717e+17
19455.0	5.239901199706795e+17
19456.0	5.333117692106071e+17
19457.0	5.406403282512552e+17
19458.0	5.46708370943728e+17
19459.0	5.556175460368391e+17
19460.0	5.608999116341246e+17
19461.0	5.648675769767255e+17
19462.0	5.6827172813974195e+17
19463.0	5.712822434529277e+17
19464.0	5.740422041873067e+17
19465.0	5.767175848940887e+17
19466.0	5.791318862550355e+17
19467.0	5.816555215170225e+17
19468.0	5.854724855169023e+17
19469.0	5.885405456323926e+17
19470.0	5.908783814060716e+17
19471.0	5.927623312015364e+17
19472.0	5.942252173350227e+17
19473.0	5.95487278165743e+17
19474.0	5.966825736459606e+17
19475.0	5.976561327013885e+17
19476.0	5.986728616307369e+17
19477.0	5.995291211027798e+17
19478.0	6.004233511195988e+17
19479.0	6.011751322965331e+17
19480.0	6.018876600309076e+17
19481.0	6.025646932579668e+17
19482.0	6.032613205256874e+17
19483.0	6.038679615176703e+17
19484.0	6.044432818241533e+17
19485.0	6.049850895018665e+17
19486.0	6.054977977275731e+17
19487.0	6.05979277402658e+17
19488.0	6.06435526451746e+17
19489.0	6.068573998241108e+17
19490.0	6.072979451194028e+17
19491.0	6.080970085455196e+17
19492.0	6.090662642450431e+17
19493.0	6.098737582921047e+17
19494.0	6.104679028446547e+17
19495.0	6.110495169140052e+17
19496.0	6.115390170770089e+17
19497.0	6.119278919024637e+17
19498.0	6.121772278961487e+17
19499.0	6.112399388748457e+17
19500.0	6.128456914610861e+17
19501.0	6.132724061088425e+17
19502.0	6.134003722267306e+17
19503.0	6.135215977485652e+17
19504.0	6.138798062698496e+17
19505.0	6.139868055513769e+17
19506.0	6.140802671575039e+17
19507.0	6.141667358102868e+17
19508.0	6.144054902041258e+17
19509.0	6.145154092105727e+17
19510.0	6.145689995531603e+17
19511.0	6.130677150558885e+17
19512.0	6.144322925756413e+17
19513.0	6.143366023959887e+17
19514.0	6.14609648580471e+17
19515.0	6.149242896777215e+17
19516.0	6.14988630860322e+17
19517.0	6.150128790405119e+17
19518.0	6.150376604565504e+17
19519.0	6.150545360289791e+17
19520.0	6.15067643089169e+17
19521.0	6.150783191307603e+17
19522.0	6.150824761753599e+17
19523.0	6.15110273995025e+17
19524.0	6.151862777195177e+17
19525.0	6.151807628389034e+17
19526.0	6.151740230118057e+17
19527.0	6.15163396952337e+17
19528.0	6.151491889572522e+17
19529.0	6.151327347026601e+17
19530.0	6.151135661741395e+17
19531.0	6.150913345454079e+17
19532.0	6.15066454003985e+17
19533.0	6.15039022277154e+17
19534.0	6.150088961294335e+17
19535.0	6.149761939101012e+17
19536.0	6.149400116068351e+17
19537.0	6.149053272992428e+17
19538.0	6.148593354276863e+17
19539.0	6.147984263042388e+17
19540.0	6.14780408762641e+17
19541.0	6.147368922994003e+17
19542.0	6.146898584229203e+17
19543.0	6.146410543404372e+17
19544.0	6.146287140689238e+17
19545.0	6.145757535010815e+17
19546.0	6.14503765053713e+17
19547.0	6.144927692663465e+17
19548.0	6.144353900691455e+17
19549.0	6.143719666701652e+17
19550.0	6.143169111173802e+17
19551.0	6.142554902189396e+17
19552.0	6.141924985536511e+17
19553.0	6.141268734246911e+17
19554.0	6.14060810829824e+17
19555.0	6.139950596620285e+17
19556.0	6.139278129452372e+17
19557.0	6.138583358373887e+17
19558.0	6.137880320322218e+17
19559.0	6.137162988082516e+17
19560.0	6.136425592389631e+17
19561.0	6.135695821941418e+17
19562.0	6.134958466793472e+17
19563.0	6.134202168770559e+17
19564.0	6.133437043834879e+17
19565.0	6.132662304156329e+17
19566.0	6.131868132267347e+17
19567.0	6.131085507297277e+17
19568.0	6.130272541431124e+17
19569.0	6.129475102179327e+17
19570.0	6.128664130005673e+17
19571.0	6.127837508184744e+17
19572.0	6.126994607570943e+17
19573.0	6.126158463980884e+17
19574.0	6.12527967899921e+17
19575.0	6.124474539704319e+17
19576.0	6.12361706807842e+17
19577.0	6.122742689912148e+17
19578.0	6.121858068556458e+17
19579.0	6.120990664818687e+17
19580.0	6.120107538033321e+17
19581.0	6.119223865289385e+17
19582.0	6.118338007313066e+17
19583.0	6.117438398311081e+17
19584.0	6.116527847768063e+17
19585.0	6.11556631126562e+17
19586.0	6.114628256574121e+17
19587.0	6.113735228435114e+17
19588.0	6.112615661742762e+17
19589.0	6.111921078708905e+17
19590.0	6.110958360810836e+17
19591.0	6.110065304010751e+17
19592.0	6.109122867669673e+17
19593.0	6.108166885823828e+17
19594.0	6.107102743363583e+17
19595.0	6.106247077385556e+17
19596.0	6.104441187642026e+17
19597.0	6.104304551198717e+17
19598.0	6.103219358225748e+17
19599.0	6.102428376104959e+17
19600.0	6.101458301397673e+17
19601.0	6.100448094890665e+17
19602.0	6.099476001325055e+17
19603.0	6.09819299029538e+17
19604.0	6.097494707186346e+17
19605.0	6.096404870419795e+17
19606.0	6.095570619858944e+17
19607.0	6.09458245861376e+17
19608.0	6.09358310347025e+17
19609.0	6.09256480894703e+17
19610.0	6.091594522427391e+17
19611.0	6.090590762565631e+17
19612.0	6.089591148773375e+17
19613.0	6.088585714685268e+17
19614.0	6.087555646750719e+17
19615.0	6.086563862325929e+17
19616.0	6.085476407924052e+17
19617.0	6.084540114141183e+17
19618.0	6.083222778325674e+17
19619.0	6.082145006474579e+17
19620.0	6.081140192444415e+17
19621.0	6.080467774909097e+17
19622.0	6.07944475550242e+17
19623.0	6.07841982559027e+17
19624.0	6.077393165527721e+17
19625.0	6.076364003562835e+17
19626.0	6.07533433758242e+17
19627.0	6.074300263388499e+17
19628.0	6.073063135248383e+17
19629.0	6.072182511064404e+17
19630.0	6.070418021198506e+17
19631.0	6.061054234722304e+17
19632.0	6.069109805897044e+17
19633.0	6.068061956909737e+17
19634.0	6.067042399201961e+17
19635.0	6.065979615696212e+17
19636.0	6.064957898620927e+17
19637.0	6.06370937176064e+17
19638.0	6.062862569046015e+17
19639.0	6.061810476122111e+17
19640.0	6.060704282269012e+17
19641.0	6.059347067710122e+17
19642.0	6.058672675356671e+17
19643.0	6.057615099079337e+17
19644.0	6.056534837209769e+17
19645.0	6.055372828355242e+17
19646.0	6.054463578046463e+17
19647.0	6.053408809156608e+17
19648.0	6.052353115422719e+17
19649.0	6.051295106433023e+17
19650.0	6.050239185507667e+17
19651.0	6.049181052086953e+17
19652.0	6.048122095883604e+17
19653.0	6.047061401141247e+17
19654.0	6.046001977273002e+17
19655.0	6.044938190629546e+17
19656.0	6.043875366578858e+17
19657.0	6.042816497756842e+17
19658.0	6.041753331870378e+17
19659.0	6.040688700074666e+17
19660.0	6.039625148312234e+17
19661.0	6.03856014741777e+17
19662.0	6.037494477531818e+17
19663.0	6.03640037445905e+17
19664.0	6.03532807966993e+17
19665.0	6.034294376671913e+17
