# Flux units: erg / (cm m2 s)
# Wavelength units: Angstrom
wave	flux
19000.0	7.455991075438591e+17
19001.0	7.45457164886562e+17
19002.0	7.453170702396074e+17
19003.0	7.451760260022271e+17
19004.0	7.450349645682003e+17
19005.0	7.448939589184169e+17
19006.0	7.447529146810368e+17
19007.0	7.446118658299219e+17
19008.0	7.444701449114963e+17
19009.0	7.443294830548306e+17
19010.0	7.441842935868072e+17
19011.0	7.440474039473492e+17
19012.0	7.43905349861376e+17
19013.0	7.437655788748799e+17
19014.0	7.436240061551956e+17
19015.0	7.434834862058152e+17
19016.0	7.433419143249919e+17
19017.0	7.431990422099283e+17
19018.0	7.430603220363945e+17
19019.0	7.429193340026879e+17
19020.0	7.427777782000297e+17
19021.0	7.426368746116435e+17
19022.0	7.424962658828284e+17
19023.0	7.423552493278548e+17
19024.0	7.422141493062314e+17
19025.0	7.420732384477181e+17
19026.0	7.419319404549459e+17
19027.0	7.417907376728744e+17
19028.0	7.416502848323583e+17
19029.0	7.415093064455508e+17
19030.0	7.413683502885545e+17
19031.0	7.412273937121279e+17
19032.0	7.410864442660178e+17
19033.0	7.409446588951209e+17
19034.0	7.408045555799378e+17
19035.0	7.406636503138303e+17
19036.0	7.40480311693585e+17
19037.0	7.403818372650323e+17
19038.0	7.402406664994815e+17
19039.0	7.400995108334252e+17
19040.0	7.399586490482687e+17
19041.0	7.398177893602642e+17
19042.0	7.396761767946918e+17
19043.0	7.395361099699539e+17
19044.0	7.39395270554419e+17
19045.0	7.392544814705322e+17
19046.0	7.391132217857363e+17
19047.0	7.389728799544659e+17
19048.0	7.388302211896659e+17
19049.0	7.386907440840703e+17
19050.0	7.385502287484244e+17
19051.0	7.384037109443241e+17
19052.0	7.38268766483251e+17
19053.0	7.381284587656532e+17
19054.0	7.379877894990506e+17
19055.0	7.378447065503059e+17
19056.0	7.377064550203391e+17
19057.0	7.375658102205097e+17
19058.0	7.374251774443517e+17
19059.0	7.372845587890175e+17
19060.0	7.371437249658879e+17
19061.0	7.37003368035123e+17
19062.0	7.368627629413716e+17
19063.0	7.367222329256617e+17
19064.0	7.365806330828114e+17
19065.0	7.364394269452969e+17
19066.0	7.363000457494525e+17
19067.0	7.361601889195348e+17
19068.0	7.36019707278131e+17
19069.0	7.358792621271721e+17
19070.0	7.357387133769046e+17
19071.0	7.355983957327871e+17
19072.0	7.354579874917033e+17
19073.0	7.353175389853014e+17
19074.0	7.351772188246015e+17
19075.0	7.350368697232041e+17
19076.0	7.348963141222399e+17
19077.0	7.347561297171796e+17
19078.0	7.346153232968361e+17
19079.0	7.344756159239508e+17
19080.0	7.343353146376192e+17
19081.0	7.341946572548777e+17
19082.0	7.340543714874708e+17
19083.0	7.339136562233343e+17
19084.0	7.337720198900393e+17
19085.0	7.336342595130708e+17
19086.0	7.334903075045375e+17
19087.0	7.333527627147945e+17
19088.0	7.332131669103958e+17
19089.0	7.330714060062717e+17
19090.0	7.32929650135313e+17
19091.0	7.327883227824127e+17
19092.0	7.326477629871444e+17
19093.0	7.32508512653585e+17
19094.0	7.323667356712957e+17
19095.0	7.322263075771731e+17
19096.0	7.320882798832297e+17
19097.0	7.319485393753428e+17
19098.0	7.31808628159283e+17
19099.0	7.316686603201194e+17
19100.0	7.315288006939987e+17
19101.0	7.31388935475473e+17
19102.0	7.31248305635328e+17
19103.0	7.311092201379155e+17
19104.0	7.3096937603072e+17
19105.0	7.308295658973866e+17
19106.0	7.306895719137279e+17
19107.0	7.305498857919828e+17
19108.0	7.304102734899881e+17
19109.0	7.302659139349161e+17
19110.0	7.301307835263657e+17
19111.0	7.299911287220905e+17
19112.0	7.298514458159786e+17
19113.0	7.297117935282857e+17
19114.0	7.295721492097706e+17
19115.0	7.294322715481428e+17
19116.0	7.292929202716671e+17
19117.0	7.29153182699793e+17
19118.0	7.29012773200418e+17
19119.0	7.288536466194432e+17
19120.0	7.28734381445393e+17
19121.0	7.285949655766356e+17
19122.0	7.284556864421887e+17
19123.0	7.283160197540521e+17
19124.0	7.281767141954902e+17
19125.0	7.280372496728063e+17
19126.0	7.278977071360681e+17
19127.0	7.277432383296854e+17
19128.0	7.27617231650816e+17
19129.0	7.274788295453352e+17
19130.0	7.273403548783956e+17
19131.0	7.272010304454655e+17
19132.0	7.270616883964585e+17
19133.0	7.269166391579987e+17
19134.0	7.267822015086591e+17
19135.0	7.266438920972969e+17
19136.0	7.265046578419028e+17
19137.0	7.263639481701714e+17
19138.0	7.262255457850708e+17
19139.0	7.260870150542676e+17
19140.0	7.259478562963455e+17
19141.0	7.258086987967145e+17
19142.0	7.256695393397417e+17
19143.0	7.255299151538858e+17
19144.0	7.253912866957994e+17
19145.0	7.252522319566163e+17
19146.0	7.251078296196436e+17
19147.0	7.249733157737811e+17
19148.0	7.24835022021154e+17
19149.0	7.246959984596308e+17
19150.0	7.245568863982931e+17
19151.0	7.244180096374102e+17
19152.0	7.242787925786624e+17
19153.0	7.241400637369002e+17
19154.0	7.239999230924116e+17
19155.0	7.23862171104051e+17
19156.0	7.237232224807594e+17
19157.0	7.235842675660116e+17
19158.0	7.234421996388351e+17
19159.0	7.233063715777193e+17
19160.0	7.231673794734761e+17
19161.0	7.230288322450772e+17
19162.0	7.228828380299263e+17
19163.0	7.227511374435667e+17
19164.0	7.226111592584532e+17
19165.0	7.224717733090644e+17
19166.0	7.223321117939028e+17
19167.0	7.221936656482304e+17
19168.0	7.22054000218385e+17
19169.0	7.219159508538708e+17
19170.0	7.217780944273408e+17
19171.0	7.216390312995497e+17
19172.0	7.215006742129321e+17
19173.0	7.21361974591488e+17
19174.0	7.212227905279316e+17
19175.0	7.210846156139177e+17
19176.0	7.209459473099433e+17
19177.0	7.208058965633705e+17
19178.0	7.206685427542698e+17
19179.0	7.205295019961002e+17
19180.0	7.20390335828241e+17
19181.0	7.202518322206036e+17
19182.0	7.201129881752916e+17
19183.0	7.199754221344084e+17
19184.0	7.198355351055017e+17
19185.0	7.196982498033663e+17
19186.0	7.1955975779997e+17
19187.0	7.19420519490082e+17
19188.0	7.192826044831059e+17
19189.0	7.191440850769236e+17
19190.0	7.190055073699155e+17
19191.0	7.188668893975892e+17
19192.0	7.187283326621011e+17
19193.0	7.185889427980287e+17
19194.0	7.184509788575059e+17
19195.0	7.183127892634281e+17
19196.0	7.181741670967978e+17
19197.0	7.180356275579561e+17
19198.0	7.178971060546217e+17
19199.0	7.177151005239977e+17
19200.0	7.175917607234217e+17
19201.0	7.174815742601897e+17
19202.0	7.173431390197075e+17
19203.0	7.172046468765012e+17
19204.0	7.170658976224595e+17
19205.0	7.169276153342632e+17
19206.0	7.167889858975059e+17
19207.0	7.166501119328255e+17
19208.0	7.165102179134121e+17
19209.0	7.163735261052927e+17
19210.0	7.162349732844884e+17
19211.0	7.160963460846931e+17
19212.0	7.159579112636415e+17
19213.0	7.158183301393065e+17
19214.0	7.156795748734292e+17
19215.0	7.155420868466003e+17
19216.0	7.154032067302739e+17
19217.0	7.152650656503123e+17
19218.0	7.151190366224383e+17
19219.0	7.149863177988777e+17
19220.0	7.148493040080212e+17
19221.0	7.147076776012457e+17
19222.0	7.145720410800127e+17
19223.0	7.144333615912275e+17
19224.0	7.142939827721555e+17
19225.0	7.141545305527635e+17
19226.0	7.140173673048748e+17
19227.0	7.138786727165951e+17
19228.0	7.137399504459092e+17
19229.0	7.136012003530067e+17
19230.0	7.134623863668735e+17
19231.0	7.133236516530858e+17
19232.0	7.131841496612863e+17
19233.0	7.130453092510377e+17
19234.0	7.129069172118867e+17
19235.0	7.127680610030932e+17
19236.0	7.126291438370815e+17
19237.0	7.124900731595433e+17
19238.0	7.1235036788381e+17
19239.0	7.122122908368893e+17
19240.0	7.120701709003433e+17
19241.0	7.119333529834835e+17
19242.0	7.117951454937087e+17
19243.0	7.116543044004521e+17
19244.0	7.115168330110291e+17
19245.0	7.113776756512084e+17
19246.0	7.112383152870739e+17
19247.0	7.110990917970602e+17
19248.0	7.10959894171921e+17
19249.0	7.108205258386089e+17
19250.0	7.1068108732061e+17
19251.0	7.105408042095956e+17
19252.0	7.10398872317679e+17
19253.0	7.1026256918173e+17
19254.0	7.1012258428573e+17
19255.0	7.099814149182804e+17
19256.0	7.098435343045972e+17
19257.0	7.097039192063999e+17
19258.0	7.095640637745833e+17
19259.0	7.09423480910643e+17
19260.0	7.092837679453523e+17
19261.0	7.09144292377668e+17
19262.0	7.090042083562836e+17
19263.0	7.088638470914047e+17
19264.0	7.087194441951913e+17
19265.0	7.085818450193066e+17
19266.0	7.084419872107177e+17
19267.0	7.083027149269674e+17
19268.0	7.081621744254973e+17
19269.0	7.080215482204159e+17
19270.0	7.078808276434944e+17
19271.0	7.077371337244671e+17
19272.0	7.075987883819007e+17
19273.0	7.073782766239743e+17
19274.0	7.072782384190803e+17
19275.0	7.071758213447679e+17
19276.0	7.070345243306666e+17
19277.0	7.068931068002301e+17
19278.0	7.067515763032063e+17
19279.0	7.066096595107839e+17
19280.0	7.064674221337258e+17
19281.0	7.063262312355155e+17
19282.0	7.06184214478848e+17
19283.0	7.060413858447359e+17
19284.0	7.058985008671402e+17
19285.0	7.057553206105428e+17
19286.0	7.056147106234368e+17
19287.0	7.054719834914815e+17
19288.0	7.053193875816445e+17
19289.0	7.051568117448704e+17
19290.0	7.050428118204415e+17
19291.0	7.048968588492799e+17
19292.0	7.047558350241791e+17
19293.0	7.046069626776233e+17
19294.0	7.044619625125204e+17
19295.0	7.043178335043581e+17
19296.0	7.041735002335913e+17
19297.0	7.040289471812947e+17
19298.0	7.038842052455081e+17
19299.0	7.037392233955327e+17
19300.0	7.035940100199763e+17
19301.0	7.034484933962409e+17
19302.0	7.033027883783508e+17
19303.0	7.031559536246783e+17
19304.0	7.030100597932031e+17
19305.0	7.028642360066047e+17
19306.0	7.027175093960704e+17
19307.0	7.025702345900031e+17
19308.0	7.024231167907155e+17
19309.0	7.022741727914665e+17
19310.0	7.021253822338387e+17
19311.0	7.019751985381375e+17
19312.0	7.018230726699689e+17
19313.0	7.01672705822993e+17
19314.0	7.015103956254719e+17
19315.0	7.013616875558228e+17
19316.0	7.012250615283711e+17
19317.0	7.010746685369002e+17
19318.0	7.009237701317972e+17
19319.0	7.007724501292371e+17
19320.0	7.006203046177449e+17
19321.0	7.004684470452223e+17
19322.0	7.003143135734442e+17
19323.0	7.001618557960191e+17
19324.0	7.000088387081555e+17
19325.0	6.998535938157226e+17
19326.0	6.996998462199123e+17
19327.0	6.995443693125631e+17
19328.0	6.993886045361491e+17
19329.0	6.99232082338338e+17
19330.0	6.990745392469331e+17
19331.0	6.989170640333481e+17
19332.0	6.987514692763647e+17
19333.0	6.985912895755604e+17
19334.0	6.984309497222484e+17
19335.0	6.982728463417343e+17
19336.0	6.981119665416874e+17
19337.0	6.979496615870464e+17
19338.0	6.977847100964863e+17
19339.0	6.976227306897407e+17
19340.0	6.974574667235325e+17
19341.0	6.972919922731689e+17
19342.0	6.971217524643158e+17
19343.0	6.969574773052755e+17
19344.0	6.96788626580002e+17
19345.0	6.966001567880531e+17
19346.0	6.964425804218367e+17
19347.0	6.96274657616418e+17
19348.0	6.961017144388265e+17
19349.0	6.959267707879423e+17
19350.0	6.957425803744595e+17
19351.0	6.955622122302121e+17
19352.0	6.953828065389225e+17
19353.0	6.95203052860211e+17
19354.0	6.950209744885076e+17
19355.0	6.948365312983039e+17
19356.0	6.946518553242281e+17
19357.0	6.944645977560403e+17
19358.0	6.942748854714365e+17
19359.0	6.940804059409066e+17
19360.0	6.938907020449108e+17
19361.0	6.936728713560061e+17
19362.0	6.934734742137513e+17
19363.0	6.932738447070548e+17
19364.0	6.93071753773056e+17
19365.0	6.928672142043817e+17
19366.0	6.926600081069398e+17
19367.0	6.924500161527807e+17
19368.0	6.922340318664019e+17
19369.0	6.920030885948074e+17
19370.0	6.917761439629311e+17
19371.0	6.915632840835071e+17
19372.0	6.913374726127615e+17
19373.0	6.911079846947498e+17
19374.0	6.90864229921587e+17
19375.0	6.906171847169364e+17
19376.0	6.903758207669587e+17
19377.0	6.901130044200276e+17
19378.0	6.898603124938067e+17
19379.0	6.895819095539711e+17
19380.0	6.893216988484948e+17
19381.0	6.890560688925353e+17
19382.0	6.887775146082303e+17
19383.0	6.884922036497066e+17
19384.0	6.882097739683155e+17
19385.0	6.87915935011089e+17
19386.0	6.875971642720255e+17
19387.0	6.872927298737491e+17
19388.0	6.869804788307284e+17
19389.0	6.866595466270036e+17
19390.0	6.863186682008916e+17
19391.0	6.85934502110822e+17
19392.0	6.855986885864106e+17
19393.0	6.852404823020884e+17
19394.0	6.848702452858879e+17
19395.0	6.844839472310954e+17
19396.0	6.840530721133908e+17
19397.0	6.836473600234835e+17
19398.0	6.832277556297727e+17
19399.0	6.827400292379306e+17
19400.0	6.822901804870314e+17
19401.0	6.818045548123476e+17
19402.0	6.812760329420799e+17
19403.0	6.807633166073855e+17
19404.0	6.801556546519037e+17
19405.0	6.795826454069247e+17
19406.0	6.789569397653503e+17
19407.0	6.782907990059689e+17
19408.0	6.776066625852754e+17
19409.0	6.768850160145748e+17
19410.0	6.761392535939753e+17
19411.0	6.754379105304575e+17
19412.0	6.74712412749824e+17
19413.0	6.739526384877567e+17
19414.0	6.731135660851197e+17
19415.0	6.722677772036778e+17
19416.0	6.713701571406505e+17
19417.0	6.703920414632616e+17
19418.0	6.693969447266985e+17
19419.0	6.682982244242772e+17
19420.0	6.671352043929599e+17
19421.0	6.659077681010006e+17
19422.0	6.64570064675362e+17
19423.0	6.631211291465042e+17
19424.0	6.615477550492329e+17
19425.0	6.598134247456768e+17
19426.0	6.578553759290708e+17
19427.0	6.559463671944534e+17
19428.0	6.541973868860756e+17
19429.0	6.522978950272339e+17
19430.0	6.503006099647148e+17
19431.0	6.481088355150505e+17
19432.0	6.457726178339497e+17
19433.0	6.432239563483818e+17
19434.0	6.403995351733588e+17
19435.0	6.372507386904571e+17
19436.0	6.336524077498367e+17
19437.0	6.295293627378344e+17
19438.0	6.255488026367314e+17
19439.0	6.216057972850689e+17
19440.0	6.171799018536959e+17
19441.0	6.122108769796091e+17
19442.0	6.065670766723073e+17
19443.0	5.999303576606035e+17
19444.0	5.93076135674948e+17
19445.0	5.856080512243032e+17
19446.0	5.768000814011735e+17
19447.0	5.6693166485886234e+17
19448.0	5.5550430905630765e+17
19449.0	5.408842897337002e+17
19450.0	5.146980625241393e+17
19451.0	5.058170775579306e+17
19452.0	5.2900055360034176e+17
19453.0	5.487590002130949e+17
19454.0	5.610563221236388e+17
19455.0	5.7129630716395514e+17
19456.0	5.805180842235224e+17
19457.0	5.883314985151142e+17
19458.0	5.951025447261526e+17
19459.0	6.017738451451904e+17
19460.0	6.076357398233085e+17
19461.0	6.126660567607978e+17
19462.0	6.170952745702742e+17
19463.0	6.210508603872594e+17
19464.0	6.246422025688403e+17
19465.0	6.285706858419543e+17
19466.0	6.321739265649318e+17
19467.0	6.35268948505395e+17
19468.0	6.379929205036372e+17
19469.0	6.403880464154623e+17
19470.0	6.425974226812927e+17
19471.0	6.445910240264192e+17
19472.0	6.46421431014741e+17
19473.0	6.481173716227412e+17
19474.0	6.496748198778196e+17
19475.0	6.511809004918099e+17
19476.0	6.529503844455764e+17
19477.0	6.544928300946774e+17
19478.0	6.559013652485459e+17
19479.0	6.57135153394483e+17
19480.0	6.582547094612652e+17
19481.0	6.592772366663679e+17
19482.0	6.60218709925342e+17
19483.0	6.61060623199983e+17
19484.0	6.618620253700095e+17
19485.0	6.625672720722601e+17
19486.0	6.632549792437588e+17
19487.0	6.638522047922173e+17
19488.0	6.644369441772884e+17
19489.0	6.649696276359849e+17
19490.0	6.654381367754751e+17
19491.0	6.658928920231936e+17
19492.0	6.663541884977151e+17
19493.0	6.668078397347155e+17
19494.0	6.672721308024832e+17
19495.0	6.676782907042474e+17
19496.0	6.680269634753875e+17
19497.0	6.683962817292969e+17
19498.0	6.686900872019968e+17
19499.0	6.689490902275411e+17
19500.0	6.692410070750548e+17
19501.0	6.695105674433876e+17
19502.0	6.69704633135923e+17
19503.0	6.699048106983423e+17
19504.0	6.700978298421245e+17
19505.0	6.702474638043817e+17
19506.0	6.703888014333268e+17
19507.0	6.70548524793856e+17
19508.0	6.706606817411071e+17
19509.0	6.707617232934227e+17
19510.0	6.708514209311402e+17
19511.0	6.709170664723795e+17
19512.0	6.710288236325545e+17
19513.0	6.71085893989171e+17
19514.0	6.711526958301183e+17
19515.0	6.712053335064575e+17
19516.0	6.712483408510975e+17
19517.0	6.712963201236991e+17
19518.0	6.713283472698026e+17
19519.0	6.713466657527123e+17
19520.0	6.713655534725802e+17
19521.0	6.713790032074068e+17
19522.0	6.713801269313535e+17
19523.0	6.713762311918932e+17
19524.0	6.713837162070015e+17
19525.0	6.713759652031146e+17
19526.0	6.713639716607316e+17
19527.0	6.713532134107818e+17
19528.0	6.713271453220863e+17
19529.0	6.713156701257727e+17
19530.0	6.712824250935978e+17
19531.0	6.712453986866516e+17
19532.0	6.712051044275539e+17
19533.0	6.711615710472873e+17
19534.0	6.711149710016511e+17
19535.0	6.710782570703529e+17
19536.0	6.710285476473514e+17
19537.0	6.709737910086314e+17
19538.0	6.709160817197055e+17
19539.0	6.708516591676074e+17
19540.0	6.707945829389652e+17
19541.0	6.707303264813055e+17
19542.0	6.706639368705364e+17
19543.0	6.70600453493009e+17
19544.0	6.705374077211988e+17
19545.0	6.704729269381801e+17
19546.0	6.703939252649983e+17
19547.0	6.703264266802516e+17
19548.0	6.70249122931234e+17
19549.0	6.701693978105172e+17
19550.0	6.700902240310611e+17
19551.0	6.700084961301844e+17
19552.0	6.699253503448404e+17
19553.0	6.698407259275261e+17
19554.0	6.697548323138217e+17
19555.0	6.69668230701602e+17
19556.0	6.695854510789972e+17
19557.0	6.695002995774803e+17
19558.0	6.694100131992916e+17
19559.0	6.693184030288553e+17
19560.0	6.692263460252329e+17
19561.0	6.69133043732753e+17
19562.0	6.690388100950697e+17
19563.0	6.689436086217385e+17
19564.0	6.688477079579306e+17
19565.0	6.687509192900607e+17
19566.0	6.686531395081556e+17
19567.0	6.685548893350569e+17
19568.0	6.684558613282816e+17
19569.0	6.683559926431743e+17
19570.0	6.682555621310461e+17
19571.0	6.681544178881875e+17
19572.0	6.680526338042537e+17
19573.0	6.679500806946815e+17
19574.0	6.678465940029439e+17
19575.0	6.677436564155049e+17
19576.0	6.6763959056029e+17
19577.0	6.675342762704895e+17
19578.0	6.674294299252052e+17
19579.0	6.673239055706793e+17
19580.0	6.672229024661501e+17
19581.0	6.671183897078442e+17
19582.0	6.670115338016084e+17
19583.0	6.669040855198378e+17
19584.0	6.667962196951039e+17
19585.0	6.666872119711059e+17
19586.0	6.66577843327249e+17
19587.0	6.664697416428202e+17
19588.0	6.663564455226025e+17
19589.0	6.662507377371817e+17
19590.0	6.661404566923946e+17
19591.0	6.660307253111466e+17
19592.0	6.659200072897876e+17
19593.0	6.658090151706623e+17
19594.0	6.656954221636266e+17
19595.0	6.655860566654975e+17
19596.0	6.654643882251603e+17
19597.0	6.653620404267689e+17
19598.0	6.652475597651967e+17
19599.0	6.651370507599872e+17
19600.0	6.650241554055168e+17
19601.0	6.649106692134228e+17
19602.0	6.647972976656383e+17
19603.0	6.646800254151338e+17
19604.0	6.64569844404497e+17
19605.0	6.644535084624553e+17
19606.0	6.643420123277994e+17
19607.0	6.64227769623074e+17
19608.0	6.641131618041855e+17
19609.0	6.639982173924009e+17
19610.0	6.638835317691731e+17
19611.0	6.63768391483392e+17
19612.0	6.636531819915945e+17
19613.0	6.635377675381418e+17
19614.0	6.634217905586175e+17
19615.0	6.633064754402644e+17
19616.0	6.631903015381674e+17
19617.0	6.630746062061565e+17
19618.0	6.629540425454931e+17
19619.0	6.628361501671423e+17
19620.0	6.627201416604329e+17
19621.0	6.62609286275618e+17
19622.0	6.624926507903658e+17
19623.0	6.623758971655508e+17
19624.0	6.622590305042431e+17
19625.0	6.621420510161577e+17
19626.0	6.620249838671188e+17
19627.0	6.619078036815871e+17
19628.0	6.617895675101181e+17
19629.0	6.616723427950591e+17
19630.0	6.615548790046719e+17
19631.0	6.613930373808127e+17
19632.0	6.613204616609791e+17
19633.0	6.612027541815295e+17
19634.0	6.610849699463167e+17
19635.0	6.609666802974719e+17
19636.0	6.608491380735999e+17
19637.0	6.607293527359487e+17
19638.0	6.606190412125524e+17
19639.0	6.60500815876369e+17
19640.0	6.603822227696298e+17
19641.0	6.60259498692881e+17
19642.0	6.601460373170857e+17
19643.0	6.600274200930985e+17
19644.0	6.599088521521834e+17
19645.0	6.597882455698089e+17
19646.0	6.596720079142911e+17
19647.0	6.595533683905876e+17
19648.0	6.594346762283689e+17
19649.0	6.593159122736468e+17
19650.0	6.591971550298111e+17
19651.0	6.590783204010665e+17
19652.0	6.589594482333012e+17
19653.0	6.588405123121151e+17
19654.0	6.587215757617833e+17
19655.0	6.586025432317951e+17
19656.0	6.584834840679766e+17
19657.0	6.583644779621033e+17
19658.0	6.582453790922068e+17
19659.0	6.581262288420863e+17
19660.0	6.580070760753833e+17
19661.0	6.57887879827729e+17
19662.0	6.577686529616553e+17
19663.0	6.576491786316457e+17
19664.0	6.57530105766434e+17
19665.0	6.574109764179284e+17
