# Flux units: erg / (cm m2 s)
# Wavelength units: Angstrom
wave	flux
19000.0	5.0944836461308576e+17
19001.0	5.093495524731561e+17
19002.0	5.0927062399057914e+17
19003.0	5.0918016138171725e+17
19004.0	5.0908994316096845e+17
19005.0	5.0899905538949114e+17
19006.0	5.08909801509137e+17
19007.0	5.0882002557774496e+17
19008.0	5.087280860146346e+17
19009.0	5.0863002591341216e+17
19010.0	5.08539832439057e+17
19011.0	5.0845634635584845e+17
19012.0	5.083614043701247e+17
19013.0	5.08285033853747e+17
19014.0	5.0819090206774605e+17
19015.0	5.0810191438588576e+17
19016.0	5.0801709276637856e+17
19017.0	5.079290937518761e+17
19018.0	5.078387100658346e+17
19019.0	5.0775027155817805e+17
19020.0	5.076601707779413e+17
19021.0	5.0757214890448205e+17
19022.0	5.074829754149546e+17
19023.0	5.0738823692287994e+17
19024.0	5.0729867629909325e+17
19025.0	5.0721354388165965e+17
19026.0	5.071238563102719e+17
19027.0	5.0703537292356256e+17
19028.0	5.0694531597380256e+17
19029.0	5.0685448566429e+17
19030.0	5.067665515216894e+17
19031.0	5.066780593968468e+17
19032.0	5.065873142317055e+17
19033.0	5.0648476629510816e+17
19034.0	5.063933255745536e+17
19035.0	5.062647676403711e+17
19036.0	5.0608575222906874e+17
19037.0	5.0609397949617485e+17
19038.0	5.060380907449002e+17
19039.0	5.059602899009535e+17
19040.0	5.058746436113749e+17
19041.0	5.057868407504896e+17
19042.0	5.0556725642308243e+17
19043.0	5.0561190821451085e+17
19044.0	5.055226345510228e+17
19045.0	5.0543193859904845e+17
19046.0	5.05340563169826e+17
19047.0	5.0525117584069965e+17
19048.0	5.051429728638293e+17
19049.0	5.0480619856418086e+17
19050.0	5.0497483880529914e+17
19051.0	5.0487587322374816e+17
19052.0	5.047952280125439e+17
19053.0	5.047171602710527e+17
19054.0	5.046321687822335e+17
19055.0	5.0448665600327686e+17
19056.0	5.044451402230441e+17
19057.0	5.0437018199872845e+17
19058.0	5.041483868536829e+17
19059.0	5.041412588437503e+17
19060.0	5.041058564014079e+17
19061.0	5.0401573129420794e+17
19062.0	5.039266709110783e+17
19063.0	5.0383918276280314e+17
19064.0	5.037477582602239e+17
19065.0	5.03651828306193e+17
19066.0	5.035215851705685e+17
19067.0	5.034825648614058e+17
19068.0	5.03398705275426e+17
19069.0	5.033102065795071e+17
19070.0	5.0321837725668685e+17
19071.0	5.031316725344938e+17
19072.0	5.029957180850174e+17
19073.0	5.029568735171925e+17
19074.0	5.028666042657449e+17
19075.0	5.027801876922366e+17
19076.0	5.0269073619025914e+17
19077.0	5.0260232305814176e+17
19078.0	5.0251221731464525e+17
19079.0	5.0242560451761485e+17
19080.0	5.0233756425912314e+17
19081.0	5.022454200838826e+17
19082.0	5.0216202347915936e+17
19083.0	5.0206659558331725e+17
19084.0	5.019671942135806e+17
19085.0	5.018956645531647e+17
19086.0	5.017095191046826e+17
19087.0	5.016093059274068e+17
19088.0	5.015594833281023e+17
19089.0	5.0152934970053965e+17
19090.0	5.0145461489281696e+17
19091.0	5.0136014665373005e+17
19092.0	5.011727761189549e+17
19093.0	5.0119315365560314e+17
19094.0	5.0110527879249914e+17
19095.0	5.0101712584703994e+17
19096.0	5.0092951837081594e+17
19097.0	5.0084162910726816e+17
19098.0	5.006998535929855e+17
19099.0	5.0060004712338765e+17
19100.0	5.005753900684628e+17
19101.0	5.004872309713579e+17
19102.0	5.003977164849151e+17
19103.0	5.003122011974315e+17
19104.0	5.002269314864468e+17
19105.0	5.0001967757393946e+17
19106.0	5.0004963112605e+17
19107.0	4.999327858556927e+17
19108.0	4.9982771315780256e+17
19109.0	4.997848407998462e+17
19110.0	4.9969739047021216e+17
19111.0	4.995753753007444e+17
19112.0	4.994815282380798e+17
19113.0	4.9943473133977594e+17
19114.0	4.99321664647987e+17
19115.0	4.992501845502635e+17
19116.0	4.9916200525059405e+17
19117.0	4.990624140886015e+17
19118.0	4.988817786273792e+17
19119.0	4.983177686810621e+17
19120.0	4.987514194493439e+17
19121.0	4.987156183384062e+17
19122.0	4.9863982195234125e+17
19123.0	4.985554033355434e+17
19124.0	4.98464251322914e+17
19125.0	4.983748622461609e+17
19126.0	4.982754701737983e+17
19127.0	4.98165831766289e+17
19128.0	4.980988699126442e+17
19129.0	4.9802004530899616e+17
19130.0	4.979444183029077e+17
19131.0	4.978608572814676e+17
19132.0	4.977742514050388e+17
19133.0	4.976851304841214e+17
19134.0	4.976005372444671e+17
19135.0	4.975135922585598e+17
19136.0	4.974256844002644e+17
19137.0	4.9733616061644794e+17
19138.0	4.972513617160874e+17
19139.0	4.971659179414868e+17
19140.0	4.9707936113841485e+17
19141.0	4.96992257188386e+17
19142.0	4.9690260198304416e+17
19143.0	4.968168112695978e+17
19144.0	4.96727451832593e+17
19145.0	4.9664282378021536e+17
19146.0	4.965006733650603e+17
19147.0	4.964677373831849e+17
19148.0	4.963402601114283e+17
19149.0	4.9624472609969485e+17
19150.0	4.962097286873087e+17
19151.0	4.961217529511935e+17
19152.0	4.960346038424917e+17
19153.0	4.9585477550516883e+17
19154.0	4.958521543447893e+17
19155.0	4.9577351512937805e+17
19156.0	4.9568671925097805e+17
19157.0	4.955718195784363e+17
19158.0	4.954479773701462e+17
19159.0	4.954242280325119e+17
19160.0	4.953374449467391e+17
19161.0	4.9525031261525325e+17
19162.0	4.9516261363329696e+17
19163.0	4.950770077488468e+17
19164.0	4.949908001914879e+17
19165.0	4.9480450311891603e+17
19166.0	4.9481432261372576e+17
19167.0	4.947314962945364e+17
19168.0	4.946461466820607e+17
19169.0	4.9455994674435405e+17
19170.0	4.9447381776029005e+17
19171.0	4.943857417803093e+17
19172.0	4.943005398073343e+17
19173.0	4.942142771647828e+17
19174.0	4.9412651799456416e+17
19175.0	4.9404039683986765e+17
19176.0	4.9395470448285005e+17
19177.0	4.938547156309332e+17
19178.0	4.937809800462335e+17
19179.0	4.9369505057122976e+17
19180.0	4.936063268509012e+17
19181.0	4.935169407101609e+17
19182.0	4.9343045115576314e+17
19183.0	4.933483920446804e+17
19184.0	4.9326299126169594e+17
19185.0	4.931752980818602e+17
19186.0	4.930894606718293e+17
19187.0	4.929982317636266e+17
19188.0	4.9291660361727994e+17
19189.0	4.928293509092693e+17
19190.0	4.927426427617279e+17
19191.0	4.9265281922498554e+17
19192.0	4.9256669254778874e+17
19193.0	4.924659003468458e+17
19194.0	4.92368803467537e+17
19195.0	4.922993938180779e+17
19196.0	4.9220649278068045e+17
19197.0	4.9211298762369696e+17
19198.0	4.920155935080447e+17
19199.0	4.919133209275049e+17
19200.0	4.9183043994255354e+17
19201.0	4.9175846142170445e+17
19202.0	4.9168332969301325e+17
19203.0	4.9160388293427194e+17
19204.0	4.9152477151013536e+17
19205.0	4.9144070731202554e+17
19206.0	4.913572603057492e+17
19207.0	4.912610953308843e+17
19208.0	4.911837644587007e+17
19209.0	4.91103588450304e+17
19210.0	4.910194154799103e+17
19211.0	4.909361706390868e+17
19212.0	4.90850524279603e+17
19213.0	4.907569450232489e+17
19214.0	4.906767644011178e+17
19215.0	4.9059226735083514e+17
19216.0	4.9050530404980045e+17
19217.0	4.9041489477850445e+17
19218.0	4.903213911594324e+17
19219.0	4.9022922594276685e+17
19220.0	4.9015809851610445e+17
19221.0	4.9007344355027616e+17
19222.0	4.8998969434439674e+17
19223.0	4.8990560539989325e+17
19224.0	4.898187110252543e+17
19225.0	4.8973726568065696e+17
19226.0	4.896521460558506e+17
19227.0	4.895674327891966e+17
19228.0	4.894847566959955e+17
19229.0	4.8939747085298336e+17
19230.0	4.893135456960511e+17
19231.0	4.89228004893218e+17
19232.0	4.891436433888596e+17
19233.0	4.8905371737128954e+17
19234.0	4.8897174375410336e+17
19235.0	4.8888401002932896e+17
19236.0	4.88801889891123e+17
19237.0	4.887146799650134e+17
19238.0	4.886253672245929e+17
19239.0	4.885460955780436e+17
19240.0	4.8845939456081914e+17
19241.0	4.883743877627903e+17
19242.0	4.8828787730677754e+17
19243.0	4.88191910163251e+17
19244.0	4.8811990752515405e+17
19245.0	4.880343886725119e+17
19246.0	4.8794976635234976e+17
19247.0	4.878640619716607e+17
19248.0	4.877790655894868e+17
19249.0	4.876903801072299e+17
19250.0	4.875881083655508e+17
19251.0	4.8749900478109e+17
19252.0	4.8741225504003405e+17
19253.0	4.8735152648137376e+17
19254.0	4.872687751703209e+17
19255.0	4.871658670828201e+17
19256.0	4.870971079000064e+17
19257.0	4.8701249040329376e+17
19258.0	4.869268717262164e+17
19259.0	4.8683460773369165e+17
19260.0	4.8674774656395936e+17
19261.0	4.866683443347455e+17
19262.0	4.8657673353516365e+17
19263.0	4.8648768552523085e+17
19264.0	4.863967056188756e+17
19265.0	4.8631333243234976e+17
19266.0	4.862271633227775e+17
19267.0	4.861583120749909e+17
19268.0	4.8607463333341856e+17
19269.0	4.859905292894207e+17
19270.0	4.859023949387092e+17
19271.0	4.8581351533008205e+17
19272.0	4.857346053024426e+17
19273.0	4.8563881949265914e+17
19274.0	4.8553370687897574e+17
19275.0	4.8548514452821325e+17
19276.0	4.853982680492715e+17
19277.0	4.8531461279580154e+17
19278.0	4.8522740881162234e+17
19279.0	4.8514323479265274e+17
19280.0	4.8505865329704954e+17
19281.0	4.849742755747155e+17
19282.0	4.8489080529005216e+17
19283.0	4.84805376545041e+17
19284.0	4.8471744848418125e+17
19285.0	4.846303429263359e+17
19286.0	4.845389677068287e+17
19287.0	4.844420251779071e+17
19288.0	4.842895146221566e+17
19289.0	4.841892453111124e+17
19290.0	4.841863217414143e+17
19291.0	4.8409836222327475e+17
19292.0	4.8404163531025056e+17
19293.0	4.839597469073407e+17
19294.0	4.8387553003656525e+17
19295.0	4.837927692883285e+17
19296.0	4.8364977469958835e+17
19297.0	4.83613990715392e+17
19298.0	4.835377174369621e+17
19299.0	4.833904105444694e+17
19300.0	4.833708594255189e+17
19301.0	4.8328710700400634e+17
19302.0	4.8320185155365536e+17
19303.0	4.8311308022797645e+17
19304.0	4.8303320858623994e+17
19305.0	4.8294682402925216e+17
19306.0	4.828629709444437e+17
19307.0	4.8277432544788474e+17
19308.0	4.8268970767155194e+17
19309.0	4.826041065406463e+17
19310.0	4.8251570158742176e+17
19311.0	4.8242483695452154e+17
19312.0	4.82327528612386e+17
19313.0	4.821850087489534e+17
19314.0	4.810829420210861e+17
19315.0	4.810442393605463e+17
19316.0	4.818597370484053e+17
19317.0	4.819062332151125e+17
19318.0	4.8184061395817805e+17
19319.0	4.817627689342293e+17
19320.0	4.816602340698793e+17
19321.0	4.815476112752639e+17
19322.0	4.8151718139002874e+17
19323.0	4.814339153679699e+17
19324.0	4.813503519697578e+17
19325.0	4.812677158622549e+17
19326.0	4.811834671147689e+17
19327.0	4.8110002409308154e+17
19328.0	4.809089188102145e+17
19329.0	4.809323735678975e+17
19330.0	4.808488993685502e+17
19331.0	4.807613829786282e+17
19332.0	4.8068124954241696e+17
19333.0	4.8059649859693216e+17
19334.0	4.8051037150030496e+17
19335.0	4.8021199507510624e+17
19336.0	4.8034347818680314e+17
19337.0	4.8026087199866874e+17
19338.0	4.801584059908095e+17
19339.0	4.800891500625919e+17
19340.0	4.7999054707862176e+17
19341.0	4.7983022001793715e+17
19342.0	4.798042033793706e+17
19343.0	4.7974166211242656e+17
19344.0	4.795647724442966e+17
19345.0	4.7948777243279366e+17
19346.0	4.7944228457676794e+17
19347.0	4.7929634279041696e+17
19348.0	4.793274272666966e+17
19349.0	4.792466950236842e+17
19350.0	4.7912587082683725e+17
19351.0	4.790816321044479e+17
19352.0	4.7889116267806694e+17
19353.0	4.7892022347257165e+17
19354.0	4.788377948433067e+17
19355.0	4.7874539782144e+17
19356.0	4.7867004673064954e+17
19357.0	4.785867929419776e+17
19358.0	4.785027630672555e+17
19359.0	4.783946762726057e+17
19360.0	4.7824792952941203e+17
19361.0	4.782507921418923e+17
19362.0	4.781674733415082e+17
19363.0	4.7808420843793056e+17
19364.0	4.7800067649699834e+17
19365.0	4.779159077257215e+17
19366.0	4.778314786930688e+17
19367.0	4.7774837499057485e+17
19368.0	4.776646071899476e+17
19369.0	4.775793371993429e+17
19370.0	4.774955768785577e+17
19371.0	4.7740735878157645e+17
19372.0	4.7732739717201914e+17
19373.0	4.77242777018914e+17
19374.0	4.771589293867007e+17
19375.0	4.7707643945069216e+17
19376.0	4.769922465573547e+17
19377.0	4.7690725471901005e+17
19378.0	4.7682314703994874e+17
19379.0	4.767388706100563e+17
19380.0	4.7665235323344205e+17
19381.0	4.765673887978836e+17
19382.0	4.764769319911424e+17
19383.0	4.7639578213526176e+17
19384.0	4.7631135547938125e+17
19385.0	4.762279509054804e+17
19386.0	4.761434831454207e+17
19387.0	4.7605689327725216e+17
19388.0	4.7596819856752614e+17
19389.0	4.758760876670975e+17
19390.0	4.7576593601658874e+17
19391.0	4.755856868507647e+17
19392.0	4.755611107459071e+17
19393.0	4.7552473438617594e+17
19394.0	4.7545106276461216e+17
19395.0	4.753375228155222e+17
19396.0	4.7527631477800954e+17
19397.0	4.751952660048555e+17
19398.0	4.7507483068989446e+17
19399.0	4.749685448594773e+17
19400.0	4.7489783183005005e+17
19401.0	4.748438804976981e+17
19402.0	4.747599109510483e+17
19403.0	4.7467148642440525e+17
19404.0	4.7458281114828794e+17
19405.0	4.744906787170985e+17
19406.0	4.744004758754645e+17
19407.0	4.742678254190591e+17
19408.0	4.742016536324777e+17
19409.0	4.741156934691498e+17
19410.0	4.740317130872149e+17
19411.0	4.739405229064192e+17
19412.0	4.738461774905342e+17
19413.0	4.7371305566426445e+17
19414.0	4.7365390772906656e+17
19415.0	4.735549379532117e+17
19416.0	4.734439805069993e+17
19417.0	4.7335525874401274e+17
19418.0	4.732500753864021e+17
19419.0	4.731440968586581e+17
19420.0	4.730356157994324e+17
19421.0	4.729242562592768e+17
19422.0	4.728055162819924e+17
19423.0	4.7269088420604576e+17
19424.0	4.7256943240151034e+17
19425.0	4.724419712778239e+17
19426.0	4.7230896675225594e+17
19427.0	4.721696808370176e+17
19428.0	4.720202223364778e+17
19429.0	4.718618480039253e+17
19430.0	4.716879355226794e+17
19431.0	4.715041552422229e+17
19432.0	4.7132776448655354e+17
19433.0	4.711246653117781e+17
19434.0	4.7089671593437856e+17
19435.0	4.706434835021823e+17
19436.0	4.703503232532479e+17
19437.0	4.7000173017388365e+17
19438.0	4.694588244273834e+17
19439.0	4.691867767668736e+17
19440.0	4.688498161702229e+17
19441.0	4.68340715884817e+17
19442.0	4.6771704413115725e+17
19443.0	4.669894019426987e+17
19444.0	4.660615264075775e+17
19445.0	4.6494507035088205e+17
19446.0	4.63499109212706e+17
19447.0	4.616507668911444e+17
19448.0	4.590960635805698e+17
19449.0	4.552985661145088e+17
19450.0	4.4822955368120256e+17
19451.0	4.42051173600461e+17
19452.0	4.5238512733825696e+17
19453.0	4.5712412994000224e+17
19454.0	4.599982289409363e+17
19455.0	4.619777730063017e+17
19456.0	4.633984946405376e+17
19457.0	4.6431288674658976e+17
19458.0	4.621337812620645e+17
19459.0	4.650640101867525e+17
19460.0	4.6644842201087994e+17
19461.0	4.669525482012671e+17
19462.0	4.673072806232063e+17
19463.0	4.6756657494316365e+17
19464.0	4.6777806146764794e+17
19465.0	4.6794316926593696e+17
19466.0	4.6806900971055763e+17
19467.0	4.681639159747925e+17
19468.0	4.6823374155939834e+17
19469.0	4.682056545424723e+17
19470.0	4.6831247738361165e+17
19471.0	4.6833232168441165e+17
19472.0	4.6833635758353056e+17
19473.0	4.6833032701323936e+17
19474.0	4.6823443096316576e+17
19475.0	4.6826436053783885e+17
19476.0	4.6825726978730656e+17
19477.0	4.682302588190719e+17
19478.0	4.6819729466545485e+17
19479.0	4.680796570910717e+17
19480.0	4.681050601728681e+17
19481.0	4.680513971290111e+17
19482.0	4.680023802555051e+17
19483.0	4.679470855574868e+17
19484.0	4.678865956547243e+17
19485.0	4.6782540334585165e+17
19486.0	4.676829256351745e+17
19487.0	4.676943907651583e+17
19488.0	4.6762364453082445e+17
19489.0	4.6753933286877856e+17
19490.0	4.6745970177037645e+17
19491.0	4.6741186049037645e+17
19492.0	4.6735460425618765e+17
19493.0	4.67285820117265e+17
19494.0	4.6721262713569274e+17
19495.0	4.6713416065570125e+17
19496.0	4.670405728010239e+17
19497.0	4.6695467212690765e+17
19498.0	4.6679429906868896e+17
19499.0	4.6664181179132576e+17
19500.0	4.667184619279702e+17
19501.0	4.666811425488895e+17
19502.0	4.6661709112279034e+17
19503.0	4.6654652517362336e+17
19504.0	4.6647046594450765e+17
19505.0	4.6639213682797216e+17
19506.0	4.663170494889983e+17
19507.0	4.662348609836373e+17
19508.0	4.6614914604728314e+17
19509.0	4.6604549682626554e+17
19510.0	4.658297911115775e+17
19511.0	4.645285157055143e+17
19512.0	4.65566270820625e+17
19513.0	4.6562645425957536e+17
19514.0	4.655850898937172e+17
19515.0	4.655809293538644e+17
19516.0	4.655151781860692e+17
19517.0	4.654566452057429e+17
19518.0	4.653635627646974e+17
19519.0	4.6528755533523616e+17
19520.0	4.6515553682063334e+17
19521.0	4.651583219782998e+17
19522.0	4.6506546148584096e+17
19523.0	4.649829648389462e+17
19524.0	4.648640615634262e+17
19525.0	4.6484326809163085e+17
19526.0	4.6476609471556256e+17
19527.0	4.646867300253695e+17
19528.0	4.6460191315940685e+17
19529.0	4.6451991102095354e+17
19530.0	4.644514376100521e+17
19531.0	4.6437218106299725e+17
19532.0	4.642926875377663e+17
19533.0	4.642126612660223e+17
19534.0	4.641341858381823e+17
19535.0	4.6405297523479885e+17
19536.0	4.639698831365461e+17
19537.0	4.638906686723412e+17
19538.0	4.6373180654223366e+17
19539.0	4.6372231140693325e+17
19540.0	4.636496055937706e+17
19541.0	4.6355770461825696e+17
19542.0	4.634878818298538e+17
19543.0	4.633360270535338e+17
19544.0	4.6332383001750176e+17
19545.0	4.6323219216465914e+17
19546.0	4.631527502992724e+17
19547.0	4.630917965763925e+17
19548.0	4.630195102635348e+17
19549.0	4.629335855420757e+17
19550.0	4.628639886169429e+17
19551.0	4.627865741382996e+17
19552.0	4.6270654954427725e+17
19553.0	4.6262758610916685e+17
19554.0	4.625469250295125e+17
19555.0	4.6245834384561485e+17
19556.0	4.6238391689980576e+17
19557.0	4.6231065820747085e+17
19558.0	4.622323137118207e+17
19559.0	4.6215319592632314e+17
19560.0	4.62044094669346e+17
19561.0	4.619924729932457e+17
19562.0	4.6188790997319674e+17
19563.0	4.6183690940361376e+17
19564.0	4.617553019491668e+17
19565.0	4.616770279877291e+17
19566.0	4.615962225541119e+17
19567.0	4.6151911083431245e+17
19568.0	4.614378467535531e+17
19569.0	4.613592760451071e+17
19570.0	4.6128093371651405e+17
19571.0	4.612017265224361e+17
19572.0	4.6111999484668576e+17
19573.0	4.610339470224042e+17
19574.0	4.6095297864007674e+17
19575.0	4.608852794277887e+17
19576.0	4.608011645485055e+17
19577.0	4.607107643648681e+17
19578.0	4.6064668945066656e+17
19579.0	4.605660042537642e+17
19580.0	4.6048684137949856e+17
19581.0	4.604085724512255e+17
19582.0	4.6033081879319885e+17
19583.0	4.6025208282917536e+17
19584.0	4.601718290863444e+17
19585.0	4.600824497963008e+17
19586.0	4.600004661127851e+17
19587.0	4.599296883512661e+17
19588.0	4.598440579301376e+17
19589.0	4.597686539911168e+17
19590.0	4.59687798575377e+17
19591.0	4.596159227450708e+17
19592.0	4.595391248990207e+17
19593.0	4.594516232590676e+17
19594.0	4.5935228760009376e+17
19595.0	4.593007206596608e+17
19596.0	4.592209349312511e+17
19597.0	4.591390352736255e+17
19598.0	4.5903345108036256e+17
19599.0	4.589788310361429e+17
19600.0	4.589040036741119e+17
19601.0	4.5882209395015674e+17
19602.0	4.587413749192019e+17
19603.0	4.5865965575645856e+17
19604.0	4.5858297192557216e+17
19605.0	4.5849361682268166e+17
19606.0	4.5843137915344205e+17
19607.0	4.5835510230985376e+17
19608.0	4.5827445367330125e+17
19609.0	4.581952491356159e+17
19610.0	4.580833347589462e+17
19611.0	4.5798520384389114e+17
19612.0	4.579620645677738e+17
19613.0	4.578807967121407e+17
19614.0	4.578000007856128e+17
19615.0	4.577225783377918e+17
19616.0	4.576042278016341e+17
19617.0	4.5749863542947834e+17
19618.0	4.5745161399610016e+17
19619.0	4.5736110021672954e+17
19620.0	4.5728350160814054e+17
19621.0	4.571600030531583e+17
19622.0	4.5716844800464205e+17
19623.0	4.570886931043668e+17
19624.0	4.5700256579802445e+17
19625.0	4.56935956615441e+17
19626.0	4.568545894247082e+17
19627.0	4.567754655574698e+17
19628.0	4.566913280289449e+17
19629.0	4.5641334354083814e+17
19630.0	4.5651628658087245e+17
19631.0	4.564249239442772e+17
19632.0	4.563676309400233e+17
19633.0	4.562947097493502e+17
19634.0	4.562255784618666e+17
19635.0	4.561394581460308e+17
19636.0	4.559837551656959e+17
19637.0	4.5588165818668365e+17
19638.0	4.5591101537867085e+17
19639.0	4.5583412392973645e+17
19640.0	4.557257009616213e+17
19641.0	4.556178204568234e+17
19642.0	4.555905741881343e+17
19643.0	4.5551788242589e+17
19644.0	4.5544243857107616e+17
19645.0	4.553660363177983e+17
19646.0	4.5519795259091603e+17
19647.0	4.5521303705572685e+17
19648.0	4.551388352741374e+17
19649.0	4.55060554322193e+17
19650.0	4.5498320499507194e+17
19651.0	4.5490506294449485e+17
19652.0	4.548270112112639e+17
19653.0	4.5474920966826656e+17
19654.0	4.5467101973271885e+17
19655.0	4.5459214619552416e+17
