# Flux units: erg / (cm m2 s)
# Wavelength units: Angstrom
wave	flux
19000.0	6.796845338591232e+17
19001.0	6.795499247326548e+17
19002.0	6.794327834143402e+17
19003.0	6.793061115887615e+17
19004.0	6.791796086538239e+17
19005.0	6.790540884443135e+17
19006.0	6.789286481362943e+17
19007.0	6.787952510238719e+17
19008.0	6.786711184299348e+17
19009.0	6.785439088945833e+17
19010.0	6.783819817069225e+17
19011.0	6.782935770333183e+17
19012.0	6.781228555785555e+17
19013.0	6.780442375443795e+17
19014.0	6.779131995881471e+17
19015.0	6.778008290110121e+17
19016.0	6.776733584501418e+17
19017.0	6.77551366349346e+17
19018.0	6.774220952436735e+17
19019.0	6.772979657255594e+17
19020.0	6.771700990825812e+17
19021.0	6.77045473378304e+17
19022.0	6.76919395885602e+17
19023.0	6.767891223412735e+17
19024.0	6.766643041184425e+17
19025.0	6.765363452007763e+17
19026.0	6.764062136336383e+17
19027.0	6.762450576386729e+17
19028.0	6.761596960724308e+17
19029.0	6.76032521769233e+17
19030.0	6.759078053281791e+17
19031.0	6.757811949491539e+17
19032.0	6.756541338921642e+17
19033.0	6.755195040038911e+17
19034.0	6.753984303158611e+17
19035.0	6.75259719229986e+17
19036.0	6.724079771276618e+17
19037.0	6.750115949008212e+17
19038.0	6.748912277433001e+17
19039.0	6.747678278942719e+17
19040.0	6.746415376105472e+17
19041.0	6.745142975266815e+17
19042.0	6.74375932261171e+17
19043.0	6.742619714835795e+17
19044.0	6.741341015550633e+17
19045.0	6.740069769543679e+17
19046.0	6.738775038230527e+17
19047.0	6.737539575928148e+17
19048.0	6.736086185978537e+17
19049.0	6.734864616609107e+17
19050.0	6.73369663995904e+17
19051.0	6.728103982967459e+17
19052.0	6.730542225555455e+17
19053.0	6.729922462613503e+17
19054.0	6.728681380642815e+17
19055.0	6.727179949135188e+17
19056.0	6.7261195354112e+17
19057.0	6.724874813483689e+17
19058.0	6.723542921336148e+17
19059.0	6.722332420035924e+17
19060.0	6.721062875518291e+17
19061.0	6.719816475170132e+17
19062.0	6.718545228464127e+17
19063.0	6.717279782480553e+17
19064.0	6.715907297159849e+17
19065.0	6.71459162858018e+17
19066.0	6.713411442311165e+17
19067.0	6.712213554681172e+17
19068.0	6.710946751840255e+17
19069.0	6.709680710265514e+17
19070.0	6.708392200503295e+17
19071.0	6.707132766355455e+17
19072.0	6.705859641999359e+17
19073.0	6.704608896352255e+17
19074.0	6.703346666001748e+17
19075.0	6.702079800945321e+17
19076.0	6.700794687171241e+17
19077.0	6.699534532302163e+17
19078.0	6.698249641525247e+17
19079.0	6.697011394904061e+17
19080.0	6.695732301354323e+17
19081.0	6.694439783934633e+17
19082.0	6.693172770679466e+17
19083.0	6.691849232886441e+17
19084.0	6.690472297409194e+17
19085.0	6.689405162313046e+17
19086.0	6.687743091059369e+17
19087.0	6.686104069603328e+17
19088.0	6.68542736269312e+17
19089.0	6.683784254586879e+17
19090.0	6.683015382040575e+17
19091.0	6.681770655918761e+17
19092.0	6.680288686680746e+17
19093.0	6.679273333762729e+17
19094.0	6.678013456416768e+17
19095.0	6.676748622102527e+17
19096.0	6.675470129037311e+17
19097.0	6.6742179083933e+17
19098.0	6.672934813477545e+17
19099.0	6.671665708662783e+17
19100.0	6.670374271276372e+17
19101.0	6.66914013647121e+17
19102.0	6.667802914062333e+17
19103.0	6.666626220949504e+17
19104.0	6.665359691437396e+17
19105.0	6.664045166504617e+17
19106.0	6.662684465780052e+17
19107.0	6.661526595305472e+17
19108.0	6.660254163708585e+17
19109.0	6.656845419992402e+17
19110.0	6.657635724034047e+17
19111.0	6.65647089520913e+17
19112.0	6.655220087346516e+17
19113.0	6.653973375221759e+17
19114.0	6.652698338962089e+17
19115.0	6.651342533689343e+17
19116.0	6.650158631966036e+17
19117.0	6.648889854306985e+17
19118.0	6.647451389089108e+17
19119.0	6.642565728174072e+17
19120.0	6.644864444443306e+17
19121.0	6.643683514384383e+17
19122.0	6.642592336838655e+17
19123.0	6.641328427368448e+17
19124.0	6.639913165040297e+17
19125.0	6.638787048243199e+17
19126.0	6.637523173725523e+17
19127.0	6.634759269995859e+17
19128.0	6.634554331409065e+17
19129.0	6.633667214442495e+17
19130.0	6.632464295045801e+17
19131.0	6.631198970697044e+17
19132.0	6.629947565146111e+17
19133.0	6.628550959082154e+17
19134.0	6.6272123420672e+17
19135.0	6.62614671761954e+17
19136.0	6.624895148490751e+17
19137.0	6.623491489005567e+17
19138.0	6.622346112663551e+17
19139.0	6.6211030761472e+17
19140.0	6.619841569314132e+17
19141.0	6.61857812680977e+17
19142.0	6.617283828908031e+17
19143.0	6.616002414510079e+17
19144.0	6.614754659401727e+17
19145.0	6.613520460982953e+17
19146.0	6.611727400217258e+17
19147.0	6.610915093555881e+17
19148.0	6.609702849522346e+17
19149.0	6.608434589160788e+17
19150.0	6.607196857040895e+17
19151.0	6.605939903124819e+17
19152.0	6.604644421730304e+17
19153.0	6.603362706041514e+17
19154.0	6.602033145926995e+17
19155.0	6.600869755748351e+17
19156.0	6.599602625751722e+17
19157.0	6.598154080922282e+17
19158.0	6.59541656286003e+17
19159.0	6.595060467848534e+17
19160.0	6.593811652280319e+17
19161.0	6.592520363092649e+17
19162.0	6.588060625360216e+17
19163.0	6.589883975991295e+17
19164.0	6.58879423848994e+17
19165.0	6.587445521590953e+17
19166.0	6.586100552302591e+17
19167.0	6.584694952252756e+17
19168.0	6.583725742271145e+17
19169.0	6.582426188906496e+17
19170.0	6.581219896590336e+17
19171.0	6.579773578936319e+17
19172.0	6.578667633246207e+17
19173.0	6.577426462496084e+17
19174.0	6.576128790276777e+17
19175.0	6.57491427852288e+17
19176.0	6.573649075109887e+17
19177.0	6.572246925574143e+17
19178.0	6.571014030185812e+17
19179.0	6.569581037136553e+17
19180.0	6.568552702148607e+17
19181.0	6.56721878135603e+17
19182.0	6.566039030595583e+17
19183.0	6.564793011929087e+17
19184.0	6.563513746412884e+17
19185.0	6.562260391209642e+17
19186.0	6.560997609308159e+17
19187.0	6.559040333152256e+17
19188.0	6.556702428102655e+17
19189.0	6.555426225127423e+17
19190.0	6.554143355305983e+17
19191.0	6.552844627520169e+17
19192.0	6.551640785376595e+17
19193.0	6.550354907540138e+17
19194.0	6.549074020925439e+17
19195.0	6.547816406406484e+17
19196.0	6.546505626987178e+17
19197.0	6.545174737977343e+17
19198.0	6.543600721941844e+17
19199.0	6.522445654305444e+17
19200.0	6.526962968647003e+17
19201.0	6.539850306027519e+17
19202.0	6.53885643423744e+17
19203.0	6.537600737913514e+17
19204.0	6.536383172007251e+17
19205.0	6.535150317862911e+17
19206.0	6.533889033327956e+17
19207.0	6.532544810625706e+17
19208.0	6.531180760749395e+17
19209.0	6.530091613945855e+17
19210.0	6.528826790816425e+17
19211.0	6.527564964517203e+17
19212.0	6.526290927200937e+17
19213.0	6.524780039634943e+17
19214.0	6.523423326994431e+17
19215.0	6.522393368111785e+17
19216.0	6.521207630681428e+17
19217.0	6.519935954059263e+17
19218.0	6.517959388998313e+17
19219.0	6.517253595288915e+17
19220.0	6.516090974066004e+17
19221.0	6.514570919149567e+17
19222.0	6.513567317273257e+17
19223.0	6.512281060551338e+17
19224.0	6.51098441453841e+17
19225.0	6.509622354160297e+17
19226.0	6.508453614146899e+17
19227.0	6.507175408391508e+17
19228.0	6.505923144406356e+17
19229.0	6.504644736625321e+17
19230.0	6.503347213303807e+17
19231.0	6.502064223245652e+17
19232.0	6.500798166990848e+17
19233.0	6.499461809307645e+17
19234.0	6.498227197050879e+17
19235.0	6.496939682037759e+17
19236.0	6.495684314966697e+17
19237.0	6.49438799471138e+17
19238.0	6.493009365434367e+17
19239.0	6.491835820845737e+17
19240.0	6.490530927433044e+17
19241.0	6.489240622508714e+17
19242.0	6.48796591690001e+17
19243.0	6.486547839494825e+17
19244.0	6.485407204813482e+17
19245.0	6.482081722925056e+17
19246.0	6.480641916228948e+17
19247.0	6.479367744694954e+17
19248.0	6.478072719081471e+17
19249.0	6.476774799398228e+17
19250.0	6.47547003600896e+17
19251.0	6.474101462575785e+17
19252.0	6.472654445172052e+17
19253.0	6.471592999649279e+17
19254.0	6.470315719436969e+17
19255.0	6.468854317667668e+17
19256.0	6.467687586026836e+17
19257.0	6.466424466483882e+17
19258.0	6.465124527243263e+17
19259.0	6.463757283404457e+17
19260.0	6.462001860924755e+17
19261.0	6.461204352466943e+17
19262.0	6.459860034693802e+17
19263.0	6.458552298941097e+17
19264.0	6.456837195606697e+17
19265.0	6.455819433760084e+17
19266.0	6.454506169215658e+17
19267.0	6.453368138498047e+17
19268.0	6.452055169652052e+17
19269.0	6.450740285407231e+17
19270.0	6.449420116339369e+17
19271.0	6.447819434317142e+17
19272.0	6.446753225463124e+17
19273.0	6.442591924344147e+17
19274.0	6.440877780806312e+17
19275.0	6.440154756197034e+17
19276.0	6.438813807848106e+17
19277.0	6.437491008252585e+17
19278.0	6.436164913332223e+17
19279.0	6.434798999786836e+17
19280.0	6.43343356928546e+17
19281.0	6.432156770020009e+17
19282.0	6.430823433633791e+17
19283.0	6.429220104306687e+17
19284.0	6.427371324309501e+17
19285.0	6.425613707509759e+17
19286.0	6.424386614941012e+17
19287.0	6.423050002803369e+17
19288.0	6.414590346788856e+17
19289.0	6.402431355191264e+17
19290.0	6.418923716433236e+17
19291.0	6.415815023438506e+17
19292.0	6.414681875589801e+17
19293.0	6.413312598212607e+17
19294.0	6.411942100292948e+17
19295.0	6.41058170016017e+17
19296.0	6.409186690028884e+17
19297.0	6.407802037731327e+17
19298.0	6.406425808994303e+17
19299.0	6.405042103211348e+17
19300.0	6.403674631482025e+17
19301.0	6.402282463690751e+17
19302.0	6.40088209953041e+17
19303.0	6.399429092660563e+17
19304.0	6.398063109210111e+17
19305.0	6.396668925356714e+17
19306.0	6.395251794466131e+17
19307.0	6.393793142762154e+17
19308.0	6.392387036599636e+17
19309.0	6.39029890724659e+17
19310.0	6.388604509792937e+17
19311.0	6.388035666400595e+17
19312.0	6.386709264596991e+17
19313.0	6.385267701885609e+17
19314.0	6.359399199845028e+17
19315.0	6.359891254618831e+17
19316.0	6.380806534594559e+17
19317.0	6.37833355408179e+17
19318.0	6.376500741799933e+17
19319.0	6.375041815369043e+17
19320.0	6.373548101380778e+17
19321.0	6.372046967668735e+17
19322.0	6.370452551237631e+17
19323.0	6.368765848234666e+17
19324.0	6.36750820155938e+17
19325.0	6.36541276852497e+17
19326.0	6.364487038795775e+17
19327.0	6.362981192783188e+17
19328.0	6.36142752960785e+17
19329.0	6.35992440709666e+17
19330.0	6.358341202739199e+17
19331.0	6.356776936363348e+17
19332.0	6.355241603694591e+17
19333.0	6.35365767581969e+17
19334.0	6.350437769456297e+17
19335.0	6.348361038823423e+17
19336.0	6.346804611601748e+17
19337.0	6.345188633651882e+17
19338.0	6.343378576168275e+17
19339.0	6.341903075246079e+17
19340.0	6.34017050403362e+17
19341.0	6.338537133004116e+17
19342.0	6.336551304123731e+17
19343.0	6.335212915698346e+17
19344.0	6.333387565782356e+17
19345.0	6.327395650895868e+17
19346.0	6.326662843072511e+17
19347.0	6.325479574689108e+17
19348.0	6.323796383017642e+17
19349.0	6.321970245271551e+17
19350.0	6.320159040645801e+17
19351.0	6.318352445560148e+17
19352.0	6.315327851855868e+17
19353.0	6.311229130451625e+17
19354.0	6.30932217405986e+17
19355.0	6.307313647004329e+17
19356.0	6.305445750068563e+17
19357.0	6.303446080684031e+17
19358.0	6.299536464368982e+17
19359.0	6.295073146798079e+17
19360.0	6.292978153466537e+17
19361.0	6.290897729748991e+17
19362.0	6.288794129705642e+17
19363.0	6.282503022531923e+17
19364.0	6.279176311712426e+17
19365.0	6.276876827186516e+17
19366.0	6.274454044803075e+17
19367.0	6.265986983045802e+17
19368.0	6.263482649411583e+17
19369.0	6.260889618830676e+17
19370.0	6.255373775623507e+17
19371.0	6.252049122110121e+17
19372.0	6.249383792214015e+17
19373.0	6.246613935368874e+17
19374.0	6.24382703706658e+17
19375.0	6.240971419287551e+17
19376.0	6.238066481386835e+17
19377.0	6.235097197969405e+17
19378.0	6.232086114118314e+17
19379.0	6.229022110034602e+17
19380.0	6.225893238243327e+17
19381.0	6.222698218083668e+17
19382.0	6.219389468671999e+17
19383.0	6.216050209893034e+17
19384.0	6.212753649128788e+17
19385.0	6.209306475102207e+17
19386.0	6.205778187430569e+17
19387.0	6.202116260844884e+17
19388.0	6.198387679778131e+17
19389.0	6.194599566158505e+17
19390.0	6.190728554217471e+17
19391.0	6.164823962288095e+17
19392.0	6.182601327553192e+17
19393.0	6.178941309375827e+17
19394.0	6.174907659102889e+17
19395.0	6.170791448150015e+17
19396.0	6.166689676088659e+17
19397.0	6.162592298958848e+17
19398.0	6.158369720456532e+17
19399.0	6.153593596586665e+17
19400.0	6.149627346681856e+17
19401.0	6.145103960386218e+17
19402.0	6.140462028379476e+17
19403.0	6.135610611160404e+17
19404.0	6.130712539998889e+17
19405.0	6.125821462839295e+17
19406.0	6.120886451044351e+17
19407.0	6.115859992936447e+17
19408.0	6.110203401469951e+17
19409.0	6.105577674156714e+17
19410.0	6.10032690536994e+17
19411.0	6.094958601699327e+17
19412.0	6.089037562161834e+17
19413.0	6.083363709037225e+17
19414.0	6.077672709597865e+17
19415.0	6.07191645168162e+17
19416.0	6.065358669960532e+17
19417.0	6.058683441435987e+17
19418.0	6.052803177523882e+17
19419.0	6.045396997854546e+17
19420.0	6.038220747833343e+17
19421.0	6.030033919410172e+17
19422.0	6.021633600913403e+17
19423.0	6.011352237735933e+17
19424.0	5.999870429102077e+17
19425.0	5.986654022008831e+17
19426.0	5.9705121004585e+17
19427.0	5.95126131604411e+17
19428.0	5.928379173830655e+17
19429.0	5.898763776993964e+17
19430.0	5.880726334122668e+17
19431.0	5.861480115907249e+17
19432.0	5.848666418621097e+17
19433.0	5.831345808867328e+17
19434.0	5.813147420764842e+17
19435.0	5.792979509138771e+17
19436.0	5.77135078224691e+17
19437.0	5.751127489729874e+17
19438.0	5.695561762777772e+17
19439.0	5.6979704718731936e+17
19440.0	5.6638432894866784e+17
19441.0	5.617475892805622e+17
19442.0	5.555128427173203e+17
19443.0	5.493884817768447e+17
19444.0	5.4418229089184403e+17
19445.0	5.3787055011921926e+17
19446.0	5.299007240099157e+17
19447.0	5.191276392262305e+17
19448.0	5.0453010892281235e+17
19449.0	4.837940142975658e+17
19450.0	4.475263272353785e+17
19451.0	4.309283111960563e+17
19452.0	4.679764742067547e+17
19453.0	4.952222608304818e+17
19454.0	5.1208591102006554e+17
19455.0	5.2438344746926086e+17
19456.0	5.333220107922093e+17
19457.0	5.401570432778239e+17
19458.0	5.411759809975714e+17
19459.0	5.50630914593042e+17
19460.0	5.571887661492903e+17
19461.0	5.6233336172270874e+17
19462.0	5.6606913378385875e+17
19463.0	5.689935354920957e+17
19464.0	5.7133274147498643e+17
19465.0	5.733946355963222e+17
19466.0	5.7529006464259386e+17
19467.0	5.770798008631295e+17
19468.0	5.787489802037932e+17
19469.0	5.802828689134931e+17
19470.0	5.817696499269631e+17
19471.0	5.831735227624106e+17
19472.0	5.844912369041404e+17
19473.0	5.867407361616556e+17
19474.0	5.892483868611931e+17
19475.0	5.91040638056311e+17
19476.0	5.9254723547846e+17
19477.0	5.937832306671612e+17
19478.0	5.947796442054655e+17
19479.0	5.955975515908776e+17
19480.0	5.962776853173588e+17
19481.0	5.969579108291922e+17
19482.0	5.974210081281363e+17
19483.0	5.979838365390163e+17
19484.0	5.98402924613905e+17
19485.0	5.987904984361642e+17
19486.0	5.992486376483498e+17
19487.0	5.996072847540223e+17
19488.0	5.999523713952426e+17
19489.0	6.002799304594771e+17
19490.0	6.005377495029074e+17
19491.0	6.009705989494099e+17
19492.0	6.012760107603284e+17
19493.0	6.015678499433129e+17
19494.0	6.018509302311593e+17
19495.0	6.021247046167209e+17
19496.0	6.023610457478484e+17
19497.0	6.026452711505919e+17
19498.0	6.026957784001197e+17
19499.0	5.996667091637564e+17
19500.0	6.033974319819434e+17
19501.0	6.036299546886144e+17
19502.0	6.038495106345642e+17
19503.0	6.040542530677417e+17
19504.0	6.042408985471657e+17
19505.0	6.044251413195434e+17
19506.0	6.046046255142227e+17
19507.0	6.047778914435071e+17
19508.0	6.049499314476372e+17
19509.0	6.051150962185556e+17
19510.0	6.052563127719252e+17
19511.0	6.009644061993612e+17
19512.0	6.050597477635401e+17
19513.0	6.047316354007023e+17
19514.0	6.05152796999679e+17
19515.0	6.059352323872086e+17
19516.0	6.061233185401513e+17
19517.0	6.062323590496256e+17
19518.0	6.063422909885098e+17
19519.0	6.064393025836371e+17
19520.0	6.065293073143123e+17
19521.0	6.066199170034346e+17
19522.0	6.066971734966271e+17
19523.0	6.067729893163008e+17
19524.0	6.068393497067519e+17
19525.0	6.069029166907391e+17
19526.0	6.069610372311722e+17
19527.0	6.070126318540116e+17
19528.0	6.070586801389567e+17
19529.0	6.071009237008383e+17
19530.0	6.071384395830612e+17
19531.0	6.071710433061545e+17
19532.0	6.073802475001172e+17
19533.0	6.075584390802089e+17
19534.0	6.075746380414975e+17
19535.0	6.077392167982417e+17
19536.0	6.08163281834257e+17
19537.0	6.081624418549759e+17
19538.0	6.081453404192767e+17
19539.0	6.082755113429674e+17
19540.0	6.08606687784687e+17
19541.0	6.085860012676436e+17
19542.0	6.085603584114687e+17
19543.0	6.085303027280553e+17
19544.0	6.08714244629026e+17
19545.0	6.088249499975677e+17
19546.0	6.087476446407338e+17
19547.0	6.087816305268052e+17
19548.0	6.087385195828563e+17
19549.0	6.0868520851101e+17
19550.0	6.087781494642007e+17
19551.0	6.089126978431657e+17
19552.0	6.088603897692159e+17
19553.0	6.088055432325802e+17
19554.0	6.087477966143487e+17
19555.0	6.086922809464147e+17
19556.0	6.086346247853395e+17
19557.0	6.085739763378857e+17
19558.0	6.085755092860929e+17
19559.0	6.086952456202922e+17
19560.0	6.08625557119522e+17
19561.0	6.085591183654911e+17
19562.0	6.084920246708905e+17
19563.0	6.084235194531839e+17
19564.0	6.083529147766099e+17
19565.0	6.082813037466966e+17
19566.0	6.082060943534761e+17
19567.0	6.081351144964095e+17
19568.0	6.080583485969748e+17
19569.0	6.079835002634239e+17
19570.0	6.080007821241001e+17
19571.0	6.080159624986623e+17
19572.0	6.079344897512788e+17
19573.0	6.078557558844073e+17
19574.0	6.077686653561514e+17
19575.0	6.076955338211328e+17
19576.0	6.07613572227618e+17
19577.0	6.07528965706001e+17
19578.0	6.074441525450068e+17
19579.0	6.073610483531775e+17
19580.0	6.072766695123625e+17
19581.0	6.071925022042793e+17
19582.0	6.071082988251818e+17
19583.0	6.070220389788329e+17
19584.0	6.069339713175551e+17
19585.0	6.068380928136532e+17
19586.0	6.067466560776874e+17
19587.0	6.066596990681087e+17
19588.0	6.065434408605014e+17
19589.0	6.065059962115412e+17
19590.0	6.065261037049171e+17
19591.0	6.06443356168738e+17
19592.0	6.063526257535658e+17
19593.0	6.062591574365524e+17
19594.0	6.061470301290495e+17
19595.0	6.060733785003348e+17
19596.0	6.058858642407423e+17
19597.0	6.058870892571306e+17
19598.0	6.057649415476564e+17
19599.0	6.05700931854882e+17
19600.0	6.056072040502612e+17
19601.0	6.055064392521043e+17
19602.0	6.054125486385833e+17
19603.0	6.05255557657395e+17
19604.0	6.052176363956906e+17
19605.0	6.051035770519551e+17
19606.0	6.050325386843476e+17
19607.0	6.049365843334484e+17
19608.0	6.048380196574548e+17
19609.0	6.04737643880994e+17
19610.0	6.046432929426089e+17
19611.0	6.045444004118527e+17
19612.0	6.044488423527764e+17
19613.0	6.04349561639185e+17
19614.0	6.042483513360383e+17
19615.0	6.041525737051475e+17
19616.0	6.0403489453725e+17
19617.0	6.040920793983657e+17
19618.0	6.039523710468095e+17
19619.0	6.038480134078461e+17
19620.0	6.037514888413183e+17
19621.0	6.037057948352511e+17
19622.0	6.036083148062719e+17
19623.0	6.035077259591679e+17
19624.0	6.034060027625471e+17
19625.0	6.033056652940628e+17
19626.0	6.032041609003008e+17
19627.0	6.031012327500458e+17
19628.0	6.029507420312919e+17
19629.0	6.028775764525055e+17
19630.0	6.02639940260113e+17
19631.0	6.005500929201492e+17
19632.0	6.02618139386402e+17
19633.0	6.025704360990035e+17
19634.0	6.024758462251007e+17
19635.0	6.023703013184852e+17
19636.0	6.022680401324714e+17
19637.0	6.021875364790272e+17
19638.0	6.022921489918633e+17
19639.0	6.021888142038356e+17
19640.0	6.020793241348778e+17
19641.0	6.019106021048321e+17
19642.0	6.018785279825236e+17
19643.0	6.017740002645332e+17
19644.0	6.0166619267072e+17
19645.0	6.015443249310378e+17
19646.0	6.014603967681876e+17
19647.0	6.0135950005917e+17
19648.0	6.012553275987284e+17
19649.0	6.011507158548479e+17
19650.0	6.010464639123455e+17
19651.0	6.009413261328383e+17
19652.0	6.00837016518656e+17
19653.0	6.007312902782975e+17
19654.0	6.006268720316415e+17
19655.0	6.005216809844736e+17
19656.0	6.004171203411967e+17
19657.0	6.003126502948863e+17
19658.0	6.002075013305684e+17
19659.0	6.001021417422845e+17
19660.0	5.999969834805929e+17
19661.0	5.998916073248084e+17
19662.0	5.997861198102527e+17
19663.0	5.996757671127721e+17
19664.0	5.995664405517652e+17
19665.0	5.994694257410047e+17
