# Flux units: erg / (cm m2 s)
# Wavelength units: Angstrom
wave	flux
19000.0	5.853921868251136e+17
19001.0	5.851974989075795e+17
19002.0	5.851866252443645e+17
19003.0	5.850738677426858e+17
19004.0	5.849687301029887e+17
19005.0	5.848484848599039e+17
19006.0	5.847414869065727e+17
19007.0	5.846344908406783e+17
19008.0	5.845008388543828e+17
19009.0	5.843142513961641e+17
19010.0	5.841957090405034e+17
19011.0	5.84150738342161e+17
19012.0	5.839809613048489e+17
19013.0	5.839997005463551e+17
19014.0	5.838628247481001e+17
19015.0	5.83767835995887e+17
19016.0	5.837000010279593e+17
19017.0	5.835927331711658e+17
19018.0	5.834838280678057e+17
19019.0	5.833838760558591e+17
19020.0	5.832715709098665e+17
19021.0	5.831793296364883e+17
19022.0	5.830698153104724e+17
19023.0	5.829216831886675e+17
19024.0	5.828088582985043e+17
19025.0	5.827185107533824e+17
19026.0	5.825940821813929e+17
19027.0	5.824934413948244e+17
19028.0	5.823937406216874e+17
19029.0	5.822795812438015e+17
19030.0	5.821877533889876e+17
19031.0	5.820664848755369e+17
19032.0	5.819214940078077e+17
19033.0	5.816531006346579e+17
19034.0	5.813911880204287e+17
19035.0	5.804088228839423e+17
19036.0	5.782056346845183e+17
19037.0	5.80356906557986e+17
19038.0	5.809939791129257e+17
19039.0	5.811072877461503e+17
19040.0	5.810797540278271e+17
19041.0	5.810073205648042e+17
19042.0	5.801753747739978e+17
19043.0	5.808350740611071e+17
19044.0	5.807261300905299e+17
19045.0	5.806089231313577e+17
19046.0	5.804826508831401e+17
19047.0	5.803634758167209e+17
19048.0	5.801162090130089e+17
19049.0	5.786267069448174e+17
19050.0	5.798372466928297e+17
19051.0	5.794475254568276e+17
19052.0	5.794802030695763e+17
19053.0	5.796223780913152e+17
19054.0	5.796132266093225e+17
19055.0	5.791527034945544e+17
19056.0	5.793935470712146e+17
19057.0	5.793834838174376e+17
19058.0	5.785583646758218e+17
19059.0	5.789147943228755e+17
19060.0	5.79086264181282e+17
19061.0	5.789820085338111e+17
19062.0	5.78875845316881e+17
19063.0	5.78773223350818e+17
19064.0	5.786366349322922e+17
19065.0	5.78462513434897e+17
19066.0	5.781606424554156e+17
19067.0	5.783494688331092e+17
19068.0	5.782647512323412e+17
19069.0	5.781613243094355e+17
19070.0	5.780387548626944e+17
19071.0	5.779410439372799e+17
19072.0	5.775845358567419e+17
19073.0	5.777452001394687e+17
19074.0	5.776394946609151e+17
19075.0	5.775371469324287e+17
19076.0	5.774278106546175e+17
19077.0	5.773160371366569e+17
19078.0	5.771962392859987e+17
19079.0	5.771121711732052e+17
19080.0	5.769998461741738e+17
19081.0	5.768604003860477e+17
19082.0	5.767938481760937e+17
19083.0	5.766185827521876e+17
19084.0	5.76403227751219e+17
19085.0	5.764596507869184e+17
19086.0	5.7567350819389395e+17
19087.0	5.756317731913719e+17
19088.0	5.757106684690425e+17
19089.0	5.758980195702105e+17
19090.0	5.7592231961995936e+17
19091.0	5.757875481040216e+17
19092.0	5.7512976183896896e+17
19093.0	5.756449531625471e+17
19094.0	5.7554548279650976e+17
19095.0	5.754444920651775e+17
19096.0	5.7534296907666765e+17
19097.0	5.7524033963076256e+17
19098.0	5.7483497112425786e+17
19099.0	5.746670241316867e+17
19100.0	5.748972694011903e+17
19101.0	5.747968644044117e+17
19102.0	5.746802949794474e+17
19103.0	5.7459914323613e+17
19104.0	5.7450623576746656e+17
19105.0	5.7373661467771066e+17
19106.0	5.742753059875498e+17
19107.0	5.740006747056807e+17
19108.0	5.7379240360454835e+17
19109.0	5.739175169665705e+17
19110.0	5.738294172188671e+17
19111.0	5.735493330621778e+17
19112.0	5.734221356903078e+17
19113.0	5.735500107218942e+17
19114.0	5.7330223424034106e+17
19115.0	5.732777791411541e+17
19116.0	5.7318120752851616e+17
19117.0	5.730030109851647e+17
19118.0	5.7230176278282246e+17
19119.0	5.690170385541783e+17
19120.0	5.7236325330670944e+17
19121.0	5.7259546996899834e+17
19122.0	5.7257334473577805e+17
19123.0	5.7248915449883296e+17
19124.0	5.723130623776084e+17
19125.0	5.722342171519658e+17
19126.0	5.7201955805593594e+17
19127.0	5.7168994713818445e+17
19128.0	5.7178772573170336e+17
19129.0	5.717642413342719e+17
19130.0	5.717673859437909e+17
19131.0	5.7169828233871354e+17
19132.0	5.716030176012971e+17
19133.0	5.714765919813631e+17
19134.0	5.7139675927674874e+17
19135.0	5.712989820813311e+17
19136.0	5.711911753962837e+17
19137.0	5.7107291951158605e+17
19138.0	5.709840713602388e+17
19139.0	5.7089552603764045e+17
19140.0	5.7079749865198925e+17
19141.0	5.706945893061972e+17
19142.0	5.7056487577135776e+17
19143.0	5.704738462324052e+17
19144.0	5.703516685336575e+17
19145.0	5.702740811098793e+17
19146.0	5.696654833352708e+17
19147.0	5.700546110772563e+17
19148.0	5.697340725788676e+17
19149.0	5.6958916993133216e+17
19150.0	5.697629840561492e+17
19151.0	5.696532516962302e+17
19152.0	5.6953686430405965e+17
19153.0	5.6893111509101146e+17
19154.0	5.692772835830442e+17
19155.0	5.69216567747106e+17
19156.0	5.6911407119073274e+17
19157.0	5.688432474281304e+17
19158.0	5.685328306940592e+17
19159.0	5.687736428134399e+17
19160.0	5.686551384861353e+17
19161.0	5.685337369433428e+17
19162.0	5.683913642999806e+17
19163.0	5.683155268796415e+17
19164.0	5.6824437463668026e+17
19165.0	5.676183941982881e+17
19166.0	5.68034382193186e+17
19167.0	5.6796131224453114e+17
19168.0	5.6787592047930003e+17
19169.0	5.6778164839383046e+17
19170.0	5.6768778434423456e+17
19171.0	5.675808917378388e+17
19172.0	5.6747467140846925e+17
19173.0	5.673819183600979e+17
19174.0	5.6727040565794125e+17
19175.0	5.6717135283486714e+17
19176.0	5.670727416720041e+17
19177.0	5.6684581039199546e+17
19178.0	5.6685983432704e+17
19179.0	5.667571741928105e+17
19180.0	5.6664076324263245e+17
19181.0	5.6650473364520954e+17
19182.0	5.6640863857541114e+17
19183.0	5.663357835149311e+17
19184.0	5.662343877536425e+17
19185.0	5.6611748173578234e+17
19186.0	5.6601619677402445e+17
19187.0	5.6584706726734496e+17
19188.0	5.65786320183842e+17
19189.0	5.656647292682239e+17
19190.0	5.655420414022997e+17
19191.0	5.6538503846734496e+17
19192.0	5.6526561670594554e+17
19193.0	5.650367965910358e+17
19194.0	5.648099519234049e+17
19195.0	5.647298743413417e+17
19196.0	5.644780282664276e+17
19197.0	5.641830938968063e+17
19198.0	5.63794791174417e+17
19199.0	5.632457706220202e+17
19200.0	5.6320710878603936e+17
19201.0	5.63510844133649e+17
19202.0	5.6369212999161165e+17
19203.0	5.637614140915711e+17
19204.0	5.638141906692777e+17
19205.0	5.638007568029013e+17
19206.0	5.6376773665532576e+17
19207.0	5.6361541393448934e+17
19208.0	5.636050772120915e+17
19209.0	5.6356967812519245e+17
19210.0	5.635026174956884e+17
19211.0	5.6343387215407776e+17
19212.0	5.6333803594274125e+17
19213.0	5.631634252496893e+17
19214.0	5.631135482642432e+17
19215.0	5.6304101476706976e+17
19216.0	5.6293377801803085e+17
19217.0	5.6278980168253434e+17
19218.0	5.626196068226389e+17
19219.0	5.624655088626344e+17
19220.0	5.624991042590037e+17
19221.0	5.624128866353151e+17
19222.0	5.6233733428783776e+17
19223.0	5.622502305475242e+17
19224.0	5.6213932294362445e+17
19225.0	5.6207134529945594e+17
19226.0	5.61973943214626e+17
19227.0	5.6188364963621536e+17
19228.0	5.618071832100862e+17
19229.0	5.6170615438049274e+17
19230.0	5.616090095463081e+17
19231.0	5.615030199735635e+17
19232.0	5.614104567174484e+17
19233.0	5.612664775857491e+17
19234.0	5.6120654999934285e+17
19235.0	5.6108188843376634e+17
19236.0	5.610119882604543e+17
19237.0	5.6090257459773434e+17
19238.0	5.607572273539753e+17
19239.0	5.607116914032639e+17
19240.0	5.606079557096789e+17
19241.0	5.604972528577194e+17
19242.0	5.603977023804756e+17
19243.0	5.601809259298813e+17
19244.0	5.6021262053758285e+17
19245.0	5.601050706837503e+17
19246.0	5.600087384959658e+17
19247.0	5.599005599858687e+17
19248.0	5.5980697115252045e+17
19249.0	5.5968358493498016e+17
19250.0	5.594837822035285e+17
19251.0	5.5933168066232237e+17
19252.0	5.5915119207164576e+17
19253.0	5.592894322769919e+17
19254.0	5.5920226345506125e+17
19255.0	5.589358116252326e+17
19256.0	5.589887921859243e+17
19257.0	5.588933525460308e+17
19258.0	5.5878504016773114e+17
19259.0	5.585887590438228e+17
19260.0	5.5843321041387514e+17
19261.0	5.58431834542353e+17
19262.0	5.582841330357589e+17
19263.0	5.58158285251106e+17
19264.0	5.5799051959227725e+17
19265.0	5.5792342491900576e+17
19266.0	5.5782115087045965e+17
19267.0	5.5784867668951034e+17
19268.0	5.5775743876355405e+17
19269.0	5.5765478233429325e+17
19270.0	5.575275781117268e+17
19271.0	5.5738695106778445e+17
19272.0	5.5733441160806394e+17
19273.0	5.5712556406975155e+17
19274.0	5.5684935293337504e+17
19275.0	5.570726670456149e+17
19276.0	5.569568995715753e+17
19277.0	5.5685918522081274e+17
19278.0	5.567387722055678e+17
19279.0	5.5662737421762554e+17
19280.0	5.565265980948479e+17
19281.0	5.5643048904403616e+17
19282.0	5.5633279244916045e+17
19283.0	5.5621616682052256e+17
19284.0	5.560679400472575e+17
19285.0	5.5591390877668685e+17
19286.0	5.556955450616489e+17
19287.0	5.55290230521856e+17
19288.0	5.536532382700882e+17
19289.0	5.531548117893116e+17
19290.0	5.549107489800192e+17
19291.0	5.550038247800841e+17
19292.0	5.5523930489050445e+17
19293.0	5.551946872826537e+17
19294.0	5.551072020004862e+17
19295.0	5.55036864361267e+17
19296.0	5.5460808206144934e+17
19297.0	5.54769644903902e+17
19298.0	5.547262165210453e+17
19299.0	5.542756826305881e+17
19300.0	5.5454294682719584e+17
19301.0	5.5444718303750816e+17
19302.0	5.543339802405545e+17
19303.0	5.5419111490628256e+17
19304.0	5.5412809912374605e+17
19305.0	5.540069694417577e+17
19306.0	5.538992516759551e+17
19307.0	5.5375289297578656e+17
19308.0	5.5363567895620256e+17
19309.0	5.5350228687694496e+17
19310.0	5.5334026881269766e+17
19311.0	5.5315677234681165e+17
19312.0	5.528653637790377e+17
19313.0	5.5192187949110624e+17
19314.0	5.379348118197625e+17
19315.0	5.384275127260535e+17
19316.0	5.512300009444699e+17
19317.0	5.52378387398656e+17
19318.0	5.525105829128874e+17
19319.0	5.525094837955242e+17
19320.0	5.523228799795197e+17
19321.0	5.520767489234262e+17
19322.0	5.5228545616226976e+17
19323.0	5.521877244051455e+17
19324.0	5.520942771295572e+17
19325.0	5.520054795195732e+17
19326.0	5.5191329361100794e+17
19327.0	5.518187886717611e+17
19328.0	5.5113979181137984e+17
19329.0	5.516308431678122e+17
19330.0	5.5153064655803725e+17
19331.0	5.514017217620649e+17
19332.0	5.513348675622228e+17
19333.0	5.512219544518655e+17
19334.0	5.511208588629335e+17
19335.0	5.4984132232478854e+17
19336.0	5.50917530259729e+17
19337.0	5.508274876405076e+17
19338.0	5.505561582545575e+17
19339.0	5.505946627342334e+17
19340.0	5.5039771471598925e+17
19341.0	5.4986266853594534e+17
19342.0	5.500405967836504e+17
19343.0	5.50079361519889e+17
19344.0	5.494180284814684e+17
19345.0	5.4918522496614445e+17
19346.0	5.493259610619903e+17
19347.0	5.4902708146012154e+17
19348.0	5.496083142672383e+17
19349.0	5.49527352316177e+17
19350.0	5.4922793535406074e+17
19351.0	5.493483975824724e+17
19352.0	5.486500046525771e+17
19353.0	5.491987825644883e+17
19354.0	5.491036804961621e+17
19355.0	5.4891976222310426e+17
19356.0	5.4890039089998496e+17
19357.0	5.487970322044245e+17
19358.0	5.4868639058930323e+17
19359.0	5.4844414653453594e+17
19360.0	5.479971642408958e+17
19361.0	5.483748063008084e+17
19362.0	5.482790372682409e+17
19363.0	5.4817712504832e+17
19364.0	5.480735283260073e+17
19365.0	5.4796237563494394e+17
19366.0	5.4786046005957965e+17
19367.0	5.477527337653588e+17
19368.0	5.476475545321471e+17
19369.0	5.475192586021545e+17
19370.0	5.474186900275199e+17
19371.0	5.4728046163613e+17
19372.0	5.4721534583548576e+17
19373.0	5.4709220610321043e+17
19374.0	5.469956520367444e+17
19375.0	5.4689226502963206e+17
19376.0	5.467830017327103e+17
19377.0	5.466671562446164e+17
19378.0	5.465558584306345e+17
19379.0	5.464457923439274e+17
19380.0	5.463251510886399e+17
19381.0	5.462075152618837e+17
19382.0	5.460251873989973e+17
19383.0	5.45942756742485e+17
19384.0	5.458454715389268e+17
19385.0	5.4572892790893216e+17
19386.0	5.4560132117299194e+17
19387.0	5.4544969554548045e+17
19388.0	5.452656492762452e+17
19389.0	5.449955329529173e+17
19390.0	5.443426138281299e+17
19391.0	5.420715604617892e+17
19392.0	5.4338275756386976e+17
19393.0	5.443397725366954e+17
19394.0	5.4447211527099725e+17
19395.0	5.442665734733827e+17
19396.0	5.4430871056984755e+17
19397.0	5.4422474556702714e+17
19398.0	5.438861434596013e+17
19399.0	5.4362605033444685e+17
19400.0	5.43595265121758e+17
19401.0	5.436930980315135e+17
19402.0	5.4359255000896845e+17
19403.0	5.434527704940543e+17
19404.0	5.433233652405587e+17
19405.0	5.4315406607428256e+17
19406.0	5.42998831108369e+17
19407.0	5.426084965253116e+17
19408.0	5.4253335696725325e+17
19409.0	5.4244101076637e+17
19410.0	5.423608892839253e+17
19411.0	5.422171997689172e+17
19412.0	5.420435323748352e+17
19413.0	5.416637598182058e+17
19414.0	5.4167710301771085e+17
19415.0	5.414726944511317e+17
19416.0	5.41171286033476e+17
19417.0	5.4108249275760634e+17
19418.0	5.408723310040405e+17
19419.0	5.406548027244542e+17
19420.0	5.4042935979322016e+17
19421.0	5.4018987475162445e+17
19422.0	5.399057903474003e+17
19423.0	5.396608559961428e+17
19424.0	5.3938064426270714e+17
19425.0	5.3907117355390285e+17
19426.0	5.3874146721573536e+17
19427.0	5.3838507811362125e+17
19428.0	5.3798358521391763e+17
19429.0	5.375068865560575e+17
19430.0	5.369104062655147e+17
19431.0	5.363477897368918e+17
19432.0	5.3611879108444154e+17
19433.0	5.3567115245213005e+17
19434.0	5.350755929511253e+17
19435.0	5.342844190807379e+17
19436.0	5.33322909561651e+17
19437.0	5.318152435007487e+17
19438.0	5.269016694226947e+17
19439.0	5.28724172105318e+17
19440.0	5.301393861290666e+17
19441.0	5.2972180758418746e+17
19442.0	5.2881389966240435e+17
19443.0	5.2764521515362976e+17
19444.0	5.262423630719658e+17
19445.0	5.246155623497728e+17
19446.0	5.226290996401492e+17
19447.0	5.202512274172584e+17
19448.0	5.172025730181803e+17
19449.0	5.131430839451647e+17
19450.0	5.0663315580736806e+17
19451.0	5.01484270579439e+17
19452.0	5.102776823928149e+17
19453.0	5.149595297731925e+17
19454.0	5.181236030996478e+17
19455.0	5.204208470982655e+17
19456.0	5.218828254445569e+17
19457.0	5.212852135307949e+17
19458.0	4.889585368694941e+17
19459.0	5.144546913899916e+17
19460.0	5.261630012478802e+17
19461.0	5.281215298928639e+17
19462.0	5.2920862770899616e+17
19463.0	5.3002099057404576e+17
19464.0	5.3067134739851936e+17
19465.0	5.3123940736477856e+17
19466.0	5.3167236460489363e+17
19467.0	5.321155263769258e+17
19468.0	5.3246438530525856e+17
19469.0	5.3235790052502106e+17
19470.0	5.3304966149133645e+17
19471.0	5.333287981547518e+17
19472.0	5.335089143611391e+17
19473.0	5.336877838805673e+17
19474.0	5.33398466313147e+17
19475.0	5.337182685014697e+17
19476.0	5.340296025298258e+17
19477.0	5.3422315442012154e+17
19478.0	5.343559993524223e+17
19479.0	5.340393410745678e+17
19480.0	5.344852055861929e+17
19481.0	5.345290747903999e+17
19482.0	5.345962994171904e+17
19483.0	5.3462848252149754e+17
19484.0	5.3463161839288314e+17
19485.0	5.3463206082205005e+17
19486.0	5.3420242141621024e+17
19487.0	5.346044105719807e+17
19488.0	5.345473207118505e+17
19489.0	5.3435991948875085e+17
19490.0	5.342209912078335e+17
19491.0	5.344018918888788e+17
19492.0	5.3447598021454496e+17
19493.0	5.344446688264191e+17
19494.0	5.343664099644756e+17
19495.0	5.342180940622505e+17
19496.0	5.338934793295189e+17
19497.0	5.33436868731426e+17
19498.0	5.3138931332764986e+17
19499.0	5.2954731258402125e+17
19500.0	5.328978514542591e+17
19501.0	5.3365115082943136e+17
19502.0	5.338403393852756e+17
19503.0	5.338779903939923e+17
19504.0	5.338468973892947e+17
19505.0	5.337744012214271e+17
19506.0	5.337066770530303e+17
19507.0	5.335637385281536e+17
19508.0	5.3335935351958176e+17
19509.0	5.3288151107502086e+17
19510.0	5.308399813481809e+17
19511.0	5.1328720065003206e+17
19512.0	5.285710951787176e+17
19513.0	5.304632812590418e+17
19514.0	5.310586976643752e+17
19515.0	5.324314326160725e+17
19516.0	5.3270455527669734e+17
19517.0	5.3284841808636576e+17
19518.0	5.327436449316861e+17
19519.0	5.327011005683027e+17
19520.0	5.323375536766968e+17
19521.0	5.3274068340353696e+17
19522.0	5.325707053192531e+17
19523.0	5.3248230148451014e+17
19524.0	5.3218668575020454e+17
19525.0	5.324341078130687e+17
19526.0	5.323733484961791e+17
19527.0	5.3228137328148474e+17
19528.0	5.321678473134079e+17
19529.0	5.3206236287467514e+17
19530.0	5.320434567697749e+17
19531.0	5.319629625535145e+17
19532.0	5.318765747109887e+17
19533.0	5.3178938568649376e+17
19534.0	5.317044758467924e+17
19535.0	5.315940648484862e+17
19536.0	5.3148310041176723e+17
19537.0	5.31392770482722e+17
19538.0	5.3082566423128794e+17
19539.0	5.3112589328056314e+17
19540.0	5.311028559959381e+17
19541.0	5.309549579162966e+17
19542.0	5.30924146209587e+17
19543.0	5.304162408114861e+17
19544.0	5.306929712026964e+17
19545.0	5.304689905456468e+17
19546.0	5.303732576539988e+17
19547.0	5.3046111678846285e+17
19548.0	5.3043333315952634e+17
19549.0	5.3028452204980883e+17
19550.0	5.3029225557742925e+17
19551.0	5.30211244483106e+17
19552.0	5.301196016670037e+17
19553.0	5.300281118031871e+17
19554.0	5.299338745304404e+17
19555.0	5.2978741712431795e+17
19556.0	5.297272854850217e+17
19557.0	5.296748125749247e+17
19558.0	5.295904224793941e+17
19559.0	5.2950165381010765e+17
19560.0	5.292309435733329e+17
19561.0	5.2930048492393805e+17
19562.0	5.290661518857555e+17
19563.0	5.291430977208319e+17
19564.0	5.2904708891388576e+17
19565.0	5.289576976700757e+17
19566.0	5.288555432990036e+17
19567.0	5.287770368333141e+17
19568.0	5.2866576383563085e+17
19569.0	5.285819626203817e+17
19570.0	5.284972829081599e+17
19571.0	5.2840874541492896e+17
19572.0	5.282913010581505e+17
19573.0	5.281677747508564e+17
19574.0	5.2803684060364774e+17
19575.0	5.280436974518271e+17
19576.0	5.279199153618943e+17
19577.0	5.277551199693483e+17
19578.0	5.2776097836346016e+17
19579.0	5.276526541712041e+17
19580.0	5.275646079008766e+17
19581.0	5.2748944128955725e+17
19582.0	5.2740181969250976e+17
19583.0	5.2730947502953805e+17
19584.0	5.272085054794409e+17
19585.0	5.2701774405959654e+17
19586.0	5.268995277411672e+17
19587.0	5.2688479322111994e+17
19588.0	5.267299523799722e+17
19589.0	5.266760141897728e+17
19590.0	5.265696159520083e+17
19591.0	5.265459782527657e+17
19592.0	5.264701487316991e+17
19593.0	5.263229095772159e+17
19594.0	5.2604127171051475e+17
19595.0	5.261789295367509e+17
19596.0	5.2607069055877114e+17
19597.0	5.259695886084778e+17
19598.0	5.256716060983294e+17
19599.0	5.2576848193781766e+17
19600.0	5.2570946493480954e+17
19601.0	5.2557998425374726e+17
19602.0	5.254686089150462e+17
19603.0	5.2534024538685434e+17
19604.0	5.252692235867477e+17
19605.0	5.250834041055922e+17
19606.0	5.2515200649134074e+17
19607.0	5.250756566668628e+17
19608.0	5.2498095389627725e+17
19609.0	5.248742094886228e+17
19610.0	5.2460257979050694e+17
19611.0	5.244062126833666e+17
19612.0	5.246238391096662e+17
19613.0	5.24516574957841e+17
19614.0	5.243914961289215e+17
19615.0	5.2430656811390285e+17
19616.0	5.2397126888106694e+17
19617.0	5.2371936024111795e+17
19618.0	5.2372496131467936e+17
19619.0	5.235353555653972e+17
19620.0	5.234865777672186e+17
19621.0	5.23208565736516e+17
19622.0	5.23615467540753e+17
19623.0	5.235118832615423e+17
19624.0	5.233586694608213e+17
19625.0	5.2332611180516685e+17
19626.0	5.231847707508735e+17
19627.0	5.2303409946733216e+17
19628.0	5.22813745205521e+17
19629.0	5.214459314307065e+17
19630.0	5.2212826912413e+17
19631.0	5.217934595762858e+17
19632.0	5.221647776044372e+17
19633.0	5.222718521737216e+17
19634.0	5.223689566027775e+17
19635.0	5.2228296896675795e+17
19636.0	5.2181715229081536e+17
19637.0	5.21496430711057e+17
19638.0	5.221304089881255e+17
19639.0	5.22056325206289e+17
19640.0	5.217402187590313e+17
19641.0	5.214311567851522e+17
19642.0	5.2173685625541965e+17
19643.0	5.216794878235988e+17
19644.0	5.216010401480702e+17
19645.0	5.2152291648252576e+17
19646.0	5.209550293914957e+17
19647.0	5.213925029183487e+17
19648.0	5.2131937634658976e+17
19649.0	5.2122959391402656e+17
19650.0	5.2114636144639994e+17
19651.0	5.2105259267741e+17
19652.0	5.2096066674578765e+17
19653.0	5.2087349149259085e+17
19654.0	5.20778833391343e+17
19655.0	5.2068213315338234e+17
19656.0	5.2060327835074554e+17
19657.0	5.205059845488639e+17
