# Flux units: erg / (cm m2 s)
# Wavelength units: Angstrom
wave	flux
19000.0	7.111817769080147e+17
19001.0	7.110545646463658e+17
19002.0	7.10931708449041e+17
19003.0	7.108014916676266e+17
19004.0	7.106713456301398e+17
19005.0	7.105412675403775e+17
19006.0	7.104109793159849e+17
19007.0	7.10280376099362e+17
19008.0	7.101470644808361e+17
19009.0	7.10008884953088e+17
19010.0	7.098663475434836e+17
19011.0	7.097563410158931e+17
19012.0	7.096200873727316e+17
19013.0	7.094979619629738e+17
19014.0	7.093636571332607e+17
19015.0	7.092347252069716e+17
19016.0	7.091052218766675e+17
19017.0	7.089769197950292e+17
19018.0	7.088457408402772e+17
19019.0	7.087156437363369e+17
19020.0	7.08584192151825e+17
19021.0	7.084551518726825e+17
19022.0	7.083247826982228e+17
19023.0	7.081910358507519e+17
19024.0	7.080622642866857e+17
19025.0	7.079324795185833e+17
19026.0	7.078006901527892e+17
19027.0	7.076684549324799e+17
19028.0	7.075406694492841e+17
19029.0	7.074101217372841e+17
19030.0	7.072807119399594e+17
19031.0	7.071499759037097e+17
19032.0	7.070190758701738e+17
19033.0	7.068812984363689e+17
19034.0	7.067540707956051e+17
19035.0	7.066058288529407e+17
19036.0	7.06226160734481e+17
19037.0	7.063505966465023e+17
19038.0	7.062310466792105e+17
19039.0	7.061040228816211e+17
19040.0	7.059739769481897e+17
19041.0	7.058429605926228e+17
19042.0	7.057049640763391e+17
19043.0	7.055824125252948e+17
19044.0	7.054508798509053e+17
19045.0	7.053207463963305e+17
19046.0	7.051873729817258e+17
19047.0	7.050557000777727e+17
19048.0	7.049186140050772e+17
19049.0	7.047891846343338e+17
19050.0	7.046614141108223e+17
19051.0	7.044946780837203e+17
19052.0	7.043874330858836e+17
19053.0	7.042735890497535e+17
19054.0	7.041443145886377e+17
19055.0	7.039952637045417e+17
19056.0	7.038811723442858e+17
19057.0	7.03752244891921e+17
19058.0	7.0361987167901e+17
19059.0	7.034906453125801e+17
19060.0	7.033598936875007e+17
19061.0	7.032300444669268e+17
19062.0	7.03099098435857e+17
19063.0	7.029681018634237e+17
19064.0	7.028313531525802e+17
19065.0	7.026946953183231e+17
19066.0	7.025713225225555e+17
19067.0	7.024459595994451e+17
19068.0	7.023153538662399e+17
19069.0	7.021846971722409e+17
19070.0	7.020526130167807e+17
19071.0	7.019233818968063e+17
19072.0	7.017922243330047e+17
19073.0	7.016619242946559e+17
19074.0	7.015314550161407e+17
19075.0	7.014007498080255e+17
19076.0	7.012692636205055e+17
19077.0	7.011382066500947e+17
19078.0	7.010074512501417e+17
19079.0	7.008780566222164e+17
19080.0	7.007464648780458e+17
19081.0	7.006135963877375e+17
19082.0	7.004843531042815e+17
19083.0	7.003471718907903e+17
19084.0	7.002075628044288e+17
19085.0	7.000938294280191e+17
19086.0	6.999343928180735e+17
19087.0	6.998279982153727e+17
19088.0	6.996944271092394e+17
19089.0	6.995559735536297e+17
19090.0	6.994378367871658e+17
19091.0	6.993084905335465e+17
19092.0	6.991745940193279e+17
19093.0	6.990494011053396e+17
19094.0	6.9891913692829e+17
19095.0	6.987886751296169e+17
19096.0	6.986575361605632e+17
19097.0	6.985274101858304e+17
19098.0	6.983966238878378e+17
19099.0	6.982660097660244e+17
19100.0	6.981351934088532e+17
19101.0	6.980047266469204e+17
19102.0	6.978697617036628e+17
19103.0	6.977445118170451e+17
19104.0	6.976140577778346e+17
19105.0	6.974819721543679e+17
19106.0	6.973521323709779e+17
19107.0	6.972207130127017e+17
19108.0	6.970889027452925e+17
19109.0	6.969484505339219e+17
19110.0	6.968255675629568e+17
19111.0	6.966992601524906e+17
19112.0	6.965695898189823e+17
19113.0	6.964398848824659e+17
19114.0	6.963092748151465e+17
19115.0	6.961758874195284e+17
19116.0	6.960464921624575e+17
19117.0	6.959157178182313e+17
19118.0	6.957750000375123e+17
19119.0	6.954013077536764e+17
19120.0	6.955195777591978e+17
19121.0	6.953937903725226e+17
19122.0	6.952659824498003e+17
19123.0	6.95135787758387e+17
19124.0	6.950030200711849e+17
19125.0	6.948735150631594e+17
19126.0	6.947356308843177e+17
19127.0	6.945236283206313e+17
19128.0	6.944721849024511e+17
19129.0	6.943459599799636e+17
19130.0	6.942221511862953e+17
19131.0	6.940932667954516e+17
19132.0	6.939628877643773e+17
19133.0	6.938291628670973e+17
19134.0	6.937016121251156e+17
19135.0	6.935721156455081e+17
19136.0	6.934414862843903e+17
19137.0	6.933045692421459e+17
19138.0	6.931799056493225e+17
19139.0	6.930513835065343e+17
19140.0	6.929214576001023e+17
19141.0	6.927912523530239e+17
19142.0	6.926591282118656e+17
19143.0	6.92528201474594e+17
19144.0	6.923971981912746e+17
19145.0	6.922700897386495e+17
19146.0	6.920966137446399e+17
19147.0	6.920055847649279e+17
19148.0	6.918788009514324e+17
19149.0	6.917486455466665e+17
19150.0	6.916188567240701e+17
19151.0	6.914887234093055e+17
19152.0	6.913582858676905e+17
19153.0	6.912249704043859e+17
19154.0	6.910919047118847e+17
19155.0	6.909662997774335e+17
19156.0	6.908362417504255e+17
19157.0	6.907038253361834e+17
19158.0	6.905691482619903e+17
19159.0	6.904431609468244e+17
19160.0	6.903137600973481e+17
19161.0	6.901817862520831e+17
19162.0	6.900347015877972e+17
19163.0	6.899170204625578e+17
19164.0	6.897936276739412e+17
19165.0	6.896630703849471e+17
19166.0	6.895281053018793e+17
19167.0	6.894023502812499e+17
19168.0	6.892737938849791e+17
19169.0	6.891440466558975e+17
19170.0	6.890142307800404e+17
19171.0	6.888836381190825e+17
19172.0	6.887539094847487e+17
19173.0	6.886237466700458e+17
19174.0	6.884910079235411e+17
19175.0	6.88363233555251e+17
19176.0	6.882333388264787e+17
19177.0	6.880922392242858e+17
19178.0	6.879718843001513e+17
19179.0	6.878412180990633e+17
19180.0	6.877110713625257e+17
19181.0	6.875756766429183e+17
19182.0	6.874498444470953e+17
19183.0	6.873213664843092e+17
19184.0	6.87190942224657e+17
19185.0	6.87060574937634e+17
19186.0	6.869303292854271e+17
19187.0	6.867947509252096e+17
19188.0	6.866693351538687e+17
19189.0	6.865391095644159e+17
19190.0	6.864083998823764e+17
19191.0	6.862754458981716e+17
19192.0	6.861469835941204e+17
19193.0	6.860158456037375e+17
19194.0	6.858833409693012e+17
19195.0	6.857518343695017e+17
19196.0	6.856167816953856e+17
19197.0	6.854788550841684e+17
19198.0	6.853229363767977e+17
19199.0	6.850723797008383e+17
19200.0	6.849596004586836e+17
19201.0	6.849348974062249e+17
19202.0	6.848275593647443e+17
19203.0	6.847039923027965e+17
19204.0	6.845764307954345e+17
19205.0	6.844475603156991e+17
19206.0	6.843184483838633e+17
19207.0	6.841799128995155e+17
19208.0	6.840480987174227e+17
19209.0	6.839273859492522e+17
19210.0	6.837974792667136e+17
19211.0	6.836631954784256e+17
19212.0	6.835317142541652e+17
19213.0	6.833938958559914e+17
19214.0	6.832640474043732e+17
19215.0	6.831381968235178e+17
19216.0	6.830075683012607e+17
19217.0	6.828729119189674e+17
19218.0	6.827082866753533e+17
19219.0	6.825978623251795e+17
19220.0	6.824809210052607e+17
19221.0	6.823397099743914e+17
19222.0	6.822182878795092e+17
19223.0	6.820896134834858e+17
19224.0	6.819560808251391e+17
19225.0	6.81823275459106e+17
19226.0	6.8169611884189e+17
19227.0	6.815652035690495e+17
19228.0	6.814361254013609e+17
19229.0	6.813046771722921e+17
19230.0	6.811731647004671e+17
19231.0	6.810407223514452e+17
19232.0	6.809096324557482e+17
19233.0	6.807737440665599e+17
19234.0	6.806459810927956e+17
19235.0	6.805129075709268e+17
19236.0	6.80383315251473e+17
19237.0	6.802508066324479e+17
19238.0	6.801136695989587e+17
19239.0	6.799878671826943e+17
19240.0	6.798557343034025e+17
19241.0	6.797222447065769e+17
19242.0	6.79590615982626e+17
19243.0	6.794474558586879e+17
19244.0	6.793269963565737e+17
19245.0	6.79192169685538e+17
19246.0	6.790594917564415e+17
19247.0	6.789275744643754e+17
19248.0	6.787952057253885e+17
19249.0	6.786624683070803e+17
19250.0	6.785283608193706e+17
19251.0	6.783884879112873e+17
19252.0	6.78234204213521e+17
19253.0	6.781219629607593e+17
19254.0	6.779904446169087e+17
19255.0	6.778426974623059e+17
19256.0	6.777226135601151e+17
19257.0	6.775906729896617e+17
19258.0	6.774571511666003e+17
19259.0	6.773176837778089e+17
19260.0	6.771834247359146e+17
19261.0	6.770547063696042e+17
19262.0	6.769170925136553e+17
19263.0	6.767797006062932e+17
19264.0	6.766244116037631e+17
19265.0	6.765063056654335e+17
19266.0	6.763731638463145e+17
19267.0	6.762503920244052e+17
19268.0	6.761159755563007e+17
19269.0	6.759809386108243e+17
19270.0	6.758432865168042e+17
19271.0	6.756938937969322e+17
19272.0	6.755721223864319e+17
19273.0	6.754158926714195e+17
19274.0	6.752709460535977e+17
19275.0	6.751684785777321e+17
19276.0	6.750317771926185e+17
19277.0	6.748870146348371e+17
19278.0	6.747492011999231e+17
19279.0	6.746113198172842e+17
19280.0	6.744726778675199e+17
19281.0	6.743380237920937e+17
19282.0	6.74202225091106e+17
19283.0	6.74063746998818e+17
19284.0	6.739235693745492e+17
19285.0	6.73782796788258e+17
19286.0	6.736470859579391e+17
19287.0	6.735090162510505e+17
19288.0	6.7327465371293e+17
19289.0	6.730647833236818e+17
19290.0	6.730927354937343e+17
19291.0	6.729395881028266e+17
19292.0	6.728199945147732e+17
19293.0	6.726788203937791e+17
19294.0	6.725252848200362e+17
19295.0	6.723862302206634e+17
19296.0	6.722447058053801e+17
19297.0	6.721038203923113e+17
19298.0	6.719619619007146e+17
19299.0	6.718221259724115e+17
19300.0	6.716813056409599e+17
19301.0	6.715394064646143e+17
19302.0	6.713962652849492e+17
19303.0	6.712495306353321e+17
19304.0	6.711051708006397e+17
19305.0	6.709618933060948e+17
19306.0	6.708124503943849e+17
19307.0	6.706520001609727e+17
19308.0	6.705082254316884e+17
19309.0	6.703602928888489e+17
19310.0	6.702121190337194e+17
19311.0	6.700711866444458e+17
19312.0	6.699281048840873e+17
19313.0	6.697807440947881e+17
19314.0	6.693529589907453e+17
19315.0	6.692274720560471e+17
19316.0	6.693346435137535e+17
19317.0	6.691793338193236e+17
19318.0	6.690308348357289e+17
19319.0	6.688831789771434e+17
19320.0	6.687329720030548e+17
19321.0	6.685815975444479e+17
19322.0	6.684277529204052e+17
19323.0	6.682775893573631e+17
19324.0	6.681261366749865e+17
19325.0	6.67971782582818e+17
19326.0	6.678197304644948e+17
19327.0	6.676654752879955e+17
19328.0	6.675097156845565e+17
19329.0	6.673505580657321e+17
19330.0	6.671854535529812e+17
19331.0	6.670255272580436e+17
19332.0	6.668703412955817e+17
19333.0	6.667103258017791e+17
19334.0	6.665504731867817e+17
19335.0	6.663868538071721e+17
19336.0	6.66226824122641e+17
19337.0	6.660634770232659e+17
19338.0	6.658851438854141e+17
19339.0	6.657327435000489e+17
19340.0	6.655590466060287e+17
19341.0	6.653915330947753e+17
19342.0	6.652125299168595e+17
19343.0	6.650578049783123e+17
19344.0	6.648834320323923e+17
19345.0	6.646023945803091e+17
19346.0	6.644614986115753e+17
19347.0	6.643491859857407e+17
19348.0	6.641826655458644e+17
19349.0	6.640061726588927e+17
19350.0	6.638304278959443e+17
19351.0	6.636517917895337e+17
19352.0	6.634691169878015e+17
19353.0	6.632936069660671e+17
19354.0	6.631096588435455e+17
19355.0	6.62912855179264e+17
19356.0	6.627090967298047e+17
19357.0	6.625194594533375e+17
19358.0	6.623274732268202e+17
19359.0	6.621315777691647e+17
19360.0	6.61934539153954e+17
19361.0	6.61738520383761e+17
19362.0	6.615399406414506e+17
19363.0	6.613375990278825e+17
19364.0	6.611175415829844e+17
19365.0	6.608888347142826e+17
19366.0	6.606789416058879e+17
19367.0	6.604648311947263e+17
19368.0	6.602446714088105e+17
19369.0	6.600153718150484e+17
19370.0	6.597931106129236e+17
19371.0	6.595541952277162e+17
19372.0	6.59293536990003e+17
19373.0	6.590612016988159e+17
19374.0	6.588280381024938e+17
19375.0	6.585900292461907e+17
19376.0	6.583490140525908e+17
19377.0	6.581021689861459e+17
19378.0	6.577962775565652e+17
19379.0	6.575455608679082e+17
19380.0	6.572911378825215e+17
19381.0	6.570329261823316e+17
19382.0	6.567594750377984e+17
19383.0	6.564528925267284e+17
19384.0	6.561403559914153e+17
19385.0	6.558611156587862e+17
19386.0	6.555757010310484e+17
19387.0	6.552841398605139e+17
19388.0	6.549563143181652e+17
19389.0	6.545981255101098e+17
19390.0	6.542824327610367e+17
19391.0	6.537525175429798e+17
19392.0	6.535823317008383e+17
19393.0	6.532588016850259e+17
19394.0	6.52884004901137e+17
19395.0	6.525354843832319e+17
19396.0	6.521730956088659e+17
19397.0	6.51800552214801e+17
19398.0	6.514141906163027e+17
19399.0	6.50950453755904e+17
19400.0	6.505572657878356e+17
19401.0	6.501551547875327e+17
19402.0	6.497342266714794e+17
19403.0	6.492999289318057e+17
19404.0	6.488576337728852e+17
19405.0	6.48355390685184e+17
19406.0	6.478700494542164e+17
19407.0	6.473794491252735e+17
19408.0	6.46813674705169e+17
19409.0	6.463018280594089e+17
19410.0	6.457457611461971e+17
19411.0	6.450974340153343e+17
19412.0	6.44504807870737e+17
19413.0	6.438876691649876e+17
19414.0	6.432444739747839e+17
19415.0	6.425720528743082e+17
19416.0	6.417998397046783e+17
19417.0	6.409934872073556e+17
19418.0	6.402281156466003e+17
19419.0	6.394181794660351e+17
19420.0	6.385704410720937e+17
19421.0	6.376844413282985e+17
19422.0	6.367567086791337e+17
19423.0	6.357082761243304e+17
19424.0	6.346376629714944e+17
19425.0	6.335768519770111e+17
19426.0	6.324364037324797e+17
19427.0	6.312143039933098e+17
19428.0	6.299300725609812e+17
19429.0	6.284886241443837e+17
19430.0	6.269944662589439e+17
19431.0	6.254022880482644e+17
19432.0	6.237640200989353e+17
19433.0	6.21989166247663e+17
19434.0	6.200556606106281e+17
19435.0	6.180100164812799e+17
19436.0	6.157434855533226e+17
19437.0	6.132958429708287e+17
19438.0	6.102994086352211e+17
19439.0	6.076456914386944e+17
19440.0	6.04486880076322e+17
19441.0	6.009184529853094e+17
19442.0	5.969300168201558e+17
19443.0	5.924362137894912e+17
19444.0	5.873461694737064e+17
19445.0	5.814335720914945e+17
19446.0	5.7449776453167776e+17
19447.0	5.6611442611541286e+17
19448.0	5.5561835316073856e+17
19449.0	5.4163341745411405e+17
19450.0	5.20336987162759e+17
19451.0	5.060414582816774e+17
19452.0	5.3247818162940576e+17
19453.0	5.490245409002842e+17
19454.0	5.6075525959625325e+17
19455.0	5.698337334362111e+17
19456.0	5.771938067993943e+17
19457.0	5.833492973748221e+17
19458.0	5.88000012743476e+17
19459.0	5.931037173481475e+17
19460.0	5.971186392847699e+17
19461.0	6.006742380270932e+17
19462.0	6.038149292971348e+17
19463.0	6.066362256457727e+17
19464.0	6.092076088644947e+17
19465.0	6.115362553375404e+17
19466.0	6.136470021952851e+17
19467.0	6.155654638425428e+17
19468.0	6.172956519912788e+17
19469.0	6.189027327038803e+17
19470.0	6.203949501644799e+17
19471.0	6.217794151164586e+17
19472.0	6.230541390402899e+17
19473.0	6.242931727925247e+17
19474.0	6.25395890196753e+17
19475.0	6.263757987992915e+17
19476.0	6.273461845841235e+17
19477.0	6.282129540732244e+17
19478.0	6.290346022185642e+17
19479.0	6.298554186334207e+17
19480.0	6.305949274166612e+17
19481.0	6.312595617218557e+17
19482.0	6.318844510819668e+17
19483.0	6.324725708663466e+17
19484.0	6.330179523007827e+17
19485.0	6.335333075517439e+17
19486.0	6.341366764972714e+17
19487.0	6.345811657665193e+17
19488.0	6.349946874407594e+17
19489.0	6.353624115096233e+17
19490.0	6.356813456867327e+17
19491.0	6.361120873556649e+17
19492.0	6.364847020528979e+17
19493.0	6.367854423878313e+17
19494.0	6.37084754911778e+17
19495.0	6.373493646032895e+17
19496.0	6.375583964812627e+17
19497.0	6.378410808967165e+17
19498.0	6.379875062164137e+17
19499.0	6.379168874190163e+17
19500.0	6.38436397617425e+17
19501.0	6.386192448749567e+17
19502.0	6.387843913307476e+17
19503.0	6.389750755753981e+17
19504.0	6.391353878162089e+17
19505.0	6.392699131964074e+17
19506.0	6.39394084168226e+17
19507.0	6.395046469304319e+17
19508.0	6.396123406488916e+17
19509.0	6.39748447281698e+17
19510.0	6.398316152968532e+17
19511.0	6.394501195803302e+17
19512.0	6.399246476159657e+17
19513.0	6.399603665185448e+17
19514.0	6.401182763319295e+17
19515.0	6.402409815343103e+17
19516.0	6.40307571982336e+17
19517.0	6.403470693935785e+17
19518.0	6.403887070882474e+17
19519.0	6.404782376528553e+17
19520.0	6.405139408267946e+17
19521.0	6.405325956928852e+17
19522.0	6.405431888969727e+17
19523.0	6.405541953099092e+17
19524.0	6.405814998095188e+17
19525.0	6.4061874124445e+17
19526.0	6.406182400950272e+17
19527.0	6.406137628852223e+17
19528.0	6.406056712339455e+17
19529.0	6.405951331849556e+17
19530.0	6.40585519141137e+17
19531.0	6.406094641430527e+17
19532.0	6.405896773741225e+17
19533.0	6.405670101669204e+17
19534.0	6.405475593617407e+17
19535.0	6.405215022481407e+17
19536.0	6.404877736826198e+17
19537.0	6.404543523498665e+17
19538.0	6.404329446921556e+17
19539.0	6.403857987578537e+17
19540.0	6.403660927991807e+17
19541.0	6.403244663592276e+17
19542.0	6.402775216117075e+17
19543.0	6.402276729378131e+17
19544.0	6.401758811127807e+17
19545.0	6.400917014315008e+17
19546.0	6.400253165043711e+17
19547.0	6.400352072324435e+17
19548.0	6.399804526209704e+17
19549.0	6.399134804213759e+17
19550.0	6.398578531849556e+17
19551.0	6.397935282902356e+17
19552.0	6.397276068336979e+17
19553.0	6.396591416715945e+17
19554.0	6.395904421178026e+17
19555.0	6.395217807321769e+17
19556.0	6.394522361659391e+17
19557.0	6.393802249295188e+17
19558.0	6.393201072712362e+17
19559.0	6.392499052478463e+17
19560.0	6.39173215265314e+17
19561.0	6.390974635485866e+17
19562.0	6.390228846990676e+17
19563.0	6.389452914731689e+17
19564.0	6.388667379613695e+17
19565.0	6.387892323964244e+17
19566.0	6.387079685253801e+17
19567.0	6.386281307176959e+17
19568.0	6.385442714812413e+17
19569.0	6.384623001010176e+17
19570.0	6.383795378847743e+17
19571.0	6.382948481062228e+17
19572.0	6.38207254401297e+17
19573.0	6.381227873402879e+17
19574.0	6.380359440662527e+17
19575.0	6.379579987285331e+17
19576.0	6.378692901776041e+17
19577.0	6.377788846811818e+17
19578.0	6.376879228103338e+17
19579.0	6.375969393388201e+17
19580.0	6.375058535262889e+17
19581.0	6.374153560347988e+17
19582.0	6.373236621180927e+17
19583.0	6.372306559434751e+17
19584.0	6.371369523959124e+17
19585.0	6.370346511542953e+17
19586.0	6.369432158164307e+17
19587.0	6.368619478908927e+17
19588.0	6.367455931443882e+17
19589.0	6.366688873633108e+17
19590.0	6.365705362472959e+17
19591.0	6.364790774213289e+17
19592.0	6.363824719746388e+17
19593.0	6.362833549787135e+17
19594.0	6.361693737888425e+17
19595.0	6.360864622553769e+17
19596.0	6.359837461271892e+17
19597.0	6.359045659164672e+17
19598.0	6.357862579524948e+17
19599.0	6.357068194425514e+17
19600.0	6.356075915771903e+17
19601.0	6.355026567320916e+17
19602.0	6.354020275497642e+17
19603.0	6.352888529944573e+17
19604.0	6.352173013838506e+17
19605.0	6.351034563690496e+17
19606.0	6.350198436877652e+17
19607.0	6.34918744953105e+17
19608.0	6.348152653217791e+17
19609.0	6.347150836716884e+17
19610.0	6.346229840259754e+17
19611.0	6.345195536777215e+17
19612.0	6.344171551282515e+17
19613.0	6.343126732679849e+17
19614.0	6.342064821589331e+17
19615.0	6.341048714395647e+17
19616.0	6.339979345832617e+17
19617.0	6.338928081283753e+17
19618.0	6.337543449258666e+17
19619.0	6.336398257466025e+17
19620.0	6.335456465649663e+17
19621.0	6.334723116062036e+17
19622.0	6.333700217591124e+17
19623.0	6.33264773599505e+17
19624.0	6.331582153490431e+17
19625.0	6.33052664500497e+17
19626.0	6.329458699010047e+17
19627.0	6.328438014432595e+17
19628.0	6.327353247880532e+17
19629.0	6.326156463352489e+17
19630.0	6.324629004091391e+17
19631.0	6.322655199581524e+17
19632.0	6.322938034083156e+17
19633.0	6.321992507938132e+17
19634.0	6.320983073882111e+17
19635.0	6.319892473053183e+17
19636.0	6.318837607694336e+17
19637.0	6.317496160922282e+17
19638.0	6.316695853465599e+17
19639.0	6.31561097716258e+17
19640.0	6.314432575569919e+17
19641.0	6.31299492614417e+17
19642.0	6.312362832647508e+17
19643.0	6.311280461043028e+17
19644.0	6.310144050724863e+17
19645.0	6.308985708391082e+17
19646.0	6.308017481973759e+17
19647.0	6.306948540530687e+17
19648.0	6.305861838307327e+17
19649.0	6.304772183293951e+17
19650.0	6.303683182591999e+17
19651.0	6.302587361951744e+17
19652.0	6.301498820526079e+17
19653.0	6.300406917365759e+17
19654.0	6.299307382669311e+17
19655.0	6.298271951618047e+17
19656.0	6.297180765683711e+17
19657.0	6.296088403247101e+17
19658.0	6.29499204084258e+17
19659.0	6.293894394981034e+17
19660.0	6.292797244047357e+17
19661.0	6.291698440557908e+17
19662.0	6.2905968506525e+17
19663.0	6.289476677883219e+17
19664.0	6.28838709207586e+17
19665.0	6.287297913815039e+17
