# Flux units: erg / (cm m2 s)
# Wavelength units: Angstrom
wave	flux
19000.0	4.321168042841429e+17
19001.0	4.3202098450049696e+17
19002.0	4.3196459515903994e+17
19003.0	4.318869885113684e+17
19004.0	4.318071556669438e+17
19005.0	4.3172818524132685e+17
19006.0	4.3163210792741536e+17
19007.0	4.3158202660945914e+17
19008.0	4.3149316475671885e+17
19009.0	4.314143895759529e+17
19010.0	4.3124313495524666e+17
19011.0	4.3126933117992954e+17
19012.0	4.311608638220969e+17
19013.0	4.3112410109706234e+17
19014.0	4.310390187316565e+17
19015.0	4.3095570887912096e+17
19016.0	4.3087826573940045e+17
19017.0	4.308174544131413e+17
19018.0	4.3073988474525005e+17
19019.0	4.306614170069674e+17
19020.0	4.3058817152669005e+17
19021.0	4.305134716715007e+17
19022.0	4.3043746885577376e+17
19023.0	4.303511103034708e+17
19024.0	4.3026910313185274e+17
19025.0	4.302083554891094e+17
19026.0	4.3012630001309e+17
19027.0	4.300425718486357e+17
19028.0	4.29980365426961e+17
19029.0	4.2990137612697594e+17
19030.0	4.2982888401360205e+17
19031.0	4.297518582770346e+17
19032.0	4.2967653172292256e+17
19033.0	4.295860129802921e+17
19034.0	4.2952451917086714e+17
19035.0	4.2944703702411936e+17
19036.0	4.28136977277473e+17
19037.0	4.2929571471469216e+17
19038.0	4.2921864647584416e+17
19039.0	4.291443299101355e+17
19040.0	4.2906923816714234e+17
19041.0	4.289924113104895e+17
19042.0	4.284072411004921e+17
19043.0	4.2884506191571635e+17
19044.0	4.2876745016497485e+17
19045.0	4.286904828690432e+17
19046.0	4.2860429949883725e+17
19047.0	4.285402050811221e+17
19048.0	4.2835149097096525e+17
19049.0	4.27352707441185e+17
19050.0	4.282992379822079e+17
19051.0	4.280459677313703e+17
19052.0	4.2814843786362874e+17
19053.0	4.2808793642653005e+17
19054.0	4.280115448687274e+17
19055.0	4.2774164825702406e+17
19056.0	4.2780656084363923e+17
19057.0	4.277851053708628e+17
19058.0	4.27179299954141e+17
19059.0	4.2742233484492774e+17
19060.0	4.2755498802763085e+17
19061.0	4.2748261272562336e+17
19062.0	4.2740614986465274e+17
19063.0	4.273325980603733e+17
19064.0	4.2723438976040954e+17
19065.0	4.271544872206334e+17
19066.0	4.2689819679129606e+17
19067.0	4.270270505637204e+17
19068.0	4.2695616151333536e+17
19069.0	4.268807631667199e+17
19070.0	4.26798644146995e+17
19071.0	4.267277625764523e+17
19072.0	4.264473495164243e+17
19073.0	4.2657819180837536e+17
19074.0	4.2650335053523616e+17
19075.0	4.264293741275818e+17
19076.0	4.263385553524053e+17
19077.0	4.2627485701679776e+17
19078.0	4.261914209157118e+17
19079.0	4.261269196505087e+17
19080.0	4.2605082987287885e+17
19081.0	4.2596733400296083e+17
19082.0	4.2589365210535245e+17
19083.0	4.2581546251933e+17
19084.0	4.2572059952633165e+17
19085.0	4.256725126698325e+17
19086.0	4.252969012122964e+17
19087.0	4.2507291027920154e+17
19088.0	4.2519411979277606e+17
19089.0	4.25335746269457e+17
19090.0	4.2529819501527034e+17
19091.0	4.251867078284631e+17
19092.0	4.247473040829108e+17
19093.0	4.250771665190912e+17
19094.0	4.250022798775636e+17
19095.0	4.2492691893015885e+17
19096.0	4.2484917561808205e+17
19097.0	4.24776984236305e+17
19098.0	4.244916523761663e+17
19099.0	4.2437539144226157e+17
19100.0	4.2454326538403834e+17
19101.0	4.2447355612146336e+17
19102.0	4.2437234407069e+17
19103.0	4.243265143089834e+17
19104.0	4.242542535813802e+17
19105.0	4.237226716867254e+17
19106.0	4.240949050518185e+17
19107.0	4.2391697246999866e+17
19108.0	4.2378681049415686e+17
19109.0	4.238200457396223e+17
19110.0	4.2380456001972896e+17
19111.0	4.236041386284372e+17
19112.0	4.234930677263015e+17
19113.0	4.2357873897198925e+17
19114.0	4.2342380438814694e+17
19115.0	4.2339528927259296e+17
19116.0	4.233472801505279e+17
19117.0	4.2327807637149e+17
19118.0	4.2318063793602554e+17
19119.0	4.1978235600240115e+17
19120.0	4.230418878431231e+17
19121.0	4.2297618057570976e+17
19122.0	4.229100340248576e+17
19123.0	4.22835848880674e+17
19124.0	4.227573730334036e+17
19125.0	4.2268680323945805e+17
19126.0	4.226125468620117e+17
19127.0	4.22168452766105e+17
19128.0	4.2246200755923616e+17
19129.0	4.2237654784628045e+17
19130.0	4.2231334332006394e+17
19131.0	4.2224027889390925e+17
19132.0	4.221646465051306e+17
19133.0	4.2208365945815034e+17
19134.0	4.2201674968378016e+17
19135.0	4.21941863391778e+17
19136.0	4.2186653676776096e+17
19137.0	4.21760566628625e+17
19138.0	4.2171822869490336e+17
19139.0	4.2164686792512845e+17
19140.0	4.2157283559342074e+17
19141.0	4.214980929563306e+17
19142.0	4.2141770164032845e+17
19143.0	4.2133624874598394e+17
19144.0	4.2126994253195936e+17
19145.0	4.212007720976383e+17
19146.0	4.2101694442154675e+17
19147.0	4.2101809415017805e+17
19148.0	4.208041593405443e+17
19149.0	4.207003831719254e+17
19150.0	4.208299120175786e+17
19151.0	4.2075615175639034e+17
19152.0	4.2068208649939616e+17
19153.0	4.2024372685591834e+17
19154.0	4.204761243626154e+17
19155.0	4.2046129910579194e+17
19156.0	4.2038720078370125e+17
19157.0	4.2019386552920774e+17
19158.0	4.199458903774552e+17
19159.0	4.201531312177151e+17
19160.0	4.200891345272832e+17
19161.0	4.200172529647614e+17
19162.0	4.1985166645657594e+17
19163.0	4.198700457568938e+17
19164.0	4.197942093851305e+17
19165.0	4.1932349334268525e+17
19166.0	4.1961589386335565e+17
19167.0	4.195557396447231e+17
19168.0	4.1950086710340256e+17
19169.0	4.194237827863893e+17
19170.0	4.193536597557247e+17
19171.0	4.192718295837354e+17
19172.0	4.1920538041384954e+17
19173.0	4.191320669159423e+17
19174.0	4.1904609752514554e+17
19175.0	4.189840844608853e+17
19176.0	4.1891110014593696e+17
19177.0	4.188099858923519e+17
19178.0	4.187500007740757e+17
19179.0	4.186652448653311e+17
19180.0	4.1861535935146656e+17
19181.0	4.1850158920499194e+17
19182.0	4.1846150934473376e+17
19183.0	4.1839574251820365e+17
19184.0	4.183177484566528e+17
19185.0	4.182458229937493e+17
19186.0	4.1817550017440416e+17
19187.0	4.180921513847466e+17
19188.0	4.180252995616768e+17
19189.0	4.1795549012514125e+17
19190.0	4.1788267728732154e+17
19191.0	4.177991828155051e+17
19192.0	4.177346637944149e+17
19193.0	4.176186706668203e+17
19194.0	4.175177160764075e+17
19195.0	4.1751379691874976e+17
19196.0	4.1743750008231245e+17
19197.0	4.173655658812757e+17
19198.0	4.172944994817366e+17
19199.0	4.1658748089576083e+17
19200.0	4.167474536076632e+17
19201.0	4.1707177131376634e+17
19202.0	4.170024130445312e+17
19203.0	4.1692672787742714e+17
19204.0	4.1685044690943994e+17
19205.0	4.167811133166934e+17
19206.0	4.1670630308140365e+17
19207.0	4.1661707995927885e+17
19208.0	4.165034958301865e+17
19209.0	4.164874701635583e+17
19210.0	4.1641309187167565e+17
19211.0	4.163427426282153e+17
19212.0	4.1627048190061216e+17
19213.0	4.161785500969641e+17
19214.0	4.1609913836066125e+17
19215.0	4.160496978624511e+17
19216.0	4.1597909919771296e+17
19217.0	4.1590549482482336e+17
19218.0	4.156762141753341e+17
19219.0	4.157378215105875e+17
19220.0	4.156825208007338e+17
19221.0	4.155512223782229e+17
19222.0	4.155402224664575e+17
19223.0	4.154640455871146e+17
19224.0	4.153879945368917e+17
19225.0	4.1529251882598394e+17
19226.0	4.152461863070378e+17
19227.0	4.1517374417578656e+17
19228.0	4.151042556734123e+17
19229.0	4.150300175411882e+17
19230.0	4.14956816171008e+17
19231.0	4.1488419613136205e+17
19232.0	4.1481256895337805e+17
19233.0	4.1472883442756256e+17
19234.0	4.146616940363775e+17
19235.0	4.1458940283016525e+17
19236.0	4.145222288845481e+17
19237.0	4.144451828056063e+17
19238.0	4.143558506315776e+17
19239.0	4.1430433611994445e+17
19240.0	4.1423065576024736e+17
19241.0	4.141557892513791e+17
19242.0	4.140827194425344e+17
19243.0	4.139893206810623e+17
19244.0	4.1394053085921274e+17
19245.0	4.1386452916196685e+17
19246.0	4.137921509239466e+17
19247.0	4.1372229744721914e+17
19248.0	4.1365085915272525e+17
19249.0	4.135708269390506e+17
19250.0	4.1343587492823034e+17
19251.0	4.1335024220023443e+17
19252.0	4.133165150328149e+17
19253.0	4.132826421832362e+17
19254.0	4.132163752558591e+17
19255.0	4.131125558859091e+17
19256.0	4.1306577625415674e+17
19257.0	4.1299889185532576e+17
19258.0	4.1292651291825485e+17
19259.0	4.128428322892459e+17
19260.0	4.127414914733395e+17
19261.0	4.1270819799695354e+17
19262.0	4.126250816416425e+17
19263.0	4.125504199546197e+17
19264.0	4.1237589797109734e+17
19265.0	4.123747693537961e+17
19266.0	4.122489781223425e+17
19267.0	4.122761158284629e+17
19268.0	4.122020826578944e+17
19269.0	4.121316621112661e+17
19270.0	4.120598507334314e+17
19271.0	4.119134976256684e+17
19272.0	4.119083514942804e+17
19273.0	4.1179625711206394e+17
19274.0	4.1170084452543123e+17
19275.0	4.1169967046983674e+17
19276.0	4.11623592226543e+17
19277.0	4.115533025421995e+17
19278.0	4.1147613706540365e+17
19279.0	4.1140644856463354e+17
19280.0	4.113203965460479e+17
19281.0	4.112640334888959e+17
19282.0	4.1119526179307526e+17
19283.0	4.111154800492543e+17
19284.0	4.110463157665791e+17
19285.0	4.109482151903232e+17
19286.0	4.1090040187234976e+17
19287.0	4.108343132727978e+17
19288.0	4.104730884876969e+17
19289.0	4.098159883408707e+17
19290.0	4.106202638188544e+17
19291.0	4.1050616099416755e+17
19292.0	4.1047585120583674e+17
19293.0	4.1040267625977165e+17
19294.0	4.1032943042996896e+17
19295.0	4.1026033011042976e+17
19296.0	4.0997718816631514e+17
19297.0	4.1007627083885235e+17
19298.0	4.100401721420459e+17
19299.0	4.097336977042092e+17
19300.0	4.0989366845876896e+17
19301.0	4.098278730410666e+17
19302.0	4.097565210793301e+17
19303.0	4.096714073964542e+17
19304.0	4.0960905221679776e+17
19305.0	4.095391302331049e+17
19306.0	4.0946985102650016e+17
19307.0	4.093877773052585e+17
19308.0	4.0932212575218336e+17
19309.0	4.0923015116663443e+17
19310.0	4.091532496513706e+17
19311.0	4.0910474574124365e+17
19312.0	4.0903751803863034e+17
19313.0	4.089634412473002e+17
19314.0	4.038285680705497e+17
19315.0	4.040450614056362e+17
19316.0	4.0847439763428736e+17
19317.0	4.086788503808682e+17
19318.0	4.0861019710423034e+17
19319.0	4.0854098871145805e+17
19320.0	4.0838431978291174e+17
19321.0	4.0821132200946336e+17
19322.0	4.083160016311638e+17
19323.0	4.0824680700968954e+17
19324.0	4.081844052732586e+17
19325.0	4.080910845957461e+17
19326.0	4.080429254574078e+17
19327.0	4.079662333078186e+17
19328.0	4.074868458913795e+17
19329.0	4.0782918057983994e+17
19330.0	4.0775017268510714e+17
19331.0	4.0767900757961376e+17
19332.0	4.076158126303914e+17
19333.0	4.0754204027562656e+17
19334.0	4.074608305810091e+17
19335.0	4.065619990631776e+17
19336.0	4.073222951665664e+17
19337.0	4.072588679927123e+17
19338.0	4.0715054149358925e+17
19339.0	4.0711585606751565e+17
19340.0	4.0695415005948576e+17
19341.0	4.066631327503706e+17
19342.0	4.067418016055298e+17
19343.0	4.0683283526888096e+17
19344.0	4.0645740367708205e+17
19345.0	4.0608192364107014e+17
19346.0	4.064682402906112e+17
19347.0	4.061595857933653e+17
19348.0	4.064781777152682e+17
19349.0	4.064015444956501e+17
19350.0	4.061982184090282e+17
19351.0	4.062540478808063e+17
19352.0	4.05774462143692e+17
19353.0	4.0612232911912954e+17
19354.0	4.0605266739199994e+17
19355.0	4.059649363236181e+17
19356.0	4.0591017115647994e+17
19357.0	4.058400391080618e+17
19358.0	4.05768583057681e+17
19359.0	4.055990650885458e+17
19360.0	4.0530456503910374e+17
19361.0	4.0554851219101e+17
19362.0	4.054864668306089e+17
19363.0	4.0541554779095034e+17
19364.0	4.05344904876305e+17
19365.0	4.052728133888683e+17
19366.0	4.0520162136992416e+17
19367.0	4.0513221095150925e+17
19368.0	4.050621258792959e+17
19369.0	4.049828458441386e+17
19370.0	4.049161761237674e+17
19371.0	4.0484075023455565e+17
19372.0	4.047785152217087e+17
19373.0	4.047050709314217e+17
19374.0	4.046366677052074e+17
19375.0	4.045670726675114e+17
19376.0	4.0449761492336634e+17
19377.0	4.044251232294229e+17
19378.0	4.0435549247023776e+17
19379.0	4.042854745767936e+17
19380.0	4.0421275785844045e+17
19381.0	4.041403666180778e+17
19382.0	4.0406201604068685e+17
19383.0	4.0398345791515296e+17
19384.0	4.039255959535615e+17
19385.0	4.038613582304597e+17
19386.0	4.037919215277396e+17
19387.0	4.0372149664699725e+17
19388.0	4.0364761628890445e+17
19389.0	4.0357179222043296e+17
19390.0	4.0350126094417914e+17
19391.0	4.022673729039e+17
19392.0	4.0335627357170336e+17
19393.0	4.032892410440362e+17
19394.0	4.0321727699353594e+17
19395.0	4.0302427085209626e+17
19396.0	4.030458763411456e+17
19397.0	4.0300709091300685e+17
19398.0	4.028322558945962e+17
19399.0	4.025511661535229e+17
19400.0	4.027041660447403e+17
19401.0	4.0272301475758074e+17
19402.0	4.0265408507630925e+17
19403.0	4.0258019632960845e+17
19404.0	4.025116785289898e+17
19405.0	4.024372390002687e+17
19406.0	4.023694166152533e+17
19407.0	4.0215017698972986e+17
19408.0	4.0205105908503936e+17
19409.0	4.0215531955595936e+17
19410.0	4.0208752555240096e+17
19411.0	4.0201640378804896e+17
19412.0	4.0194280787367245e+17
19413.0	4.01718650007279e+17
19414.0	4.0179448155559245e+17
19415.0	4.0172850158851405e+17
19416.0	4.016272165568511e+17
19417.0	4.0157494700059296e+17
19418.0	4.01515797807104e+17
19419.0	4.0144347059978234e+17
19420.0	4.013728011911167e+17
19421.0	4.01299842531328e+17
19422.0	4.0122007588700154e+17
19423.0	4.0115401077555194e+17
19424.0	4.0108204022388045e+17
19425.0	4.010074397037909e+17
19426.0	4.0093473626740045e+17
19427.0	4.008599662275241e+17
19428.0	4.007856862221653e+17
19429.0	4.0071084082462714e+17
19430.0	4.006239716857174e+17
19431.0	4.0033147616406234e+17
19432.0	4.0047843360112634e+17
19433.0	4.003969408608938e+17
19434.0	4.003134747705343e+17
19435.0	4.002082194806101e+17
19436.0	4.000230103405907e+17
19437.0	4.0004480918705485e+17
19438.0	3.9736503061271917e+17
19439.0	3.997805540540417e+17
19440.0	3.9972828743379616e+17
19441.0	3.9960562613179725e+17
19442.0	3.9946165902376954e+17
19443.0	3.992835551745364e+17
19444.0	3.990569601378986e+17
19445.0	3.987419237274965e+17
19446.0	3.98263949791505e+17
19447.0	3.9744329324953594e+17
19448.0	3.9573497154546355e+17
19449.0	3.905228998967295e+17
19450.0	3.60421764139144e+17
19451.0	3.3054889785425837e+17
19452.0	3.7227572854347226e+17
19453.0	3.924014618290862e+17
19454.0	3.9589481059887763e+17
19455.0	3.9713395501083296e+17
19456.0	3.976894054312618e+17
19457.0	3.979632960689493e+17
19458.0	3.802187071925241e+17
19459.0	3.978628723376164e+17
19460.0	3.9822676106499405e+17
19461.0	3.9823845848951456e+17
19462.0	3.9822032476569594e+17
19463.0	3.981951106372949e+17
19464.0	3.981544256787796e+17
19465.0	3.9811448709666125e+17
19466.0	3.9805937799659514e+17
19467.0	3.9801386693208736e+17
19468.0	3.979586265503061e+17
19469.0	3.97543517821337e+17
19470.0	3.978412046330538e+17
19471.0	3.977830194304342e+17
19472.0	3.9770769077917e+17
19473.0	3.976437210720938e+17
19474.0	3.9728624655400896e+17
19475.0	3.973189883396092e+17
19476.0	3.9745063398058656e+17
19477.0	3.9738999490041165e+17
19478.0	3.973337457885183e+17
19479.0	3.969734251555493e+17
19480.0	3.9719658463778125e+17
19481.0	3.97106533699857e+17
19482.0	3.970624723266218e+17
19483.0	3.9700229014596256e+17
19484.0	3.969311232229376e+17
19485.0	3.968536755393876e+17
19486.0	3.964792052820658e+17
19487.0	3.9672892058064205e+17
19488.0	3.966656207039146e+17
19489.0	3.965899119788032e+17
19490.0	3.961817308419408e+17
19491.0	3.964550617497599e+17
19492.0	3.9639371110591136e+17
19493.0	3.9632594275751245e+17
19494.0	3.9625640518178125e+17
19495.0	3.961870307644757e+17
19496.0	3.960088052804265e+17
19497.0	3.96043498815488e+17
19498.0	3.958894511871319e+17
19499.0	3.9404698242908e+17
19500.0	3.9584069464009376e+17
19501.0	3.957860831941972e+17
19502.0	3.95721249530402e+17
19503.0	3.9565432151080954e+17
19504.0	3.9558551045843616e+17
19505.0	3.9551190692440736e+17
19506.0	3.9544975852393805e+17
19507.0	3.9537417115402234e+17
19508.0	3.9531169692603725e+17
19509.0	3.952418060500991e+17
19510.0	3.950920268950185e+17
19511.0	3.871783952318379e+17
19512.0	3.947884528183968e+17
19513.0	3.9435634268787936e+17
19514.0	3.9451300217924224e+17
19515.0	3.9472163510900096e+17
19516.0	3.947280117792767e+17
19517.0	3.9467127976318285e+17
19518.0	3.945475213710675e+17
19519.0	3.944756324685139e+17
19520.0	3.942127792117073e+17
19521.0	3.944220831602004e+17
19522.0	3.943129597433172e+17
19523.0	3.942182519395671e+17
19524.0	3.9400792171479085e+17
19525.0	3.941428257008298e+17
19526.0	3.940806419983018e+17
19527.0	3.9400820587888634e+17
19528.0	3.93924562788898e+17
19529.0	3.938453713234603e+17
19530.0	3.93807882424593e+17
19531.0	3.9373951296252576e+17
19532.0	3.936708324229119e+17
19533.0	3.9360199235993594e+17
19534.0	3.9353496864030714e+17
19535.0	3.934640565911551e+17
19536.0	3.933911872001364e+17
19537.0	3.9332811129924256e+17
19538.0	3.929885428940804e+17
19539.0	3.9306207337731456e+17
19540.0	3.9312094246120096e+17
19541.0	3.9300508103475194e+17
19542.0	3.9296615474790394e+17
19543.0	3.926442614194177e+17
19544.0	3.9283746091827194e+17
19545.0	3.9269869607539994e+17
19546.0	3.925055858453163e+17
19547.0	3.926500221561515e+17
19548.0	3.9258162522139296e+17
19549.0	3.924973679454891e+17
19550.0	3.9244365247283194e+17
19551.0	3.9237785789399034e+17
19552.0	3.9230796506071034e+17
19553.0	3.9223729481318394e+17
19554.0	3.921617293934592e+17
19555.0	3.920745461710848e+17
19556.0	3.920168448513364e+17
19557.0	3.919666030313472e+17
19558.0	3.9190091065371296e+17
19559.0	3.9183395208560634e+17
19560.0	3.9166738187332243e+17
19561.0	3.916936653395285e+17
19562.0	3.9153500034170874e+17
19563.0	3.915630150767957e+17
19564.0	3.9149315195316896e+17
19565.0	3.914263829676032e+17
19566.0	3.9135285248436896e+17
19567.0	3.9129205129434445e+17
19568.0	3.91221239419153e+17
19569.0	3.9115215559720954e+17
19570.0	3.9108675542275405e+17
19571.0	3.910189823208106e+17
19572.0	3.909478081975636e+17
19573.0	3.908532155973631e+17
19574.0	3.907926709589332e+17
19575.0	3.9075034574793376e+17
19576.0	3.906681733906432e+17
19577.0	3.905712363842219e+17
19578.0	3.9053844685346125e+17
19579.0	3.9047461863423994e+17
19580.0	3.9040833506945696e+17
19581.0	3.9033989891795616e+17
19582.0	3.9027712235055776e+17
19583.0	3.9021036986258765e+17
19584.0	3.901413378402986e+17
19585.0	3.9005526834544634e+17
19586.0	3.8998379167307085e+17
19587.0	3.899359352236714e+17
19588.0	3.897718388817921e+17
19589.0	3.898012707323904e+17
19590.0	3.8970246628201805e+17
19591.0	3.8966829983115936e+17
19592.0	3.8960029611240096e+17
19593.0	3.895096615370751e+17
19594.0	3.894016229070164e+17
19595.0	3.8939561337815034e+17
19596.0	3.8932731668725754e+17
19597.0	3.892639392858111e+17
19598.0	3.8903623352756883e+17
19599.0	3.8913024934106445e+17
19600.0	3.890634570072064e+17
19601.0	3.889843645273429e+17
19602.0	3.889221403497813e+17
19603.0	3.8876463165166925e+17
19604.0	3.887896091514198e+17
19605.0	3.8867258142883846e+17
19606.0	3.886579446360746e+17
19607.0	3.885934002394453e+17
19608.0	3.885223292960767e+17
19609.0	3.884487216376491e+17
19610.0	3.882551323481431e+17
19611.0	3.881233306790572e+17
19612.0	3.88258193421107e+17
19613.0	3.881884204750165e+17
19614.0	3.88117610696977e+17
19615.0	3.880567179313151e+17
19616.0	3.878446772693677e+17
19617.0	3.877153412917932e+17
19618.0	3.8772739551177363e+17
19619.0	3.875932196569084e+17
19620.0	3.8749849102144806e+17
19621.0	3.8736956790319776e+17
19622.0	3.8758758237252256e+17
19623.0	3.875093962118485e+17
19624.0	3.8741968179691514e+17
19625.0	3.873863350528682e+17
19626.0	3.873180456321023e+17
19627.0	3.872534272759125e+17
19628.0	3.8716819405537274e+17
19629.0	3.8640859909980115e+17
19630.0	3.870443201101824e+17
19631.0	3.8635155999074944e+17
19632.0	3.8691438224998394e+17
19633.0	3.868399907460438e+17
19634.0	3.8678192948510714e+17
19635.0	3.8667821182702906e+17
19636.0	3.8631803387030144e+17
19637.0	3.862193542703784e+17
19638.0	3.864891199498921e+17
19639.0	3.86446800261393e+17
19640.0	3.8636958976573446e+17
19641.0	3.858801893572622e+17
19642.0	3.862307750805504e+17
19643.0	3.861621709471744e+17
19644.0	3.861053684667732e+17
19645.0	3.8599046019590803e+17
19646.0	3.856322223144955e+17
19647.0	3.8590975864122016e+17
19648.0	3.858508528571733e+17
19649.0	3.857813929459712e+17
19650.0	3.8571793060986874e+17
19651.0	3.856511463849983e+17
19652.0	3.855839413316266e+17
19653.0	3.855171083130197e+17
19654.0	3.8545129849487354e+17
