# Flux units: erg / (cm m2 s)
# Wavelength units: Angstrom
wave	flux
19000.0	6.381539115226452e+17
19001.0	6.379612063225171e+17
19002.0	6.379242321346559e+17
19003.0	6.378039949306537e+17
19004.0	6.376891357331455e+17
19005.0	6.375645631567188e+17
19006.0	6.374470604991146e+17
19007.0	6.373263185805311e+17
19008.0	6.371806614476115e+17
19009.0	6.369821707643561e+17
19010.0	6.3683070801565e+17
19011.0	6.368131177338196e+17
19012.0	6.366524920386899e+17
19013.0	6.366270727389183e+17
19014.0	6.364779464272553e+17
19015.0	6.363740152091988e+17
19016.0	6.362852255683924e+17
19017.0	6.361683903643647e+17
19018.0	6.360507951524521e+17
19019.0	6.359383668337321e+17
19020.0	6.358173384441855e+17
19021.0	6.357144407725396e+17
19022.0	6.355945117799766e+17
19023.0	6.354478331243177e+17
19024.0	6.353399901585405e+17
19025.0	6.352285161837908e+17
19026.0	6.351021427130367e+17
19027.0	6.349840544606889e+17
19028.0	6.348781389873151e+17
19029.0	6.347556322454185e+17
19030.0	6.346577141912916e+17
19031.0	6.345371306775892e+17
19032.0	6.34401817956625e+17
19033.0	6.341799931019261e+17
19034.0	6.340196328363347e+17
19035.0	6.333536501323091e+17
19036.0	6.312884314658131e+17
19037.0	6.332440380091049e+17
19038.0	6.335658531837267e+17
19039.0	6.335573199421439e+17
19040.0	6.334778215934634e+17
19041.0	6.333733825150975e+17
19042.0	6.330648158885202e+17
19043.0	6.331572802988714e+17
19044.0	6.330361611725482e+17
19045.0	6.329174640470697e+17
19046.0	6.327758163891539e+17
19047.0	6.326488622869162e+17
19048.0	6.324794519715839e+17
19049.0	6.320726139906725e+17
19050.0	6.321919645188095e+17
19051.0	6.318243349615956e+17
19052.0	6.318384000707241e+17
19053.0	6.319184163460435e+17
19054.0	6.31854588755968e+17
19055.0	6.315331175841801e+17
19056.0	6.316252333080576e+17
19057.0	6.315446630350847e+17
19058.0	6.31281636693333e+17
19059.0	6.31265316306944e+17
19060.0	6.312040629709481e+17
19061.0	6.310918956777472e+17
19062.0	6.30972783665698e+17
19063.0	6.308548886309546e+17
19064.0	6.307006721119574e+17
19065.0	6.30521064395025e+17
19066.0	6.304164097294335e+17
19067.0	6.303931492379305e+17
19068.0	6.30289612214545e+17
19069.0	6.301753386117801e+17
19070.0	6.300453698535423e+17
19071.0	6.299391844068009e+17
19072.0	6.297790671312211e+17
19073.0	6.297145997000703e+17
19074.0	6.296024856046249e+17
19075.0	6.294865353987412e+17
19076.0	6.293672034653524e+17
19077.0	6.292439314726911e+17
19078.0	6.291169877863082e+17
19079.0	6.29022174356002e+17
19080.0	6.288981021600425e+17
19081.0	6.287528822833151e+17
19082.0	6.286688758267904e+17
19083.0	6.284856512217085e+17
19084.0	6.282690642837503e+17
19085.0	6.283113874675028e+17
19086.0	6.278396610172243e+17
19087.0	6.279496874677586e+17
19088.0	6.278340044390397e+17
19089.0	6.277139243117229e+17
19090.0	6.2771813168797e+17
19091.0	6.276086126783148e+17
19092.0	6.273596373947735e+17
19093.0	6.274055963410431e+17
19094.0	6.272943587852287e+17
19095.0	6.271836920042835e+17
19096.0	6.270683905174185e+17
19097.0	6.269549798227967e+17
19098.0	6.267776647823359e+17
19099.0	6.266500031709183e+17
19100.0	6.265944743608319e+17
19101.0	6.264767552771412e+17
19102.0	6.263411762178729e+17
19103.0	6.262561506852863e+17
19104.0	6.261492027839827e+17
19105.0	6.25893112982187e+17
19106.0	6.259061069359786e+17
19107.0	6.257461057727145e+17
19108.0	6.256011674036906e+17
19109.0	6.255044552119636e+17
19110.0	6.254107724961108e+17
19111.0	6.252800496719186e+17
19112.0	6.251720836732244e+17
19113.0	6.251064168109396e+17
19114.0	6.249599301145939e+17
19115.0	6.248408787801428e+17
19116.0	6.247290308831914e+17
19117.0	6.24581034586931e+17
19118.0	6.241303981457409e+17
19119.0	6.213729070175553e+17
19120.0	6.240623963843241e+17
19121.0	6.241263711245652e+17
19122.0	6.24056492621824e+17
19123.0	6.239488861448874e+17
19124.0	6.237904327497044e+17
19125.0	6.236773153767423e+17
19126.0	6.234409810963113e+17
19127.0	6.229936375332863e+17
19128.0	6.231810016367956e+17
19129.0	6.231613141330601e+17
19130.0	6.23139679703313e+17
19131.0	6.230518239941971e+17
19132.0	6.229438339481599e+17
19133.0	6.228037975321257e+17
19134.0	6.227106547630079e+17
19135.0	6.226033190982998e+17
19136.0	6.224842857294505e+17
19137.0	6.223463176645289e+17
19138.0	6.222495483603625e+17
19139.0	6.221524964999167e+17
19140.0	6.220436396310527e+17
19141.0	6.219307618926591e+17
19142.0	6.217940046533972e+17
19143.0	6.216853778421076e+17
19144.0	6.215554521453908e+17
19145.0	6.214683145011199e+17
19146.0	6.208941918082395e+17
19147.0	6.212229146520233e+17
19148.0	6.210802358244692e+17
19149.0	6.209591299801087e+17
19150.0	6.209025241426602e+17
19151.0	6.207846508483924e+17
19152.0	6.206638355294889e+17
19153.0	6.204336468131839e+17
19154.0	6.204054996079956e+17
19155.0	6.203085142272681e+17
19156.0	6.201971935543295e+17
19157.0	6.20040526303505e+17
19158.0	6.198728498435414e+17
19159.0	6.198339169157119e+17
19160.0	6.197077835688618e+17
19161.0	6.195734044300627e+17
19162.0	6.194084414750719e+17
19163.0	6.193301780692991e+17
19164.0	6.192578636546047e+17
19165.0	6.19045261095731e+17
19166.0	6.190164351123455e+17
19167.0	6.189334186513748e+17
19168.0	6.188365442099882e+17
19169.0	6.187293626859519e+17
19170.0	6.186229305442303e+17
19171.0	6.185069536346111e+17
19172.0	6.183912940240895e+17
19173.0	6.182832706333353e+17
19174.0	6.181577819510099e+17
19175.0	6.18052673601536e+17
19176.0	6.179426789578068e+17
19177.0	6.177192004987561e+17
19178.0	6.177143202163369e+17
19179.0	6.175995632200361e+17
19180.0	6.174772550085289e+17
19181.0	6.173271735140351e+17
19182.0	6.172331572811092e+17
19183.0	6.171462348745386e+17
19184.0	6.17033169441041e+17
19185.0	6.169112489230335e+17
19186.0	6.168024945349972e+17
19187.0	6.166314710204415e+17
19188.0	6.165642077361491e+17
19189.0	6.164429142665898e+17
19190.0	6.163204436656127e+17
19191.0	6.16170223828992e+17
19192.0	6.160609563377664e+17
19193.0	6.159012329772372e+17
19194.0	6.157281534847658e+17
19195.0	6.155881347547135e+17
19196.0	6.153719910847827e+17
19197.0	6.151070672399018e+17
19198.0	6.147246980595712e+17
19199.0	6.141264929314132e+17
19200.0	6.140814650507263e+17
19201.0	6.144116187114153e+17
19202.0	6.145580338948778e+17
19203.0	6.145855794271572e+17
19204.0	6.145701142593535e+17
19205.0	6.145101873020927e+17
19206.0	6.144355858033322e+17
19207.0	6.142530195641682e+17
19208.0	6.141960309964799e+17
19209.0	6.14147103531554e+17
19210.0	6.140573189319338e+17
19211.0	6.13963822932514e+17
19212.0	6.138492981608447e+17
19213.0	6.136656460163752e+17
19214.0	6.135910056503978e+17
19215.0	6.135067443199999e+17
19216.0	6.133861039035732e+17
19217.0	6.132199221537449e+17
19218.0	6.130000837214205e+17
19219.0	6.128737143051602e+17
19220.0	6.128994557973844e+17
19221.0	6.127782820052991e+17
19222.0	6.127011232393898e+17
19223.0	6.126062280201558e+17
19224.0	6.124805731035818e+17
19225.0	6.123886974337023e+17
19226.0	6.122841811801428e+17
19227.0	6.12182668747298e+17
19228.0	6.120925534967124e+17
19229.0	6.119823926187348e+17
19230.0	6.118693113167871e+17
19231.0	6.11750156243217e+17
19232.0	6.11645325976098e+17
19233.0	6.114922869380435e+17
19234.0	6.114188023125332e+17
19235.0	6.112839897623209e+17
19236.0	6.112000439134889e+17
19237.0	6.11081021100305e+17
19238.0	6.109232789891753e+17
19239.0	6.108652606499497e+17
19240.0	6.107535111793322e+17
19241.0	6.106283860732586e+17
19242.0	6.105198932000768e+17
19243.0	6.102938432132435e+17
19244.0	6.103084533721769e+17
19245.0	6.101900924201641e+17
19246.0	6.10080022139153e+17
19247.0	6.099612844687359e+17
19248.0	6.098574488808106e+17
19249.0	6.09739199357474e+17
19250.0	6.095971824609961e+17
19251.0	6.0943307954804e+17
19252.0	6.091721689530368e+17
19253.0	6.092815289985706e+17
19254.0	6.091823302137172e+17
19255.0	6.089170869026812e+17
19256.0	6.089479836139519e+17
19257.0	6.088427044164947e+17
19258.0	6.087291540515497e+17
19259.0	6.085407866006186e+17
19260.0	6.084109245175124e+17
19261.0	6.083597907787775e+17
19262.0	6.082030607532032e+17
19263.0	6.080541046603775e+17
19264.0	6.078412972097533e+17
19265.0	6.077933687581353e+17
19266.0	6.076903486827178e+17
19267.0	6.076956093885097e+17
19268.0	6.075875962738006e+17
19269.0	6.074702845269332e+17
19270.0	6.073269508986196e+17
19271.0	6.071560476207786e+17
19272.0	6.071070571014825e+17
19273.0	6.06883711881489e+17
19274.0	6.066243148010829e+17
19275.0	6.068087872116051e+17
19276.0	6.066855799510355e+17
19277.0	6.065759376288426e+17
19278.0	6.064591758950399e+17
19279.0	6.063258078631251e+17
19280.0	6.062095655938732e+17
19281.0	6.061088311345151e+17
19282.0	6.060038908368211e+17
19283.0	6.058828079213226e+17
19284.0	6.05737877311761e+17
19285.0	6.055980104854185e+17
19286.0	6.054360584115539e+17
19287.0	6.051878889237161e+17
19288.0	6.038662584205307e+17
19289.0	6.033585472187045e+17
19290.0	6.048073982323369e+17
19291.0	6.04710572934213e+17
19292.0	6.048469679254186e+17
19293.0	6.047585836640937e+17
19294.0	6.046465615637161e+17
19295.0	6.045505092059133e+17
19296.0	6.043683844871511e+17
19297.0	6.04295558926609e+17
19298.0	6.041934745305087e+17
19299.0	6.040254962204672e+17
19300.0	6.039861674901504e+17
19301.0	6.038747331515731e+17
19302.0	6.037476087605929e+17
19303.0	6.035975511736317e+17
19304.0	6.035199114608637e+17
19305.0	6.033940954830164e+17
19306.0	6.032794621487785e+17
19307.0	6.031354307280895e+17
19308.0	6.030141045429588e+17
19309.0	6.028855666715306e+17
19310.0	6.027391169549652e+17
19311.0	6.026148096682665e+17
19312.0	6.024732038135807e+17
19313.0	6.021454504831658e+17
19314.0	5.958579304180411e+17
19315.0	5.960661012753093e+17
19316.0	6.017227104277846e+17
19317.0	6.019134017328468e+17
19318.0	6.018597318382932e+17
19319.0	6.017798177641812e+17
19320.0	6.016473471036073e+17
19321.0	6.014987159994367e+17
19322.0	6.01439376244736e+17
19323.0	6.0132163073693e+17
19324.0	6.012120976763561e+17
19325.0	6.01101897441826e+17
19326.0	6.009912115068928e+17
19327.0	6.008783090920106e+17
19328.0	6.006495152614061e+17
19329.0	6.006520688934911e+17
19330.0	6.005306525308244e+17
19331.0	6.003882427678719e+17
19332.0	6.003028177977343e+17
19333.0	6.001753627557887e+17
19334.0	6.000667167905108e+17
19335.0	5.997102005310807e+17
19336.0	5.998266698519892e+17
19337.0	5.997098013032447e+17
19338.0	5.994383955809618e+17
19339.0	5.994540515895978e+17
19340.0	5.99260588338927e+17
19341.0	5.990490197458944e+17
19342.0	5.989469086460586e+17
19343.0	5.98890104557841e+17
19344.0	5.985737749037056e+17
19345.0	5.980005757965654e+17
19346.0	5.980047956858195e+17
19347.0	5.982154589383338e+17
19348.0	5.983166588256255e+17
19349.0	5.982058973932201e+17
19350.0	5.980597039486292e+17
19351.0	5.979794401394685e+17
19352.0	5.977283867181053e+17
19353.0	5.977758150688767e+17
19354.0	5.976566299361279e+17
19355.0	5.974571043782659e+17
19356.0	5.974089171380905e+17
19357.0	5.972814963496276e+17
19358.0	5.971498732879871e+17
19359.0	5.969835948594515e+17
19360.0	5.967796522101417e+17
19361.0	5.96758483697664e+17
19362.0	5.966395328866986e+17
19363.0	5.965118889612628e+17
19364.0	5.963813275478697e+17
19365.0	5.962447103983613e+17
19366.0	5.961159808472403e+17
19367.0	5.95981071688226e+17
19368.0	5.958458731222356e+17
19369.0	5.956912750613844e+17
19370.0	5.955606850568191e+17
19371.0	5.953946914914303e+17
19372.0	5.952992131940351e+17
19373.0	5.951465522025812e+17
19374.0	5.950177320544937e+17
19375.0	5.948805182652413e+17
19376.0	5.947387026953556e+17
19377.0	5.945903888902825e+17
19378.0	5.944460693209085e+17
19379.0	5.943022007790249e+17
19380.0	5.941532053995519e+17
19381.0	5.939980135650644e+17
19382.0	5.937809944040788e+17
19383.0	5.936515458094418e+17
19384.0	5.93524111319586e+17
19385.0	5.933704645967871e+17
19386.0	5.932074703781887e+17
19387.0	5.930313786064895e+17
19388.0	5.928391464539476e+17
19389.0	5.92606488830498e+17
19390.0	5.921493730284884e+17
19391.0	5.900905935273975e+17
19392.0	5.912754855957844e+17
19393.0	5.918284495628969e+17
19394.0	5.917654288171008e+17
19395.0	5.915823058539862e+17
19396.0	5.914338628643498e+17
19397.0	5.912487176874666e+17
19398.0	5.909714606314836e+17
19399.0	5.906288185704447e+17
19400.0	5.905075706789887e+17
19401.0	5.90436924199185e+17
19402.0	5.90254103994914e+17
19403.0	5.900314488078335e+17
19404.0	5.898216966280531e+17
19405.0	5.895727532911274e+17
19406.0	5.893296871527764e+17
19407.0	5.890148951304873e+17
19408.0	5.886367642943487e+17
19409.0	5.884775163581779e+17
19410.0	5.882962711849642e+17
19411.0	5.880378195705856e+17
19412.0	5.877518843598164e+17
19413.0	5.87419134984192e+17
19414.0	5.871418982705833e+17
19415.0	5.868158992777216e+17
19416.0	5.863968398639101e+17
19417.0	5.861544546009087e+17
19418.0	5.857981401574057e+17
19419.0	5.85428809879825e+17
19420.0	5.850539416529576e+17
19421.0	5.846453255667712e+17
19422.0	5.841820549032618e+17
19423.0	5.837482230109524e+17
19424.0	5.832736057764522e+17
19425.0	5.827636375497386e+17
19426.0	5.822255695833769e+17
19427.0	5.816541111123968e+17
19428.0	5.81044395905297e+17
19429.0	5.803636040226132e+17
19430.0	5.795481893819734e+17
19431.0	5.787114947302742e+17
19432.0	5.781825034474835e+17
19433.0	5.774175620825087e+17
19434.0	5.76510702457105e+17
19435.0	5.754329188619604e+17
19436.0	5.742610600340137e+17
19437.0	5.7282977798116685e+17
19438.0	5.6821727551815706e+17
19439.0	5.692744743081298e+17
19440.0	5.693259402357418e+17
19441.0	5.679873855062015e+17
19442.0	5.663352518169942e+17
19443.0	5.6439793523534496e+17
19444.0	5.621447452000255e+17
19445.0	5.59543853444847e+17
19446.0	5.564238166753279e+17
19447.0	5.526259667479209e+17
19448.0	5.477548243462829e+17
19449.0	5.4109535647825914e+17
19450.0	5.3014212403090694e+17
19451.0	5.2159819578081306e+17
19452.0	5.3646509148733434e+17
19453.0	5.444326576357378e+17
19454.0	5.4979367628963795e+17
19455.0	5.538070066277034e+17
19456.0	5.5689305226827104e+17
19457.0	5.590007058967209e+17
19458.0	5.4577449930152403e+17
19459.0	5.601065858760736e+17
19460.0	5.6509479263054483e+17
19461.0	5.668101987237887e+17
19462.0	5.681853320484182e+17
19463.0	5.693692974552404e+17
19464.0	5.7041263043543034e+17
19465.0	5.713519304157866e+17
19466.0	5.7213992437459616e+17
19467.0	5.729248662781951e+17
19468.0	5.73608276664866e+17
19469.0	5.741183812763645e+17
19470.0	5.747877802409983e+17
19471.0	5.7533974540451834e+17
19472.0	5.757951349708115e+17
19473.0	5.7619769678888954e+17
19474.0	5.764719764482728e+17
19475.0	5.766477458178045e+17
19476.0	5.77183263437619e+17
19477.0	5.775779606560768e+17
19478.0	5.77882962403874e+17
19479.0	5.780606458440361e+17
19480.0	5.783487170740223e+17
19481.0	5.785623517812052e+17
19482.0	5.787580264087551e+17
19483.0	5.789231767792297e+17
19484.0	5.790610768964266e+17
19485.0	5.791855995606356e+17
19486.0	5.792167503069184e+17
19487.0	5.793982435732137e+17
19488.0	5.794577064307369e+17
19489.0	5.793463227034282e+17
19490.0	5.792590314078207e+17
19491.0	5.796166837643945e+17
19492.0	5.79773574292002e+17
19493.0	5.798347551364436e+17
19494.0	5.798672164629161e+17
19495.0	5.798436748132351e+17
19496.0	5.796702996223316e+17
19497.0	5.795500181684224e+17
19498.0	5.781299722365606e+17
19499.0	5.764010252522838e+17
19500.0	5.79376006561792e+17
19501.0	5.798028909390505e+17
19502.0	5.799028528775167e+17
19503.0	5.799307608675667e+17
19504.0	5.799253149133482e+17
19505.0	5.799046108501331e+17
19506.0	5.798827146958164e+17
19507.0	5.798265435280724e+17
19508.0	5.797587902092628e+17
19509.0	5.795811257133737e+17
19510.0	5.788753681448957e+17
19511.0	5.701598263115753e+17
19512.0	5.774916708903593e+17
19513.0	5.779114253702482e+17
19514.0	5.781855431294973e+17
19515.0	5.791572835347114e+17
19516.0	5.79339675640354e+17
19517.0	5.793723774402559e+17
19518.0	5.793463280861183e+17
19519.0	5.793020744040447e+17
19520.0	5.791832137007101e+17
19521.0	5.792358651483476e+17
19522.0	5.791328108194473e+17
19523.0	5.79087248724241e+17
19524.0	5.78976235773406e+17
19525.0	5.78973452013841e+17
19526.0	5.789125384863743e+17
19527.0	5.788309740934484e+17
19528.0	5.787535245224617e+17
19529.0	5.786725111911763e+17
19530.0	5.786163548433065e+17
19531.0	5.785448848818175e+17
19532.0	5.784671746348372e+17
19533.0	5.783915330884948e+17
19534.0	5.783118759155028e+17
19535.0	5.782115643118931e+17
19536.0	5.78113357619746e+17
19537.0	5.780311566013779e+17
19538.0	5.777733920838998e+17
19539.0	5.777362390089727e+17
19540.0	5.777550572432042e+17
19541.0	5.776918831256916e+17
19542.0	5.776171202860371e+17
19543.0	5.774345736901972e+17
19544.0	5.773914823895722e+17
19545.0	5.771063234046633e+17
19546.0	5.769918816103082e+17
19547.0	5.771380110917632e+17
19548.0	5.771053554991103e+17
19549.0	5.769570748989437e+17
19550.0	5.769551053236905e+17
19551.0	5.768693114645161e+17
19552.0	5.767776166390441e+17
19553.0	5.766807117190484e+17
19554.0	5.765865588916223e+17
19555.0	5.764852029762218e+17
19556.0	5.7640973780036256e+17
19557.0	5.763272364698282e+17
19558.0	5.7623752680843936e+17
19559.0	5.761468451170985e+17
19560.0	5.7600196805481805e+17
19561.0	5.759415659528192e+17
19562.0	5.758298853386921e+17
19563.0	5.75776186573346e+17
19564.0	5.7568070834585594e+17
19565.0	5.755856332608852e+17
19566.0	5.7548605510123514e+17
19567.0	5.754041402043049e+17
19568.0	5.752901818034858e+17
19569.0	5.7520256489007776e+17
19570.0	5.751179179633322e+17
19571.0	5.750236879607124e+17
19572.0	5.7490077695781555e+17
19573.0	5.7481676896337914e+17
19574.0	5.7465759932088294e+17
19575.0	5.7463739675661645e+17
19576.0	5.745334431689385e+17
19577.0	5.744122553958399e+17
19578.0	5.743401955753983e+17
19579.0	5.742303077466111e+17
19580.0	5.7413759552279885e+17
19581.0	5.740570573362516e+17
19582.0	5.73963303526946e+17
19583.0	5.738647657644031e+17
19584.0	5.737625288354473e+17
19585.0	5.7357347212055866e+17
19586.0	5.7345215921739117e+17
19587.0	5.7342108466763085e+17
19588.0	5.7323401556350285e+17
19589.0	5.732032040665088e+17
19590.0	5.730980960665599e+17
19591.0	5.7306147622748154e+17
19592.0	5.729755761825108e+17
19593.0	5.728549260492798e+17
19594.0	5.725823605320358e+17
19595.0	5.726631371647657e+17
19596.0	5.725480064559785e+17
19597.0	5.724538317482666e+17
19598.0	5.721619929847124e+17
19599.0	5.7224553149672096e+17
19600.0	5.721690283704319e+17
19601.0	5.720306387080533e+17
19602.0	5.7190331047389856e+17
19603.0	5.717528930156543e+17
19604.0	5.716973948239871e+17
19605.0	5.7150649345420006e+17
19606.0	5.715665416967509e+17
19607.0	5.7148024242394445e+17
19608.0	5.713798530859007e+17
19609.0	5.7126321354615456e+17
19610.0	5.711468889287338e+17
19611.0	5.7102332927672326e+17
19612.0	5.709924956198228e+17
19613.0	5.7088217850402125e+17
19614.0	5.7075398519466643e+17
19615.0	5.706677531705343e+17
19616.0	5.7049588625134925e+17
19617.0	5.7033101913620474e+17
19618.0	5.7005704244538016e+17
19619.0	5.698728458103466e+17
19620.0	5.698836617319763e+17
19621.0	5.698954631053311e+17
19622.0	5.69942194991923e+17
19623.0	5.698508415128915e+17
19624.0	5.6973129497094816e+17
19625.0	5.696451241836543e+17
19626.0	5.695138015739903e+17
19627.0	5.6937762573516794e+17
19628.0	5.6918584342173005e+17
19629.0	5.686652847871314e+17
19630.0	5.684646330586452e+17
19631.0	5.680663991331498e+17
19632.0	5.6852613651496954e+17
19633.0	5.6862509412734285e+17
19634.0	5.686667446146388e+17
19635.0	5.6857830582736186e+17
19636.0	5.684371435902292e+17
19637.0	5.6808845795655725e+17
19638.0	5.683497107368617e+17
19639.0	5.682486452770133e+17
19640.0	5.679697276960766e+17
19641.0	5.67635671305421e+17
19642.0	5.679305900163071e+17
19643.0	5.678446390105428e+17
19644.0	5.677157749620734e+17
19645.0	5.6761052841028256e+17
19646.0	5.674640078798845e+17
19647.0	5.674860761404756e+17
19648.0	5.67390967501073e+17
19649.0	5.6729317646445216e+17
19650.0	5.67198250906419e+17
19651.0	5.670945280054611e+17
19652.0	5.6699335496171514e+17
19653.0	5.6689910105156256e+17
19654.0	5.6679279438943565e+17
19655.0	5.666890891744596e+17
19656.0	5.665983651905535e+17
19657.0	5.6649351374219936e+17
19658.0	5.663981469433855e+17
19659.0	5.662978146478761e+17
19660.0	5.662007241299285e+17
19661.0	5.66096186904849e+17
19662.0	5.659951302530389e+17
19663.0	5.6588525948108794e+17
