# Flux units: erg / (cm m2 s)
# Wavelength units: Angstrom
wave	flux
19000.0	4.7091956671228576e+17
19001.0	4.7082163327904403e+17
19002.0	4.707560628857513e+17
19003.0	4.7067529464162976e+17
19004.0	4.7057253048866125e+17
19005.0	4.704948577807019e+17
19006.0	4.7040571113471994e+17
19007.0	4.703450306707455e+17
19008.0	4.7025614400170656e+17
19009.0	4.701683801478485e+17
19010.0	4.700293440034131e+17
19011.0	4.7000590273740794e+17
19012.0	4.6985512051452563e+17
19013.0	4.698560831771989e+17
19014.0	4.697542764440234e+17
19015.0	4.69670374355763e+17
19016.0	4.6959442026386765e+17
19017.0	4.6952587338274125e+17
19018.0	4.694365158331734e+17
19019.0	4.6935774023297696e+17
19020.0	4.6927457676165114e+17
19021.0	4.691944419972436e+17
19022.0	4.6911645087170554e+17
19023.0	4.690112369655807e+17
19024.0	4.689177534791679e+17
19025.0	4.688602200014847e+17
19026.0	4.687755804147711e+17
19027.0	4.686567385858046e+17
19028.0	4.686111864870228e+17
19029.0	4.6852262445711354e+17
19030.0	4.6843793859324576e+17
19031.0	4.6836583431318176e+17
19032.0	4.682844018311166e+17
19033.0	4.681704469255508e+17
19034.0	4.680743032018261e+17
19035.0	4.678043553497087e+17
19036.0	4.6647033039858336e+17
19037.0	4.6768420965143885e+17
19038.0	4.677490730248874e+17
19039.0	4.676935152041983e+17
19040.0	4.676175042794836e+17
19041.0	4.6754248544747514e+17
19042.0	4.664163599821468e+17
19043.0	4.6738902460224845e+17
19044.0	4.673137859188053e+17
19045.0	4.672216416736596e+17
19046.0	4.6713708303701325e+17
19047.0	4.670610120638463e+17
19048.0	4.668181986323112e+17
19049.0	4.647180374289038e+17
19050.0	4.6681239539329696e+17
19051.0	4.662116248890015e+17
19052.0	4.6663468098519046e+17
19053.0	4.665777326129151e+17
19054.0	4.6648859211857914e+17
19055.0	4.660700898481493e+17
19056.0	4.662395655247185e+17
19057.0	4.662546239149396e+17
19058.0	4.650598286753774e+17
19059.0	4.656441980529318e+17
19060.0	4.660063391536468e+17
19061.0	4.6592156779588256e+17
19062.0	4.6583397360162125e+17
19063.0	4.6576653115064314e+17
19064.0	4.656704139908437e+17
19065.0	4.6558473750227616e+17
19066.0	4.6510861619036205e+17
19067.0	4.654178901863082e+17
19068.0	4.653614407264937e+17
19069.0	4.6527851912669856e+17
19070.0	4.651821544330581e+17
19071.0	4.651056541728768e+17
19072.0	4.646091394558629e+17
19073.0	4.649574373261311e+17
19074.0	4.648588748870997e+17
19075.0	4.647917391096491e+17
19076.0	4.6468286280717645e+17
19077.0	4.646248571906729e+17
19078.0	4.6453852093808634e+17
19079.0	4.644594971749034e+17
19080.0	4.6438297349652474e+17
19081.0	4.6429857857754445e+17
19082.0	4.6422257471324154e+17
19083.0	4.6413107387432954e+17
19084.0	4.6404039721615354e+17
19085.0	4.639763558563839e+17
19086.0	4.632991815608999e+17
19087.0	4.6282741869008083e+17
19088.0	4.6317919419760544e+17
19089.0	4.6359799594134176e+17
19090.0	4.635744470914389e+17
19091.0	4.6342891292153216e+17
19092.0	4.6253277722269254e+17
19093.0	4.6332955615122765e+17
19094.0	4.632521766251178e+17
19095.0	4.6316323340287994e+17
19096.0	4.630881622119763e+17
19097.0	4.630080761714004e+17
19098.0	4.6248674138084634e+17
19099.0	4.623058462922075e+17
19100.0	4.6276311294935034e+17
19101.0	4.626818753626111e+17
19102.0	4.625879636377598e+17
19103.0	4.6251749856160416e+17
19104.0	4.624483290360491e+17
19105.0	4.613851992206025e+17
19106.0	4.6226290521757005e+17
19107.0	4.6196480652520064e+17
19108.0	4.617444165419009e+17
19109.0	4.6191681753579494e+17
19110.0	4.619560028908202e+17
19111.0	4.615917503075664e+17
19112.0	4.614523381437775e+17
19113.0	4.6171843485586765e+17
19114.0	4.614419792614737e+17
19115.0	4.61506213908753e+17
19116.0	4.6145894522115405e+17
19117.0	4.6137887497912314e+17
19118.0	4.6120803853052595e+17
19119.0	4.599489995560263e+17
19120.0	4.6107822957527034e+17
19121.0	4.6104074794653005e+17
19122.0	4.609949529975466e+17
19123.0	4.6092008124579834e+17
19124.0	4.6082369138633376e+17
19125.0	4.6075600699391994e+17
19126.0	4.6067474563945805e+17
19127.0	4.603688254788945e+17
19128.0	4.605072935747582e+17
19129.0	4.60429283365137e+17
19130.0	4.6035786128861856e+17
19131.0	4.6027594674121376e+17
19132.0	4.601895486925482e+17
19133.0	4.6011158559894176e+17
19134.0	4.600338878649685e+17
19135.0	4.599570956812287e+17
19136.0	4.5987356576754336e+17
19137.0	4.5976553636495354e+17
19138.0	4.5971446162609485e+17
19139.0	4.596392129462272e+17
19140.0	4.595601916297215e+17
19141.0	4.594771425230847e+17
19142.0	4.5939159179373216e+17
19143.0	4.593051030781952e+17
19144.0	4.592261257319764e+17
19145.0	4.591523442196479e+17
19146.0	4.5900894404171085e+17
19147.0	4.5897241514912416e+17
19148.0	4.585567882138971e+17
19149.0	4.5840224167307936e+17
19150.0	4.5875782253281274e+17
19151.0	4.586734038461099e+17
19152.0	4.585972336077481e+17
19153.0	4.577489586924189e+17
19154.0	4.583647122292736e+17
19155.0	4.5836032261051725e+17
19156.0	4.5827695970003616e+17
19157.0	4.579579935064071e+17
19158.0	4.574978243209906e+17
19159.0	4.5802053512287565e+17
19160.0	4.579505422554453e+17
19161.0	4.578771356439892e+17
19162.0	4.576148081431893e+17
19163.0	4.577183009166676e+17
19164.0	4.576361334527316e+17
19165.0	4.5672485925246163e+17
19166.0	4.574461003038718e+17
19167.0	4.5738085357103776e+17
19168.0	4.573184900027732e+17
19169.0	4.5723293382082554e+17
19170.0	4.5716248349463885e+17
19171.0	4.5705680499944096e+17
19172.0	4.5699927802292896e+17
19173.0	4.5692561255301114e+17
19174.0	4.568361234421077e+17
19175.0	4.5676064316675405e+17
19176.0	4.566865230342826e+17
19177.0	4.5658777290014714e+17
19178.0	4.565126446667094e+17
19179.0	4.5640414074852685e+17
19180.0	4.5636761570071885e+17
19181.0	4.562671866565972e+17
19182.0	4.561936193333929e+17
19183.0	4.5612644140318714e+17
19184.0	4.5604893898397005e+17
19185.0	4.559652896724309e+17
19186.0	4.5589018436785485e+17
19187.0	4.558065303027711e+17
19188.0	4.557337406035284e+17
19189.0	4.55655452381457e+17
19190.0	4.5557570677855565e+17
19191.0	4.5548925462336845e+17
19192.0	4.5541738061059405e+17
19193.0	4.552397102426797e+17
19194.0	4.5510422940003e+17
19195.0	4.5518122214140576e+17
19196.0	4.550982520274944e+17
19197.0	4.550159292345002e+17
19198.0	4.549338880890197e+17
19199.0	4.531234329154896e+17
19200.0	4.5370500224559885e+17
19201.0	4.546989190545407e+17
19202.0	4.546296804627796e+17
19203.0	4.5454186089458336e+17
19204.0	4.5447128662671354e+17
19205.0	4.5439148677748045e+17
19206.0	4.543122528796672e+17
19207.0	4.5421037036939936e+17
19208.0	4.5411846652777805e+17
19209.0	4.5407411316107936e+17
19210.0	4.5398654168596474e+17
19211.0	4.539167362340181e+17
19212.0	4.538375556038655e+17
19213.0	4.537358773562025e+17
19214.0	4.5364912446941856e+17
19215.0	4.5359662793140896e+17
19216.0	4.5352464969018016e+17
19217.0	4.534494742009172e+17
19218.0	4.5326525987990163e+17
19219.0	4.532679166918655e+17
19220.0	4.532074609027753e+17
19221.0	4.5309083429546656e+17
19222.0	4.530423779207849e+17
19223.0	4.529685248256682e+17
19224.0	4.528844745386666e+17
19225.0	4.527988794895018e+17
19226.0	4.5273920481962656e+17
19227.0	4.526577585662634e+17
19228.0	4.5258157679356576e+17
19229.0	4.5248468452638694e+17
19230.0	4.5241995809696416e+17
19231.0	4.5235043862664525e+17
19232.0	4.522710100432213e+17
19233.0	4.5218102880064845e+17
19234.0	4.521034689893716e+17
19235.0	4.5202801038458874e+17
19236.0	4.5195435875587405e+17
19237.0	4.518645137582762e+17
19238.0	4.517819149800789e+17
19239.0	4.5171814072756896e+17
19240.0	4.5163469602815994e+17
19241.0	4.515614608239274e+17
19242.0	4.5146949455708154e+17
19243.0	4.513908825347412e+17
19244.0	4.5132329803666765e+17
19245.0	4.512486050321749e+17
19246.0	4.511711276389716e+17
19247.0	4.5109482353240736e+17
19248.0	4.510135493154134e+17
19249.0	4.509090000666623e+17
19250.0	4.506988357965141e+17
19251.0	4.50619751355733e+17
19252.0	4.5067355651659085e+17
19253.0	4.506178677637119e+17
19254.0	4.5054589154973e+17
19255.0	4.5044428341684883e+17
19256.0	4.503763417737898e+17
19257.0	4.503079288307711e+17
19258.0	4.502276363605332e+17
19259.0	4.5015116490123936e+17
19260.0	4.499797767618559e+17
19261.0	4.49998775001634e+17
19262.0	4.499051980521472e+17
19263.0	4.498225180442623e+17
19264.0	4.496932542087166e+17
19265.0	4.496529541474985e+17
19266.0	4.495601569890304e+17
19267.0	4.495313672164693e+17
19268.0	4.4944499202676045e+17
19269.0	4.4937153333602976e+17
19270.0	4.492950545367039e+17
19271.0	4.491672795392684e+17
19272.0	4.4913688943001594e+17
19273.0	4.490451463001428e+17
19274.0	4.4894487740852896e+17
19275.0	4.48909389402385e+17
19276.0	4.488296584096426e+17
19277.0	4.4875427718976845e+17
19278.0	4.4865800407176525e+17
19279.0	4.4859405477696845e+17
19280.0	4.485111522612565e+17
19281.0	4.484384210026495e+17
19282.0	4.483631775656618e+17
19283.0	4.4826374536779085e+17
19284.0	4.4819868912626336e+17
19285.0	4.480947867090943e+17
19286.0	4.480190801510399e+17
19287.0	4.478927335937365e+17
19288.0	4.472003506121384e+17
19289.0	4.468251468409509e+17
19290.0	4.4765179005282976e+17
19291.0	4.476073256069803e+17
19292.0	4.475730489857364e+17
19293.0	4.474991787638783e+17
19294.0	4.474238325664425e+17
19295.0	4.4734778389299194e+17
19296.0	4.46793584913068e+17
19297.0	4.471219297801561e+17
19298.0	4.471136361032362e+17
19299.0	4.4650947939751315e+17
19300.0	4.469635527213056e+17
19301.0	4.468875172599126e+17
19302.0	4.4681205795607885e+17
19303.0	4.46717964198434e+17
19304.0	4.4664910526109005e+17
19305.0	4.4657089330544634e+17
19306.0	4.464969570233002e+17
19307.0	4.464061601983146e+17
19308.0	4.4633498544592205e+17
19309.0	4.461933270925311e+17
19310.0	4.461088885527892e+17
19311.0	4.460654902990164e+17
19312.0	4.459505495922003e+17
19313.0	4.457089043442347e+17
19314.0	4.3770384258607744e+17
19315.0	4.379047921101547e+17
19316.0	4.448697697260896e+17
19317.0	4.45572396945681e+17
19318.0	4.455361100644351e+17
19319.0	4.45467494117103e+17
19320.0	4.4522949952143296e+17
19321.0	4.449091472501419e+17
19322.0	4.452553665631572e+17
19323.0	4.451723877111125e+17
19324.0	4.4511158015972685e+17
19325.0	4.449712365808297e+17
19326.0	4.449590261230249e+17
19327.0	4.4488417646127776e+17
19328.0	4.439232612750687e+17
19329.0	4.447341740294142e+17
19330.0	4.446549803969193e+17
19331.0	4.4457867223586125e+17
19332.0	4.4450309304483834e+17
19333.0	4.444299165608618e+17
19334.0	4.443233054621698e+17
19335.0	4.424708621598743e+17
19336.0	4.4418283822120966e+17
19337.0	4.441195244333738e+17
19338.0	4.4402020352436896e+17
19339.0	4.439596497283755e+17
19340.0	4.438433657257983e+17
19341.0	4.431543281909775e+17
19342.0	4.435116189286406e+17
19343.0	4.436615985015466e+17
19344.0	4.4292521468450234e+17
19345.0	4.4292482069954554e+17
19346.0	4.433562031882242e+17
19347.0	4.425243338036564e+17
19348.0	4.432802626579113e+17
19349.0	4.4319806702223354e+17
19350.0	4.4280980512440326e+17
19351.0	4.430374396493824e+17
19352.0	4.420788961323675e+17
19353.0	4.4289361969151994e+17
19354.0	4.428220589233493e+17
19355.0	4.427348545197398e+17
19356.0	4.426649707741183e+17
19357.0	4.425919677246121e+17
19358.0	4.425138324548266e+17
19359.0	4.422508660217164e+17
19360.0	4.416580607803388e+17
19361.0	4.4227940469527885e+17
19362.0	4.4220848943049376e+17
19363.0	4.4213256469872634e+17
19364.0	4.420584413506217e+17
19365.0	4.4197817565402445e+17
19366.0	4.418912984760318e+17
19367.0	4.418237752847017e+17
19368.0	4.4175180053872634e+17
19369.0	4.4167250631284045e+17
19370.0	4.416014230661802e+17
19371.0	4.415133535873706e+17
19372.0	4.4144461376826016e+17
19373.0	4.413610152777044e+17
19374.0	4.412860073508863e+17
19375.0	4.41217660817681e+17
19376.0	4.411440358927018e+17
19377.0	4.4106787676924576e+17
19378.0	4.409928259906217e+17
19379.0	4.40916265472273e+17
19380.0	4.4082291571425274e+17
19381.0	4.407515495617876e+17
19382.0	4.4067520588895565e+17
19383.0	4.405924552769536e+17
19384.0	4.4051308758084256e+17
19385.0	4.4045437270753274e+17
19386.0	4.4037512378013005e+17
19387.0	4.402926255254185e+17
19388.0	4.4019867465373005e+17
19389.0	4.40075786719505e+17
19390.0	4.39902723584819e+17
19391.0	4.386520709114531e+17
19392.0	4.3950867844082336e+17
19393.0	4.39740344111377e+17
19394.0	4.39700664946961e+17
19395.0	4.3936980014202944e+17
19396.0	4.3950226898507104e+17
19397.0	4.394840270482091e+17
19398.0	4.3918746032537606e+17
19399.0	4.3892176892286266e+17
19400.0	4.3906176108899e+17
19401.0	4.391756241392981e+17
19402.0	4.391028607942655e+17
19403.0	4.390233349728938e+17
19404.0	4.389384687539541e+17
19405.0	4.3885675036016634e+17
19406.0	4.38785976443426e+17
19407.0	4.3839289885545766e+17
19408.0	4.3852513037079917e+17
19409.0	4.385459587951275e+17
19410.0	4.3846873396893005e+17
19411.0	4.383872921894911e+17
19412.0	4.383037165578921e+17
19413.0	4.3790113572563616e+17
19414.0	4.381437221055147e+17
19415.0	4.3806078561594016e+17
19416.0	4.3794808802290336e+17
19417.0	4.378620521523881e+17
19418.0	4.378148553971029e+17
19419.0	4.3772875304686925e+17
19420.0	4.376430523012438e+17
19421.0	4.375567561741652e+17
19422.0	4.3745910767397536e+17
19423.0	4.3738159413985274e+17
19424.0	4.372921189400576e+17
19425.0	4.3719314538932896e+17
19426.0	4.371064028484948e+17
19427.0	4.3701025283331405e+17
19428.0	4.369013247311872e+17
19429.0	4.368100693289642e+17
19430.0	4.366822776242178e+17
19431.0	4.359873224856933e+17
19432.0	4.364666885810859e+17
19433.0	4.3633671863446195e+17
19434.0	4.3620531248824314e+17
19435.0	4.3599872092624205e+17
19436.0	4.355318453283491e+17
19437.0	4.354984321744896e+17
19438.0	4.325516319741284e+17
19439.0	4.3446921568365203e+17
19440.0	4.3496738162824525e+17
19441.0	4.347677655433215e+17
19442.0	4.344346451815083e+17
19443.0	4.3399516202379936e+17
19444.0	4.334182367668906e+17
19445.0	4.3262882555275955e+17
19446.0	4.31574018494737e+17
19447.0	4.3011183504698016e+17
19448.0	4.280833619088725e+17
19449.0	4.25471180345617e+17
19450.0	4.227547025899519e+17
19451.0	4.2160046004852045e+17
19452.0	4.232376608970068e+17
19453.0	4.258724540929365e+17
19454.0	4.281726945722367e+17
19455.0	4.2985098722672634e+17
19456.0	4.309261978959872e+17
19457.0	4.312198046984875e+17
19458.0	4.077054736378786e+17
19459.0	4.2873246016253126e+17
19460.0	4.3279386603246925e+17
19461.0	4.3324472197556896e+17
19462.0	4.3344641466040314e+17
19463.0	4.335684947017728e+17
19464.0	4.336353588281343e+17
19465.0	4.336769206059007e+17
19466.0	4.3369635966702925e+17
19467.0	4.337023880003583e+17
19468.0	4.3369492430629536e+17
19469.0	4.3301032497424954e+17
19470.0	4.336447732929876e+17
19471.0	4.3360913708810234e+17
19472.0	4.335666115990868e+17
19473.0	4.335170494660606e+17
19474.0	4.3281648458574394e+17
19475.0	4.3328927072692883e+17
19476.0	4.333636983717887e+17
19477.0	4.333060998124884e+17
19478.0	4.332552072462336e+17
19479.0	4.325680780498251e+17
19480.0	4.331310701783721e+17
19481.0	4.330535159595007e+17
19482.0	4.329947020307114e+17
19483.0	4.329402346591573e+17
19484.0	4.3286701252717216e+17
19485.0	4.32801534059042e+17
19486.0	4.320717617233939e+17
19487.0	4.326661890419369e+17
19488.0	4.3260425511021216e+17
19489.0	4.325359546444457e+17
19490.0	4.3225309176135635e+17
19491.0	4.3238612935202125e+17
19492.0	4.32321278841105e+17
19493.0	4.3224347708839245e+17
19494.0	4.321686456718676e+17
19495.0	4.3209291919086925e+17
19496.0	4.319301973224104e+17
19497.0	4.318591133067946e+17
19498.0	4.3110090456869523e+17
19499.0	4.297806553197227e+17
19500.0	4.3155738129858554e+17
19501.0	4.3166708534695245e+17
19502.0	4.316404890555733e+17
19503.0	4.3157922327647565e+17
19504.0	4.315058139387221e+17
19505.0	4.314162228363263e+17
19506.0	4.3135690482210125e+17
19507.0	4.3127062372461216e+17
19508.0	4.311737087382868e+17
19509.0	4.310357048819712e+17
19510.0	4.304808675289767e+17
19511.0	4.192399948163695e+17
19512.0	4.296940151199059e+17
19513.0	4.299344784130042e+17
19514.0	4.300664538660861e+17
19515.0	4.3054036708666054e+17
19516.0	4.3051022437143885e+17
19517.0	4.305216352550911e+17
19518.0	4.302905936969724e+17
19519.0	4.302149246779388e+17
19520.0	4.2970927015307866e+17
19521.0	4.3027113275555834e+17
19522.0	4.300996858959187e+17
19523.0	4.2997748673631616e+17
19524.0	4.295676238233613e+17
19525.0	4.29966450823441e+17
19526.0	4.298992562558293e+17
19527.0	4.298301989279061e+17
19528.0	4.2970719257449805e+17
19529.0	4.2961108736846515e+17
19530.0	4.2961021565228365e+17
19531.0	4.295354598031359e+17
19532.0	4.2946050094967456e+17
19533.0	4.2938107313520634e+17
19534.0	4.293175803204949e+17
19535.0	4.2924438356404896e+17
19536.0	4.2916429570594125e+17
19537.0	4.290910670028799e+17
19538.0	4.284348768802142e+17
19539.0	4.288716448552281e+17
19540.0	4.2887590312236365e+17
19541.0	4.2866827878290765e+17
19542.0	4.2867184408111776e+17
19543.0	4.2803015807139866e+17
19544.0	4.2854277178545485e+17
19545.0	4.2846216418317606e+17
19546.0	4.283002485298517e+17
19547.0	4.2836729818426016e+17
19548.0	4.282922358713002e+17
19549.0	4.2820327866804896e+17
19550.0	4.281327411003391e+17
19551.0	4.2807258946819405e+17
19552.0	4.279914226952874e+17
19553.0	4.279226417719978e+17
19554.0	4.278367784970923e+17
19555.0	4.276992514632364e+17
19556.0	4.276470244791635e+17
19557.0	4.276217006697129e+17
19558.0	4.275545541967872e+17
19559.0	4.2748172549051725e+17
19560.0	4.2718545691279315e+17
19561.0	4.27332674326801e+17
19562.0	4.2704886597768506e+17
19563.0	4.2719204770228896e+17
19564.0	4.271020967985151e+17
19565.0	4.270388504690687e+17
19566.0	4.2695668712953165e+17
19567.0	4.268991581956778e+17
19568.0	4.2682320452321274e+17
19569.0	4.2675086745927674e+17
19570.0	4.2667539787939834e+17
19571.0	4.266009032654847e+17
19572.0	4.265294271523498e+17
19573.0	4.263870316500308e+17
19574.0	4.2635118943491405e+17
19575.0	4.2631548010932896e+17
19576.0	4.262073320079359e+17
19577.0	4.26066962284544e+17
19578.0	4.2609041368678394e+17
19579.0	4.2602238731878394e+17
19580.0	4.259437749469183e+17
19581.0	4.2586398628249594e+17
19582.0	4.258041962692608e+17
19583.0	4.257353901801472e+17
19584.0	4.256544803083604e+17
19585.0	4.2557639865576083e+17
19586.0	4.2550184357396474e+17
19587.0	4.254320338578091e+17
19588.0	4.253073857140054e+17
19589.0	4.252970335425877e+17
19590.0	4.2520502910757536e+17
19591.0	4.2514905374392314e+17
19592.0	4.2507511396652365e+17
19593.0	4.249475905574228e+17
19594.0	4.2485368764060986e+17
19595.0	4.248577589116927e+17
19596.0	4.2477490742667936e+17
19597.0	4.2471326611756365e+17
19598.0	4.2455069356632736e+17
19599.0	4.2456628351467514e+17
19600.0	4.244890486920533e+17
19601.0	4.244133817701717e+17
19602.0	4.243442156000596e+17
19603.0	4.2420294137501e+17
19604.0	4.242025967430314e+17
19605.0	4.240936268376747e+17
19606.0	4.240532562422443e+17
19607.0	4.2398827193303034e+17
19608.0	4.238995398939989e+17
19609.0	4.2383464450402976e+17
19610.0	4.234749042928304e+17
19611.0	4.2324844564097734e+17
19612.0	4.2362601940363936e+17
19613.0	4.2354104315412474e+17
19614.0	4.2347432792555514e+17
19615.0	4.2340953851166714e+17
19616.0	4.230301192552454e+17
19617.0	4.228178739112621e+17
19618.0	4.2309725342487885e+17
19619.0	4.2294965006499814e+17
19620.0	4.228048814254754e+17
19621.0	4.22318787876181e+17
19622.0	4.229014746387797e+17
19623.0	4.2280229123304096e+17
19624.0	4.2267403479941126e+17
19625.0	4.226860704945493e+17
19626.0	4.226063802564608e+17
19627.0	4.225415007349417e+17
19628.0	4.224375774161581e+17
19629.0	4.208671220651341e+17
19630.0	4.223200110051328e+17
19631.0	4.2101043584040845e+17
19632.0	4.2218151403847674e+17
19633.0	4.220981916729344e+17
19634.0	4.22036313735168e+17
19635.0	4.2189737014504064e+17
19636.0	4.211583969744205e+17
19637.0	4.21080847998429e+17
19638.0	4.216978798193318e+17
19639.0	4.21669547086097e+17
19640.0	4.215948164027732e+17
19641.0	4.21320034685202e+17
19642.0	4.214155999444992e+17
19643.0	4.2134342219421005e+17
19644.0	4.2130928111889056e+17
19645.0	4.212110997323774e+17
19646.0	4.2039933343716576e+17
19647.0	4.210781530182996e+17
19648.0	4.2102984029853005e+17
19649.0	4.209530121136811e+17
19650.0	4.208828363046911e+17
19651.0	4.208116035310933e+17
19652.0	4.207427292146347e+17
19653.0	4.2066448258607776e+17
19654.0	4.206000347982507e+17
19655.0	4.205202263506942e+17
