# Flux units: erg / (cm m2 s)
# Wavelength units: Angstrom
wave	flux
19000.0	4.890343762471594e+17
19001.0	4.889347351729492e+17
19002.0	4.888543490299221e+17
19003.0	4.8876336513897805e+17
19004.0	4.886728293395113e+17
19005.0	4.885826093711359e+17
19006.0	4.8849329725986125e+17
19007.0	4.883969379489109e+17
19008.0	4.8830624856801274e+17
19009.0	4.8821088274786976e+17
19010.0	4.880836285431807e+17
19011.0	4.880364313684649e+17
19012.0	4.8790999624144205e+17
19013.0	4.8786101271265274e+17
19014.0	4.877658942865407e+17
19015.0	4.8767675777679354e+17
19016.0	4.8758469608953165e+17
19017.0	4.8750035038371834e+17
19018.0	4.874081328081577e+17
19019.0	4.8731939259023354e+17
19020.0	4.8722821044852045e+17
19021.0	4.87139947122961e+17
19022.0	4.870495925174272e+17
19023.0	4.869564281476436e+17
19024.0	4.868675780389546e+17
19025.0	4.867774078429866e+17
19026.0	4.866840926180692e+17
19027.0	4.8656937344040954e+17
19028.0	4.8650986409601696e+17
19029.0	4.8641775648112634e+17
19030.0	4.8633081415161165e+17
19031.0	4.8624108281965216e+17
19032.0	4.86150443700497e+17
19033.0	4.8605189349485216e+17
19034.0	4.8596993343924896e+17
19035.0	4.858762677802324e+17
19036.0	4.8343938855075834e+17
19037.0	4.856998950600703e+17
19038.0	4.856092603449342e+17
19039.0	4.855213907247104e+17
19040.0	4.85431969911057e+17
19041.0	4.853411607128745e+17
19042.0	4.852357859551913e+17
19043.0	4.851625898278911e+17
19044.0	4.850714509574143e+17
19045.0	4.849819088584704e+17
19046.0	4.848870877386068e+17
19047.0	4.8480088109001363e+17
19048.0	4.846900746387455e+17
19049.0	4.846023846046377e+17
19050.0	4.845290123165696e+17
19051.0	4.841356886627665e+17
19052.0	4.8428965485172045e+17
19053.0	4.842636264691028e+17
19054.0	4.8417535063053645e+17
19055.0	4.8405884985234765e+17
19056.0	4.839925259523413e+17
19057.0	4.839057242019156e+17
19058.0	4.8380656631152634e+17
19059.0	4.837238223405055e+17
19060.0	4.836354185756672e+17
19061.0	4.835483650970964e+17
19062.0	4.834582811639807e+17
19063.0	4.8336894717242016e+17
19064.0	4.8326670458115405e+17
19065.0	4.831736871518208e+17
19066.0	4.830925825944233e+17
19067.0	4.8300975641504416e+17
19068.0	4.829216270974975e+17
19069.0	4.828323181319508e+17
19070.0	4.827399684358143e+17
19071.0	4.826520568725504e+17
19072.0	4.825607491813375e+17
19073.0	4.824742464148821e+17
19074.0	4.823854172078079e+17
19075.0	4.822960620350121e+17
19076.0	4.82204690031138e+17
19077.0	4.821155732346196e+17
19078.0	4.820237305599316e+17
19079.0	4.8193833683735885e+17
19080.0	4.8184784242169165e+17
19081.0	4.817562050581845e+17
19082.0	4.81666664567057e+17
19083.0	4.8157251523488416e+17
19084.0	4.81471843340561e+17
19085.0	4.8140178644008954e+17
19086.0	4.812749877368149e+17
19087.0	4.811610395421355e+17
19088.0	4.811229832238421e+17
19089.0	4.810007290489514e+17
19090.0	4.809547982045183e+17
19091.0	4.808646029126313e+17
19092.0	4.80756127375906e+17
19093.0	4.806902282190847e+17
19094.0	4.806010232722773e+17
19095.0	4.805119305231019e+17
19096.0	4.80421272879104e+17
19097.0	4.803337376847189e+17
19098.0	4.8024160469428896e+17
19099.0	4.801515910856704e+17
19100.0	4.8006258767517005e+17
19101.0	4.7997639004433056e+17
19102.0	4.7987697888788474e+17
19103.0	4.7979999236805965e+17
19104.0	4.7971141754552314e+17
19105.0	4.796149349919402e+17
19106.0	4.7952268630862496e+17
19107.0	4.7944082398030496e+17
19108.0	4.7935312485853856e+17
19109.0	4.791124524094803e+17
19110.0	4.7917347128388256e+17
19111.0	4.790866363285503e+17
19112.0	4.789980794716159e+17
19113.0	4.789115005785428e+17
19114.0	4.788215320586923e+17
19115.0	4.787249856118783e+17
19116.0	4.786436108713983e+17
19117.0	4.785548247957502e+17
19118.0	4.7845074551876256e+17
19119.0	4.7759858723717005e+17
19120.0	4.78272492072687e+17
19121.0	4.78188982641186e+17
19122.0	4.7811368013441696e+17
19123.0	4.7802502631915514e+17
19124.0	4.7792741172292256e+17
19125.0	4.7784627256251725e+17
19126.0	4.777585439408127e+17
19127.0	4.7748596045796685e+17
19128.0	4.775422004122964e+17
19129.0	4.774864847459668e+17
19130.0	4.7740301662836045e+17
19131.0	4.7731544032979616e+17
19132.0	4.7722769143562234e+17
19133.0	4.771231388314282e+17
19134.0	4.7703363154520736e+17
19135.0	4.769616577079978e+17
19136.0	4.768744301658111e+17
19137.0	4.7676944352105805e+17
19138.0	4.766946554456746e+17
19139.0	4.7660910772223994e+17
19140.0	4.765209197543423e+17
19141.0	4.7643253045985274e+17
19142.0	4.763412501714261e+17
19143.0	4.7625004796695885e+17
19144.0	4.7616369983051085e+17
19145.0	4.7607895545610234e+17
19146.0	4.759315280472746e+17
19147.0	4.7589107531339085e+17
19148.0	4.7581091943765325e+17
19149.0	4.7572195188845216e+17
19150.0	4.7563721198796794e+17
19151.0	4.755492390480555e+17
19152.0	4.754590880759807e+17
19153.0	4.753666350601557e+17
19154.0	4.752715206885376e+17
19155.0	4.751965835755519e+17
19156.0	4.7510878420991994e+17
19157.0	4.7501722122540365e+17
19158.0	4.748251494350846e+17
19159.0	4.7484263849437856e+17
19160.0	4.7475354252957005e+17
19161.0	4.746652210429952e+17
19162.0	4.7434098128104115e+17
19163.0	4.7448538669383674e+17
19164.0	4.744042487218176e+17
19165.0	4.743048919515136e+17
19166.0	4.7420909251024205e+17
19167.0	4.741177509150719e+17
19168.0	4.7405039549590176e+17
19169.0	4.7395860518010874e+17
19170.0	4.738764277896532e+17
19171.0	4.737731610192555e+17
19172.0	4.736995316902571e+17
19173.0	4.736118850671957e+17
19174.0	4.735186996559872e+17
19175.0	4.7343690506567674e+17
19176.0	4.7334895428567034e+17
19177.0	4.732464595468287e+17
19178.0	4.7316771924869114e+17
19179.0	4.730644484937045e+17
19180.0	4.72994639057169e+17
19181.0	4.7289650478667085e+17
19182.0	4.7281899957125114e+17
19183.0	4.7273439444773536e+17
19184.0	4.7264514678893216e+17
19185.0	4.725579883828564e+17
19186.0	4.7247114538844154e+17
19187.0	4.723769500587348e+17
19188.0	4.722947782606847e+17
19189.0	4.7220653143272096e+17
19190.0	4.721178874740734e+17
19191.0	4.7202745932840954e+17
19192.0	4.71944946463539e+17
19193.0	4.7185525078316365e+17
19194.0	4.7176717717995514e+17
19195.0	4.716819693349545e+17
19196.0	4.7159262345953274e+17
19197.0	4.7150554404618234e+17
19198.0	4.7141734097879034e+17
19199.0	4.6996634702533926e+17
19200.0	4.7029808186873216e+17
19201.0	4.7115492637627725e+17
19202.0	4.71068610466065e+17
19203.0	4.7097718218861216e+17
19204.0	4.708905219959466e+17
19205.0	4.708051812614143e+17
19206.0	4.707171832954879e+17
19207.0	4.706191705899007e+17
19208.0	4.705206002515966e+17
19209.0	4.70455223006003e+17
19210.0	4.703676098674687e+17
19211.0	4.7028134792396794e+17
19212.0	4.701935726755839e+17
19213.0	4.700871891877887e+17
19214.0	4.6999130397300045e+17
19215.0	4.6992594224633165e+17
19216.0	4.698438391649621e+17
19217.0	4.69756018688e+17
19218.0	4.695849356842323e+17
19219.0	4.6956785515014803e+17
19220.0	4.6949103444514125e+17
19221.0	4.6937382797530445e+17
19222.0	4.693179967558998e+17
19223.0	4.692298238874966e+17
19224.0	4.691399167442943e+17
19225.0	4.690417489193642e+17
19226.0	4.689676236838229e+17
19227.0	4.6888012400121165e+17
19228.0	4.687949183931734e+17
19229.0	4.687074678538239e+17
19230.0	4.6861795923940685e+17
19231.0	4.6853050122021536e+17
19232.0	4.6844399090401274e+17
19233.0	4.683509243314175e+17
19234.0	4.6826811409039354e+17
19235.0	4.6817995107860486e+17
19236.0	4.680956758370985e+17
19237.0	4.680066843104597e+17
19238.0	4.67909730177297e+17
19239.0	4.678335852445695e+17
19240.0	4.677431272494419e+17
19241.0	4.6765584657940474e+17
19242.0	4.675696269983743e+17
19243.0	4.6746930323128294e+17
19244.0	4.673967176548351e+17
19245.0	4.673088760665428e+17
19246.0	4.6722014885096096e+17
19247.0	4.671336624422911e+17
19248.0	4.670467369598975e+17
19249.0	4.66958315369267e+17
19250.0	4.668691887161343e+17
19251.0	4.6677061152713376e+17
19252.0	4.666728589382997e+17
19253.0	4.666074190577663e+17
19254.0	4.6652191775129594e+17
19255.0	4.6641889473986554e+17
19256.0	4.6634221489356794e+17
19257.0	4.662600504355497e+17
19258.0	4.6617263806436685e+17
19259.0	4.660789076732585e+17
19260.0	4.65949652366131e+17
19261.0	4.659086775113044e+17
19262.0	4.6581697835171834e+17
19263.0	4.6572787239048525e+17
19264.0	4.655901991152297e+17
19265.0	4.655382500037972e+17
19266.0	4.654437463927466e+17
19267.0	4.653847458873343e+17
19268.0	4.6529643621471565e+17
19269.0	4.652090532735657e+17
19270.0	4.651215147237375e+17
19271.0	4.649981508059136e+17
19272.0	4.6494281409495034e+17
19273.0	4.647458328018942e+17
19274.0	4.646908919633236e+17
19275.0	4.6468305903069856e+17
19276.0	4.645932714950655e+17
19277.0	4.645059954387626e+17
19278.0	4.6441811708040525e+17
19279.0	4.6432750592327674e+17
19280.0	4.6423413757050874e+17
19281.0	4.641539150053375e+17
19282.0	4.6406772939816954e+17
19283.0	4.6395783478859085e+17
19284.0	4.6387772288314016e+17
19285.0	4.637859143221247e+17
19286.0	4.637118430532949e+17
19287.0	4.6362698333552634e+17
19288.0	4.628333011315362e+17
19289.0	4.619661558327958e+17
19290.0	4.6336229800673274e+17
19291.0	4.6324999125292365e+17
19292.0	4.6318567020298234e+17
19293.0	4.6309654271098874e+17
19294.0	4.630078008852479e+17
19295.0	4.6292021682722125e+17
19296.0	4.6282779114427725e+17
19297.0	4.627391027959124e+17
19298.0	4.6265126470287354e+17
19299.0	4.6256160446436685e+17
19300.0	4.6247546765093536e+17
19301.0	4.6238693064703994e+17
19302.0	4.622966149087231e+17
19303.0	4.6220149438545914e+17
19304.0	4.621164613031253e+17
19305.0	4.620288856337065e+17
19306.0	4.6193963811471354e+17
19307.0	4.618458534073685e+17
19308.0	4.6175848738324474e+17
19309.0	4.6161883747232416e+17
19310.0	4.6151458895517e+17
19311.0	4.6148371720000845e+17
19312.0	4.614024441714004e+17
19313.0	4.6131318504816634e+17
19314.0	4.576666323342707e+17
19315.0	4.577956782058181e+17
19316.0	4.610341269580458e+17
19317.0	4.609517467729918e+17
19318.0	4.6086094044091725e+17
19319.0	4.607718948776619e+17
19320.0	4.606792827579051e+17
19321.0	4.6058729579915936e+17
19322.0	4.60488337068305e+17
19323.0	4.603855611712853e+17
19324.0	4.603146850533375e+17
19325.0	4.601744240323242e+17
19326.0	4.601329214641491e+17
19327.0	4.600395385012222e+17
19328.0	4.599428914610175e+17
19329.0	4.598571062001664e+17
19330.0	4.597607997374464e+17
19331.0	4.596675446308864e+17
19332.0	4.5957808907441485e+17
19333.0	4.5948387549948576e+17
19334.0	4.5939208015052794e+17
19335.0	4.5928683793285114e+17
19336.0	4.592039240925183e+17
19337.0	4.5911083857565e+17
19338.0	4.589962903857834e+17
19339.0	4.5892172796395514e+17
19340.0	4.5881128592779936e+17
19341.0	4.587220348436479e+17
19342.0	4.585942032930131e+17
19343.0	4.5854089306002765e+17
19344.0	4.5844043116052474e+17
19345.0	4.5814471958637184e+17
19346.0	4.5815245325380243e+17
19347.0	4.581421756710911e+17
19348.0	4.580579715929428e+17
19349.0	4.5795595129978874e+17
19350.0	4.5785617097468576e+17
19351.0	4.577591467267412e+17
19352.0	4.576499271903914e+17
19353.0	4.5756399331136845e+17
19354.0	4.5746428638658554e+17
19355.0	4.573541641661098e+17
19356.0	4.572623073705983e+17
19357.0	4.5716082275997e+17
19358.0	4.570569121639082e+17
19359.0	4.569467605833045e+17
19360.0	4.5684328067235834e+17
19361.0	4.5674418877235194e+17
19362.0	4.566436548706302e+17
19363.0	4.5653800475688966e+17
19364.0	4.564315559777621e+17
19365.0	4.5632498129960954e+17
19366.0	4.562172301191849e+17
19367.0	4.561087403917311e+17
19368.0	4.559994703140181e+17
19369.0	4.558823310928553e+17
19370.0	4.5576499753560723e+17
19371.0	4.55660671074304e+17
19372.0	4.555523677836628e+17
19373.0	4.5543569510891514e+17
19374.0	4.5532212426178554e+17
19375.0	4.5520583990968314e+17
19376.0	4.55088420229393e+17
19377.0	4.5496829732017485e+17
19378.0	4.548482765422591e+17
19379.0	4.5472684046636365e+17
19380.0	4.546036494237695e+17
19381.0	4.544785828981417e+17
19382.0	4.543460398858239e+17
19383.0	4.542135507004074e+17
19384.0	4.540942010111317e+17
19385.0	4.539633901764606e+17
19386.0	4.538305112003925e+17
19387.0	4.5369493025368736e+17
19388.0	4.5355783425447245e+17
19389.0	4.53418246419251e+17
19390.0	4.532761552136874e+17
19391.0	4.510252633773369e+17
19392.0	4.529268696547324e+17
19393.0	4.5283752266082976e+17
19394.0	4.526843184371029e+17
19395.0	4.525255745164629e+17
19396.0	4.523698167305557e+17
19397.0	4.522143797389994e+17
19398.0	4.5204592754251085e+17
19399.0	4.5180577371914234e+17
19400.0	4.5170456551314765e+17
19401.0	4.5154053124696736e+17
19402.0	4.513645360840702e+17
19403.0	4.511822462495402e+17
19404.0	4.5099977557060256e+17
19405.0	4.50810473419025e+17
19406.0	4.5061969682978125e+17
19407.0	4.5042215748457805e+17
19408.0	4.501244722107734e+17
19409.0	4.49968984817664e+17
19410.0	4.497615888580607e+17
19411.0	4.4954708103659514e+17
19412.0	4.493270851081555e+17
19413.0	4.491012334419968e+17
19414.0	4.488708003375787e+17
19415.0	4.4863942819839994e+17
19416.0	4.4837785818890234e+17
19417.0	4.4813085541662714e+17
19418.0	4.479068428129622e+17
19419.0	4.4764911946956794e+17
19420.0	4.4738883235785376e+17
19421.0	4.470921430215338e+17
19422.0	4.46754773340433e+17
19423.0	4.4647500990818976e+17
19424.0	4.4618471192221005e+17
19425.0	4.4588525665211725e+17
19426.0	4.4546240223204685e+17
19427.0	4.451157772599296e+17
19428.0	4.447146404566358e+17
19429.0	4.4424364164819616e+17
19430.0	4.4365626320704864e+17
19431.0	4.4272511967996646e+17
19432.0	4.42322390928589e+17
19433.0	4.4130855075621536e+17
19434.0	4.39867151972215e+17
19435.0	4.3766128633883264e+17
19436.0	4.355143668946256e+17
19437.0	4.345462990918996e+17
19438.0	4.295038449571172e+17
19439.0	4.3165761572700166e+17
19440.0	4.3032424054347085e+17
19441.0	4.2866502099708595e+17
19442.0	4.268070886790484e+17
19443.0	4.2447071091534554e+17
19444.0	4.20485377556479e+17
19445.0	4.128424776608431e+17
19446.0	4.073998607799636e+17
19447.0	4.015369389867004e+17
19448.0	3.93842855510016e+17
19449.0	3.7557627256832e+17
19450.0	3.2751722451435546e+17
19451.0	3.0771946566887955e+17
19452.0	3.572735181586459e+17
19453.0	3.8589256458130726e+17
19454.0	3.979927000973311e+17
19455.0	4.040890563690496e+17
19456.0	4.094013707649026e+17
19457.0	4.159653927714827e+17
19458.0	4.1196746405752634e+17
19459.0	4.2388365417731757e+17
19460.0	4.2642354830923085e+17
19461.0	4.2804446246557e+17
19462.0	4.294424975988053e+17
19463.0	4.3078224365049146e+17
19464.0	4.319463623098367e+17
19465.0	4.3297385508154016e+17
19466.0	4.342000191012863e+17
19467.0	4.36400878553225e+17
19468.0	4.380005442955951e+17
19469.0	4.389540632461306e+17
19470.0	4.397110364121769e+17
19471.0	4.4026180249408864e+17
19472.0	4.406661140359849e+17
19473.0	4.409326353514498e+17
19474.0	4.412773456237909e+17
19475.0	4.413578138353663e+17
19476.0	4.416749682294783e+17
19477.0	4.4187443150192634e+17
19478.0	4.4200811732227405e+17
19479.0	4.421266305275221e+17
19480.0	4.42247781949986e+17
19481.0	4.4243511480593056e+17
19482.0	4.425397187903487e+17
19483.0	4.4263749465757e+17
19484.0	4.427255570759679e+17
19485.0	4.428035441470123e+17
19486.0	4.4287718864541005e+17
19487.0	4.4295706259401376e+17
19488.0	4.430245221018281e+17
19489.0	4.430703526324906e+17
19490.0	4.429935404559016e+17
19491.0	4.431908444307455e+17
19492.0	4.4324149582452045e+17
19493.0	4.432835277138602e+17
19494.0	4.433328637739007e+17
19495.0	4.4339807946888525e+17
19496.0	4.433805464393044e+17
19497.0	4.434477742817279e+17
19498.0	4.4313274646964883e+17
19499.0	4.401768679079929e+17
19500.0	4.434998187436714e+17
19501.0	4.4350845928953165e+17
19502.0	4.435127224500223e+17
19503.0	4.4351708802143565e+17
19504.0	4.435154171505321e+17
19505.0	4.4351102669291514e+17
19506.0	4.435045204885504e+17
19507.0	4.434918014713855e+17
19508.0	4.4348121574714016e+17
19509.0	4.43465179804467e+17
19510.0	4.4342459963364685e+17
19511.0	4.373157473419246e+17
19512.0	4.4282598108692435e+17
19513.0	4.424360081227762e+17
19514.0	4.4263715198293216e+17
19515.0	4.432522648398506e+17
19516.0	4.432858053607423e+17
19517.0	4.4324817294677325e+17
19518.0	4.4321870838060365e+17
19519.0	4.4317966276580685e+17
19520.0	4.431366683536043e+17
19521.0	4.4310392391161165e+17
19522.0	4.4305805318553594e+17
19523.0	4.430172816845481e+17
19524.0	4.429707018414761e+17
19525.0	4.4292662201330336e+17
19526.0	4.4288077952887456e+17
19527.0	4.4283163857387514e+17
19528.0	4.4278115942618445e+17
19529.0	4.427298746226006e+17
19530.0	4.426800779580757e+17
19531.0	4.426271930275157e+17
19532.0	4.425733311037438e+17
19533.0	4.425185301452116e+17
19534.0	4.4246250507905696e+17
19535.0	4.4240486038241274e+17
19536.0	4.4234484464571725e+17
19537.0	4.422907386833578e+17
19538.0	4.422136767359659e+17
19539.0	4.4211608255201286e+17
19540.0	4.4210902556562765e+17
19541.0	4.4204938424046925e+17
19542.0	4.419879745268394e+17
19543.0	4.4192178813009914e+17
19544.0	4.4186319496151034e+17
19545.0	4.417467076749993e+17
19546.0	4.4164533917668685e+17
19547.0	4.416724073272659e+17
19548.0	4.416070523813887e+17
19549.0	4.4153293909961376e+17
19550.0	4.4147608761576096e+17
19551.0	4.414100890539349e+17
19552.0	4.413432746999807e+17
19553.0	4.412735245429418e+17
19554.0	4.412047008377514e+17
19555.0	4.4113881251621536e+17
19556.0	4.4107233098028365e+17
19557.0	4.4100366141576525e+17
19558.0	4.409346888127828e+17
19559.0	4.408654233075711e+17
19560.0	4.4079216042093216e+17
19561.0	4.407238052894036e+17
19562.0	4.4065407442616314e+17
19563.0	4.405861424999081e+17
19564.0	4.4051553649513805e+17
19565.0	4.404446555537407e+17
19566.0	4.4037047460386125e+17
19567.0	4.4030201468463776e+17
19568.0	4.4022825449335456e+17
19569.0	4.4015658411403936e+17
19570.0	4.4008677013367456e+17
19571.0	4.400138065805311e+17
19572.0	4.399390326259712e+17
19573.0	4.3986652862873594e+17
19574.0	4.3978838783645005e+17
19575.0	4.397237404696576e+17
19576.0	4.396500516514474e+17
19577.0	4.395729658664277e+17
19578.0	4.3949936974233594e+17
19579.0	4.39427788771601e+17
19580.0	4.393539735650302e+17
19581.0	4.392812043479723e+17
19582.0	4.3920894327084365e+17
19583.0	4.391348327852714e+17
19584.0	4.3905890036394656e+17
19585.0	4.389763956779689e+17
19586.0	4.389010069782528e+17
19587.0	4.3883138747378336e+17
19588.0	4.387164629849429e+17
19589.0	4.38688476631313e+17
19590.0	4.3860330387865594e+17
19591.0	4.385399404582228e+17
19592.0	4.384655388180479e+17
19593.0	4.383882785499817e+17
19594.0	4.382915680359765e+17
19595.0	4.3823502210717005e+17
19596.0	4.380850351942314e+17
19597.0	4.380841222340608e+17
19598.0	4.3796346441127245e+17
19599.0	4.3793725665225376e+17
19600.0	4.378623515557887e+17
19601.0	4.3777980429762554e+17
19602.0	4.377048965447678e+17
19603.0	4.375706924482559e+17
19604.0	4.375507979556181e+17
19605.0	4.374537241449813e+17
19606.0	4.374058635711828e+17
19607.0	4.3733055938669216e+17
19608.0	4.3725245424599034e+17
19609.0	4.3717286935483725e+17
19610.0	4.370992746987519e+17
19611.0	4.3702106414120954e+17
19612.0	4.3694905318440954e+17
19613.0	4.368716077378218e+17
19614.0	4.3679241095959885e+17
19615.0	4.367188137869312e+17
19616.0	4.366222842571433e+17
19617.0	4.3656210522221216e+17
19618.0	4.364272017255081e+17
19619.0	4.363379449790463e+17
19620.0	4.362641953434281e+17
19621.0	4.362555136234838e+17
19622.0	4.361831794955604e+17
19623.0	4.3610615201136634e+17
19624.0	4.360279864027818e+17
19625.0	4.3595265139015674e+17
19626.0	4.3587545242883405e+17
19627.0	4.357987588811435e+17
19628.0	4.356860274540544e+17
19629.0	4.3562514167889914e+17
19630.0	4.3545658392576e+17
19631.0	4.339315542152535e+17
19632.0	4.3541316470046714e+17
19633.0	4.3533050028141216e+17
19634.0	4.3526013062567245e+17
19635.0	4.351788227843413e+17
19636.0	4.3510038279837e+17
19637.0	4.349924058245802e+17
19638.0	4.349501377260202e+17
19639.0	4.348734589282985e+17
19640.0	4.347816089135787e+17
19641.0	4.3460279021513395e+17
19642.0	4.34642333274385e+17
19643.0	4.3456436214169594e+17
19644.0	4.34482767409971e+17
19645.0	4.34383020569395e+17
19646.0	4.3432963246216525e+17
19647.0	4.342575026667519e+17
19648.0	4.341802824542891e+17
19649.0	4.3410272467025914e+17
19650.0	4.3402615317681485e+17
19651.0	4.33948548206865e+17
19652.0	4.3387104921299616e+17
19653.0	4.337936552165375e+17
19654.0	4.3371664562804045e+17
19655.0	4.3363896676843514e+17
