# Flux units: erg / (cm m2 s)
# Wavelength units: Angstrom
wave	flux
19000.0	6.902234657499818e+17
19001.0	6.900879609997993e+17
19002.0	6.899685802027689e+17
19003.0	6.89840876228881e+17
19004.0	6.897131721151827e+17
19005.0	6.895857798479871e+17
19006.0	6.894581019486889e+17
19007.0	6.89327327744273e+17
19008.0	6.891977517126998e+17
19009.0	6.890690290122751e+17
19010.0	6.889085221557587e+17
19011.0	6.888162062936745e+17
19012.0	6.886708073201663e+17
19013.0	6.885623549919231e+17
19014.0	6.884298646181204e+17
19015.0	6.883036124326569e+17
19016.0	6.881747097965908e+17
19017.0	6.880507795778217e+17
19018.0	6.879212560449535e+17
19019.0	6.877941284383401e+17
19020.0	6.876646070725289e+17
19021.0	6.875381972511401e+17
19022.0	6.874110974667433e+17
19023.0	6.872907716231167e+17
19024.0	6.87166582825506e+17
19025.0	6.870393269430952e+17
19026.0	6.869083648338601e+17
19027.0	6.867686284503721e+17
19028.0	6.866547984651604e+17
19029.0	6.865261983782228e+17
19030.0	6.863992110011731e+17
19031.0	6.862708320938666e+17
19032.0	6.861424076783615e+17
19033.0	6.860065612322132e+17
19034.0	6.858839857037311e+17
19035.0	6.857505198047231e+17
19036.0	6.846147243016187e+17
19037.0	6.854966034912596e+17
19038.0	6.853694166750548e+17
19039.0	6.852432970995028e+17
19040.0	6.851149320333994e+17
19041.0	6.849864775587156e+17
19042.0	6.848492932694013e+17
19043.0	6.84729554768145e+17
19044.0	6.845999746121727e+17
19045.0	6.844718754649427e+17
19046.0	6.843398554823337e+17
19047.0	6.842143154896895e+17
19048.0	6.840697067230546e+17
19049.0	6.839501673813334e+17
19050.0	6.8382563514013e+17
19051.0	6.835373308466514e+17
19052.0	6.835478856029523e+17
19053.0	6.834428063339862e+17
19054.0	6.833152038622548e+17
19055.0	6.831655677329407e+17
19056.0	6.830561365240489e+17
19057.0	6.829287499191636e+17
19058.0	6.827981350982996e+17
19059.0	6.826716759938387e+17
19060.0	6.825416869631316e+17
19061.0	6.824149664836265e+17
19062.0	6.822859156488191e+17
19063.0	6.821574165747027e+17
19064.0	6.820189676328276e+17
19065.0	6.818858150483284e+17
19066.0	6.817662597682516e+17
19067.0	6.81642964357393e+17
19068.0	6.815143098144084e+17
19069.0	6.813857290911743e+17
19070.0	6.812550665950548e+17
19071.0	6.811278890762239e+17
19072.0	6.809991424682665e+17
19073.0	6.808706430446249e+17
19074.0	6.807423975161855e+17
19075.0	6.806137191355731e+17
19076.0	6.804833449978537e+17
19077.0	6.803553101632852e+17
19078.0	6.802255441297407e+17
19079.0	6.800988803432447e+17
19080.0	6.799690374840319e+17
19081.0	6.798380162351101e+17
19082.0	6.797092880121855e+17
19083.0	6.795752716806826e+17
19084.0	6.794364516128084e+17
19085.0	6.793266344580435e+17
19086.0	6.791653094326271e+17
19087.0	6.790410303875753e+17
19088.0	6.789311705208148e+17
19089.0	6.787824283374932e+17
19090.0	6.786797184308563e+17
19091.0	6.785520437471914e+17
19092.0	6.784146770056531e+17
19093.0	6.782971694546943e+17
19094.0	6.781685279140522e+17
19095.0	6.780398616969215e+17
19096.0	6.779101315945812e+17
19097.0	6.777826766924458e+17
19098.0	6.776536927567871e+17
19099.0	6.775249384592723e+17
19100.0	6.77394824368401e+17
19101.0	6.772681096211113e+17
19102.0	6.771315623766697e+17
19103.0	6.770109377587881e+17
19104.0	6.768822484729856e+17
19105.0	6.767522191070548e+17
19106.0	6.766197906691412e+17
19107.0	6.764943721015977e+17
19108.0	6.763662442233855e+17
19109.0	6.76156976276002e+17
19110.0	6.761056785399807e+17
19111.0	6.759810639506089e+17
19112.0	6.758526318455465e+17
19113.0	6.757244783820799e+17
19114.0	6.755957196805459e+17
19115.0	6.754615673137834e+17
19116.0	6.753366958931968e+17
19117.0	6.752080993015123e+17
19118.0	6.750702497256788e+17
19119.0	6.746212620653903e+17
19120.0	6.748139402122579e+17
19121.0	6.746890442549929e+17
19122.0	6.745668680941565e+17
19123.0	6.74438226833135e+17
19124.0	6.743040715303593e+17
19125.0	6.741804518298963e+17
19126.0	6.740513851965439e+17
19127.0	6.737847246301865e+17
19128.0	6.737763963502591e+17
19129.0	6.736594850895187e+17
19130.0	6.735364875441491e+17
19131.0	6.734090874475859e+17
19132.0	6.732803216856404e+17
19133.0	6.731415840358399e+17
19134.0	6.730143266155177e+17
19135.0	6.728941368071508e+17
19136.0	6.727662084379987e+17
19137.0	6.726247214219264e+17
19138.0	6.725075011807914e+17
19139.0	6.72380309611042e+17
19140.0	6.722518460486995e+17
19141.0	6.721232178599251e+17
19142.0	6.719925603270655e+17
19143.0	6.71861580042513e+17
19144.0	6.717343379314004e+17
19145.0	6.716085821418153e+17
19146.0	6.714318174639444e+17
19147.0	6.713439625936895e+17
19148.0	6.712218413083305e+17
19149.0	6.710932673658879e+17
19150.0	6.709647651460436e+17
19151.0	6.708367577142612e+17
19152.0	6.707067523956735e+17
19153.0	6.705768389323433e+17
19154.0	6.704404495335423e+17
19155.0	6.703218151828138e+17
19156.0	6.701926197843284e+17
19157.0	6.700604273459199e+17
19158.0	6.698823442584915e+17
19159.0	6.69803697213713e+17
19160.0	6.696759047400105e+17
19161.0	6.695464935445844e+17
19162.0	6.692937983328255e+17
19163.0	6.692854875291647e+17
19164.0	6.69162938704418e+17
19165.0	6.690312379083433e+17
19166.0	6.688939981144061e+17
19167.0	6.687650622734335e+17
19168.0	6.686466010775551e+17
19169.0	6.685166274259625e+17
19170.0	6.681737970406739e+17
19171.0	6.680304513187837e+17
19172.0	6.679077424114346e+17
19173.0	6.677798544474111e+17
19174.0	6.67647137161762e+17
19175.0	6.675229818486783e+17
19176.0	6.673942220286633e+17
19177.0	6.672530860758358e+17
19178.0	6.671327540805632e+17
19179.0	6.669975522989396e+17
19180.0	6.668770117069481e+17
19181.0	6.667407913385983e+17
19182.0	6.666200241842858e+17
19183.0	6.664924387693907e+17
19184.0	6.663625160785919e+17
19185.0	6.662342692219561e+17
19186.0	6.66105637118498e+17
19187.0	6.659708693774335e+17
19188.0	6.658475629914793e+17
19189.0	6.657182430221651e+17
19190.0	6.655884662232403e+17
19191.0	6.654568421130239e+17
19192.0	6.653315459492521e+17
19193.0	6.651990038457001e+17
19194.0	6.650679688953855e+17
19195.0	6.649395480450388e+17
19196.0	6.648085431539027e+17
19197.0	6.646770333384703e+17
19198.0	6.645374125779625e+17
19199.0	6.636548046280018e+17
19200.0	6.637477709567318e+17
19201.0	6.641515228386643e+17
19202.0	6.640318637495635e+17
19203.0	6.639028874335572e+17
19204.0	6.63774420935202e+17
19205.0	6.636465558301353e+17
19206.0	6.635173328890537e+17
19207.0	6.633812948331178e+17
19208.0	6.632424278589437e+17
19209.0	6.631291430633472e+17
19210.0	6.629999478046719e+17
19211.0	6.628710604079104e+17
19212.0	6.627412777369599e+17
19213.0	6.625992846082047e+17
19214.0	6.624661295770282e+17
19215.0	6.623366035275773e+17
19216.0	6.62093282026018e+17
19217.0	6.619632147715412e+17
19218.0	6.617687304874665e+17
19219.0	6.616905202794495e+17
19220.0	6.615713329796435e+17
19221.0	6.614178731829929e+17
19222.0	6.61312281719603e+17
19223.0	6.611808538329087e+17
19224.0	6.610484743285417e+17
19225.0	6.609106575381844e+17
19226.0	6.607096711741437e+17
19227.0	6.605246530846719e+17
19228.0	6.603964499886079e+17
19229.0	6.602657904984063e+17
19230.0	6.601341578597716e+17
19231.0	6.60003298021649e+17
19232.0	6.598728998365865e+17
19233.0	6.597370160611327e+17
19234.0	6.596098855884116e+17
19235.0	6.594789385786708e+17
19236.0	6.593496104304639e+17
19237.0	6.592171774487209e+17
19238.0	6.590789016616959e+17
19239.0	6.589559516517716e+17
19240.0	6.588222742899369e+17
19241.0	6.586905037985108e+17
19242.0	6.585600345899007e+17
19243.0	6.584161513679529e+17
19244.0	6.582980035564884e+17
19245.0	6.581656103507284e+17
19246.0	6.580326681105748e+17
19247.0	6.579019702424916e+17
19248.0	6.577698624591188e+17
19249.0	6.57637379285538e+17
19250.0	6.575034580948308e+17
19251.0	6.573637710643199e+17
19252.0	6.572164323650217e+17
19253.0	6.571052449311401e+17
19254.0	6.569740057182207e+17
19255.0	6.568258701710676e+17
19256.0	6.567058389772969e+17
19257.0	6.565749829140479e+17
19258.0	6.56441526592034e+17
19259.0	6.563020002033663e+17
19260.0	6.561550919794687e+17
19261.0	6.560394032185343e+17
19262.0	6.559017335084371e+17
19263.0	6.557675552068947e+17
19264.0	6.555958712292691e+17
19265.0	6.554882009989117e+17
19266.0	6.553538358411264e+17
19267.0	6.552344506400767e+17
19268.0	6.55099541201442e+17
19269.0	6.549644261720063e+17
19270.0	6.548288273296041e+17
19271.0	6.546673966077268e+17
19272.0	6.545550022628692e+17
19273.0	6.543433591510356e+17
19274.0	6.542268369818963e+17
19275.0	6.541498596196351e+17
19276.0	6.540119891421865e+17
19277.0	6.538713541290665e+17
19278.0	6.535634232890707e+17
19279.0	6.534250127949823e+17
19280.0	6.532822093266943e+17
19281.0	6.531495460077567e+17
19282.0	6.530123817811967e+17
19283.0	6.528638308581375e+17
19284.0	6.527270650904575e+17
19285.0	6.525816611536895e+17
19286.0	6.524539332722687e+17
19287.0	6.523168667030868e+17
19288.0	6.519132313529e+17
19289.0	6.513712133308403e+17
19290.0	6.51896415129873e+17
19291.0	6.517357530142036e+17
19292.0	6.516156515658409e+17
19293.0	6.514737435115519e+17
19294.0	6.513317234693459e+17
19295.0	6.511906124726271e+17
19296.0	6.510476129206271e+17
19297.0	6.509042874712063e+17
19298.0	6.507599777584467e+17
19299.0	6.506180443985236e+17
19300.0	6.504745987822931e+17
19301.0	6.503298141345108e+17
19302.0	6.501844528398335e+17
19303.0	6.500341697391274e+17
19304.0	6.497603843085651e+17
19305.0	6.495135518949376e+17
19306.0	6.493664277342889e+17
19307.0	6.492145171038205e+17
19308.0	6.490676343952723e+17
19309.0	6.488947411298985e+17
19310.0	6.48735195398144e+17
19311.0	6.486165249764009e+17
19312.0	6.484708828730708e+17
19313.0	6.48320418648337e+17
19314.0	6.473145454865065e+17
19315.0	6.472284464917175e+17
19316.0	6.47860052959778e+17
19317.0	6.477100966652585e+17
19318.0	6.475555624976383e+17
19319.0	6.474023542194175e+17
19320.0	6.469941147817297e+17
19321.0	6.467897212447401e+17
19322.0	6.466237082457427e+17
19323.0	6.464606455201792e+17
19324.0	6.463102204422825e+17
19325.0	6.4612728321693e+17
19326.0	6.45987079168546e+17
19327.0	6.458242028098902e+17
19328.0	6.456607923066195e+17
19329.0	6.454972013084671e+17
19330.0	6.452670574013094e+17
19331.0	6.447873135389353e+17
19332.0	6.446200785294675e+17
19333.0	6.444478401347583e+17
19334.0	6.442754002736468e+17
19335.0	6.440994696331263e+17
19336.0	6.439258624273065e+17
19337.0	6.437491777208319e+17
19338.0	6.434444272817498e+17
19339.0	6.429358502357673e+17
19340.0	6.42745159909376e+17
19341.0	6.425631415861247e+17
19342.0	6.423483259027455e+17
19343.0	6.421887642326356e+17
19344.0	6.41978077282304e+17
19345.0	6.411075833211558e+17
19346.0	6.409978139115519e+17
19347.0	6.408501560257193e+17
19348.0	6.406521109173588e+17
19349.0	6.404355602601302e+17
19350.0	6.399120210132991e+17
19351.0	6.396969776491177e+17
19352.0	6.394748781374122e+17
19353.0	6.392614503492265e+17
19354.0	6.390388890446505e+17
19355.0	6.388061794817363e+17
19356.0	6.385852248752128e+17
19357.0	6.38354411557137e+17
19358.0	6.381199044553385e+17
19359.0	6.378786089424212e+17
19360.0	6.376397446578173e+17
19361.0	6.37399536378402e+17
19362.0	6.371584626043561e+17
19363.0	6.369110386540541e+17
19364.0	6.366601248331092e+17
19365.0	6.364057537871871e+17
19366.0	6.361477236304553e+17
19367.0	6.358860278617427e+17
19368.0	6.356203493916672e+17
19369.0	6.353463007685289e+17
19370.0	6.350688320400042e+17
19371.0	6.347945423142911e+17
19372.0	6.34516216619554e+17
19373.0	6.342279934159529e+17
19374.0	6.339380174127103e+17
19375.0	6.336416763434323e+17
19376.0	6.333409521565695e+17
19377.0	6.330347942488745e+17
19378.0	6.327240729384276e+17
19379.0	6.324060369016148e+17
19380.0	6.320785851416576e+17
19381.0	6.317467331373738e+17
19382.0	6.3140480956061e+17
19383.0	6.310625069585748e+17
19384.0	6.307263859217748e+17
19385.0	6.303786345693183e+17
19386.0	6.300273002326697e+17
19387.0	6.296720152810835e+17
19388.0	6.293135497188694e+17
19389.0	6.289516671969961e+17
19390.0	6.285856113426431e+17
19391.0	6.273885996930376e+17
19392.0	6.278161931872937e+17
19393.0	6.274530681028607e+17
19394.0	6.270629317006676e+17
19395.0	6.266612051782314e+17
19396.0	6.262542263386112e+17
19397.0	6.258435909047636e+17
19398.0	6.254232498514602e+17
19399.0	6.249500609871871e+17
19400.0	6.24565662392866e+17
19401.0	6.241339638633812e+17
19402.0	6.236929057445203e+17
19403.0	6.23229933785361e+17
19404.0	6.227389453434879e+17
19405.0	6.222741425706324e+17
19406.0	6.218026575025491e+17
19407.0	6.213229483829929e+17
19408.0	6.207816985477121e+17
19409.0	6.202940732385964e+17
19410.0	6.197355256042836e+17
19411.0	6.192166835585023e+17
19412.0	6.186878963286015e+17
19413.0	6.180260488587944e+17
19414.0	6.174367926277459e+17
19415.0	6.168125138184874e+17
19416.0	6.160393716804266e+17
19417.0	6.153421451864746e+17
19418.0	6.145027545759743e+17
19419.0	6.135453707141115e+17
19420.0	6.124924517220353e+17
19421.0	6.112380543740584e+17
19422.0	6.097500525385043e+17
19423.0	6.080009183690751e+17
19424.0	6.057907168739341e+17
19425.0	6.035385186516988e+17
19426.0	6.020198393970687e+17
19427.0	6.00689295228928e+17
19428.0	5.993070301893972e+17
19429.0	5.978713622227625e+17
19430.0	5.963657811503786e+17
19431.0	5.946864480288769e+17
19432.0	5.931443693114707e+17
19433.0	5.914469061711188e+17
19434.0	5.895703010912938e+17
19435.0	5.875922076958719e+17
19436.0	5.853780529293992e+17
19437.0	5.829789601147564e+17
19438.0	5.788062716701357e+17
19439.0	5.759862768839338e+17
19440.0	5.708152235010727e+17
19441.0	5.650887815637672e+17
19442.0	5.6079869811534515e+17
19443.0	5.5610692246787405e+17
19444.0	5.505751797727228e+17
19445.0	5.436380080155308e+17
19446.0	5.3476207634677734e+17
19447.0	5.230894955976008e+17
19448.0	5.084012048897373e+17
19449.0	4.878785985904642e+17
19450.0	4.529039283497614e+17
19451.0	4.38088210142547e+17
19452.0	4.722930959253508e+17
19453.0	4.993150219889331e+17
19454.0	5.158476955953824e+17
19455.0	5.287037782108835e+17
19456.0	5.387220673014445e+17
19457.0	5.46256281805346e+17
19458.0	5.506834232246297e+17
19459.0	5.5700448730589914e+17
19460.0	5.61206613263428e+17
19461.0	5.658462884549987e+17
19462.0	5.71469606577766e+17
19463.0	5.7572641164929734e+17
19464.0	5.789032539051351e+17
19465.0	5.813867225546751e+17
19466.0	5.834612632016211e+17
19467.0	5.853170400668329e+17
19468.0	5.869842938724351e+17
19469.0	5.885219985599145e+17
19470.0	5.900033322909695e+17
19471.0	5.913946969429332e+17
19472.0	5.926892393725951e+17
19473.0	5.939215614694739e+17
19474.0	5.951023347313322e+17
19475.0	5.961835687706621e+17
19476.0	5.973229153812481e+17
19477.0	5.991324354347007e+17
19478.0	6.010997096928596e+17
19479.0	6.027809446516061e+17
19480.0	6.041909513770327e+17
19481.0	6.053002107770194e+17
19482.0	6.062608111108092e+17
19483.0	6.070219219577514e+17
19484.0	6.075920370630657e+17
19485.0	6.082018608327337e+17
19486.0	6.086383409386838e+17
19487.0	6.091431554143572e+17
19488.0	6.094797032914944e+17
19489.0	6.098939103849129e+17
19490.0	6.101468250286761e+17
19491.0	6.105323416846333e+17
19492.0	6.108209736930644e+17
19493.0	6.111761392467967e+17
19494.0	6.114356715935059e+17
19495.0	6.116859223648938e+17
19496.0	6.119006900933972e+17
19497.0	6.12158119485986e+17
19498.0	6.123161472292182e+17
19499.0	6.113380885943628e+17
19500.0	6.128588753469439e+17
19501.0	6.130637084469929e+17
19502.0	6.132598682856105e+17
19503.0	6.134523423096832e+17
19504.0	6.136370312861012e+17
19505.0	6.138159825245524e+17
19506.0	6.139886544704852e+17
19507.0	6.141536321754454e+17
19508.0	6.143147757273087e+17
19509.0	6.14457564865058e+17
19510.0	6.145773104966312e+17
19511.0	6.131525229040969e+17
19512.0	6.146792095044945e+17
19513.0	6.14615036233864e+17
19514.0	6.1485379789783e+17
19515.0	6.151934225765718e+17
19516.0	6.153499862280874e+17
19517.0	6.154571955743402e+17
19518.0	6.155684789878783e+17
19519.0	6.156701113079126e+17
19520.0	6.157661657628672e+17
19521.0	6.158629697399465e+17
19522.0	6.159503205946708e+17
19523.0	6.160357806571519e+17
19524.0	6.161090979998378e+17
19525.0	6.161770818655572e+17
19526.0	6.162413229441023e+17
19527.0	6.162995458255529e+17
19528.0	6.163526963254611e+17
19529.0	6.164021547193684e+17
19530.0	6.164470214688768e+17
19531.0	6.164870211480233e+17
19532.0	6.165228487529812e+17
19533.0	6.165545764257791e+17
19534.0	6.165820240210601e+17
19535.0	6.166048421533012e+17
19536.0	6.166224587893417e+17
19537.0	6.166415342043136e+17
19538.0	6.166467045228541e+17
19539.0	6.166217715526314e+17
19540.0	6.166665049232724e+17
19541.0	6.166709171912703e+17
19542.0	6.166711513732436e+17
19543.0	6.166688628910762e+17
19544.0	6.166647246509396e+17
19545.0	6.166238525565608e+17
19546.0	6.165792739557376e+17
19547.0	6.166335184699391e+17
19548.0	6.166175906704042e+17
19549.0	6.165914874893652e+17
19550.0	6.165777946946217e+17
19551.0	6.165543607686484e+17
19552.0	6.165282777202687e+17
19553.0	6.167717367949992e+17
19554.0	6.167586427371517e+17
19555.0	6.167242275640659e+17
19556.0	6.166870504417962e+17
19557.0	6.166464013445801e+17
19558.0	6.169416748935845e+17
19559.0	6.170555696807933e+17
19560.0	6.170024292472148e+17
19561.0	6.169497187297962e+17
19562.0	6.168978669262163e+17
19563.0	6.168422217940991e+17
19564.0	6.168288281930408e+17
19565.0	6.17140426113024e+17
19566.0	6.170748525740031e+17
19567.0	6.170128374824959e+17
19568.0	6.16945312333824e+17
19569.0	6.168800244269055e+17
19570.0	6.168129031897087e+17
19571.0	6.167437830171306e+17
19572.0	6.166716496565588e+17
19573.0	6.168087634116607e+17
19574.0	6.168583806997843e+17
19575.0	6.167903898435583e+17
19576.0	6.167140659538601e+17
19577.0	6.166355650106708e+17
19578.0	6.165557044139348e+17
19579.0	6.164776666617171e+17
19580.0	6.163982436706986e+17
19581.0	6.163187532212906e+17
19582.0	6.162389995793065e+17
19583.0	6.161572244925098e+17
19584.0	6.160745106505727e+17
19585.0	6.162025240941911e+17
19586.0	6.161613018453332e+17
19587.0	6.160821659544233e+17
19588.0	6.159643122335743e+17
19589.0	6.159109039237801e+17
19590.0	6.158176629380436e+17
19591.0	6.157368295423999e+17
19592.0	6.156479410558292e+17
19593.0	6.155570803376128e+17
19594.0	6.154498731584169e+17
19595.0	6.153762104147967e+17
19596.0	6.152465697210367e+17
19597.0	6.151951249047551e+17
19598.0	6.150778407703892e+17
19599.0	6.150126269628415e+17
19600.0	6.149208720190121e+17
19601.0	6.148225654325247e+17
19602.0	6.147306223042559e+17
19603.0	6.147359079661564e+17
19604.0	6.147450848935936e+17
19605.0	6.146311402640724e+17
19606.0	6.145590887623338e+17
19607.0	6.144633657972052e+17
19608.0	6.143655579833684e+17
19609.0	6.142660359574868e+17
19610.0	6.141729440792576e+17
19611.0	6.140750147704148e+17
19612.0	6.139784679041706e+17
19613.0	6.138796962392746e+17
19614.0	6.137790748164095e+17
19615.0	6.136837250045267e+17
19616.0	6.135770484746921e+17
19617.0	6.134850741687636e+17
19618.0	6.133430307782655e+17
19619.0	6.132317054216873e+17
19620.0	6.13135455302451e+17
19621.0	6.130867962729812e+17
19622.0	6.129874917916671e+17
19623.0	6.128870692487165e+17
19624.0	6.127856004366333e+17
19625.0	6.126854368919551e+17
19626.0	6.125842339987455e+17
19627.0	6.124968811167743e+17
19628.0	6.123779346399232e+17
19629.0	6.122835988709375e+17
19630.0	6.121361739087872e+17
19631.0	6.112645216206847e+17
19632.0	6.119834710441983e+17
19633.0	6.118815786074111e+17
19634.0	6.117834500691284e+17
19635.0	6.11677777306146e+17
19636.0	6.116290694829399e+17
19637.0	6.115938929737727e+17
19638.0	6.115202653224959e+17
19639.0	6.114161952030719e+17
19640.0	6.113067284824064e+17
19641.0	6.111454323976876e+17
19642.0	6.111044381791572e+17
19643.0	6.109999546411689e+17
19644.0	6.10891440726562e+17
19645.0	6.107704749719551e+17
19646.0	6.106864845935955e+17
19647.0	6.105826253777578e+17
19648.0	6.104777763061759e+17
19649.0	6.103725590446079e+17
19650.0	6.102676540489727e+17
19651.0	6.101618997067776e+17
19652.0	6.100568921604096e+17
19653.0	6.099515041906687e+17
19654.0	6.098461137043455e+17
19655.0	6.097401121079295e+17
19656.0	6.096341881061375e+17
19657.0	6.095289215614975e+17
19658.0	6.094230075561299e+17
19659.0	6.093168802004991e+17
19660.0	6.092109283764906e+17
19661.0	6.091047599166806e+17
19662.0	6.089984828243968e+17
19663.0	6.088884528786089e+17
19664.0	6.087827520836948e+17
19665.0	6.086792811905024e+17
