# Flux units: erg / (cm m2 s)
# Wavelength units: Angstrom
wave	flux
19000.0	7.126622865282387e+17
19001.0	7.125329263635113e+17
19002.0	7.124135153674922e+17
19003.0	7.122830393780905e+17
19004.0	7.121526170757802e+17
19005.0	7.120222787993597e+17
19006.0	7.118917341631828e+17
19007.0	7.117608622314836e+17
19008.0	7.116272800803497e+17
19009.0	7.114888514109439e+17
19010.0	7.113459969119572e+17
19011.0	7.112360285525331e+17
19012.0	7.111006599075155e+17
19013.0	7.109768718756522e+17
19014.0	7.108422582053545e+17
19015.0	7.107130530900649e+17
19016.0	7.105832753124692e+17
19017.0	7.104547052148051e+17
19018.0	7.103232733435219e+17
19019.0	7.101928816596308e+17
19020.0	7.100611443032063e+17
19021.0	7.099318216075945e+17
19022.0	7.098011810616662e+17
19023.0	7.09667143548928e+17
19024.0	7.09538102710545e+17
19025.0	7.094083369566207e+17
19026.0	7.092767163416573e+17
19027.0	7.091449623478271e+17
19028.0	7.090155916973398e+17
19029.0	7.088846361591807e+17
19030.0	7.087549640780458e+17
19031.0	7.086239959569747e+17
19032.0	7.084929192034301e+17
19033.0	7.083550992673449e+17
19034.0	7.082283689312255e+17
19035.0	7.08085804957696e+17
19036.0	7.077982216650751e+17
19037.0	7.078284131041279e+17
19038.0	7.077040623364778e+17
19039.0	7.07576056652322e+17
19040.0	7.074454871299411e+17
19041.0	7.07314081403153e+17
19042.0	7.071762411945983e+17
19043.0	7.070528423941459e+17
19044.0	7.069209990616403e+17
19045.0	7.067905696290131e+17
19046.0	7.06656905269521e+17
19047.0	7.065249767926442e+17
19048.0	7.06387651924241e+17
19049.0	7.062591297814527e+17
19050.0	7.061308647494995e+17
19051.0	7.059765677697705e+17
19052.0	7.058621229694973e+17
19053.0	7.05741767975458e+17
19054.0	7.056116645800617e+17
19055.0	7.054625096772266e+17
19056.0	7.053478237044733e+17
19057.0	7.052184295658835e+17
19058.0	7.05086285222161e+17
19059.0	7.049567133848916e+17
19060.0	7.048251228291072e+17
19061.0	7.046949724575059e+17
19062.0	7.045637226190164e+17
19063.0	7.044324144797012e+17
19064.0	7.042953387529556e+17
19065.0	7.041583745946964e+17
19066.0	7.040351971136852e+17
19067.0	7.039090321697449e+17
19068.0	7.037781220698794e+17
19069.0	7.036471519914664e+17
19070.0	7.035147564089343e+17
19071.0	7.0338521609885e+17
19072.0	7.03254260420881e+17
19073.0	7.03123146547746e+17
19074.0	7.029923589914623e+17
19075.0	7.028613424261801e+17
19076.0	7.027295457902591e+17
19077.0	7.025981828453716e+17
19078.0	7.024671176960681e+17
19079.0	7.023374176529066e+17
19080.0	7.022055211226452e+17
19081.0	7.020723608485887e+17
19082.0	7.019428136878079e+17
19083.0	7.018053379642707e+17
19084.0	7.016654647765673e+17
19085.0	7.015515531422378e+17
19086.0	7.013923878338559e+17
19087.0	7.012868081145172e+17
19088.0	7.011523450896383e+17
19089.0	7.010132398090922e+17
19090.0	7.008943179388243e+17
19091.0	7.007644861246122e+17
19092.0	7.006307329856852e+17
19093.0	7.005045392408575e+17
19094.0	7.003738415824895e+17
19095.0	7.002430090073428e+17
19096.0	7.001115204430505e+17
19097.0	6.999810640270676e+17
19098.0	6.998501808406527e+17
19099.0	6.997192875879081e+17
19100.0	6.995884469736787e+17
19101.0	6.994570908095827e+17
19102.0	6.993218026952019e+17
19103.0	6.99196258787874e+17
19104.0	6.990655219826687e+17
19105.0	6.989337137425066e+17
19106.0	6.988032655054163e+17
19107.0	6.986716929851391e+17
19108.0	6.985402576186025e+17
19109.0	6.984031614795775e+17
19110.0	6.982771963243178e+17
19111.0	6.981490509698388e+17
19112.0	6.980187646328831e+17
19113.0	6.978884437628244e+17
19114.0	6.977574876654249e+17
19115.0	6.976239538885972e+17
19116.0	6.974940253257727e+17
19117.0	6.973629825460906e+17
19118.0	6.972221081081172e+17
19119.0	6.968480581899601e+17
19120.0	6.969666766722388e+17
19121.0	6.96840393658641e+17
19122.0	6.967115088483667e+17
19123.0	6.965809242963967e+17
19124.0	6.964485914886143e+17
19125.0	6.963179965906943e+17
19126.0	6.961797789646847e+17
19127.0	6.959671857031849e+17
19128.0	6.959162346263891e+17
19129.0	6.957890583658495e+17
19130.0	6.956649105326079e+17
19131.0	6.955356867526655e+17
19132.0	6.954049737850879e+17
19133.0	6.952710674841599e+17
19134.0	6.951435423274323e+17
19135.0	6.950132013247146e+17
19136.0	6.948822241858899e+17
19137.0	6.947449419595775e+17
19138.0	6.946199683377833e+17
19139.0	6.944910961803264e+17
19140.0	6.943608269002068e+17
19141.0	6.942302841514665e+17
19142.0	6.940978283107668e+17
19143.0	6.939665594580991e+17
19144.0	6.938352195119785e+17
19145.0	6.937077734178815e+17
19146.0	6.935339266473983e+17
19147.0	6.934425860308992e+17
19148.0	6.933156839380308e+17
19149.0	6.931852106050218e+17
19150.0	6.930548521959423e+17
19151.0	6.929243862029652e+17
19152.0	6.927936224843092e+17
19153.0	6.926603518301523e+17
19154.0	6.925266612562601e+17
19155.0	6.924007998401193e+17
19156.0	6.92270644924689e+17
19157.0	6.921387602083839e+17
19158.0	6.920051870750036e+17
19159.0	6.918772066265769e+17
19160.0	6.917472407344468e+17
19161.0	6.916157667803136e+17
19162.0	6.914743894452906e+17
19163.0	6.913519705041577e+17
19164.0	6.912256998637567e+17
19165.0	6.910948094072148e+17
19166.0	6.909590558649e+17
19167.0	6.908333846604457e+17
19168.0	6.907039975123625e+17
19169.0	6.905736831434751e+17
19170.0	6.904434669213012e+17
19171.0	6.903126658034346e+17
19172.0	6.901824165860692e+17
19173.0	6.900518030234963e+17
19174.0	6.899186284189012e+17
19175.0	6.897904966959101e+17
19176.0	6.896602626479444e+17
19177.0	6.895188715416233e+17
19178.0	6.893984168629587e+17
19179.0	6.892674997026815e+17
19180.0	6.891366857222826e+17
19181.0	6.890008186541396e+17
19182.0	6.888745987648169e+17
19183.0	6.887457513537535e+17
19184.0	6.886149593934505e+17
19185.0	6.884842371984041e+17
19186.0	6.883536506890921e+17
19187.0	6.882177331494911e+17
19188.0	6.88092009865762e+17
19189.0	6.87961488298257e+17
19190.0	6.878305539413331e+17
19191.0	6.876973671732563e+17
19192.0	6.875686349657428e+17
19193.0	6.874373809329492e+17
19194.0	6.873048990875647e+17
19195.0	6.871737202027178e+17
19196.0	6.870396401876991e+17
19197.0	6.869044526667091e+17
19198.0	6.867575947045545e+17
19199.0	6.86549755826449e+17
19200.0	6.864309537035604e+17
19201.0	6.863671674273791e+17
19202.0	6.862508725895167e+17
19203.0	6.861247670648831e+17
19204.0	6.859924569063423e+17
19205.0	6.858601550665044e+17
19206.0	6.857302702642516e+17
19207.0	6.855911001118036e+17
19208.0	6.854587085138601e+17
19209.0	6.853375137502547e+17
19210.0	6.852071487700991e+17
19211.0	6.850767817626964e+17
19212.0	6.8494546187933e+17
19213.0	6.848075097527636e+17
19214.0	6.846774000659113e+17
19215.0	6.845508834994857e+17
19216.0	6.844195650841257e+17
19217.0	6.842844139137705e+17
19218.0	6.841192085280084e+17
19219.0	6.840084678574079e+17
19220.0	6.838910978097152e+17
19221.0	6.837494082087593e+17
19222.0	6.836276113528148e+17
19223.0	6.83498499281169e+17
19224.0	6.833645446758399e+17
19225.0	6.832312978593107e+17
19226.0	6.831037349538474e+17
19227.0	6.829723953572521e+17
19228.0	6.828428932852393e+17
19229.0	6.827110176565929e+17
19230.0	6.825790800920575e+17
19231.0	6.824462038422868e+17
19232.0	6.823146815138474e+17
19233.0	6.821783594336255e+17
19234.0	6.820501665437011e+17
19235.0	6.819166680689321e+17
19236.0	6.817866648474963e+17
19237.0	6.816537438584831e+17
19238.0	6.815162395437738e+17
19239.0	6.813879241801727e+17
19240.0	6.812549537682771e+17
19241.0	6.811210117458602e+17
19242.0	6.809889321342291e+17
19243.0	6.808453173477375e+17
19244.0	6.807249266322089e+17
19245.0	6.805916019414356e+17
19246.0	6.804584618000383e+17
19247.0	6.803228335975081e+17
19248.0	6.801859618537471e+17
19249.0	6.800527724991828e+17
19250.0	6.799182090906281e+17
19251.0	6.797796974439081e+17
19252.0	6.796306341866153e+17
19253.0	6.795179261078185e+17
19254.0	6.793859392602111e+17
19255.0	6.792377493968211e+17
19256.0	6.791172247431849e+17
19257.0	6.789848223798612e+17
19258.0	6.788508322627581e+17
19259.0	6.787109676733779e+17
19260.0	6.785781708357631e+17
19261.0	6.784469770611369e+17
19262.0	6.783087831329449e+17
19263.0	6.781708861614761e+17
19264.0	6.780150243568297e+17
19265.0	6.778964522915156e+17
19266.0	6.777628017732266e+17
19267.0	6.776395187355647e+17
19268.0	6.775045688918015e+17
19269.0	6.773689987803818e+17
19270.0	6.772308143592787e+17
19271.0	6.77080843943936e+17
19272.0	6.769585673994239e+17
19273.0	6.768008712159231e+17
19274.0	6.766456246457684e+17
19275.0	6.765427141115903e+17
19276.0	6.764054836849321e+17
19277.0	6.76269311271458e+17
19278.0	6.761327480886612e+17
19279.0	6.759943146657108e+17
19280.0	6.7585508914845e+17
19281.0	6.757199223892649e+17
19282.0	6.755837229924351e+17
19283.0	6.754449543047849e+17
19284.0	6.753042460311552e+17
19285.0	6.751626739406163e+17
19286.0	6.750266875445247e+17
19287.0	6.74889344221184e+17
19288.0	6.746894021689343e+17
19289.0	6.745055406587901e+17
19290.0	6.744716435521535e+17
19291.0	6.743035043905536e+17
19292.0	6.74180150469154e+17
19293.0	6.740401211135316e+17
19294.0	6.738991482492244e+17
19295.0	6.737594954721961e+17
19296.0	6.736182592755027e+17
19297.0	6.734766558674943e+17
19298.0	6.733340755361792e+17
19299.0	6.73193864147763e+17
19300.0	6.730520786370559e+17
19301.0	6.729046006169599e+17
19302.0	6.727602122610003e+17
19303.0	6.726133830298281e+17
19304.0	6.724593131716607e+17
19305.0	6.723098381036202e+17
19306.0	6.721661817935187e+17
19307.0	6.720189837432148e+17
19308.0	6.718747956652713e+17
19309.0	6.717278309580799e+17
19310.0	6.715796869524138e+17
19311.0	6.714361870898516e+17
19312.0	6.712918380904447e+17
19313.0	6.711445266541226e+17
19314.0	6.70814490923281e+17
19315.0	6.70671690600721e+17
19316.0	6.706865150186836e+17
19317.0	6.705393182266708e+17
19318.0	6.703896465855827e+17
19319.0	6.702410026188799e+17
19320.0	6.700899904782335e+17
19321.0	6.699378949488639e+17
19322.0	6.697832093668691e+17
19323.0	6.696324402861395e+17
19324.0	6.694798796084563e+17
19325.0	6.693250654710441e+17
19326.0	6.691714141345108e+17
19327.0	6.690108128362496e+17
19328.0	6.688484852323667e+17
19329.0	6.686920437050025e+17
19330.0	6.685323423645695e+17
19331.0	6.683714216700585e+17
19332.0	6.682152283056809e+17
19333.0	6.680542041516713e+17
19334.0	6.678933497970687e+17
19335.0	6.677295705445716e+17
19336.0	6.675676153948842e+17
19337.0	6.674018654486527e+17
19338.0	6.672206133548371e+17
19339.0	6.670685815089834e+17
19340.0	6.66895813443584e+17
19341.0	6.667275464256169e+17
19342.0	6.66547150529058e+17
19343.0	6.663792386987348e+17
19344.0	6.661998131544063e+17
19345.0	6.65934724403473e+17
19346.0	6.657927075769001e+17
19347.0	6.656797007937535e+17
19348.0	6.65511572677154e+17
19349.0	6.653338824562004e+17
19350.0	6.651569272870228e+17
19351.0	6.6497704113821e+17
19352.0	6.647926806457001e+17
19353.0	6.646141708577449e+17
19354.0	6.644111405394601e+17
19355.0	6.642083609007444e+17
19356.0	6.640257053229055e+17
19357.0	6.638344367418026e+17
19358.0	6.636407820910591e+17
19359.0	6.634432851083263e+17
19360.0	6.632447317901311e+17
19361.0	6.630466341830656e+17
19362.0	6.628465793739434e+17
19363.0	6.626129575499091e+17
19364.0	6.624002833383423e+17
19365.0	6.621909284290559e+17
19366.0	6.619775897698303e+17
19367.0	6.617548388827135e+17
19368.0	6.615329469890559e+17
19369.0	6.613087832506367e+17
19370.0	6.610581143770452e+17
19371.0	6.608091751645183e+17
19372.0	6.605834319211178e+17
19373.0	6.603490825950548e+17
19374.0	6.601140358261418e+17
19375.0	6.598742564143104e+17
19376.0	6.596140211022505e+17
19377.0	6.59326381466146e+17
19378.0	6.590774823092223e+17
19379.0	6.588249869560489e+17
19380.0	6.585696215105535e+17
19381.0	6.582997938951507e+17
19382.0	6.579798449760937e+17
19383.0	6.576811596404052e+17
19384.0	6.574085079302143e+17
19385.0	6.57126522425617e+17
19386.0	6.568383452195497e+17
19387.0	6.565007326882473e+17
19388.0	6.561620427800575e+17
19389.0	6.558557842789716e+17
19390.0	6.555386027616937e+17
19391.0	6.550489431452328e+17
19392.0	6.548135144150355e+17
19393.0	6.544682936958975e+17
19394.0	6.541250728209066e+17
19395.0	6.537683696353279e+17
19396.0	6.534015604839763e+17
19397.0	6.530247435135658e+17
19398.0	6.525987449733119e+17
19399.0	6.521576557466964e+17
19400.0	6.517740221235199e+17
19401.0	6.513693724508159e+17
19402.0	6.509459943718911e+17
19403.0	6.505099400577023e+17
19404.0	6.500289717381801e+17
19405.0	6.495431751456084e+17
19406.0	6.490690343141375e+17
19407.0	6.485506972625578e+17
19408.0	6.47985776173602e+17
19409.0	6.47474671849745e+17
19410.0	6.46844679070242e+17
19411.0	6.462632074674173e+17
19412.0	6.456641980115626e+17
19413.0	6.450409217108649e+17
19414.0	6.443869013715625e+17
19415.0	6.436770719028564e+17
19416.0	6.428478026372435e+17
19417.0	6.421169533441363e+17
19418.0	6.413407223808e+17
19419.0	6.405214964460201e+17
19420.0	6.39666023965218e+17
19421.0	6.387725957595135e+17
19422.0	6.377662680749395e+17
19423.0	6.367166654491305e+17
19424.0	6.357035272634367e+17
19425.0	6.346265087093417e+17
19426.0	6.334639393559891e+17
19427.0	6.322350955255124e+17
19428.0	6.308932068136276e+17
19429.0	6.294644691653971e+17
19430.0	6.27979900297762e+17
19431.0	6.263804189649578e+17
19432.0	6.247169986134015e+17
19433.0	6.228903383269376e+17
19434.0	6.209694001528832e+17
19435.0	6.188963471556605e+17
19436.0	6.166207828852736e+17
19437.0	6.141469498802175e+17
19438.0	6.112394619125759e+17
19439.0	6.084614206521344e+17
19440.0	6.052574357968212e+17
19441.0	6.016518643690152e+17
19442.0	5.976313411491158e+17
19443.0	5.931014891241471e+17
19444.0	5.879736235109032e+17
19445.0	5.820221159899139e+17
19446.0	5.750430497767422e+17
19447.0	5.666127447326715e+17
19448.0	5.5606574300091776e+17
19449.0	5.4202774382619296e+17
19450.0	5.2067884670648154e+17
19451.0	5.064542005843292e+17
19452.0	5.32845719331362e+17
19453.0	5.494463196910938e+17
19454.0	5.6122841658381606e+17
19455.0	5.7035535295010125e+17
19456.0	5.777615077332311e+17
19457.0	5.839586919273811e+17
19458.0	5.888600695286446e+17
19459.0	5.938003828539393e+17
19460.0	5.97834489676868e+17
19461.0	6.014239837782015e+17
19462.0	6.045924517565782e+17
19463.0	6.074398819745791e+17
19464.0	6.100362720531795e+17
19465.0	6.123895793560234e+17
19466.0	6.14521883538227e+17
19467.0	6.164511124531882e+17
19468.0	6.181920636753238e+17
19469.0	6.198289865113597e+17
19470.0	6.213459689603072e+17
19471.0	6.227435666276351e+17
19472.0	6.240337762014547e+17
19473.0	6.252184124872022e+17
19474.0	6.264074611807572e+17
19475.0	6.273816063901695e+17
19476.0	6.283792448050516e+17
19477.0	6.292604386454186e+17
19478.0	6.300594816592553e+17
19479.0	6.308288203325439e+17
19480.0	6.31654568829474e+17
19481.0	6.323380140987732e+17
19482.0	6.329699608646996e+17
19483.0	6.335652972287316e+17
19484.0	6.341208390150825e+17
19485.0	6.346324955190612e+17
19486.0	6.351515767799808e+17
19487.0	6.357051601059839e+17
19488.0	6.361247976346963e+17
19489.0	6.365006336273066e+17
19490.0	6.368253318965929e+17
19491.0	6.372263855128573e+17
19492.0	6.37602090852898e+17
19493.0	6.37942347263727e+17
19494.0	6.382268846527827e+17
19495.0	6.385168807187796e+17
19496.0	6.387446763749375e+17
19497.0	6.389758207634089e+17
19498.0	6.391999216571734e+17
19499.0	6.392310141026301e+17
19500.0	6.396297625993215e+17
19501.0	6.398111123505151e+17
19502.0	6.399776645971965e+17
19503.0	6.401345514198356e+17
19504.0	6.403194259942057e+17
19505.0	6.404692907130879e+17
19506.0	6.405964718669823e+17
19507.0	6.40713229336576e+17
19508.0	6.408202244237994e+17
19509.0	6.409139341230077e+17
19510.0	6.410372847588691e+17
19511.0	6.408352363271506e+17
19512.0	6.411814031414612e+17
19513.0	6.412184029844819e+17
19514.0	6.412985462773076e+17
19515.0	6.414684931140266e+17
19516.0	6.415384508891135e+17
19517.0	6.41579660485154e+17
19518.0	6.416190437414227e+17
19519.0	6.41649107673634e+17
19520.0	6.417251849382569e+17
19521.0	6.417696578426196e+17
19522.0	6.417844082311165e+17
19523.0	6.417964250518868e+17
19524.0	6.418025359430996e+17
19525.0	6.418131680843092e+17
19526.0	6.418617925806761e+17
19527.0	6.418584989335551e+17
19528.0	6.418515870700884e+17
19529.0	6.418424716591104e+17
19530.0	6.418297965423273e+17
19531.0	6.41813684822562e+17
19532.0	6.418289865523199e+17
19533.0	6.41817401954577e+17
19534.0	6.417929196623188e+17
19535.0	6.417673749528576e+17
19536.0	6.41742344954402e+17
19537.0	6.417112715930282e+17
19538.0	6.416628784125267e+17
19539.0	6.416238509730473e+17
19540.0	6.416251880472576e+17
19541.0	6.415845383208959e+17
19542.0	6.415387460283049e+17
19543.0	6.414903111144788e+17
19544.0	6.414392736350207e+17
19545.0	6.413560592728063e+17
19546.0	6.412906107240447e+17
19547.0	6.412783666419028e+17
19548.0	6.412319448541866e+17
19549.0	6.411813258264575e+17
19550.0	6.411276185326932e+17
19551.0	6.410641392795648e+17
19552.0	6.409988273253033e+17
19553.0	6.409309527911082e+17
19554.0	6.408628312124073e+17
19555.0	6.407947320732329e+17
19556.0	6.407257243779072e+17
19557.0	6.406542420432211e+17
19558.0	6.405818570943146e+17
19559.0	6.405086076294484e+17
19560.0	6.404475477207721e+17
19561.0	6.403723922243583e+17
19562.0	6.40298260767266e+17
19563.0	6.402210400654676e+17
19564.0	6.401428651595091e+17
19565.0	6.400637768040447e+17
19566.0	6.39982132929058e+17
19567.0	6.399044277152426e+17
19568.0	6.398220515147775e+17
19569.0	6.397404597889706e+17
19570.0	6.396580807923027e+17
19571.0	6.395737612309844e+17
19572.0	6.394865158630057e+17
19573.0	6.394023927349247e+17
19574.0	6.393097056070313e+17
19575.0	6.392295814681939e+17
19576.0	6.391460104503295e+17
19577.0	6.39060223861282e+17
19578.0	6.389695825051647e+17
19579.0	6.388789147249321e+17
19580.0	6.387881216748201e+17
19581.0	6.386979106542931e+17
19582.0	6.38606491254784e+17
19583.0	6.385137452668244e+17
19584.0	6.384202876452863e+17
19585.0	6.383182296033961e+17
19586.0	6.382219014701055e+17
19587.0	6.381345439044948e+17
19588.0	6.380210650524329e+17
19589.0	6.379528684655955e+17
19590.0	6.378546620530687e+17
19591.0	6.377633479305898e+17
19592.0	6.376668683130196e+17
19593.0	6.375678658215933e+17
19594.0	6.374540029110953e+17
19595.0	6.373712259448832e+17
19596.0	6.372704093470719e+17
19597.0	6.371736142479359e+17
19598.0	6.370538571519316e+17
19599.0	6.369826800227667e+17
19600.0	6.368922455856467e+17
19601.0	6.367874005685588e+17
19602.0	6.366839404407465e+17
19603.0	6.365697412169727e+17
19604.0	6.364922061520895e+17
19605.0	6.363885635021482e+17
19606.0	6.363049023067476e+17
19607.0	6.362037089905321e+17
19608.0	6.361002235570857e+17
19609.0	6.359956488628906e+17
19610.0	6.358953335543124e+17
19611.0	6.357919573824852e+17
19612.0	6.356965835232596e+17
19613.0	6.355972687659005e+17
19614.0	6.354910835288745e+17
19615.0	6.353895883625812e+17
19616.0	6.352834138210301e+17
19617.0	6.351776660499114e+17
19618.0	6.350388784878932e+17
19619.0	6.349243478441983e+17
19620.0	6.348302094172159e+17
19621.0	6.347571637256191e+17
19622.0	6.346545618223103e+17
19623.0	6.345493386188116e+17
19624.0	6.344428145519273e+17
19625.0	6.343373456321193e+17
19626.0	6.342307531980799e+17
19627.0	6.34123230257698e+17
19628.0	6.340135771002195e+17
19629.0	6.338963772014591e+17
19630.0	6.337662452148905e+17
19631.0	6.336060459406675e+17
19632.0	6.33585675604241e+17
19633.0	6.334855998603263e+17
19634.0	6.333829330851156e+17
19635.0	6.332732980330495e+17
19636.0	6.331677857721001e+17
19637.0	6.330333574201344e+17
19638.0	6.32952854745361e+17
19639.0	6.328441755751763e+17
19640.0	6.32726214480145e+17
19641.0	6.325822539431936e+17
19642.0	6.325189542761811e+17
19643.0	6.324105811503785e+17
19644.0	6.32296810095138e+17
19645.0	6.32180819623936e+17
19646.0	6.320842779306665e+17
19647.0	6.319768279711743e+17
19648.0	6.318679857124691e+17
19649.0	6.317588921450495e+17
19650.0	6.316498612125695e+17
19651.0	6.315401382199295e+17
19652.0	6.314311471333375e+17
19653.0	6.313218212713812e+17
19654.0	6.312117217700522e+17
19655.0	6.311025508177235e+17
19656.0	6.309928363535018e+17
19657.0	6.308834482061311e+17
19658.0	6.307736636970324e+17
19659.0	6.306668767870975e+17
19660.0	6.305596217928364e+17
19661.0	6.30449590379042e+17
19662.0	6.303392882928297e+17
19663.0	6.302271935610879e+17
19664.0	6.301181432649044e+17
19665.0	6.300089013589332e+17
