# Flux units: erg / (cm m2 s)
# Wavelength units: Angstrom
wave	flux
19000.0	6.299272167991978e+17
19001.0	6.298016663906985e+17
19002.0	6.296964083744765e+17
19003.0	6.295803095504212e+17
19004.0	6.294646507088553e+17
19005.0	6.293489919371945e+17
19006.0	6.29233873391889e+17
19007.0	6.291177239565652e+17
19008.0	6.289988672378196e+17
19009.0	6.288710007346516e+17
19010.0	6.287404126874281e+17
19011.0	6.286481259058516e+17
19012.0	6.284998453755903e+17
19013.0	6.284253366408531e+17
19014.0	6.283060060356607e+17
19015.0	6.281920961489578e+17
19016.0	6.280777741019818e+17
19017.0	6.279648471504212e+17
19018.0	6.278485632876544e+17
19019.0	6.277346050965503e+17
19020.0	6.276183346555561e+17
19021.0	6.275047913510227e+17
19022.0	6.273890215701161e+17
19023.0	6.27269657829922e+17
19024.0	6.271542598041597e+17
19025.0	6.270376689882452e+17
19026.0	6.269164171122004e+17
19027.0	6.267790832260435e+17
19028.0	6.26693573391155e+17
19029.0	6.265789399870121e+17
19030.0	6.26466800935458e+17
19031.0	6.263505554505728e+17
19032.0	6.262324973972137e+17
19033.0	6.261035945514323e+17
19034.0	6.259776686129151e+17
19035.0	6.257215029641215e+17
19036.0	6.234532170694653e+17
19037.0	6.255307372101631e+17
19038.0	6.255196041991508e+17
19039.0	6.254224225249961e+17
19040.0	6.25313262407953e+17
19041.0	6.251999349702655e+17
19042.0	6.250265184654675e+17
19043.0	6.249734749902164e+17
19044.0	6.248578069910867e+17
19045.0	6.247414333003091e+17
19046.0	6.246244395515903e+17
19047.0	6.24508334505984e+17
19048.0	6.243747417292799e+17
19049.0	6.241628127057235e+17
19050.0	6.24139752841762e+17
19051.0	6.237280718378323e+17
19052.0	6.237791048433663e+17
19053.0	6.238092719554559e+17
19054.0	6.237071127609343e+17
19055.0	6.23557475303424e+17
19056.0	6.234750452760575e+17
19057.0	6.233681433722877e+17
19058.0	6.231980879730003e+17
19059.0	6.231190940592809e+17
19060.0	6.230243197059071e+17
19061.0	6.229115549341012e+17
19062.0	6.227967963998889e+17
19063.0	6.226819961323519e+17
19064.0	6.225593103635796e+17
19065.0	6.224380547126612e+17
19066.0	6.223142216619348e+17
19067.0	6.222239914874198e+17
19068.0	6.221109236072447e+17
19069.0	6.219966156810921e+17
19070.0	6.218798776451071e+17
19071.0	6.217657033075369e+17
19072.0	6.21633201119778e+17
19073.0	6.215392191403348e+17
19074.0	6.214251800690687e+17
19075.0	6.21310833345604e+17
19076.0	6.211954713209514e+17
19077.0	6.210804983179945e+17
19078.0	6.209650847034025e+17
19079.0	6.208534918201344e+17
19080.0	6.207382185050112e+17
19081.0	6.206205890396159e+17
19082.0	6.205082398534313e+17
19083.0	6.203861786864297e+17
19084.0	6.202598246492841e+17
19085.0	6.2016274839197e+17
19086.0	6.199769719723348e+17
19087.0	6.198592561042771e+17
19088.0	6.197663175278591e+17
19089.0	6.196724135624704e+17
19090.0	6.195834358071296e+17
19091.0	6.19471171625506e+17
19092.0	6.193130791501825e+17
19093.0	6.192530459372201e+17
19094.0	6.191417334431741e+17
19095.0	6.190287919513599e+17
19096.0	6.189145135251455e+17
19097.0	6.188014222966784e+17
19098.0	6.186647995547647e+17
19099.0	6.185460583890943e+17
19100.0	6.184548447901012e+17
19101.0	6.183435752177664e+17
19102.0	6.182245847706281e+17
19103.0	6.181183483630932e+17
19104.0	6.180043912205652e+17
19105.0	6.17837764734703e+17
19106.0	6.177687803876692e+17
19107.0	6.176419676334761e+17
19108.0	6.175103404474367e+17
19109.0	6.173354557964287e+17
19110.0	6.172794405868884e+17
19111.0	6.171846312110761e+17
19112.0	6.170752425044649e+17
19113.0	6.169812334018559e+17
19114.0	6.168572606109012e+17
19115.0	6.167444717917526e+17
19116.0	6.166386014770516e+17
19117.0	6.16523077132834e+17
19118.0	6.163890946353833e+17
19119.0	6.157969205668516e+17
19120.0	6.161582302866088e+17
19121.0	6.160557721780224e+17
19122.0	6.15960789717265e+17
19123.0	6.15848946573858e+17
19124.0	6.157187232213672e+17
19125.0	6.15620315971584e+17
19126.0	6.154975073097044e+17
19127.0	6.152731231606102e+17
19128.0	6.152604927131647e+17
19129.0	6.151605708303017e+17
19130.0	6.15055705121314e+17
19131.0	6.149443394295124e+17
19132.0	6.148311984985428e+17
19133.0	6.147132763406335e+17
19134.0	6.146001740671657e+17
19135.0	6.144917952091476e+17
19136.0	6.143784331684522e+17
19137.0	6.142565303364265e+17
19138.0	6.141510045837994e+17
19139.0	6.140404395147263e+17
19140.0	6.139279405918889e+17
19141.0	6.138150564222292e+17
19142.0	6.136989133482665e+17
19143.0	6.135854283445588e+17
19144.0	6.134718730862591e+17
19145.0	6.13363133588002e+17
19146.0	6.131922913372842e+17
19147.0	6.131317185970173e+17
19148.0	6.130058646607188e+17
19149.0	6.128896372812457e+17
19150.0	6.127984358457343e+17
19151.0	6.126851111343443e+17
19152.0	6.125690950778879e+17
19153.0	6.124194946001577e+17
19154.0	6.123341779129684e+17
19155.0	6.122284399285588e+17
19156.0	6.121128056935763e+17
19157.0	6.119717892085076e+17
19158.0	6.118170028933119e+17
19159.0	6.117598895450794e+17
19160.0	6.116529349328895e+17
19161.0	6.115230447479465e+17
19162.0	6.112839850087763e+17
19163.0	6.112637531542867e+17
19164.0	6.112031432944297e+17
19165.0	6.110563320987645e+17
19166.0	6.109766990430208e+17
19167.0	6.108635650326527e+17
19168.0	6.107615775948799e+17
19169.0	6.106530840226474e+17
19170.0	6.105418016576852e+17
19171.0	6.104258933948415e+17
19172.0	6.103153115485524e+17
19173.0	6.102065827457705e+17
19174.0	6.100925412278271e+17
19175.0	6.099834001948672e+17
19176.0	6.098708321359188e+17
19177.0	6.097432547601066e+17
19178.0	6.096387440989524e+17
19179.0	6.095239796927146e+17
19180.0	6.094183030849535e+17
19181.0	6.093000931977897e+17
19182.0	6.091942976815101e+17
19183.0	6.090860516431188e+17
19184.0	6.089737805408937e+17
19185.0	6.088606909202431e+17
19186.0	6.087488853857619e+17
19187.0	6.086291422707712e+17
19188.0	6.085225216649897e+17
19189.0	6.084094779020628e+17
19190.0	6.082944977687892e+17
19191.0	6.081774412453203e+17
19192.0	6.080665499293011e+17
19193.0	6.079439269352788e+17
19194.0	6.07820298986018e+17
19195.0	6.077048262317395e+17
19196.0	6.075655542276096e+17
19197.0	6.073933577759401e+17
19198.0	6.070829711709524e+17
19199.0	6.060218942575955e+17
19200.0	6.060356354266454e+17
19201.0	6.067738379638102e+17
19202.0	6.068416101569876e+17
19203.0	6.067804380506793e+17
19204.0	6.066969065291776e+17
19205.0	6.065990725009407e+17
19206.0	6.064952336274772e+17
19207.0	6.063756323498666e+17
19208.0	6.062647100659027e+17
19209.0	6.061691926216704e+17
19210.0	6.060590639000234e+17
19211.0	6.059492240261119e+17
19212.0	6.058362602345812e+17
19213.0	6.057088439200425e+17
19214.0	6.055943970226176e+17
19215.0	6.054968080815443e+17
19216.0	6.053909504895657e+17
19217.0	6.052754659912361e+17
19218.0	6.051189738526036e+17
19219.0	6.050376428027901e+17
19220.0	6.049430453791401e+17
19221.0	6.048186089078784e+17
19222.0	6.047203285357907e+17
19223.0	6.046125386978644e+17
19224.0	6.044980901227178e+17
19225.0	6.043836778283008e+17
19226.0	6.042785157218303e+17
19227.0	6.041677368830633e+17
19228.0	6.040589528552788e+17
19229.0	6.039474370772991e+17
19230.0	6.038354680348671e+17
19231.0	6.037233247191039e+17
19232.0	6.036121011443028e+17
19233.0	6.034949162052266e+17
19234.0	6.033872682745855e+17
19235.0	6.032742240922282e+17
19236.0	6.031654285301076e+17
19237.0	6.030528564166653e+17
19238.0	6.029335869784064e+17
19239.0	6.02831069450513e+17
19240.0	6.027200123196758e+17
19241.0	6.026068132276906e+17
19242.0	6.024959239389183e+17
19243.0	6.023711412278612e+17
19244.0	6.022747770235562e+17
19245.0	6.02162712420898e+17
19246.0	6.020509512761341e+17
19247.0	6.019398352153257e+17
19248.0	6.018284458956116e+17
19249.0	6.01714635833344e+17
19250.0	6.015957872934912e+17
19251.0	6.014776505969321e+17
19252.0	6.013552625538388e+17
19253.0	6.012698702293673e+17
19254.0	6.011606188163072e+17
19255.0	6.010306804667732e+17
19256.0	6.00936117506321e+17
19257.0	6.008261931171839e+17
19258.0	6.0071433221789e+17
19259.0	6.005928813221204e+17
19260.0	6.004335021741395e+17
19261.0	6.003761945597267e+17
19262.0	6.002609348760916e+17
19263.0	6.001449358065664e+17
19264.0	6.000049027459753e+17
19265.0	5.99915286967091e+17
19266.0	5.998021294686208e+17
19267.0	5.997106686853119e+17
19268.0	5.99598843367697e+17
19269.0	5.99487329477154e+17
19270.0	5.993724586754047e+17
19271.0	5.99240938164497e+17
19272.0	5.991489328906239e+17
19273.0	5.990171171706195e+17
19274.0	5.988901040685055e+17
19275.0	5.988179051369812e+17
19276.0	5.987047125461674e+17
19277.0	5.985934284335786e+17
19278.0	5.98480142799121e+17
19279.0	5.983662831741609e+17
19280.0	5.982520114588329e+17
19281.0	5.981428773464746e+17
19282.0	5.980301971597993e+17
19283.0	5.979116265624916e+17
19284.0	5.97796174430208e+17
19285.0	5.976820472785578e+17
19286.0	5.975668955283455e+17
19287.0	5.974284338637482e+17
19288.0	5.964891935823182e+17
19289.0	5.957484838300317e+17
19290.0	5.970803387880788e+17
19291.0	5.9698470977536e+17
19292.0	5.969055141855231e+17
19293.0	5.967968545887571e+17
19294.0	5.966849525852842e+17
19295.0	5.965754536383828e+17
19296.0	5.964376680955903e+17
19297.0	5.963438787046057e+17
19298.0	5.962364805447679e+17
19299.0	5.960979426137428e+17
19300.0	5.960133792934569e+17
19301.0	5.959014110199808e+17
19302.0	5.957867540578303e+17
19303.0	5.956670853218303e+17
19304.0	5.955593825157119e+17
19305.0	5.954455907685716e+17
19306.0	5.953311367408297e+17
19307.0	5.952117568525652e+17
19308.0	5.950937942196223e+17
19309.0	5.949448008673961e+17
19310.0	5.948143387891028e+17
19311.0	5.947373337444351e+17
19312.0	5.946294282136234e+17
19313.0	5.944830463748778e+17
19314.0	5.906775791020704e+17
19315.0	5.908665733917399e+17
19316.0	5.941027317743616e+17
19317.0	5.940615959281663e+17
19318.0	5.939579173470207e+17
19319.0	5.938494832639999e+17
19320.0	5.937258569225556e+17
19321.0	5.935977915394729e+17
19322.0	5.934965186712916e+17
19323.0	5.933779184342356e+17
19324.0	5.932647976359254e+17
19325.0	5.931391464243199e+17
19326.0	5.930394616594431e+17
19327.0	5.929278149492733e+17
19328.0	5.927678852289876e+17
19329.0	5.926987515647316e+17
19330.0	5.925814180074835e+17
19331.0	5.924630583836671e+17
19332.0	5.923510933957289e+17
19333.0	5.922326121370963e+17
19334.0	5.92116985172241e+17
19335.0	5.919100635884202e+17
19336.0	5.918816945744554e+17
19337.0	5.917660225208319e+17
19338.0	5.916294404636671e+17
19339.0	5.915251562250239e+17
19340.0	5.913959374782463e+17
19341.0	5.912466177392639e+17
19342.0	5.911320431951871e+17
19343.0	5.910464110963369e+17
19344.0	5.908890760424106e+17
19345.0	5.906549730618025e+17
19346.0	5.905910919244458e+17
19347.0	5.905143720924499e+17
19348.0	5.90445406060544e+17
19349.0	5.903212627012265e+17
19350.0	5.901842108820138e+17
19351.0	5.900780146698921e+17
19352.0	5.899073201984852e+17
19353.0	5.898367701876736e+17
19354.0	5.897137557252776e+17
19355.0	5.895805922355882e+17
19356.0	5.894649115836415e+17
19357.0	5.893397874562388e+17
19358.0	5.892125836531028e+17
19359.0	5.890739994449235e+17
19360.0	5.889209432102227e+17
19361.0	5.888297613481299e+17
19362.0	5.887042500864682e+17
19363.0	5.885744409214976e+17
19364.0	5.88440735457826e+17
19365.0	5.883099479015423e+17
19366.0	5.881782845745834e+17
19367.0	5.880456838905855e+17
19368.0	5.879120629421395e+17
19369.0	5.877729050929833e+17
19370.0	5.876380990439423e+17
19371.0	5.874999867648682e+17
19372.0	5.873671144297812e+17
19373.0	5.872254572647764e+17
19374.0	5.870826254849366e+17
19375.0	5.86936616100386e+17
19376.0	5.867939784469162e+17
19377.0	5.866483775176701e+17
19378.0	5.865023544317267e+17
19379.0	5.863548316723882e+17
19380.0	5.862057082268329e+17
19381.0	5.860543215348393e+17
19382.0	5.858810412051114e+17
19383.0	5.857257674418857e+17
19384.0	5.855747779504809e+17
19385.0	5.85417360548386e+17
19386.0	5.852561582063615e+17
19387.0	5.850866310097578e+17
19388.0	5.849039874555903e+17
19389.0	5.847231818454356e+17
19390.0	5.844909821700778e+17
19391.0	5.823779199167128e+17
19392.0	5.839043195568127e+17
19393.0	5.839786020787542e+17
19394.0	5.838126569575763e+17
19395.0	5.836141864768854e+17
19396.0	5.83415142425122e+17
19397.0	5.8320384702109e+17
19398.0	5.829843946744489e+17
19399.0	5.827316401831935e+17
19400.0	5.82518588903697e+17
19401.0	5.823271226310653e+17
19402.0	5.82106504897058e+17
19403.0	5.818578687229952e+17
19404.0	5.81618260438767e+17
19405.0	5.813742904978089e+17
19406.0	5.811287180531028e+17
19407.0	5.808539941470207e+17
19408.0	5.80552156582161e+17
19409.0	5.803166135571796e+17
19410.0	5.800211837703507e+17
19411.0	5.797246255060308e+17
19412.0	5.794138505084927e+17
19413.0	5.790722314381993e+17
19414.0	5.787203495351636e+17
19415.0	5.783588498833408e+17
19416.0	5.779649302888447e+17
19417.0	5.775728125673471e+17
19418.0	5.771582031003648e+17
19419.0	5.767466977678676e+17
19420.0	5.763076215974569e+17
19421.0	5.7579470337693005e+17
19422.0	5.7529852769949005e+17
19423.0	5.7474773106906445e+17
19424.0	5.741474990434986e+17
19425.0	5.73558389543185e+17
19426.0	5.728884987964074e+17
19427.0	5.7216285092959565e+17
19428.0	5.714181038101843e+17
19429.0	5.7059061104203085e+17
19430.0	5.696441009831936e+17
19431.0	5.685478740546901e+17
19432.0	5.678382566779563e+17
19433.0	5.667867201983829e+17
19434.0	5.656112094598484e+17
19435.0	5.642555758040404e+17
19436.0	5.62785856590097e+17
19437.0	5.6123705153727136e+17
19438.0	5.5611193857583834e+17
19439.0	5.5716351224490656e+17
19440.0	5.555777923536211e+17
19441.0	5.5318686193418214e+17
19442.0	5.5039706445905926e+17
19443.0	5.471254620405758e+17
19444.0	5.433436112158717e+17
19445.0	5.3872748396544006e+17
19446.0	5.331383759142911e+17
19447.0	5.260882294603771e+17
19448.0	5.1673706790912045e+17
19449.0	5.031809267357013e+17
19450.0	4.786709821303459e+17
19451.0	4.5950133841428717e+17
19452.0	4.933102061223936e+17
19453.0	5.1054145280409664e+17
19454.0	5.213534152906065e+17
19455.0	5.291881045600938e+17
19456.0	5.351738448019458e+17
19457.0	5.399538795806718e+17
19458.0	5.3418561456047475e+17
19459.0	5.4657038260633805e+17
19460.0	5.5007792930488294e+17
19461.0	5.525074229242539e+17
19462.0	5.546241768641877e+17
19463.0	5.564136522689193e+17
19464.0	5.579795749055145e+17
19465.0	5.594434203462315e+17
19466.0	5.607093148407123e+17
19467.0	5.6180522223315616e+17
19468.0	5.6282296814141434e+17
19469.0	5.6365969914374803e+17
19470.0	5.645573997374122e+17
19471.0	5.652983271041706e+17
19472.0	5.6592643636155725e+17
19473.0	5.6654680607948794e+17
19474.0	5.6706430797523616e+17
19475.0	5.675477503049726e+17
19476.0	5.681110033192276e+17
19477.0	5.685180302535338e+17
19478.0	5.688897614206292e+17
19479.0	5.6924571515398816e+17
19480.0	5.695702824910848e+17
19481.0	5.6985561477065363e+17
19482.0	5.701294444511231e+17
19483.0	5.7033981661893965e+17
19484.0	5.7054360757425485e+17
19485.0	5.7074979571411616e+17
19486.0	5.708878012481536e+17
19487.0	5.710698229268478e+17
19488.0	5.712218041614335e+17
19489.0	5.713232719249406e+17
19490.0	5.7136445978050534e+17
19491.0	5.7154098153826976e+17
19492.0	5.716340236440917e+17
19493.0	5.7171507807955616e+17
19494.0	5.717706692449621e+17
19495.0	5.718130202509311e+17
19496.0	5.718097039545684e+17
19497.0	5.7182061089259514e+17
19498.0	5.711599961287336e+17
19499.0	5.687905733312506e+17
19500.0	5.7185595545354234e+17
19501.0	5.7195241962209274e+17
19502.0	5.719880995176446e+17
19503.0	5.720139129421822e+17
19504.0	5.720094311186431e+17
19505.0	5.719973599117311e+17
19506.0	5.720144295406249e+17
19507.0	5.719935533012309e+17
19508.0	5.7196413172667725e+17
19509.0	5.719148166381566e+17
19510.0	5.7178014410779296e+17
19511.0	5.65714343830046e+17
19512.0	5.709915958717095e+17
19513.0	5.707918603190263e+17
19514.0	5.7095156256822554e+17
19515.0	5.7165992584806406e+17
19516.0	5.7167079000418976e+17
19517.0	5.7163251760933536e+17
19518.0	5.71577717699379e+17
19519.0	5.715210838299988e+17
19520.0	5.714421698876755e+17
19521.0	5.714314900712106e+17
19522.0	5.713617326440447e+17
19523.0	5.712981594385066e+17
19524.0	5.712171958097237e+17
19525.0	5.7117582137753594e+17
19526.0	5.711101170461354e+17
19527.0	5.7104068013370016e+17
19528.0	5.7096997276658323e+17
19529.0	5.7090084231796045e+17
19530.0	5.7083414093059405e+17
19531.0	5.707600498087252e+17
19532.0	5.70684735418095e+17
19533.0	5.7060832659374074e+17
19534.0	5.705307041475241e+17
19535.0	5.704507045096105e+17
19536.0	5.703691492742484e+17
19537.0	5.702906676248575e+17
19538.0	5.7016191199914656e+17
19539.0	5.70093356519697e+17
19540.0	5.700468140059306e+17
19541.0	5.699587088755369e+17
19542.0	5.6987924191423136e+17
19543.0	5.697632534702762e+17
19544.0	5.697079789748223e+17
19545.0	5.695789665878015e+17
19546.0	5.694779511799806e+17
19547.0	5.694516121392469e+17
19548.0	5.6936748803249485e+17
19549.0	5.692708183430485e+17
19550.0	5.6919231928729594e+17
19551.0	5.691038135309651e+17
19552.0	5.690145586719402e+17
19553.0	5.689231008246442e+17
19554.0	5.688325902609066e+17
19555.0	5.687392351201962e+17
19556.0	5.6865154124130963e+17
19557.0	5.685624858214399e+17
19558.0	5.6847153730245965e+17
19559.0	5.683818761551871e+17
19560.0	5.682753894875135e+17
19561.0	5.681955930636287e+17
19562.0	5.680925862002687e+17
19563.0	5.680127660785663e+17
19564.0	5.679195847917567e+17
19565.0	5.6782896552564045e+17
19566.0	5.677350184987306e+17
19567.0	5.6764734887690234e+17
19568.0	5.6755110358111565e+17
19569.0	5.6745729154088954e+17
19570.0	5.6736406083119776e+17
19571.0	5.6726938930817696e+17
19572.0	5.6717130872477005e+17
19573.0	5.670739600474111e+17
19574.0	5.669736834662399e+17
19575.0	5.668889268584447e+17
19576.0	5.6679022146355194e+17
19577.0	5.666910911157588e+17
19578.0	5.666037241828692e+17
19579.0	5.665074254796115e+17
19580.0	5.664113936738986e+17
19581.0	5.663166584673619e+17
19582.0	5.6622172403138554e+17
19583.0	5.6612502162636794e+17
19584.0	5.6602675628386976e+17
19585.0	5.659196531234132e+17
19586.0	5.658181954262358e+17
19587.0	5.65728813060369e+17
19588.0	5.65605966230323e+17
19589.0	5.655364222233258e+17
19590.0	5.6543413810845e+17
19591.0	5.653465736937471e+17
19592.0	5.652501430097236e+17
19593.0	5.651471741048149e+17
19594.0	5.6503074987267405e+17
19595.0	5.64958297535283e+17
19596.0	5.6484081556957856e+17
19597.0	5.6476245744244045e+17
19598.0	5.646306375980372e+17
19599.0	5.6456630753034234e+17
19600.0	5.644695959677609e+17
19601.0	5.64365190373922e+17
19602.0	5.64261460063027e+17
19603.0	5.6413216504982176e+17
19604.0	5.64061241815859e+17
19605.0	5.6395212490014714e+17
19606.0	5.638782099390463e+17
19607.0	5.6378127922408096e+17
19608.0	5.636814266870442e+17
19609.0	5.635802514762409e+17
19610.0	5.634689851195392e+17
19611.0	5.6336244616287565e+17
19612.0	5.632880901008042e+17
19613.0	5.6318812180097696e+17
19614.0	5.630861155587411e+17
19615.0	5.6298791963197434e+17
19616.0	5.628574197350399e+17
19617.0	5.6276486151208954e+17
19618.0	5.626408032272382e+17
19619.0	5.62525626311202e+17
19620.0	5.62437581648691e+17
19621.0	5.623587269159594e+17
19622.0	5.6229561054003194e+17
19623.0	5.621941258594986e+17
19624.0	5.6208893404337485e+17
19625.0	5.619962574711466e+17
19626.0	5.6189209067301536e+17
19627.0	5.6177978377939616e+17
19628.0	5.616429393685162e+17
19629.0	5.6142163048311456e+17
19630.0	5.609944127285929e+17
19631.0	5.6022630298637645e+17
19632.0	5.611418831290367e+17
19633.0	5.6115235931204256e+17
19634.0	5.610873042589013e+17
19635.0	5.609910161113087e+17
19636.0	5.6086614902483616e+17
19637.0	5.607393022967807e+17
19638.0	5.6070648927791776e+17
19639.0	5.606101109527892e+17
19640.0	5.604964785192958e+17
19641.0	5.603332975143596e+17
19642.0	5.6031047868306765e+17
19643.0	5.602112603247956e+17
19644.0	5.6010886841630714e+17
19645.0	5.5999961315846816e+17
19646.0	5.598781467437737e+17
19647.0	5.5981932554485754e+17
19648.0	5.5972104181732685e+17
19649.0	5.596212902931115e+17
19650.0	5.5952261922160634e+17
19651.0	5.594227276076373e+17
19652.0	5.593232893979306e+17
19653.0	5.5922361574795936e+17
19654.0	5.5912458487507616e+17
19655.0	5.590249990258687e+17
19656.0	5.589262372874922e+17
19657.0	5.588271022560596e+17
19658.0	5.587274996296362e+17
19659.0	5.586285389414399e+17
19660.0	5.5852924795180365e+17
19661.0	5.5842976989620896e+17
19662.0	5.583298325643262e+17
