# Flux units: erg / (cm m2 s)
# Wavelength units: Angstrom
wave	flux
19000.0	5.4554213010636794e+17
19001.0	5.45424043811362e+17
19002.0	5.4534143776303776e+17
19003.0	5.452392059371519e+17
19004.0	5.451389858392747e+17
19005.0	5.4503626251086496e+17
19006.0	5.449376693136042e+17
19007.0	5.4483594367030605e+17
19008.0	5.447312021127167e+17
19009.0	5.44622724059409e+17
19010.0	5.4446445738065894e+17
19011.0	5.444311961305087e+17
19012.0	5.441914631356412e+17
19013.0	5.442398861656064e+17
19014.0	5.4413380725418656e+17
19015.0	5.440344480372053e+17
19016.0	5.4393269694846285e+17
19017.0	5.43841234137907e+17
19018.0	5.437352732961449e+17
19019.0	5.436408195973119e+17
19020.0	5.4354000824238074e+17
19021.0	5.4344266096312314e+17
19022.0	5.433422022792532e+17
19023.0	5.4323389710117536e+17
19024.0	5.4312965536481274e+17
19025.0	5.430309540943187e+17
19026.0	5.429233739016873e+17
19027.0	5.427270229426175e+17
19028.0	5.4274299086766074e+17
19029.0	5.4264015233570125e+17
19030.0	5.425448486611625e+17
19031.0	5.424462623145983e+17
19032.0	5.4234397924829856e+17
19033.0	5.422301027063123e+17
19034.0	5.4213473325110605e+17
19035.0	5.419732802295124e+17
19036.0	5.341223847286069e+17
19037.0	5.4179363490365434e+17
19038.0	5.4173605430995616e+17
19039.0	5.416456975373653e+17
19040.0	5.4154808510818976e+17
19041.0	5.414486355039573e+17
19042.0	5.410381522534395e+17
19043.0	5.412544028781226e+17
19044.0	5.4115229632211616e+17
19045.0	5.410492244470442e+17
19046.0	5.40947123343633e+17
19047.0	5.408541719745876e+17
19048.0	5.406767070576639e+17
19049.0	5.4002789471573254e+17
19050.0	5.405385570997588e+17
19051.0	5.3926879993091226e+17
19052.0	5.401468560823637e+17
19053.0	5.4025590253376845e+17
19054.0	5.401621302695252e+17
19055.0	5.399407599375701e+17
19056.0	5.399309357591209e+17
19057.0	5.39865626391347e+17
19058.0	5.3944627442483136e+17
19059.0	5.395464518806185e+17
19060.0	5.395654328538452e+17
19061.0	5.39470053052689e+17
19062.0	5.393716042792958e+17
19063.0	5.392729592124756e+17
19064.0	5.3915568724159136e+17
19065.0	5.390509533735594e+17
19066.0	5.388532189932202e+17
19067.0	5.3887565691180365e+17
19068.0	5.387791880596138e+17
19069.0	5.386802898665471e+17
19070.0	5.385774335087957e+17
19071.0	5.3847726276389536e+17
19072.0	5.382635870224382e+17
19073.0	5.382850319395498e+17
19074.0	5.3818709088665594e+17
19075.0	5.380884149917013e+17
19076.0	5.3798680755787085e+17
19077.0	5.3788843435185485e+17
19078.0	5.3778505398572365e+17
19079.0	5.376934960343722e+17
19080.0	5.375931710089898e+17
19081.0	5.3748923196156576e+17
19082.0	5.37391914881297e+17
19083.0	5.372858249248767e+17
19084.0	5.3717045884573005e+17
19085.0	5.37097943453969e+17
19086.0	5.36778350141986e+17
19087.0	5.364619184963581e+17
19088.0	5.366081888365223e+17
19089.0	5.365857565802496e+17
19090.0	5.365959367152981e+17
19091.0	5.364782978826241e+17
19092.0	5.3612111612695936e+17
19093.0	5.3631321077623456e+17
19094.0	5.3621706062124365e+17
19095.0	5.3611920086794234e+17
19096.0	5.360186156559018e+17
19097.0	5.3592257916654925e+17
19098.0	5.356923443129003e+17
19099.0	5.3556913509498886e+17
19100.0	5.3561316046711456e+17
19101.0	5.355242677163349e+17
19102.0	5.354124516261887e+17
19103.0	5.3533277355158176e+17
19104.0	5.352356426984105e+17
19105.0	5.3485058629741286e+17
19106.0	5.3500172356812794e+17
19107.0	5.3486296263994016e+17
19108.0	5.347273547797845e+17
19109.0	5.342728232282789e+17
19110.0	5.3460806430010016e+17
19111.0	5.344624158354089e+17
19112.0	5.3435316505149414e+17
19113.0	5.3435256862146554e+17
19114.0	5.3419956229898214e+17
19115.0	5.341219388041899e+17
19116.0	5.340570752909311e+17
19117.0	5.3395686700701005e+17
19118.0	5.3381839800238074e+17
19119.0	5.3238405655428896e+17
19120.0	5.335975171457021e+17
19121.0	5.3352241170131616e+17
19122.0	5.3347384928064845e+17
19123.0	5.33376698155008e+17
19124.0	5.332413766959104e+17
19125.0	5.331788763234303e+17
19126.0	5.330805926658046e+17
19127.0	5.3271565354489146e+17
19128.0	5.328536714521258e+17
19129.0	5.327794191990783e+17
19130.0	5.326916424127828e+17
19131.0	5.325952534620842e+17
19132.0	5.324980004847615e+17
19133.0	5.323899509495125e+17
19134.0	5.322885562367999e+17
19135.0	5.3220351553481376e+17
19136.0	5.32108953063697e+17
19137.0	5.319874008055807e+17
19138.0	5.3191151067682125e+17
19139.0	5.318170041996628e+17
19140.0	5.3171990431443616e+17
19141.0	5.316223292145662e+17
19142.0	5.315196599926783e+17
19143.0	5.314190822604799e+17
19144.0	5.313252930093055e+17
19145.0	5.312327473692671e+17
19146.0	5.310440771594922e+17
19147.0	5.310248601867604e+17
19148.0	5.308351224567127e+17
19149.0	5.3072129163264006e+17
19150.0	5.30746427117841e+17
19151.0	5.306494316707839e+17
19152.0	5.3054447193948154e+17
19153.0	5.302402460680188e+17
19154.0	5.3031662343509325e+17
19155.0	5.3025774400525645e+17
19156.0	5.301606712431957e+17
19157.0	5.299684497162241e+17
19158.0	5.2952283378701645e+17
19159.0	5.298558209796778e+17
19160.0	5.297630868056747e+17
19161.0	5.2966249229626016e+17
19162.0	5.288506629466799e+17
19163.0	5.2942687670981965e+17
19164.0	5.293802900160511e+17
19165.0	5.29039107782519e+17
19166.0	5.2915262375417165e+17
19167.0	5.290261505288874e+17
19168.0	5.289941225439232e+17
19169.0	5.288891266717013e+17
19170.0	5.2880450302334285e+17
19171.0	5.28664833748719e+17
19172.0	5.286041569198079e+17
19173.0	5.285141448491007e+17
19174.0	5.2841249987624954e+17
19175.0	5.283240333366613e+17
19176.0	5.2822776832764576e+17
19177.0	5.281075213369343e+17
19178.0	5.280058230265173e+17
19179.0	5.278734142319274e+17
19180.0	5.278374979174399e+17
19181.0	5.2772210583360845e+17
19182.0	5.2764289283741e+17
19183.0	5.275524032451924e+17
19184.0	5.2745592125085005e+17
19185.0	5.273575382581247e+17
19186.0	5.27263078617361e+17
19187.0	5.2715562970644474e+17
19188.0	5.270684989128703e+17
19189.0	5.269714313936894e+17
19190.0	5.268708853983913e+17
19191.0	5.267664693886975e+17
19192.0	5.266813499037012e+17
19193.0	5.265538715134634e+17
19194.0	5.264389757556053e+17
19195.0	5.263847550091264e+17
19196.0	5.2627780948459514e+17
19197.0	5.26162897019426e+17
19198.0	5.2597767145171616e+17
19199.0	5.2148205690115296e+17
19200.0	5.225796038470329e+17
19201.0	5.2570141145169914e+17
19202.0	5.256862788922026e+17
19203.0	5.255935359101609e+17
19204.0	5.2551435206437536e+17
19205.0	5.254273048073557e+17
19206.0	5.2533277973544954e+17
19207.0	5.252237836855977e+17
19208.0	5.2510743928504314e+17
19209.0	5.250476581497513e+17
19210.0	5.249516870915413e+17
19211.0	5.248586952474623e+17
19212.0	5.247613972512766e+17
19213.0	5.246154197434366e+17
19214.0	5.244994291324246e+17
19215.0	5.244546889110868e+17
19216.0	5.243790855329109e+17
19217.0	5.2428143689291085e+17
19218.0	5.2406524198256614e+17
19219.0	5.2406975826930336e+17
19220.0	5.239898228042409e+17
19221.0	5.238549267873791e+17
19222.0	5.2380254447424845e+17
19223.0	5.2370686345215994e+17
19224.0	5.236080849365673e+17
19225.0	5.2349752042673485e+17
19226.0	5.234198823217834e+17
19227.0	5.2332490985745056e+17
19228.0	5.2323270542404256e+17
19229.0	5.231369465976149e+17
19230.0	5.2303918226472954e+17
19231.0	5.229432109968041e+17
19232.0	5.228483665286483e+17
19233.0	5.2274349278057805e+17
19234.0	5.226555703121236e+17
19235.0	5.2255883728868685e+17
19236.0	5.2246793364875936e+17
19237.0	5.223696782327807e+17
19238.0	5.2225649424029e+17
19239.0	5.2218159110116685e+17
19240.0	5.2208565960922445e+17
19241.0	5.2198741992188576e+17
19242.0	5.2189311637913594e+17
19243.0	5.2177777043264845e+17
19244.0	5.2170403030411936e+17
19245.0	5.2160540005717325e+17
19246.0	5.2150839636131834e+17
19247.0	5.2141417446768634e+17
19248.0	5.2131850973347834e+17
19249.0	5.21214403752755e+17
19250.0	5.2108149744380576e+17
19251.0	5.2097383546224614e+17
19252.0	5.2089884752827725e+17
19253.0	5.2083957669997216e+17
19254.0	5.2074783748478285e+17
19255.0	5.206264795627518e+17
19256.0	5.205538704282964e+17
19257.0	5.2046254183546874e+17
19258.0	5.203675151248041e+17
19259.0	5.2026085565180576e+17
19260.0	5.1998336049916544e+17
19261.0	5.200793435810473e+17
19262.0	5.199749298083157e+17
19263.0	5.1987793575935994e+17
19264.0	5.1971152367233683e+17
19265.0	5.196692506804223e+17
19266.0	5.1955685200145056e+17
19267.0	5.195113684096341e+17
19268.0	5.194153630280362e+17
19269.0	5.1932102299484154e+17
19270.0	5.192253875508566e+17
19271.0	5.190786707969366e+17
19272.0	5.190306840444928e+17
19273.0	5.188906381912745e+17
19274.0	5.1878127912441146e+17
19275.0	5.1875138757809485e+17
19276.0	5.186534900061524e+17
19277.0	5.185593697544874e+17
19278.0	5.1845865165291514e+17
19279.0	5.1836387457324365e+17
19280.0	5.1826204959484576e+17
19281.0	5.1817708837492045e+17
19282.0	5.1808232150138874e+17
19283.0	5.179308031082496e+17
19284.0	5.1787523906600954e+17
19285.0	5.1777320947548154e+17
19286.0	5.1769468888896845e+17
19287.0	5.175927109582846e+17
19288.0	5.1539171141659136e+17
19289.0	5.1214278843868954e+17
19290.0	5.173043668189183e+17
19291.0	5.1718931174741344e+17
19292.0	5.171345565067947e+17
19293.0	5.170401948729343e+17
19294.0	5.169430826145109e+17
19295.0	5.168525379371007e+17
19296.0	5.1662089743237146e+17
19297.0	5.1662918789365754e+17
19298.0	5.165637463354025e+17
19299.0	5.1631666051590835e+17
19300.0	5.1637349144767136e+17
19301.0	5.1628268560493216e+17
19302.0	5.161865843834879e+17
19303.0	5.1607942215325005e+17
19304.0	5.15993631789329e+17
19305.0	5.1590011705535136e+17
19306.0	5.1580267875969696e+17
19307.0	5.156967940445524e+17
19308.0	5.156043879350271e+17
19309.0	5.1534838698257043e+17
19310.0	5.151998490618536e+17
19311.0	5.1529740955156474e+17
19312.0	5.152254096397653e+17
19313.0	5.151128084458153e+17
19314.0	5.016356215499459e+17
19315.0	5.026515356658532e+17
19316.0	5.1462613880886637e+17
19317.0	5.1475049265233914e+17
19318.0	5.1466147302386336e+17
19319.0	5.145708832576853e+17
19320.0	5.1441856773707066e+17
19321.0	5.1425892917138765e+17
19322.0	5.1426299198395725e+17
19323.0	5.14125524439313e+17
19324.0	5.140804624449535e+17
19325.0	5.1384333019818656e+17
19326.0	5.1389541429630285e+17
19327.0	5.138055696482303e+17
19328.0	5.1346227726035654e+17
19329.0	5.136221183410175e+17
19330.0	5.135206003856724e+17
19331.0	5.134195562468692e+17
19332.0	5.133292646258005e+17
19333.0	5.1323023501120845e+17
19334.0	5.131314787254272e+17
19335.0	5.125304347525125e+17
19336.0	5.12939495994163e+17
19337.0	5.1285230228602874e+17
19338.0	5.1272629351000723e+17
19339.0	5.12658808906274e+17
19340.0	5.1253201607502496e+17
19341.0	5.122757664003416e+17
19342.0	5.122483044745216e+17
19343.0	5.122755313795072e+17
19344.0	5.119930166935554e+17
19345.0	5.1167612800860115e+17
19346.0	5.1185195588867405e+17
19347.0	5.1164126215755085e+17
19348.0	5.1179410846733645e+17
19349.0	5.1169056319515296e+17
19350.0	5.1150427381213856e+17
19351.0	5.11495104434449e+17
19352.0	5.111388328427515e+17
19353.0	5.1130956757947725e+17
19354.0	5.1121355234126496e+17
19355.0	5.110983120213334e+17
19356.0	5.110102517699925e+17
19357.0	5.1091352524772685e+17
19358.0	5.108107182429525e+17
19359.0	5.106465947080018e+17
19360.0	5.104130646693204e+17
19361.0	5.1051005857846605e+17
19362.0	5.1041819010880845e+17
19363.0	5.1031959691154765e+17
19364.0	5.102199596122111e+17
19365.0	5.101202049422676e+17
19366.0	5.100213388356266e+17
19367.0	5.099200675752619e+17
19368.0	5.098140559824212e+17
19369.0	5.09700010409984e+17
19370.0	5.096014732765866e+17
19371.0	5.095015177693866e+17
19372.0	5.0940694250564256e+17
19373.0	5.093019310445909e+17
19374.0	5.092033110736894e+17
19375.0	5.091000712866474e+17
19376.0	5.0899032333789856e+17
19377.0	5.088802980058453e+17
19378.0	5.0877692295249914e+17
19379.0	5.086729133009578e+17
19380.0	5.0856702425169914e+17
19381.0	5.0846185242842445e+17
19382.0	5.083379412238336e+17
19383.0	5.0822230447226874e+17
19384.0	5.0812777995960314e+17
19385.0	5.080215468376064e+17
19386.0	5.0791280817821e+17
19387.0	5.0779786320718496e+17
19388.0	5.0768238863537485e+17
19389.0	5.075661929928021e+17
19390.0	5.0742803219961165e+17
19391.0	5.001106853025005e+17
19392.0	5.070517114852687e+17
19393.0	5.071029172262228e+17
19394.0	5.0698907207161165e+17
19395.0	5.067922737201153e+17
19396.0	5.0672698818996896e+17
19397.0	5.0663834716733434e+17
19398.0	5.064291526202709e+17
19399.0	5.0617378780392083e+17
19400.0	5.061815957105322e+17
19401.0	5.061195249046869e+17
19402.0	5.0598818097397754e+17
19403.0	5.058523823428949e+17
19404.0	5.057032621828778e+17
19405.0	5.0555584428113914e+17
19406.0	5.054135639124651e+17
19407.0	5.05179537617715e+17
19408.0	5.049717636814167e+17
19409.0	5.04929335709969e+17
19410.0	5.047747496727893e+17
19411.0	5.0458122350755834e+17
19412.0	5.044020972967253e+17
19413.0	5.0411051543429114e+17
19414.0	5.0397878625675936e+17
19415.0	5.037521416574292e+17
19416.0	5.034647213135188e+17
19417.0	5.03149212344866e+17
19418.0	5.0294424516689926e+17
19419.0	5.0265115957657594e+17
19420.0	5.023925373239296e+17
19421.0	5.0213014383274656e+17
19422.0	5.0186480810721274e+17
19423.0	5.015983638271317e+17
19424.0	5.0128827208171514e+17
19425.0	5.0096775029063674e+17
19426.0	5.006202941472766e+17
19427.0	5.0022878124441594e+17
19428.0	4.997994193616895e+17
19429.0	4.993064200306687e+17
19430.0	4.9856046404293997e+17
19431.0	4.9667955490816205e+17
19432.0	4.971790684826279e+17
19433.0	4.961012567856467e+17
19434.0	4.946805500411907e+17
19435.0	4.936203066059433e+17
19436.0	4.9232923552208115e+17
19437.0	4.9203842632034976e+17
19438.0	4.776792072126481e+17
19439.0	4.8926966244092666e+17
19440.0	4.8809314367133e+17
19441.0	4.8557478274662317e+17
19442.0	4.810790583752021e+17
19443.0	4.7682346720515405e+17
19444.0	4.740566662600019e+17
19445.0	4.708402919899137e+17
19446.0	4.660013175930882e+17
19447.0	4.560402524405755e+17
19448.0	4.459799226526383e+17
19449.0	4.3319494886905146e+17
19450.0	3.981604424777784e+17
19451.0	3.7633510255274886e+17
19452.0	4.2030113925802586e+17
19453.0	4.4055260442569414e+17
19454.0	4.502141741126984e+17
19455.0	4.613625294968171e+17
19456.0	4.680028718978396e+17
19457.0	4.715224441552895e+17
19458.0	4.411999599460904e+17
19459.0	4.762218017062996e+17
19460.0	4.8214526093776186e+17
19461.0	4.853494157322918e+17
19462.0	4.8717166018560006e+17
19463.0	4.8840761867414163e+17
19464.0	4.893349026725888e+17
19465.0	4.901084662682964e+17
19466.0	4.907934933494442e+17
19467.0	4.9139411593461766e+17
19468.0	4.9239184075216186e+17
19469.0	4.9330380806116666e+17
19470.0	4.942420993114114e+17
19471.0	4.948407161105068e+17
19472.0	4.952812151985492e+17
19473.0	4.9562394694778874e+17
19474.0	4.957262714677929e+17
19475.0	4.959656849266003e+17
19476.0	4.9629900556642976e+17
19477.0	4.964426448896e+17
19478.0	4.9659005663969254e+17
19479.0	4.965141838473896e+17
19480.0	4.967671293891925e+17
19481.0	4.9683771155633485e+17
19482.0	4.9692014186332154e+17
19483.0	4.970223179049642e+17
19484.0	4.971403848362666e+17
19485.0	4.972242137339219e+17
19486.0	4.9710516100137005e+17
19487.0	4.973627666246314e+17
19488.0	4.973758791374164e+17
19489.0	4.9741273078169606e+17
19490.0	4.9718276177701504e+17
19491.0	4.9742144500749645e+17
19492.0	4.974203522514942e+17
19493.0	4.973939687511381e+17
19494.0	4.9737909400152736e+17
19495.0	4.9735023628124154e+17
19496.0	4.972356042751998e+17
19497.0	4.972447988187136e+17
19498.0	4.9642803214418e+17
19499.0	4.8595386261394016e+17
19500.0	4.9710454290077e+17
19501.0	4.970888497026389e+17
19502.0	4.970386809334442e+17
19503.0	4.9699130284441594e+17
19504.0	4.96937421906466e+17
19505.0	4.968819093143552e+17
19506.0	4.968247093537449e+17
19507.0	4.9675771967788365e+17
19508.0	4.966942132316842e+17
19509.0	4.966185493856255e+17
19510.0	4.964440870311253e+17
19511.0	4.726157531763868e+17
19512.0	4.9460823793335904e+17
19513.0	4.930595659098741e+17
19514.0	4.9388145131301235e+17
19515.0	4.960569702481921e+17
19516.0	4.961157722232148e+17
19517.0	4.9606076979828045e+17
19518.0	4.959487926468606e+17
19519.0	4.9586657848634e+17
19520.0	4.956666697089021e+17
19521.0	4.957866038744404e+17
19522.0	4.9567926632229536e+17
19523.0	4.9558304661176326e+17
19524.0	4.9541960339292186e+17
19525.0	4.9547521483079674e+17
19526.0	4.9540318311219194e+17
19527.0	4.953316038890837e+17
19528.0	4.9524167395682976e+17
19529.0	4.951526478970879e+17
19530.0	4.95096767394611e+17
19531.0	4.9501612372131834e+17
19532.0	4.9493514359493965e+17
19533.0	4.948538535794004e+17
19534.0	4.9477186542196045e+17
19535.0	4.946875302019072e+17
19536.0	4.946086707156308e+17
19537.0	4.9453196374616736e+17
19538.0	4.942627920500055e+17
19539.0	4.9427998764782957e+17
19540.0	4.942810118968661e+17
19541.0	4.941618027866794e+17
19542.0	4.941009915303253e+17
19543.0	4.9385165134233606e+17
19544.0	4.939399718502398e+17
19545.0	4.937911196363432e+17
19546.0	4.936411007767892e+17
19547.0	4.937004662565546e+17
19548.0	4.936164428830036e+17
19549.0	4.93518148809523e+17
19550.0	4.934479724412928e+17
19551.0	4.9336958236753914e+17
19552.0	4.932862912495615e+17
19553.0	4.9319927286333434e+17
19554.0	4.9311024673368736e+17
19555.0	4.930090244068694e+17
19556.0	4.9293112143162016e+17
19557.0	4.9285861463818234e+17
19558.0	4.9277471275963725e+17
19559.0	4.9269046911522125e+17
19560.0	4.925356114968574e+17
19561.0	4.9251531679771296e+17
19562.0	4.923668866007039e+17
19563.0	4.9234792219497805e+17
19564.0	4.9226201753627296e+17
19565.0	4.921756249402025e+17
19566.0	4.920854486624938e+17
19567.0	4.9200377696529056e+17
19568.0	4.919145676144639e+17
19569.0	4.9182828183333536e+17
19570.0	4.917433201939798e+17
19571.0	4.916571927478271e+17
19572.0	4.915677264958804e+17
19573.0	4.9146105143405216e+17
19574.0	4.913787612867242e+17
19575.0	4.913132508020736e+17
19576.0	4.912147498095957e+17
19577.0	4.911044400338261e+17
19578.0	4.910473465386326e+17
19579.0	4.9096352211490125e+17
19580.0	4.908772195565566e+17
19581.0	4.907917728459433e+17
19582.0	4.907078635574613e+17
19583.0	4.9062118861482656e+17
19584.0	4.9053126050010445e+17
19585.0	4.904325000200191e+17
19586.0	4.9034091802132474e+17
19587.0	4.9024973399217485e+17
19588.0	4.9011888254266035e+17
19589.0	4.9010102557300045e+17
19590.0	4.8999464180558496e+17
19591.0	4.899296637878271e+17
19592.0	4.89844179538193e+17
19593.0	4.897375504039934e+17
19594.0	4.896176349730131e+17
19595.0	4.8958013663696205e+17
19596.0	4.894324432393557e+17
19597.0	4.894079436805462e+17
19598.0	4.8924089860314445e+17
19599.0	4.892356292990293e+17
19600.0	4.891503593084244e+17
19601.0	4.890533649099435e+17
19602.0	4.889673282005674e+17
19603.0	4.8875403148438163e+17
19604.0	4.8878501264097274e+17
19605.0	4.8867102061581645e+17
19606.0	4.8862793288034976e+17
19607.0	4.885425272739156e+17
19608.0	4.884531852432724e+17
19609.0	4.8836102044603725e+17
19610.0	4.881922196329814e+17
19611.0	4.880661386450262e+17
19612.0	4.8810832537408845e+17
19613.0	4.880199288793771e+17
19614.0	4.8792882999459834e+17
19615.0	4.8784547211728205e+17
19616.0	4.876046920843264e+17
19617.0	4.875424321153707e+17
19618.0	4.8748682578056506e+17
19619.0	4.8736225264489786e+17
19620.0	4.8725604133328186e+17
19621.0	4.871436142728532e+17
19622.0	4.8723894192482976e+17
19623.0	4.871422813929471e+17
19624.0	4.8703593768113485e+17
19625.0	4.8697682931220474e+17
19626.0	4.868876386260308e+17
19627.0	4.867950948035242e+17
19628.0	4.8658983297570157e+17
19629.0	4.861405631086589e+17
19630.0	4.860547890326187e+17
19631.0	4.816013736542206e+17
19632.0	4.863063345856511e+17
19633.0	4.862462128029696e+17
19634.0	4.8619092474593274e+17
19635.0	4.860781868875774e+17
19636.0	4.858166699360253e+17
19637.0	4.8569294453910163e+17
19638.0	4.858309840470015e+17
19639.0	4.857622793901396e+17
19640.0	4.8566320999956474e+17
19641.0	4.853811138352475e+17
19642.0	4.85489215869201e+17
19643.0	4.8540141685309434e+17
19644.0	4.853223231149396e+17
19645.0	4.8520309953440403e+17
19646.0	4.849382351787345e+17
19647.0	4.8506809859003725e+17
19648.0	4.849861716694356e+17
19649.0	4.848992124927998e+17
19650.0	4.848135640361642e+17
19651.0	4.847264746263892e+17
19652.0	4.8463979653802656e+17
19653.0	4.845509800536746e+17
19654.0	4.844668517526187e+17
19655.0	4.843794919500458e+17
