# Flux units: erg / (cm m2 s)
# Wavelength units: Angstrom
wave	flux
19000.0	5.147483002197332e+17
19001.0	5.146352038182911e+17
19002.0	5.145674381262847e+17
19003.0	5.144790855319551e+17
19004.0	5.1436166228650656e+17
19005.0	5.1426878963056614e+17
19006.0	5.141860386690389e+17
19007.0	5.1410912065617914e+17
19008.0	5.1401622430242125e+17
19009.0	5.1389529657617043e+17
19010.0	5.138196345476437e+17
19011.0	5.137132521783296e+17
19012.0	5.135445585996457e+17
19013.0	5.135644894429183e+17
19014.0	5.134532084760575e+17
19015.0	5.133635292233728e+17
19016.0	5.132890441165483e+17
19017.0	5.1320804036225696e+17
19018.0	5.131071440726699e+17
19019.0	5.130225116861781e+17
19020.0	5.129273217471828e+17
19021.0	5.1283904003659085e+17
19022.0	5.1275226352189434e+17
19023.0	5.1262334264060576e+17
19024.0	5.125089000772947e+17
19025.0	5.124433455524522e+17
19026.0	5.123366270096725e+17
19027.0	5.122439656767487e+17
19028.0	5.1215670115478176e+17
19029.0	5.1206417299101005e+17
19030.0	5.1196575183011834e+17
19031.0	5.118800557681321e+17
19032.0	5.117702771310591e+17
19033.0	5.115922468918612e+17
19034.0	5.1135573484284595e+17
19035.0	5.106236121590441e+17
19036.0	5.0882724670122656e+17
19037.0	5.105488269497683e+17
19038.0	5.1101313961820154e+17
19039.0	5.110676432005802e+17
19040.0	5.1102499418931194e+17
19041.0	5.109634549415935e+17
19042.0	5.0925939709706016e+17
19043.0	5.1081391961538554e+17
19044.0	5.1073593771731616e+17
19045.0	5.1062204901184845e+17
19046.0	5.105364129983146e+17
19047.0	5.104328794002772e+17
19048.0	5.101008088727551e+17
19049.0	5.0679553080688205e+17
19050.0	5.1000188271766163e+17
19051.0	5.096592656127315e+17
19052.0	5.096542185368234e+17
19053.0	5.097806681341951e+17
19054.0	5.097596491486549e+17
19055.0	5.092063278967466e+17
19056.0	5.094987932893177e+17
19057.0	5.095681246451028e+17
19058.0	5.077460477542372e+17
19059.0	5.087078556281509e+17
19060.0	5.0930631283397965e+17
19061.0	5.092087094924628e+17
19062.0	5.0911262406956365e+17
19063.0	5.0904374499956045e+17
19064.0	5.0894899385466874e+17
19065.0	5.0885019303935994e+17
19066.0	5.0814025528770624e+17
19067.0	5.086489992669866e+17
19068.0	5.0859933947658234e+17
19069.0	5.085056665474388e+17
19070.0	5.083971034196651e+17
19071.0	5.083067764266325e+17
19072.0	5.0758125795409824e+17
19073.0	5.081542649621162e+17
19074.0	5.0803540181210445e+17
19075.0	5.079652806688768e+17
19076.0	5.078706615047508e+17
19077.0	5.077795814943402e+17
19078.0	5.076866610233343e+17
19079.0	5.075939756430676e+17
19080.0	5.075102317499732e+17
19081.0	5.0741701313385805e+17
19082.0	5.073376253050878e+17
19083.0	5.0722360350037325e+17
19084.0	5.0712565783374496e+17
19085.0	5.070452638613503e+17
19086.0	5.0600741605212115e+17
19087.0	5.054091950555117e+17
19088.0	5.0587066936852326e+17
19089.0	5.0666262058325325e+17
19090.0	5.065952497150635e+17
19091.0	5.064014383371612e+17
19092.0	5.0506237854351744e+17
19093.0	5.063320848214697e+17
19094.0	5.0625111273417376e+17
19095.0	5.0615082475847674e+17
19096.0	5.060756881364308e+17
19097.0	5.059854089584639e+17
19098.0	5.051976182136825e+17
19099.0	5.049521962745865e+17
19100.0	5.057067392608938e+17
19101.0	5.0561780030286496e+17
19102.0	5.055329877011114e+17
19103.0	5.054367634467498e+17
19104.0	5.053627376861183e+17
19105.0	5.037131910436228e+17
19106.0	5.051568979531091e+17
19107.0	5.046893943980025e+17
19108.0	5.043649346448047e+17
19109.0	5.048567717341867e+17
19110.0	5.047783827090089e+17
19111.0	5.042454118705828e+17
19112.0	5.040828946142539e+17
19113.0	5.0454666167364256e+17
19114.0	5.0413510642892736e+17
19115.0	5.0430907203802445e+17
19116.0	5.042615231010134e+17
19117.0	5.0416694511097165e+17
19118.0	5.0398543276059296e+17
19119.0	5.033126051621541e+17
19120.0	5.0383273304173235e+17
19121.0	5.037855485897385e+17
19122.0	5.037433083833002e+17
19123.0	5.036688997526187e+17
19124.0	5.035282943792467e+17
19125.0	5.034836569882623e+17
19126.0	5.033785901623978e+17
19127.0	5.032585456866644e+17
19128.0	5.031863206805503e+17
19129.0	5.0312726180440723e+17
19130.0	5.0305162221540685e+17
19131.0	5.0296344787899725e+17
19132.0	5.028651111634261e+17
19133.0	5.0278498506724685e+17
19134.0	5.026946584237396e+17
19135.0	5.026137679156566e+17
19136.0	5.025175539373396e+17
19137.0	5.0241558872937805e+17
19138.0	5.023430778115413e+17
19139.0	5.0226061688613536e+17
19140.0	5.02174159278353e+17
19141.0	5.020807009577642e+17
19142.0	5.019847372395861e+17
19143.0	5.018961106873002e+17
19144.0	5.017989847973887e+17
19145.0	5.017167710562985e+17
19146.0	5.015753900163072e+17
19147.0	5.0154025468122445e+17
19148.0	5.0089683090145363e+17
19149.0	5.006929915019264e+17
19150.0	5.012794155991038e+17
19151.0	5.0118030880931834e+17
19152.0	5.010909272124074e+17
19153.0	4.998166880802113e+17
19154.0	5.0081730556941664e+17
19155.0	5.00821568590097e+17
19156.0	5.007246817755135e+17
19157.0	5.002522860541279e+17
19158.0	4.9968742801954266e+17
19159.0	5.004206535955796e+17
19160.0	5.0033121901062816e+17
19161.0	5.002341968598356e+17
19162.0	5.0011573237841914e+17
19163.0	5.000454192059732e+17
19164.0	4.9997727427898016e+17
19165.0	4.9862309199216435e+17
19166.0	4.998094255030271e+17
19167.0	4.997452606210046e+17
19168.0	4.996547729162239e+17
19169.0	4.995727723156821e+17
19170.0	4.9948875691130874e+17
19171.0	4.993949136235178e+17
19172.0	4.9930575068965536e+17
19173.0	4.99231184073523e+17
19174.0	4.9913783368635725e+17
19175.0	4.990443919332694e+17
19176.0	4.989644695404543e+17
19177.0	4.9885560267516576e+17
19178.0	4.987695087834453e+17
19179.0	4.9868891068825594e+17
19180.0	4.986049164651177e+17
19181.0	4.9851251441008634e+17
19182.0	4.983987973914624e+17
19183.0	4.9832906457088e+17
19184.0	4.982454305685504e+17
19185.0	4.9814304033778336e+17
19186.0	4.980548943828308e+17
19187.0	4.9795601820986016e+17
19188.0	4.978675832673621e+17
19189.0	4.9776489020784634e+17
19190.0	4.9766180616929274e+17
19191.0	4.9755383905211725e+17
19192.0	4.9743699238365856e+17
19193.0	4.971502187315201e+17
19194.0	4.9692222132933997e+17
19195.0	4.9701511670442656e+17
19196.0	4.9681677442962765e+17
19197.0	4.965689882312703e+17
19198.0	4.9624362208897696e+17
19199.0	4.9581871553576954e+17
19200.0	4.9576262566761805e+17
19201.0	4.960048711903913e+17
19202.0	4.961573894356991e+17
19203.0	4.96196191920674e+17
19204.0	4.962389028678314e+17
19205.0	4.9622022346506234e+17
19206.0	4.9618255861514234e+17
19207.0	4.960964495540224e+17
19208.0	4.9605948801897805e+17
19209.0	4.959983032598527e+17
19210.0	4.959127919569578e+17
19211.0	4.958496494365355e+17
19212.0	4.957683453700778e+17
19213.0	4.9567713519643296e+17
19214.0	4.955952110720341e+17
19215.0	4.955225822243498e+17
19216.0	4.954434314436607e+17
19217.0	4.953619466027007e+17
19218.0	4.9525259550501536e+17
19219.0	4.951640280225108e+17
19220.0	4.951028378107903e+17
19221.0	4.950198764350122e+17
19222.0	4.9492335235781965e+17
19223.0	4.948512203254442e+17
19224.0	4.947590936264703e+17
19225.0	4.9468739339769165e+17
19226.0	4.946073469233834e+17
19227.0	4.945165898743808e+17
19228.0	4.9443397837346125e+17
19229.0	4.9431978516152314e+17
19230.0	4.942559932230313e+17
19231.0	4.941827198506324e+17
19232.0	4.940943551627264e+17
19233.0	4.939961874776064e+17
19234.0	4.9391044730552314e+17
19235.0	4.9382630614193485e+17
19236.0	4.937443387462995e+17
19237.0	4.9364194383189325e+17
19238.0	4.9356078404949325e+17
19239.0	4.93482644026163e+17
19240.0	4.9338998017665696e+17
19241.0	4.933112461000704e+17
19242.0	4.932040208853674e+17
19243.0	4.931268648457557e+17
19244.0	4.930465248400726e+17
19245.0	4.9296771932050765e+17
19246.0	4.928837380298068e+17
19247.0	4.927968108696917e+17
19248.0	4.927037147971583e+17
19249.0	4.925687226608297e+17
19250.0	4.922725394371926e+17
19251.0	4.921885362662053e+17
19252.0	4.923367442350079e+17
19253.0	4.922681963752106e+17
19254.0	4.9218639849936205e+17
19255.0	4.920786240405503e+17
19256.0	4.919966474873515e+17
19257.0	4.9191734165722445e+17
19258.0	4.9182119758397434e+17
19259.0	4.917151321642325e+17
19260.0	4.915143174870358e+17
19261.0	4.9154708842304845e+17
19262.0	4.9145455417753594e+17
19263.0	4.913628465594368e+17
19264.0	4.9128913753866234e+17
19265.0	4.9120212474484045e+17
19266.0	4.911217156729513e+17
19267.0	4.9105545084272634e+17
19268.0	4.9096054366972576e+17
19269.0	4.9087915963187194e+17
19270.0	4.907911488034132e+17
19271.0	4.9069057980934816e+17
19272.0	4.9062088145196365e+17
19273.0	4.9052813078036474e+17
19274.0	4.904201027758761e+17
19275.0	4.903677509413546e+17
19276.0	4.9027973514963616e+17
19277.0	4.9019471996299936e+17
19278.0	4.900699933857108e+17
19279.0	4.900100866310143e+17
19280.0	4.8992785073001805e+17
19281.0	4.8983053966158496e+17
19282.0	4.897418998972414e+17
19283.0	4.896369931539796e+17
19284.0	4.8953264201618765e+17
19285.0	4.8941255678580045e+17
19286.0	4.8924049567034016e+17
19287.0	4.889109999561385e+17
19288.0	4.8763913011636883e+17
19289.0	4.872167151894525e+17
19290.0	4.8859734766605645e+17
19291.0	4.887768640170668e+17
19292.0	4.8880625693054285e+17
19293.0	4.8875700881107616e+17
19294.0	4.8868369566269434e+17
19295.0	4.8861085898724685e+17
19296.0	4.8775991866163424e+17
19297.0	4.8832568965638886e+17
19298.0	4.883592886179157e+17
19299.0	4.8741869846965e+17
19300.0	4.881940266090496e+17
19301.0	4.881097348000426e+17
19302.0	4.8802235996788045e+17
19303.0	4.8791678856724474e+17
19304.0	4.878361354567679e+17
19305.0	4.8773829709441696e+17
19306.0	4.876473438917972e+17
19307.0	4.875323929788415e+17
19308.0	4.874317138842966e+17
19309.0	4.8728769504651936e+17
19310.0	4.8715324607255885e+17
19311.0	4.869799592416596e+17
19312.0	4.866622579103059e+17
19313.0	4.8564077823262726e+17
19314.0	4.6907645468781645e+17
19315.0	4.697313628214659e+17
19316.0	4.844427642841787e+17
19317.0	4.8626446173033805e+17
19318.0	4.8641670329139194e+17
19319.0	4.8641431393621325e+17
19320.0	4.861000830418935e+17
19321.0	4.85643401629969e+17
19322.0	4.862647070971221e+17
19323.0	4.861936274855253e+17
19324.0	4.8610684460946765e+17
19325.0	4.860330360438783e+17
19326.0	4.8595051569916576e+17
19327.0	4.8587831313257805e+17
19328.0	4.844034467386724e+17
19329.0	4.857213148812629e+17
19330.0	4.856420389705044e+17
19331.0	4.855568181231615e+17
19332.0	4.854698710401023e+17
19333.0	4.853925454807038e+17
19334.0	4.852602448991575e+17
19335.0	4.8238310908232045e+17
19336.0	4.8511109873445555e+17
19337.0	4.850501565459114e+17
19338.0	4.8494794240600736e+17
19339.0	4.8486754242177696e+17
19340.0	4.8476866429146445e+17
19341.0	4.8365548825040454e+17
19342.0	4.843114119648608e+17
19343.0	4.8452667042693114e+17
19344.0	4.833950822301713e+17
19345.0	4.838502218858509e+17
19346.0	4.842005888761856e+17
19347.0	4.828613567665493e+17
19348.0	4.8410817249061536e+17
19349.0	4.840225708703743e+17
19350.0	4.834251313425068e+17
19351.0	4.838443550332245e+17
19352.0	4.8235726797537043e+17
19353.0	4.836883112656895e+17
19354.0	4.83611387101184e+17
19355.0	4.835169950586196e+17
19356.0	4.834342434679466e+17
19357.0	4.833543089815551e+17
19358.0	4.832641466149545e+17
19359.0	4.828816856492702e+17
19360.0	4.819853270231718e+17
19361.0	4.8300871336154445e+17
19362.0	4.8292388118637216e+17
19363.0	4.828400063610878e+17
19364.0	4.827566275821566e+17
19365.0	4.8266404034860365e+17
19366.0	4.825653858445994e+17
19367.0	4.8248856968342176e+17
19368.0	4.824111897378815e+17
19369.0	4.823232829281619e+17
19370.0	4.822412793916074e+17
19371.0	4.821424257979732e+17
19372.0	4.820640196460543e+17
19373.0	4.819652747547989e+17
19374.0	4.818809252042068e+17
19375.0	4.818070901445972e+17
19376.0	4.817245166720341e+17
19377.0	4.8163879320726176e+17
19378.0	4.8155198174003194e+17
19379.0	4.8146444647574176e+17
19380.0	4.813475590526292e+17
19381.0	4.8126899813089274e+17
19382.0	4.8118475763220474e+17
19383.0	4.8109427433144314e+17
19384.0	4.8098294303293434e+17
19385.0	4.809182390430378e+17
19386.0	4.8081523022233594e+17
19387.0	4.807005136311636e+17
19388.0	4.805653400911872e+17
19389.0	4.8037207278441805e+17
19390.0	4.798835275246249e+17
19391.0	4.780686735048699e+17
19392.0	4.791550296981503e+17
19393.0	4.798952494858239e+17
19394.0	4.7999827941785594e+17
19395.0	4.795720655699978e+17
19396.0	4.798261638463492e+17
19397.0	4.798402272777555e+17
19398.0	4.7939141179364717e+17
19399.0	4.791755628434772e+17
19400.0	4.792630435818159e+17
19401.0	4.7949807720857594e+17
19402.0	4.794180347188564e+17
19403.0	4.7932887066651296e+17
19404.0	4.792271256595114e+17
19405.0	4.791302519171755e+17
19406.0	4.790441169212756e+17
19407.0	4.7845310719153414e+17
19408.0	4.788372903384404e+17
19409.0	4.7874084951818234e+17
19410.0	4.7865464112196256e+17
19411.0	4.785579484337492e+17
19412.0	4.78453192335906e+17
19413.0	4.7784714581661024e+17
19414.0	4.782542214747477e+17
19415.0	4.781352838758398e+17
19416.0	4.7800720444183885e+17
19417.0	4.7791487515798176e+17
19418.0	4.7780764826555725e+17
19419.0	4.776927959187456e+17
19420.0	4.7757269712677536e+17
19421.0	4.7744921919378765e+17
19422.0	4.7731019479340365e+17
19423.0	4.771932183811414e+17
19424.0	4.770530766181717e+17
19425.0	4.768895135121407e+17
19426.0	4.767380482468521e+17
19427.0	4.7656167203143674e+17
19428.0	4.76336311448371e+17
19429.0	4.760951895097343e+17
19430.0	4.7572278215092896e+17
19431.0	4.7541966392524794e+17
19432.0	4.75380180984354e+17
19433.0	4.7518494368290125e+17
19434.0	4.748912423687508e+17
19435.0	4.744133054125395e+17
19436.0	4.738353271057066e+17
19437.0	4.7280763077044896e+17
19438.0	4.689006525328044e+17
19439.0	4.707104856910504e+17
19440.0	4.720952614409557e+17
19441.0	4.71939673174835e+17
19442.0	4.7140945652613126e+17
19443.0	4.706511834753706e+17
19444.0	4.696621654037845e+17
19445.0	4.684788723438934e+17
19446.0	4.669143731841706e+17
19447.0	4.649487047852031e+17
19448.0	4.622573079188821e+17
19449.0	4.5838140695729485e+17
19450.0	4.516899978564944e+17
19451.0	4.463453522974039e+17
19452.0	4.554855458799615e+17
19453.0	4.601429034183338e+17
19454.0	4.6301613769359354e+17
19455.0	4.6491868671071565e+17
19456.0	4.6590003340028576e+17
19457.0	4.644118305876655e+17
19458.0	4.2469045217964563e+17
19459.0	4.5488746483330374e+17
19460.0	4.6831488176837946e+17
19461.0	4.7013436846680723e+17
19462.0	4.709209186762751e+17
19463.0	4.7140843912779085e+17
19464.0	4.717343080273236e+17
19465.0	4.719876511192405e+17
19466.0	4.721887570209449e+17
19467.0	4.7234335060787194e+17
19468.0	4.724635978782037e+17
19469.0	4.715633766476442e+17
19470.0	4.7260917280276474e+17
19471.0	4.726558863742292e+17
19472.0	4.726856798437376e+17
19473.0	4.726958612370771e+17
19474.0	4.7166658546674176e+17
19475.0	4.7264959100354554e+17
19476.0	4.7267338333279565e+17
19477.0	4.726571823442602e+17
19478.0	4.726397365562026e+17
19479.0	4.7162236226327725e+17
19480.0	4.7256584690073594e+17
19481.0	4.725057476274858e+17
19482.0	4.7246437431377914e+17
19483.0	4.7242294311867725e+17
19484.0	4.7235947798637216e+17
19485.0	4.723115274447529e+17
19486.0	4.7120842968706016e+17
19487.0	4.721754220702378e+17
19488.0	4.721116046863019e+17
19489.0	4.720257367976617e+17
19490.0	4.719323749460651e+17
19491.0	4.7188359001757005e+17
19492.0	4.7182002541035514e+17
19493.0	4.7172809416594765e+17
19494.0	4.716291340369918e+17
19495.0	4.7149881288731296e+17
19496.0	4.7127266041965216e+17
19497.0	4.7087010845818874e+17
19498.0	4.6920915456709946e+17
19499.0	4.6766933063761914e+17
19500.0	4.703137928227497e+17
19501.0	4.7084376753001805e+17
19502.0	4.709361124726102e+17
19503.0	4.70926321988403e+17
19504.0	4.70867736858897e+17
19505.0	4.70761049353967e+17
19506.0	4.7069105431947936e+17
19507.0	4.7055644204728314e+17
19508.0	4.703379390114474e+17
19509.0	4.6988156860716365e+17
19510.0	4.6772268197478336e+17
19511.0	4.4688320229976326e+17
19512.0	4.657709397136722e+17
19513.0	4.679167096389629e+17
19514.0	4.684280412241916e+17
19515.0	4.6959587589707085e+17
19516.0	4.696441638005416e+17
19517.0	4.6981224249425914e+17
19518.0	4.6949735798756634e+17
19519.0	4.694366610959014e+17
19520.0	4.6867452565039635e+17
19521.0	4.696458477436927e+17
19522.0	4.6940872395543866e+17
19523.0	4.692477964102323e+17
19524.0	4.686417951894208e+17
19525.0	4.693313674980011e+17
19526.0	4.6926886656628045e+17
19527.0	4.692004257311402e+17
19528.0	4.6903559077232614e+17
19529.0	4.689178742751233e+17
19530.0	4.6896417512707405e+17
19531.0	4.688841185864362e+17
19532.0	4.688023938312874e+17
19533.0	4.687155868379817e+17
19534.0	4.686497710779051e+17
19535.0	4.685707134107647e+17
19536.0	4.684834632193364e+17
19537.0	4.683926264785578e+17
19538.0	4.6736233317007494e+17
19539.0	4.682395932426239e+17
19540.0	4.681640362115071e+17
19541.0	4.6785157384546976e+17
19542.0	4.6790525198882125e+17
19543.0	4.669026785558535e+17
19544.0	4.677679694828884e+17
19545.0	4.6772102235859616e+17
19546.0	4.676570534903807e+17
19547.0	4.6760404266079565e+17
19548.0	4.6752855896009376e+17
19549.0	4.674333343481855e+17
19550.0	4.67354551058432e+17
19551.0	4.672930478118229e+17
19552.0	4.672022681135785e+17
19553.0	4.671305877378389e+17
19554.0	4.670378483908607e+17
19555.0	4.6683723511016134e+17
19556.0	4.6679114879685946e+17
19557.0	4.667925907286699e+17
19558.0	4.667238386761727e+17
19559.0	4.6664448691841696e+17
19560.0	4.6619524676102765e+17
19561.0	4.6648137630788256e+17
19562.0	4.660493431428433e+17
19563.0	4.663281706860544e+17
19564.0	4.6622411154172576e+17
19565.0	4.661564644087125e+17
19566.0	4.6606664352836256e+17
19567.0	4.660038473875456e+17
19568.0	4.6592038933626874e+17
19569.0	4.658432404269738e+17
19570.0	4.657542621123924e+17
19571.0	4.656726271153491e+17
19572.0	4.6559813466849274e+17
19573.0	4.6539534307601043e+17
19574.0	4.653871393669118e+17
19575.0	4.6536243232986445e+17
19576.0	4.652181544938153e+17
19577.0	4.650199568525994e+17
19578.0	4.6511787420767565e+17
19579.0	4.650409654222847e+17
19580.0	4.6494978915259725e+17
19581.0	4.648625424564223e+17
19582.0	4.647958354766506e+17
19583.0	4.647222977232896e+17
19584.0	4.6462737950528845e+17
19585.0	4.6454515073460896e+17
19586.0	4.6446340556718086e+17
19587.0	4.6439162536700576e+17
19588.0	4.642987748709717e+17
19589.0	4.6423079345192954e+17
19590.0	4.6414050490668365e+17
19591.0	4.640704542976682e+17
19592.0	4.639915495828138e+17
19593.0	4.638159003800916e+17
19594.0	4.637239057317886e+17
19595.0	4.637521278053034e+17
19596.0	4.6365163374946976e+17
19597.0	4.6358799042914976e+17
19598.0	4.634600676524032e+17
19599.0	4.634199262057813e+17
19600.0	4.633354302040747e+17
19601.0	4.6325787137146874e+17
19602.0	4.631722575877462e+17
19603.0	4.630820499925674e+17
19604.0	4.630131442188288e+17
19605.0	4.629169629560832e+17
19606.0	4.628539093549055e+17
19607.0	4.627870961194324e+17
19608.0	4.6268442997336736e+17
19609.0	4.6262128780247034e+17
19610.0	4.6206857563340896e+17
19611.0	4.6174771515228205e+17
19612.0	4.6238458225623034e+17
19613.0	4.622861726296746e+17
19614.0	4.622122229956607e+17
19615.0	4.6213101931287885e+17
19616.0	4.61570248278017e+17
19617.0	4.612490656743429e+17
19618.0	4.6180862588354554e+17
19619.0	4.6165413477744634e+17
19620.0	4.614460830384117e+17
19621.0	4.605880993579004e+17
19622.0	4.615543891951615e+17
19623.0	4.614196090809001e+17
19624.0	4.612299773269334e+17
19625.0	4.612844522482345e+17
19626.0	4.6116534429067936e+17
19627.0	4.610493264865961e+17
19628.0	4.6088275976956595e+17
19629.0	4.5825440685752186e+17
19630.0	4.603677349598548e+17
19631.0	4.6011471252247885e+17
19632.0	4.603710822940671e+17
19633.0	4.604403435350699e+17
19634.0	4.6047647592611834e+17
19635.0	4.6034138990728454e+17
19636.0	4.592408122272415e+17
19637.0	4.591907480360263e+17
19638.0	4.6019232811799834e+17
19639.0	4.6018958755976525e+17
19640.0	4.600849651903146e+17
19641.0	4.5998129667549856e+17
19642.0	4.598940719295147e+17
19643.0	4.598236266364927e+17
19644.0	4.598186685497343e+17
19645.0	4.5974677000028154e+17
19646.0	4.5843960914684397e+17
19647.0	4.595587961148754e+17
19648.0	4.59517457543987e+17
19649.0	4.5943220244316154e+17
19650.0	4.593560270318249e+17
19651.0	4.592778953971028e+17
19652.0	4.592046803954346e+17
19653.0	4.591141755639123e+17
19654.0	4.590470594297855e+17
19655.0	4.5895679423283194e+17
