# Flux units: erg / (cm m2 s)
# Wavelength units: Angstrom
wave	flux
19000.0	8.787709739575977e+17
19001.0	8.785951367102463e+17
19002.0	8.784698759184383e+17
19003.0	8.783179833933824e+17
19004.0	8.781672854061056e+17
19005.0	8.780145700984147e+17
19006.0	8.778630409398953e+17
19007.0	8.77701475930385e+17
19008.0	8.775428070877864e+17
19009.0	8.773862953757353e+17
19010.0	8.771472043890002e+17
19011.0	8.770919824621567e+17
19012.0	8.769273445657258e+17
19013.0	8.768064989779283e+17
19014.0	8.766357161465172e+17
19015.0	8.764897124242774e+17
19016.0	8.763344465603244e+17
19017.0	8.761767261896703e+17
19018.0	8.760320517821779e+17
19019.0	8.758773055924906e+17
19020.0	8.757147733764778e+17
19021.0	8.755663583488682e+17
19022.0	8.754127521710076e+17
19023.0	8.752457524619944e+17
19024.0	8.752080753087828e+17
19025.0	8.751251760087037e+17
19026.0	8.74963212120883e+17
19027.0	8.747987454918655e+17
19028.0	8.746544364082515e+17
19029.0	8.7449314277021e+17
19030.0	8.743426284934484e+17
19031.0	8.741865591406591e+17
19032.0	8.740285974577152e+17
19033.0	8.738471585775612e+17
19034.0	8.737063787211432e+17
19035.0	8.7353958872733e+17
19036.0	8.723006775885821e+17
19037.0	8.732301304616276e+17
19038.0	8.730698609328127e+17
19039.0	8.729167699552936e+17
19040.0	8.727589409521663e+17
19041.0	8.725970445926399e+17
19042.0	8.724157277667327e+17
19043.0	8.722801519230973e+17
19044.0	8.721166473276072e+17
19045.0	8.719598347441492e+17
19046.0	8.717846374077779e+17
19047.0	8.716343595499519e+17
19048.0	8.714283318422182e+17
19049.0	8.712984431951871e+17
19050.0	8.711433821530792e+17
19051.0	8.708048526071121e+17
19052.0	8.708002106310653e+17
19053.0	8.706700827688957e+17
19054.0	8.705108405649407e+17
19055.0	8.702836973327702e+17
19056.0	8.701808886502742e+17
19057.0	8.700236823614804e+17
19058.0	8.698575241696599e+17
19059.0	8.697007401074688e+17
19060.0	8.695340532935337e+17
19061.0	8.693776917375656e+17
19062.0	8.692140360073212e+17
19063.0	8.690516360516947e+17
19064.0	8.688558622987603e+17
19065.0	8.686764396205395e+17
19066.0	8.685456431863122e+17
19067.0	8.683959828698451e+17
19068.0	8.682364779626495e+17
19069.0	8.680733592431273e+17
19070.0	8.679019369201663e+17
19071.0	8.677442316490067e+17
19072.0	8.675821949201066e+17
19073.0	8.674157545914367e+17
19074.0	8.6725416203933e+17
19075.0	8.670899178482346e+17
19076.0	8.669204797106856e+17
19077.0	8.667582273945599e+17
19078.0	8.665846529742166e+17
19079.0	8.664306245697535e+17
19080.0	8.662621941836456e+17
19081.0	8.660902208689491e+17
19082.0	8.659249385876136e+17
19083.0	8.657357792520872e+17
19084.0	8.655370409650858e+17
19085.0	8.654365546687146e+17
19086.0	8.651648694659753e+17
19087.0	8.650809091467944e+17
19088.0	8.649149837388458e+17
19089.0	8.647117492977664e+17
19090.0	8.646003751474515e+17
19091.0	8.644370132981078e+17
19092.0	8.642579841854122e+17
19093.0	8.641120699416575e+17
19094.0	8.639450389151743e+17
19095.0	8.637782504592723e+17
19096.0	8.63610404619332e+17
19097.0	8.634471579735382e+17
19098.0	8.632797718293161e+17
19099.0	8.63112387362816e+17
19100.0	8.629446207952212e+17
19101.0	8.627795554992127e+17
19102.0	8.625920057977514e+17
19103.0	8.624432654319616e+17
19104.0	8.622777670041599e+17
19105.0	8.621087063539711e+17
19106.0	8.619370499888468e+17
19107.0	8.617684982475433e+17
19108.0	8.616037054414845e+17
19109.0	8.613276069920764e+17
19110.0	8.61258452426206e+17
19111.0	8.611012933932372e+17
19112.0	8.609338012729344e+17
19113.0	8.607655677394944e+17
19114.0	8.605954127953917e+17
19115.0	8.604147574112253e+17
19116.0	8.60252811838532e+17
19117.0	8.600830904456531e+17
19118.0	8.598969578597034e+17
19119.0	8.592715674200739e+17
19120.0	8.595681613359786e+17
19121.0	8.594062529527807e+17
19122.0	8.592444126571178e+17
19123.0	8.590737156691283e+17
19124.0	8.588975820242943e+17
19125.0	8.587339251755689e+17
19126.0	8.585617777972564e+17
19127.0	8.579913560883197e+17
19128.0	8.581556201324543e+17
19129.0	8.58030278390579e+17
19130.0	8.578787065899689e+17
19131.0	8.57711574061329e+17
19132.0	8.575220582099625e+17
19133.0	8.57125378134289e+17
19134.0	8.569951335306582e+17
19135.0	8.568543301861373e+17
19136.0	8.566847649611775e+17
19137.0	8.564754322817021e+17
19138.0	8.563373868318719e+17
19139.0	8.561703353931092e+17
19140.0	8.559993847895379e+17
19141.0	8.55827668725487e+17
19142.0	8.556493688624468e+17
19143.0	8.55465033395951e+17
19144.0	8.552852927894867e+17
19145.0	8.55122272216678e+17
19146.0	8.548010294946476e+17
19147.0	8.547570101343572e+17
19148.0	8.546045055205375e+17
19149.0	8.544308051312639e+17
19150.0	8.542580446855165e+17
19151.0	8.540848539041791e+17
19152.0	8.539101302445396e+17
19153.0	8.537342888028842e+17
19154.0	8.535350627183272e+17
19155.0	8.533912814179667e+17
19156.0	8.532157580443647e+17
19157.0	8.530336511513939e+17
19158.0	8.528047595935059e+17
19159.0	8.526849174230355e+17
19160.0	8.525135241805821e+17
19161.0	8.523349844033536e+17
19162.0	8.519979301339137e+17
19163.0	8.519786005441192e+17
19164.0	8.518198774551891e+17
19165.0	8.51641772487475e+17
19166.0	8.514451526036137e+17
19167.0	8.512785923178495e+17
19168.0	8.511024954430803e+17
19169.0	8.509325764984831e+17
19170.0	8.507665340694525e+17
19171.0	8.505835814649853e+17
19172.0	8.504138417569791e+17
19173.0	8.502381805305856e+17
19174.0	8.50047741932339e+17
19175.0	8.498849089847295e+17
19176.0	8.497059641775443e+17
19177.0	8.494916332858026e+17
19178.0	8.493471699916118e+17
19179.0	8.491642127734098e+17
19180.0	8.48989522108962e+17
19181.0	8.487963344240639e+17
19182.0	8.486317777573203e+17
19183.0	8.483854883662501e+17
19184.0	8.480504768626688e+17
19185.0	8.478809211447977e+17
19186.0	8.477054783018323e+17
19187.0	8.47503033368576e+17
19188.0	8.473446539329536e+17
19189.0	8.471631873703936e+17
19190.0	8.4698165425821e+17
19191.0	8.467945158781608e+17
19192.0	8.466221074743295e+17
19193.0	8.464351806270124e+17
19194.0	8.46252563706675e+17
19195.0	8.460747446506834e+17
19196.0	8.458849946173437e+17
19197.0	8.456971096511828e+17
19198.0	8.45478933421534e+17
19199.0	8.443195971775144e+17
19200.0	8.443769003180035e+17
19201.0	8.449365573457234e+17
19202.0	8.447858617352192e+17
19203.0	8.446084268774739e+17
19204.0	8.444244849765033e+17
19205.0	8.442442403545085e+17
19206.0	8.440587771794772e+17
19207.0	8.438540743125673e+17
19208.0	8.43651136828211e+17
19209.0	8.435051379993256e+17
19210.0	8.431873350260055e+17
19211.0	8.428689027672745e+17
19212.0	8.426814006012586e+17
19213.0	8.424691331672745e+17
19214.0	8.422742618887508e+17
19215.0	8.421153262884179e+17
19216.0	8.419292363445587e+17
19217.0	8.417400842791594e+17
19218.0	8.413615029048657e+17
19219.0	8.413189993660416e+17
19220.0	8.411689250717693e+17
19221.0	8.409094852793686e+17
19222.0	8.407931668834986e+17
19223.0	8.405997731184637e+17
19224.0	8.40398939776614e+17
19225.0	8.401869781073917e+17
19226.0	8.400240355486374e+17
19227.0	8.398313536968019e+17
19228.0	8.396476719824895e+17
19229.0	8.393088870034088e+17
19230.0	8.390930205769727e+17
19231.0	8.388977410528594e+17
19232.0	8.387041726649683e+17
19233.0	8.384948294997331e+17
19234.0	8.383114645951828e+17
19235.0	8.381120039092224e+17
19236.0	8.379250950974121e+17
19237.0	8.37723406816597e+17
19238.0	8.375071320047615e+17
19239.0	8.373324820250624e+17
19240.0	8.37107192116019e+17
19241.0	8.36918578599253e+17
19242.0	8.3672943310493e+17
19243.0	8.364862196766036e+17
19244.0	8.36334293876736e+17
19245.0	8.361313071792127e+17
19246.0	8.359266142388221e+17
19247.0	8.357260690456573e+17
19248.0	8.355257300724392e+17
19249.0	8.353214367094098e+17
19250.0	8.351123870056447e+17
19251.0	8.348800234029052e+17
19252.0	8.346287288090624e+17
19253.0	8.344954822022483e+17
19254.0	8.342900327492266e+17
19255.0	8.34036441494323e+17
19256.0	8.338677798622547e+17
19257.0	8.336686094221311e+17
19258.0	8.334594619910825e+17
19259.0	8.332298709630973e+17
19260.0	8.33017718453043e+17
19261.0	8.328225516158973e+17
19262.0	8.325982737924096e+17
19263.0	8.323861175074816e+17
19264.0	8.32069048677171e+17
19265.0	8.319291768875689e+17
19266.0	8.317269149657769e+17
19267.0	8.315373571713706e+17
19268.0	8.313171618037757e+17
19269.0	8.310989615267836e+17
19270.0	8.308788008321021e+17
19271.0	8.30584222838511e+17
19272.0	8.304249712672767e+17
19273.0	8.294779274832547e+17
19274.0	8.29551628954282e+17
19275.0	8.2976546254138e+17
19276.0	8.295377181256362e+17
19277.0	8.293129656467452e+17
19278.0	8.290731435928233e+17
19279.0	8.288190906848596e+17
19280.0	8.285784136919722e+17
19281.0	8.283658086165161e+17
19282.0	8.281388015594154e+17
19283.0	8.278959166849024e+17
19284.0	8.276408164592297e+17
19285.0	8.273989299688786e+17
19286.0	8.271951997610666e+17
19287.0	8.269700883895636e+17
19288.0	8.264443997716475e+17
19289.0	8.258254221432137e+17
19290.0	8.262576872532649e+17
19291.0	8.259511546544128e+17
19292.0	8.257776458050217e+17
19293.0	8.255340260884479e+17
19294.0	8.252891883459923e+17
19295.0	8.250477600134484e+17
19296.0	8.248002072980137e+17
19297.0	8.245487492661245e+17
19298.0	8.242985486865748e+17
19299.0	8.240569344065535e+17
19300.0	8.238053985004202e+17
19301.0	8.23551389073408e+17
19302.0	8.232949856774825e+17
19303.0	8.230227483645267e+17
19304.0	8.227722518069245e+17
19305.0	8.225165414498303e+17
19306.0	8.222557828284416e+17
19307.0	8.219803936358399e+17
19308.0	8.217186335544659e+17
19309.0	8.214261254498985e+17
19310.0	8.211355815378943e+17
19311.0	8.208554980802557e+17
19312.0	8.205816419057661e+17
19313.0	8.20304781910562e+17
19314.0	8.196609063343443e+17
19315.0	8.193992463570264e+17
19316.0	8.1946860336797e+17
19317.0	8.191866552625834e+17
19318.0	8.189000481243133e+17
19319.0	8.186161061866153e+17
19320.0	8.183253264149161e+17
19321.0	8.180316592843433e+17
19322.0	8.17710910092083e+17
19323.0	8.174243039324842e+17
19324.0	8.171360020157779e+17
19325.0	8.168188597851475e+17
19326.0	8.165321451328851e+17
19327.0	8.162261794641234e+17
19328.0	8.158504183398401e+17
19329.0	8.155148000602794e+17
19330.0	8.151916191503698e+17
19331.0	8.148718531029673e+17
19332.0	8.145609486412458e+17
19333.0	8.142342681438889e+17
19334.0	8.139087435967148e+17
19335.0	8.135800796129961e+17
19336.0	8.132455385705132e+17
19337.0	8.129070095837866e+17
19338.0	8.125190774281555e+17
19339.0	8.121410010480639e+17
19340.0	8.1172548840762e+17
19341.0	8.113782277188264e+17
19342.0	8.10941257578359e+17
19343.0	8.106632631637331e+17
19344.0	8.102953592291327e+17
19345.0	8.09540957311248e+17
19346.0	8.093867619734867e+17
19347.0	8.090385599430652e+17
19348.0	8.086056069671596e+17
19349.0	8.082074738447698e+17
19350.0	8.078142171600211e+17
19351.0	8.074120488375636e+17
19352.0	8.070002422841343e+17
19353.0	8.064005039281489e+17
19354.0	8.059467332233897e+17
19355.0	8.05504222686959e+17
19356.0	8.050982892776106e+17
19357.0	8.046657774026748e+17
19358.0	8.0391147922391e+17
19359.0	8.034335449939965e+17
19360.0	8.030043682897919e+17
19361.0	8.025468281640275e+17
19362.0	8.018017069826043e+17
19363.0	8.012331139902122e+17
19364.0	8.007502448820221e+17
19365.0	8.002593763972434e+17
19366.0	7.993626003679914e+17
19367.0	7.988039130633555e+17
19368.0	7.982891700409683e+17
19369.0	7.975326887269715e+17
19370.0	7.966097125583528e+17
19371.0	7.961158766034943e+17
19372.0	7.952146600645976e+17
19373.0	7.943880175517697e+17
19374.0	7.937678399329619e+17
19375.0	7.928794520922794e+17
19376.0	7.922812726192809e+17
19377.0	7.91665440019797e+17
19378.0	7.910419578486781e+17
19379.0	7.904069604955476e+17
19380.0	7.897607495308627e+17
19381.0	7.891015500649812e+17
19382.0	7.884160250500436e+17
19383.0	7.876924227452925e+17
19384.0	7.870108071013033e+17
19385.0	7.863009140189864e+17
19386.0	7.855776767584938e+17
19387.0	7.848392171104938e+17
19388.0	7.840844172929705e+17
19389.0	7.833104959231315e+17
19390.0	7.824818422415357e+17
19391.0	7.809672797661856e+17
19392.0	7.808097691107325e+17
19393.0	7.799854182258004e+17
19394.0	7.791294668952915e+17
19395.0	7.781904268219731e+17
19396.0	7.772503922791763e+17
19397.0	7.76339796857105e+17
19398.0	7.754015177703421e+17
19399.0	7.742629124330836e+17
19400.0	7.732991096083795e+17
19401.0	7.722972836003839e+17
19402.0	7.712008454187688e+17
19403.0	7.699665796115114e+17
19404.0	7.688572713478825e+17
19405.0	7.675177465457321e+17
19406.0	7.66256124788736e+17
19407.0	7.64867014365457e+17
19408.0	7.633609034126678e+17
19409.0	7.619307255802534e+17
19410.0	7.60429683024418e+17
19411.0	7.586567472283648e+17
19412.0	7.570058876289027e+17
19413.0	7.551596358183594e+17
19414.0	7.531745571591503e+17
19415.0	7.512156288669011e+17
19416.0	7.49206946901743e+17
19417.0	7.473283089126739e+17
19418.0	7.456188712441172e+17
19419.0	7.437913444843519e+17
19420.0	7.418917805533864e+17
19421.0	7.399334734375594e+17
19422.0	7.378512155508733e+17
19423.0	7.356661565314387e+17
19424.0	7.334015010865153e+17
19425.0	7.309704747985578e+17
19426.0	7.285229061756242e+17
19427.0	7.258954409181183e+17
19428.0	7.232002187766442e+17
19429.0	7.203205353395539e+17
19430.0	7.171718204358656e+17
19431.0	7.138085485674497e+17
19432.0	7.104193458339839e+17
19433.0	7.068023954691414e+17
19434.0	7.030441102715562e+17
19435.0	6.989871430238205e+17
19436.0	6.946932072469844e+17
19437.0	6.902583610310656e+17
19438.0	6.853454352525993e+17
19439.0	6.807433370402817e+17
19440.0	6.7553501656733e+17
19441.0	6.699694781278888e+17
19442.0	6.640292298664621e+17
19443.0	6.576982199020202e+17
19444.0	6.509699187518118e+17
19445.0	6.438151176323073e+17
19446.0	6.362246608672083e+17
19447.0	6.281595787586213e+17
19448.0	6.195259913185965e+17
19449.0	6.099192885805056e+17
19450.0	5.972438608598342e+17
19451.0	5.893289238593546e+17
19452.0	6.041011350405121e+17
19453.0	6.14602623470797e+17
19454.0	6.2338232263639e+17
19455.0	6.314764255537833e+17
19456.0	6.390585673209175e+17
19457.0	6.461856540175014e+17
19458.0	6.527576752608598e+17
19459.0	6.591534535278595e+17
19460.0	6.650201362836134e+17
19461.0	6.705357915160575e+17
19462.0	6.756364855891286e+17
19463.0	6.804455299219453e+17
19464.0	6.849269498991956e+17
19465.0	6.891632310528684e+17
19466.0	6.932593541556904e+17
19467.0	6.971725767333204e+17
19468.0	7.007739666497536e+17
19469.0	7.041379376387411e+17
19470.0	7.074661713401172e+17
19471.0	7.105789895726422e+17
19472.0	7.134866527922857e+17
19473.0	7.161853566255104e+17
19474.0	7.187411185784148e+17
19475.0	7.210092984969896e+17
19476.0	7.233314338024105e+17
19477.0	7.254789665237676e+17
19478.0	7.275431568867327e+17
19479.0	7.294688991466838e+17
19480.0	7.313338831383212e+17
19481.0	7.330467692238164e+17
19482.0	7.346748066365437e+17
19483.0	7.36273635335646e+17
19484.0	7.377357153239039e+17
19485.0	7.392180472294058e+17
19486.0	7.40815912077449e+17
19487.0	7.426396965393747e+17
19488.0	7.443017354969088e+17
19489.0	7.457897037081257e+17
19490.0	7.471436257383761e+17
19491.0	7.487463449340588e+17
19492.0	7.499582141366271e+17
19493.0	7.513274684451496e+17
19494.0	7.523333093807444e+17
19495.0	7.535722105929728e+17
19496.0	7.544328252904787e+17
19497.0	7.555513772408833e+17
19498.0	7.563598686235306e+17
19499.0	7.562773139554298e+17
19500.0	7.581820612072787e+17
19501.0	7.589108757736106e+17
19502.0	7.596095286804479e+17
19503.0	7.604214061247148e+17
19504.0	7.610631240111446e+17
19505.0	7.616843674025984e+17
19506.0	7.622850972920489e+17
19507.0	7.629675196405076e+17
19508.0	7.635333621481472e+17
19509.0	7.640741260733097e+17
19510.0	7.645668966749526e+17
19511.0	7.642977446920186e+17
19512.0	7.65496431896166e+17
19513.0	7.657862213926908e+17
19514.0	7.663711570711887e+17
19515.0	7.669605856881324e+17
19516.0	7.674671889645565e+17
19517.0	7.67871329588565e+17
19518.0	7.682774174881108e+17
19519.0	7.686842750424403e+17
19520.0	7.690643135179432e+17
19521.0	7.694270825059667e+17
19522.0	7.697644424003583e+17
19523.0	7.701056556018344e+17
19524.0	7.704277896134653e+17
19525.0	7.707339320022355e+17
19526.0	7.710381629068628e+17
19527.0	7.714960801005564e+17
19528.0	7.719322011740841e+17
19529.0	7.722133583735462e+17
19530.0	7.730317313966079e+17
19531.0	7.73279342273058e+17
19532.0	7.736340656073388e+17
19533.0	7.742489097491796e+17
19534.0	7.744653533118463e+17
19535.0	7.746628886724607e+17
19536.0	7.751616748847105e+17
19537.0	7.754712984059901e+17
19538.0	7.756291780203859e+17
19539.0	7.757164258350422e+17
19540.0	7.762673321465175e+17
19541.0	7.764892773777407e+17
19542.0	7.766350733421226e+17
19543.0	7.767756968908115e+17
19544.0	7.770735605623468e+17
19545.0	7.772347943616508e+17
19546.0	7.772738455688532e+17
19547.0	7.77559938765073e+17
19548.0	7.776689838183764e+17
19549.0	7.779022696087551e+17
19550.0	7.780972018444969e+17
19551.0	7.781889186900649e+17
19552.0	7.78275895972113e+17
19553.0	7.783536959771987e+17
19554.0	7.784270679157417e+17
19555.0	7.786362929414143e+17
19556.0	7.787461578413394e+17
19557.0	7.78806218457088e+17
19558.0	7.788624589007528e+17
19559.0	7.78913746151014e+17
19560.0	7.789570457687382e+17
19561.0	7.790016598813353e+17
19562.0	7.790471894706857e+17
19563.0	7.791690703525204e+17
19564.0	7.792439083401212e+17
19565.0	7.79271916364322e+17
19566.0	7.792907782892202e+17
19567.0	7.79319218746163e+17
19568.0	7.793295913997651e+17
19569.0	7.793479883161599e+17
19570.0	7.793651017755305e+17
19571.0	7.793729231738196e+17
19572.0	7.793704156790781e+17
19573.0	7.793776762989225e+17
19574.0	7.79374048925013e+17
19575.0	7.79464220868608e+17
19576.0	7.794587010247338e+17
19577.0	7.79445255484211e+17
19578.0	7.794316414724777e+17
19579.0	7.794207420142931e+17
19580.0	7.794060265783296e+17
19581.0	7.793925555923625e+17
19582.0	7.793768024855892e+17
19583.0	7.79355242364928e+17
19584.0	7.793304214525268e+17
19585.0	7.792809816533673e+17
19586.0	7.792458111560362e+17
19587.0	7.792435842602326e+17
19588.0	7.791171019472896e+17
19589.0	7.791769441796096e+17
19590.0	7.791313519553194e+17
19591.0	7.791079023007058e+17
19592.0	7.790821029969919e+17
19593.0	7.790751966560255e+17
19594.0	7.7897901581271e+17
19595.0	7.789825450399059e+17
19596.0	7.787922414982484e+17
19597.0	7.788891349538132e+17
19598.0	7.78789182592341e+17
19599.0	7.787915237130239e+17
19600.0	7.787385679686313e+17
19601.0	7.786652597835091e+17
19602.0	7.786105442489683e+17
19603.0	7.784642020463953e+17
19604.0	7.78486141751569e+17
19605.0	7.783660758848855e+17
19606.0	7.783738016530432e+17
19607.0	7.783117820177066e+17
19608.0	7.782410429835945e+17
19609.0	7.781655920683689e+17
19610.0	7.781097499437738e+17
19611.0	7.780381944184832e+17
19612.0	7.779699607819604e+17
19613.0	7.77895388014182e+17
19614.0	7.778145286837587e+17
19615.0	7.777515920337577e+17
19616.0	7.776693762654207e+17
19617.0	7.776008344873641e+17
19618.0	7.77403753649493e+17
19619.0	7.772967537388197e+17
19620.0	7.77223514899524e+17
19621.0	7.772858296740521e+17
19622.0	7.772075311060308e+17
19623.0	7.771259767794345e+17
19624.0	7.770406832308221e+17
19625.0	7.769597586090666e+17
19626.0	7.768728267653119e+17
19627.0	7.767885675320659e+17
19628.0	7.766837406902953e+17
19629.0	7.76616604283699e+17
19630.0	7.764442470503766e+17
19631.0	7.753793626177535e+17
19632.0	7.763649941383849e+17
19633.0	7.762736370242899e+17
19634.0	7.761959638269951e+17
19635.0	7.760934459495764e+17
19636.0	7.760096573172393e+17
19637.0	7.758098893286058e+17
19638.0	7.75822566752256e+17
19639.0	7.757243220317523e+17
19640.0	7.756119531323391e+17
19641.0	7.754227108894039e+17
19642.0	7.754343556754088e+17
19643.0	7.753340430232233e+17
19644.0	7.752241161874088e+17
19645.0	7.750799290182313e+17
19646.0	7.750395015200765e+17
19647.0	7.749385105091241e+17
19648.0	7.748354248627539e+17
19649.0	7.747323378182825e+17
19650.0	7.746311424049151e+17
19651.0	7.745256889341268e+17
19652.0	7.744205364745555e+17
19653.0	7.743178070644054e+17
19654.0	7.742098779755859e+17
19655.0	7.741026238900906e+17
19656.0	7.73998560551458e+17
19657.0	7.738910515920893e+17
19658.0	7.737849573714602e+17
19659.0	7.736771116094807e+17
19660.0	7.735688615165951e+17
19661.0	7.734597198544893e+17
19662.0	7.733499795253928e+17
19663.0	7.73228046773999e+17
19664.0	7.731233369533098e+17
19665.0	7.730182693584893e+17
19666.0	7.729034147747156e+17
