# Flux units: erg / (cm m2 s)
# Wavelength units: Angstrom
wave	flux
19000.0	6.986320479343955e+17
19001.0	6.984364708943187e+17
19002.0	6.983788995979946e+17
19003.0	6.982476249432063e+17
19004.0	6.981201404712275e+17
19005.0	6.979889025165993e+17
19006.0	6.978601438150655e+17
19007.0	6.977270967173119e+17
19008.0	6.975743562437972e+17
19009.0	6.973630274251434e+17
19010.0	6.971782835732479e+17
19011.0	6.971710884544511e+17
19012.0	6.969728444661759e+17
19013.0	6.969576862515199e+17
19014.0	6.967982009177427e+17
19015.0	6.966836424518314e+17
19016.0	6.965746907916968e+17
19017.0	6.964486699220991e+17
19018.0	6.963203897906515e+17
19019.0	6.9619541358237e+17
19020.0	6.960626825953279e+17
19021.0	6.959477193091753e+17
19022.0	6.958164255703039e+17
19023.0	6.956608333195945e+17
19024.0	6.955429178725716e+17
19025.0	6.954100007982419e+17
19026.0	6.952652443222015e+17
19027.0	6.951141139720874e+17
19028.0	6.950261217383764e+17
19029.0	6.948961264861183e+17
19030.0	6.947860487252649e+17
19031.0	6.946547472968361e+17
19032.0	6.945089333668522e+17
19033.0	6.942848843426472e+17
19034.0	6.941100835777194e+17
19035.0	6.933227208616616e+17
19036.0	6.891793298401962e+17
19037.0	6.932312883199997e+17
19038.0	6.936095676345001e+17
19039.0	6.935832060843348e+17
19040.0	6.93489354477841e+17
19041.0	6.933710370067796e+17
19042.0	6.931366266535933e+17
19043.0	6.931295645641385e+17
19044.0	6.929973784171859e+17
19045.0	6.928673686945791e+17
19046.0	6.927148475831635e+17
19047.0	6.925752428309161e+17
19048.0	6.923967315050493e+17
19049.0	6.921515609445714e+17
19050.0	6.920716572863146e+17
19051.0	6.914061786677245e+17
19052.0	6.915368102658047e+17
19053.0	6.917623182087508e+17
19054.0	6.91694470238481e+17
19055.0	6.91401840289383e+17
19056.0	6.91448351695394e+17
19057.0	6.913450662603433e+17
19058.0	6.911545948766205e+17
19059.0	6.910716337105578e+17
19060.0	6.909648717567316e+17
19061.0	6.908438639192746e+17
19062.0	6.907128242853203e+17
19063.0	6.905825209614335e+17
19064.0	6.904107266736128e+17
19065.0	6.902254169402026e+17
19066.0	6.901425891530068e+17
19067.0	6.900738559748777e+17
19068.0	6.899559031286441e+17
19069.0	6.898288022956713e+17
19070.0	6.896870142683817e+17
19071.0	6.895660232081407e+17
19072.0	6.894256355890516e+17
19073.0	6.89317532017186e+17
19074.0	6.891933117622953e+17
19075.0	6.890653403316223e+17
19076.0	6.889325131552084e+17
19077.0	6.887973476543146e+17
19078.0	6.886596351623165e+17
19079.0	6.885510792347647e+17
19080.0	6.884146434889044e+17
19081.0	6.88259897299217e+17
19082.0	6.881558589865983e+17
19083.0	6.879609763135487e+17
19084.0	6.877416072937472e+17
19085.0	6.877588590952447e+17
19086.0	6.873278427693052e+17
19087.0	6.874196615364605e+17
19088.0	6.872714925047805e+17
19089.0	6.871024574398468e+17
19090.0	6.870945836826623e+17
19091.0	6.86981097071138e+17
19092.0	6.867852107011414e+17
19093.0	6.867524116632916e+17
19094.0	6.866313516067498e+17
19095.0	6.865096437399551e+17
19096.0	6.863806585460052e+17
19097.0	6.862560779304959e+17
19098.0	6.861007828462249e+17
19099.0	6.859673113548116e+17
19100.0	6.85855273385984e+17
19101.0	6.857277483690665e+17
19102.0	6.855752372540755e+17
19103.0	6.854811170024106e+17
19104.0	6.853581497259348e+17
19105.0	6.851653003116544e+17
19106.0	6.850823603268266e+17
19107.0	6.849246561741481e+17
19108.0	6.847575435684521e+17
19109.0	6.845439798149119e+17
19110.0	6.844858445245098e+17
19111.0	6.844073089783123e+17
19112.0	6.843044646442323e+17
19113.0	6.842038024667135e+17
19114.0	6.840632493124265e+17
19115.0	6.8391762146973e+17
19116.0	6.838024984505001e+17
19117.0	6.83662129496064e+17
19118.0	6.833643043422207e+17
19119.0	6.811390903844842e+17
19120.0	6.831744151977983e+17
19121.0	6.831347882524671e+17
19122.0	6.83054631747584e+17
19123.0	6.829323942100991e+17
19124.0	6.82749249856034e+17
19125.0	6.826494761020073e+17
19126.0	6.824176979542013e+17
19127.0	6.818151810815316e+17
19128.0	6.821079853738665e+17
19129.0	6.820861166223359e+17
19130.0	6.820336065926484e+17
19131.0	6.819243248407892e+17
19132.0	6.818005396051284e+17
19133.0	6.81644238517043e+17
19134.0	6.815296529279657e+17
19135.0	6.814203790054739e+17
19136.0	6.812882705230505e+17
19137.0	6.811248381394943e+17
19138.0	6.810252332062036e+17
19139.0	6.809159073442473e+17
19140.0	6.807928979150164e+17
19141.0	6.806665806479359e+17
19142.0	6.805185604441427e+17
19143.0	6.803920970754729e+17
19144.0	6.802527561449471e+17
19145.0	6.801528476139519e+17
19146.0	6.796126618036911e+17
19147.0	6.798752756356436e+17
19148.0	6.797514360837462e+17
19149.0	6.796209851203583e+17
19150.0	6.795184587844266e+17
19151.0	6.793874886361085e+17
19152.0	6.792512974880768e+17
19153.0	6.790688528138237e+17
19154.0	6.789614099846484e+17
19155.0	6.788510500869459e+17
19156.0	6.787207955567956e+17
19157.0	6.78552669187823e+17
19158.0	6.78371998634257e+17
19159.0	6.782989482590207e+17
19160.0	6.78164508582434e+17
19161.0	6.779848990479699e+17
19162.0	6.776925688517972e+17
19163.0	6.776794122988202e+17
19164.0	6.776607860938068e+17
19165.0	6.775149109968893e+17
19166.0	6.774036665903785e+17
19167.0	6.773066322761043e+17
19168.0	6.772017665671167e+17
19169.0	6.770861927301119e+17
19170.0	6.769670948388861e+17
19171.0	6.76837032198144e+17
19172.0	6.76708797714705e+17
19173.0	6.765907335097002e+17
19174.0	6.764494492183209e+17
19175.0	6.763358002173267e+17
19176.0	6.762113372520447e+17
19177.0	6.75984000173124e+17
19178.0	6.75950543118882e+17
19179.0	6.758199887659007e+17
19180.0	6.756927267318441e+17
19181.0	6.755283084771327e+17
19182.0	6.754266635741865e+17
19183.0	6.753234367894867e+17
19184.0	6.751953996480511e+17
19185.0	6.750605071264425e+17
19186.0	6.749373938881876e+17
19187.0	6.747534775724714e+17
19188.0	6.746704891434324e+17
19189.0	6.745357713145855e+17
19190.0	6.743969504078506e+17
19191.0	6.742350091692714e+17
19192.0	6.74110309994769e+17
19193.0	6.739418949178708e+17
19194.0	6.737529713022292e+17
19195.0	6.735694170248534e+17
19196.0	6.733026319575722e+17
19197.0	6.729252601506473e+17
19198.0	6.722455037717161e+17
19199.0	6.708047963488255e+17
19200.0	6.7083539330717e+17
19201.0	6.719266915789481e+17
19202.0	6.72320550076416e+17
19203.0	6.724199843714387e+17
19204.0	6.724276057713321e+17
19205.0	6.723728822676138e+17
19206.0	6.722921354144425e+17
19207.0	6.721078064491177e+17
19208.0	6.720213642903551e+17
19209.0	6.719703117114026e+17
19210.0	6.718622149203283e+17
19211.0	6.717522556485631e+17
19212.0	6.716224908034047e+17
19213.0	6.714254772142079e+17
19214.0	6.713200308737364e+17
19215.0	6.712378770412884e+17
19216.0	6.711133945025875e+17
19217.0	6.709366453436415e+17
19218.0	6.706406381409619e+17
19219.0	6.7056922291514e+17
19220.0	6.705800426815488e+17
19221.0	6.704150248510804e+17
19222.0	6.703383380142761e+17
19223.0	6.702350496432127e+17
19224.0	6.700916872839167e+17
19225.0	6.699711213862911e+17
19226.0	6.698624482978474e+17
19227.0	6.697447680114688e+17
19228.0	6.696382066152788e+17
19229.0	6.695124449536681e+17
19230.0	6.693834707348137e+17
19231.0	6.692506295773865e+17
19232.0	6.691293101730474e+17
19233.0	6.689629227625129e+17
19234.0	6.68872879444241e+17
19235.0	6.687262621652308e+17
19236.0	6.686237669370537e+17
19237.0	6.684889296404477e+17
19238.0	6.683167820524201e+17
19239.0	6.682434387749546e+17
19240.0	6.681163480083114e+17
19241.0	6.679759125042516e+17
19242.0	6.678521361465343e+17
19243.0	6.676181611621032e+17
19244.0	6.676092975491753e+17
19245.0	6.674770771487401e+17
19246.0	6.673494952290985e+17
19247.0	6.67216759628322e+17
19248.0	6.670964667798868e+17
19249.0	6.669651093574995e+17
19250.0	6.66820480737826e+17
19251.0	6.666415527078564e+17
19252.0	6.663724484001791e+17
19253.0	6.664448866866516e+17
19254.0	6.663296089675091e+17
19255.0	6.660627432297809e+17
19256.0	6.660615305865898e+17
19257.0	6.659426940704084e+17
19258.0	6.658138128252927e+17
19259.0	6.656160312590335e+17
19260.0	6.654280425537533e+17
19261.0	6.654021645369343e+17
19262.0	6.652393945737897e+17
19263.0	6.650746725815635e+17
19264.0	6.648140224528383e+17
19265.0	6.647827718122153e+17
19266.0	6.64670448980241e+17
19267.0	6.646432820538025e+17
19268.0	6.645136679239679e+17
19269.0	6.64380279619584e+17
19270.0	6.642208094552063e+17
19271.0	6.640069144215552e+17
19272.0	6.63960369111586e+17
19273.0	6.636998075525802e+17
19274.0	6.6345320372852e+17
19275.0	6.636048970241364e+17
19276.0	6.634675654448467e+17
19277.0	6.633397982068735e+17
19278.0	6.632079663387988e+17
19279.0	6.630538692176553e+17
19280.0	6.629148231467008e+17
19281.0	6.62800146960657e+17
19282.0	6.626750387017044e+17
19283.0	6.625310255262378e+17
19284.0	6.623630184852138e+17
19285.0	6.622076067293865e+17
19286.0	6.620406899976873e+17
19287.0	6.617738597717331e+17
19288.0	6.596240837967863e+17
19289.0	6.585728443438408e+17
19290.0	6.613334667296767e+17
19291.0	6.612376114342577e+17
19292.0	6.613335726358527e+17
19293.0	6.612229495455743e+17
19294.0	6.610919194886143e+17
19295.0	6.609739674113364e+17
19296.0	6.608115136288086e+17
19297.0	6.606852145370452e+17
19298.0	6.605588989476863e+17
19299.0	6.604129653402281e+17
19300.0	6.603096378922323e+17
19301.0	6.601764551786496e+17
19302.0	6.600291110966611e+17
19303.0	6.59860170543377e+17
19304.0	6.597581511589888e+17
19305.0	6.596139048501247e+17
19306.0	6.594756096294911e+17
19307.0	6.593093366535508e+17
19308.0	6.591578629297491e+17
19309.0	6.589711654409555e+17
19310.0	6.587923742851072e+17
19311.0	6.586903680428714e+17
19312.0	6.585654934066515e+17
19313.0	6.583084896660138e+17
19314.0	6.518439465538913e+17
19315.0	6.521016085905452e+17
19316.0	6.578569627041791e+17
19317.0	6.578913989885951e+17
19318.0	6.577891433250815e+17
19319.0	6.576742899995988e+17
19320.0	6.575270598628691e+17
19321.0	6.573664907908436e+17
19322.0	6.572312964890624e+17
19323.0	6.570850024510803e+17
19324.0	6.569492405201576e+17
19325.0	6.568047624759978e+17
19326.0	6.56677335465984e+17
19327.0	6.565420070163795e+17
19328.0	6.563584275032746e+17
19329.0	6.562620878356479e+17
19330.0	6.561054810527059e+17
19331.0	6.55939615064064e+17
19332.0	6.558235339958953e+17
19333.0	6.556669137212755e+17
19334.0	6.555306300888404e+17
19335.0	6.55285484065041e+17
19336.0	6.552294885687296e+17
19337.0	6.550824603877376e+17
19338.0	6.547965758581416e+17
19339.0	6.547704326214998e+17
19340.0	6.545649346543615e+17
19341.0	6.543672457822208e+17
19342.0	6.541682325585919e+17
19343.0	6.540951391218346e+17
19344.0	6.538296604404394e+17
19345.0	6.530693295942312e+17
19346.0	6.530695318295891e+17
19347.0	6.53365542457617e+17
19348.0	6.533330124144639e+17
19349.0	6.531703628278442e+17
19350.0	6.53006263689762e+17
19351.0	6.528563582861311e+17
19352.0	6.526313320589993e+17
19353.0	6.525609589779114e+17
19354.0	6.52397933302033e+17
19355.0	6.521479473310381e+17
19356.0	6.520416450030249e+17
19357.0	6.518694048606889e+17
19358.0	6.516903290514089e+17
19359.0	6.514943994101759e+17
19360.0	6.512846468109652e+17
19361.0	6.511565815676927e+17
19362.0	6.50990276645137e+17
19363.0	6.508113200239956e+17
19364.0	6.506292880692564e+17
19365.0	6.504317120238932e+17
19366.0	6.502417066972499e+17
19367.0	6.500519778451455e+17
19368.0	6.498616542407338e+17
19369.0	6.496469189481811e+17
19370.0	6.494593403060224e+17
19371.0	6.492462985336148e+17
19372.0	6.49086519808273e+17
19373.0	6.488635018838015e+17
19374.0	6.486727698240851e+17
19375.0	6.484695406258858e+17
19376.0	6.482524255551487e+17
19377.0	6.480348059096404e+17
19378.0	6.478196703406761e+17
19379.0	6.47601648111889e+17
19380.0	6.473775563057833e+17
19381.0	6.471461209025193e+17
19382.0	6.468599152989523e+17
19383.0	6.466417605301587e+17
19384.0	6.464350608250195e+17
19385.0	6.46197190660369e+17
19386.0	6.459321836983635e+17
19387.0	6.45665071824896e+17
19388.0	6.453827446942378e+17
19389.0	6.450607688777727e+17
19390.0	6.445000650216788e+17
19391.0	6.406502809425217e+17
19392.0	6.432037521762984e+17
19393.0	6.438790474235903e+17
19394.0	6.436956069516627e+17
19395.0	6.434124397718186e+17
19396.0	6.431358060593151e+17
19397.0	6.428368757063679e+17
19398.0	6.424629070178986e+17
19399.0	6.419511973860692e+17
19400.0	6.417286721525075e+17
19401.0	6.415001486447956e+17
19402.0	6.41168915440162e+17
19403.0	6.408032427354793e+17
19404.0	6.404439439048703e+17
19405.0	6.400434366666067e+17
19406.0	6.396430480572415e+17
19407.0	6.391939537917268e+17
19408.0	6.385699100732074e+17
19409.0	6.382906688318121e+17
19410.0	6.379057658025299e+17
19411.0	6.374417491820543e+17
19412.0	6.369528808210431e+17
19413.0	6.364350175860052e+17
19414.0	6.359125102078633e+17
19415.0	6.353616237494272e+17
19416.0	6.347138378934952e+17
19417.0	6.342184780780884e+17
19418.0	6.336443179160916e+17
19419.0	6.330275770400768e+17
19420.0	6.323722607307433e+17
19421.0	6.316814455100756e+17
19422.0	6.309287499049642e+17
19423.0	6.301874623873023e+17
19424.0	6.293980650143741e+17
19425.0	6.285539685345961e+17
19426.0	6.276483055441235e+17
19427.0	6.266995881629012e+17
19428.0	6.256965100852564e+17
19429.0	6.246050957710676e+17
19430.0	6.232470919839744e+17
19431.0	6.218331952513025e+17
19432.0	6.210706756075519e+17
19433.0	6.198219364455764e+17
19434.0	6.183806665665194e+17
19435.0	6.166475452710911e+17
19436.0	6.148281801375743e+17
19437.0	6.128623959758163e+17
19438.0	6.052727732480691e+17
19439.0	6.075567788348754e+17
19440.0	6.0705163720349e+17
19441.0	6.047483202721107e+17
19442.0	6.020410980171777e+17
19443.0	5.989589023282516e+17
19444.0	5.954239352973993e+17
19445.0	5.91351474080973e+17
19446.0	5.865551019289258e+17
19447.0	5.807810045891922e+17
19448.0	5.7358064270267757e+17
19449.0	5.6412747365089274e+17
19450.0	5.499772683856545e+17
19451.0	5.401410970233516e+17
19452.0	5.57968971075857e+17
19453.0	5.689581379431085e+17
19454.0	5.768671794997926e+17
19455.0	5.83027930501393e+17
19456.0	5.879732739156652e+17
19457.0	5.919173977483945e+17
19458.0	5.817283175077349e+17
19459.0	5.967480730157087e+17
19460.0	6.014205051622739e+17
19461.0	6.039741566812159e+17
19462.0	6.061569671342764e+17
19463.0	6.081169751801853e+17
19464.0	6.098706492642644e+17
19465.0	6.114648194198186e+17
19466.0	6.128956600920744e+17
19467.0	6.142634541536596e+17
19468.0	6.154845278961664e+17
19469.0	6.165330658678099e+17
19470.0	6.176447690091178e+17
19471.0	6.186447696560128e+17
19472.0	6.195014640074751e+17
19473.0	6.203001740634794e+17
19474.0	6.210176020731219e+17
19475.0	6.214915703788883e+17
19476.0	6.223992160168617e+17
19477.0	6.231153149214719e+17
19478.0	6.237065131851776e+17
19479.0	6.242154591901011e+17
19480.0	6.24734124445969e+17
19481.0	6.252187840326314e+17
19482.0	6.25665410928913e+17
19483.0	6.260800518531753e+17
19484.0	6.264344999013033e+17
19485.0	6.267667615492778e+17
19486.0	6.270634171214506e+17
19487.0	6.27409969881634e+17
19488.0	6.276843171392169e+17
19489.0	6.277692649373696e+17
19490.0	6.277968123570857e+17
19491.0	6.284033156360873e+17
19492.0	6.28707109703953e+17
19493.0	6.289190981468159e+17
19494.0	6.290982665104041e+17
19495.0	6.292369478866259e+17
19496.0	6.291993102297769e+17
19497.0	6.292444290569556e+17
19498.0	6.273209401868282e+17
19499.0	6.237720194755242e+17
19500.0	6.294098493308928e+17
19501.0	6.29951309160994e+17
19502.0	6.301495713245866e+17
19503.0	6.302782557170345e+17
19504.0	6.303778740021929e+17
19505.0	6.304593970113193e+17
19506.0	6.305281961798313e+17
19507.0	6.305695448869546e+17
19508.0	6.306041437006505e+17
19509.0	6.305488250251946e+17
19510.0	6.300937885493929e+17
19511.0	6.200813698067076e+17
19512.0	6.283453737730047e+17
19513.0	6.284088681256269e+17
19514.0	6.288568031554209e+17
19515.0	6.305093608887636e+17
19516.0	6.307915881250815e+17
19517.0	6.308746066832042e+17
19518.0	6.309174275211263e+17
19519.0	6.309236333434195e+17
19520.0	6.308939571746131e+17
19521.0	6.309417974759423e+17
19522.0	6.309023828322985e+17
19523.0	6.309084459084457e+17
19524.0	6.308709567998634e+17
19525.0	6.308739813124777e+17
19526.0	6.308554653477544e+17
19527.0	6.308265703680682e+17
19528.0	6.307899951983274e+17
19529.0	6.307482942395732e+17
19530.0	6.307274207963818e+17
19531.0	6.306931155140608e+17
19532.0	6.306482041651199e+17
19533.0	6.30604197597457e+17
19534.0	6.305564574700884e+17
19535.0	6.304909822175914e+17
19536.0	6.30427301777681e+17
19537.0	6.303871933262505e+17
19538.0	6.30206409806097e+17
19539.0	6.301236798859946e+17
19540.0	6.302038821087914e+17
19541.0	6.30170075599121e+17
19542.0	6.301124205565267e+17
19543.0	6.300068091002879e+17
19544.0	6.29947805798673e+17
19545.0	6.296436334744916e+17
19546.0	6.295284233535487e+17
19547.0	6.297512530935807e+17
19548.0	6.297359506647721e+17
19549.0	6.296066613138771e+17
19550.0	6.296107336335359e+17
19551.0	6.295393931362304e+17
19552.0	6.294628615585791e+17
19553.0	6.293781599660713e+17
19554.0	6.292972203846313e+17
19555.0	6.292195288722089e+17
19556.0	6.291524033708031e+17
19557.0	6.290771279172948e+17
19558.0	6.289952680356521e+17
19559.0	6.289138452004863e+17
19560.0	6.288060497002495e+17
19561.0	6.287385610420223e+17
19562.0	6.286531532685311e+17
19563.0	6.285875477828948e+17
19564.0	6.284999438019242e+17
19565.0	6.284123443647828e+17
19566.0	6.28312802206242e+17
19567.0	6.282360542025044e+17
19568.0	6.281290619114835e+17
19569.0	6.280467287026346e+17
19570.0	6.279683356229631e+17
19571.0	6.278781927598761e+17
19572.0	6.27761750282513e+17
19573.0	6.276863360674474e+17
19574.0	6.275387030678185e+17
19575.0	6.275167005878953e+17
19576.0	6.274202963978921e+17
19577.0	6.2730795497117e+17
19578.0	6.272256526603604e+17
19579.0	6.271236721431891e+17
19580.0	6.270317415978324e+17
19581.0	6.269514445138602e+17
19582.0	6.268602736967679e+17
19583.0	6.267634034496852e+17
19584.0	6.266619479894697e+17
19585.0	6.264856170725373e+17
19586.0	6.263669722360493e+17
19587.0	6.263295570870272e+17
19588.0	6.26109539348207e+17
19589.0	6.261183115253078e+17
19590.0	6.260123023791444e+17
19591.0	6.259677194442068e+17
19592.0	6.258777509243561e+17
19593.0	6.257615028529833e+17
19594.0	6.255107476466342e+17
19595.0	6.255704880272724e+17
19596.0	6.254141129097215e+17
19597.0	6.253759171308202e+17
19598.0	6.251001744982015e+17
19599.0	6.251686143546708e+17
19600.0	6.250789646019242e+17
19601.0	6.249378337521664e+17
19602.0	6.247995662139391e+17
19603.0	6.246135584784383e+17
19604.0	6.245903839701674e+17
19605.0	6.243989294415877e+17
19606.0	6.244546530071891e+17
19607.0	6.243606489377449e+17
19608.0	6.242547247262377e+17
19609.0	6.241335812729513e+17
19610.0	6.240368427270143e+17
19611.0	6.239210477103786e+17
19612.0	6.238496154277204e+17
19613.0	6.237360564644521e+17
19614.0	6.236067655756457e+17
19615.0	6.235142807530153e+17
19616.0	6.233562687384233e+17
19617.0	6.232347710761641e+17
19618.0	6.228886405425833e+17
19619.0	6.226979007933097e+17
19620.0	6.227080561120595e+17
19621.0	6.227888747577343e+17
19622.0	6.227632078542163e+17
19623.0	6.226610799072595e+17
19624.0	6.22538070827554e+17
19625.0	6.224326337145513e+17
19626.0	6.222907327905791e+17
19627.0	6.221314643023188e+17
19628.0	6.218945828050262e+17
19629.0	6.214227922518013e+17
19630.0	6.205453103704744e+17
19631.0	6.195711420224854e+17
19632.0	6.21013188616738e+17
19633.0	6.213059795572054e+17
19634.0	6.213790516030121e+17
19635.0	6.213019105929897e+17
19636.0	6.212089671232169e+17
19637.0	6.208677367949999e+17
19638.0	6.210592685686783e+17
19639.0	6.20954911908386e+17
19640.0	6.207249567449087e+17
19641.0	6.203785280662191e+17
19642.0	6.206304732665172e+17
19643.0	6.205265116397567e+17
19644.0	6.203818269562195e+17
19645.0	6.202486149524137e+17
19646.0	6.201764556570623e+17
19647.0	6.201265795104767e+17
19648.0	6.200204080447487e+17
19649.0	6.199137617139027e+17
19650.0	6.198099553462953e+17
19651.0	6.196982888529919e+17
19652.0	6.195887791407104e+17
19653.0	6.194850498783913e+17
19654.0	6.193720543499604e+17
19655.0	6.192607076723369e+17
19656.0	6.191604572356607e+17
19657.0	6.190485386646868e+17
19658.0	6.189443641070931e+17
19659.0	6.188356745210537e+17
19660.0	6.187302386663423e+17
19661.0	6.186176235612841e+17
19662.0	6.185081655787519e+17
19663.0	6.183841661539667e+17
19664.0	6.182787934235305e+17
19665.0	6.181834908674729e+17
