# Flux units: erg / (cm m2 s)
# Wavelength units: Angstrom
wave	flux
19000.0	8.223023795885395e+17
19001.0	8.221127549648893e+17
19002.0	8.22017621439283e+17
19003.0	8.21872668390195e+17
19004.0	8.217298267537407e+17
19005.0	8.215831422959616e+17
19006.0	8.214389605793791e+17
19007.0	8.212914051044691e+17
19008.0	8.211284052235606e+17
19009.0	8.209356639524179e+17
19010.0	8.207156859895807e+17
19011.0	8.207169255462227e+17
19012.0	8.205320860641961e+17
19013.0	8.204419104855379e+17
19014.0	8.202673624274258e+17
19015.0	8.201346269664596e+17
19016.0	8.199960324822356e+17
19017.0	8.198546273949014e+17
19018.0	8.197109078906195e+17
19019.0	8.195649434550271e+17
19020.0	8.19414625751313e+17
19021.0	8.192782578832723e+17
19022.0	8.191331794244948e+17
19023.0	8.189709216557734e+17
19024.0	8.188361164455933e+17
19025.0	8.186916841892521e+17
19026.0	8.185396315815936e+17
19027.0	8.183834807194964e+17
19028.0	8.182524112360786e+17
19029.0	8.180989552143018e+17
19030.0	8.179648294813693e+17
19031.0	8.178193802461181e+17
19032.0	8.176691219617108e+17
19033.0	8.174725682080425e+17
19034.0	8.173490860807508e+17
19035.0	8.171005730095101e+17
19036.0	8.153385042356905e+17
19037.0	8.168405152563199e+17
19038.0	8.167545525764096e+17
19039.0	8.16625538721382e+17
19040.0	8.164976037811539e+17
19041.0	8.16380814504755e+17
19042.0	8.161899018103466e+17
19043.0	8.16085808132915e+17
19044.0	8.159324255114579e+17
19045.0	8.157858976410281e+17
19046.0	8.15612738876211e+17
19047.0	8.154643344741715e+17
19048.0	8.152691325446825e+17
19049.0	8.151434134552575e+17
19050.0	8.149968081300136e+17
19051.0	8.146108108068179e+17
19052.0	8.146187102191615e+17
19053.0	8.145770494558207e+17
19054.0	8.144325145788416e+17
19055.0	8.141630724898819e+17
19056.0	8.141254206423037e+17
19057.0	8.139842907013119e+17
19058.0	8.138284667153066e+17
19059.0	8.136841990154922e+17
19060.0	8.135311891278506e+17
19061.0	8.133858975984297e+17
19062.0	8.132327785190739e+17
19063.0	8.130804869758972e+17
19064.0	8.12883038437376e+17
19065.0	8.126927295829331e+17
19066.0	8.125959893592744e+17
19067.0	8.124719279986003e+17
19068.0	8.123269420941311e+17
19069.0	8.121762422893225e+17
19070.0	8.120126539475625e+17
19071.0	8.118696789322408e+17
19072.0	8.117212848761513e+17
19073.0	8.115675777553747e+17
19074.0	8.114190840146602e+17
19075.0	8.112667201896445e+17
19076.0	8.111088696557565e+17
19077.0	8.109549662415528e+17
19078.0	8.107927509751123e+17
19079.0	8.106558575607804e+17
19080.0	8.104972598815402e+17
19081.0	8.103275909174611e+17
19082.0	8.101867183669245e+17
19083.0	8.099826105319424e+17
19084.0	8.097673315876863e+17
19085.0	8.097302276560212e+17
19086.0	8.093808492631379e+17
19087.0	8.0940787316381e+17
19088.0	8.092278670579028e+17
19089.0	8.090183931701932e+17
19090.0	8.089507593191424e+17
19091.0	8.088052471693312e+17
19092.0	8.086321852929364e+17
19093.0	8.085116906285736e+17
19094.0	8.083608043170473e+17
19095.0	8.082099865124864e+17
19096.0	8.080523651274067e+17
19097.0	8.079016551164585e+17
19098.0	8.07747242094319e+17
19099.0	8.075931998486527e+17
19100.0	8.074375262983508e+17
19101.0	8.07282403599974e+17
19102.0	8.071006000949928e+17
19103.0	8.069760670149289e+17
19104.0	8.068258007613437e+17
19105.0	8.06665935004194e+17
19106.0	8.065109008056317e+17
19107.0	8.063490551971839e+17
19108.0	8.061879922458621e+17
19109.0	8.059538712297471e+17
19110.0	8.058581028263251e+17
19111.0	8.057350630582953e+17
19112.0	8.055875468700332e+17
19113.0	8.054346038116351e+17
19114.0	8.052777374012756e+17
19115.0	8.05104022471748e+17
19116.0	8.049574788027731e+17
19117.0	8.048000668532735e+17
19118.0	8.04598066376431e+17
19119.0	8.034114183626738e+17
19120.0	8.043116563704489e+17
19121.0	8.041794731595092e+17
19122.0	8.040392477900799e+17
19123.0	8.038831239113386e+17
19124.0	8.037119127016787e+17
19125.0	8.035615210384041e+17
19126.0	8.033632757219327e+17
19127.0	8.026619127354708e+17
19128.0	8.030075554015913e+17
19129.0	8.028961380499455e+17
19130.0	8.027843974572714e+17
19131.0	8.026374111494143e+17
19132.0	8.024806768596308e+17
19133.0	8.022931228240553e+17
19134.0	8.021529192650068e+17
19135.0	8.020136942370815e+17
19136.0	8.01855801340723e+17
19137.0	8.01654300545297e+17
19138.0	8.015358046066004e+17
19139.0	8.0139052412218e+17
19140.0	8.012364123908778e+17
19141.0	8.010800223136425e+17
19142.0	8.009099328006825e+17
19143.0	8.007466711952042e+17
19144.0	8.005847714802345e+17
19145.0	8.004489772531711e+17
19146.0	8.00003957963708e+17
19147.0	8.001097980095144e+17
19148.0	7.999753179977044e+17
19149.0	7.998113973272573e+17
19150.0	7.996560972098216e+17
19151.0	7.99496825226308e+17
19152.0	7.993379389789524e+17
19153.0	7.991672306663421e+17
19154.0	7.989842878485846e+17
19155.0	7.988571502455466e+17
19156.0	7.987002054017024e+17
19157.0	7.985272295085395e+17
19158.0	7.983399843135488e+17
19159.0	7.982083039996586e+17
19160.0	7.980529899012093e+17
19161.0	7.978783917910697e+17
19162.0	7.975822091965779e+17
19163.0	7.97515177787392e+17
19164.0	7.974075287382697e+17
19165.0	7.972502291961172e+17
19166.0	7.970606205108221e+17
19167.0	7.969258994663424e+17
19168.0	7.967759895887872e+17
19169.0	7.966213084108115e+17
19170.0	7.964668979052543e+17
19171.0	7.963031622036136e+17
19172.0	7.961446379246931e+17
19173.0	7.959889085901481e+17
19174.0	7.95810573215334e+17
19175.0	7.956682575446016e+17
19176.0	7.955075736185514e+17
19177.0	7.952781433722195e+17
19178.0	7.951844606563668e+17
19179.0	7.950211039799977e+17
19180.0	7.948603586772992e+17
19181.0	7.946709626432169e+17
19182.0	7.945344416830804e+17
19183.0	7.943844049977343e+17
19184.0	7.942202855172778e+17
19185.0	7.94055253635891e+17
19186.0	7.938993607234898e+17
19187.0	7.93696228623428e+17
19188.0	7.935729987136169e+17
19189.0	7.934095554947752e+17
19190.0	7.932453339529215e+17
19191.0	7.930658712890026e+17
19192.0	7.929159008736595e+17
19193.0	7.927441600632148e+17
19194.0	7.925659519156221e+17
19195.0	7.923953287473834e+17
19196.0	7.921987015933951e+17
19197.0	7.919805893967871e+17
19198.0	7.916419907846143e+17
19199.0	7.906484989984765e+17
19200.0	7.906127452132692e+17
19201.0	7.911666526890666e+17
19202.0	7.911481218345642e+17
19203.0	7.910366544308905e+17
19204.0	7.908943177886378e+17
19205.0	7.907449013010432e+17
19206.0	7.905894226460672e+17
19207.0	7.90375982065254e+17
19208.0	7.90210184024337e+17
19209.0	7.901051671805952e+17
19210.0	7.899446773110099e+17
19211.0	7.897878032110932e+17
19212.0	7.896194441281535e+17
19213.0	7.894086491744938e+17
19214.0	7.892457835113132e+17
19215.0	7.891167679785641e+17
19216.0	7.889518236183209e+17
19217.0	7.887582743844182e+17
19218.0	7.883643563977382e+17
19219.0	7.883356138110973e+17
19220.0	7.882651415347199e+17
19221.0	7.88025287184657e+17
19222.0	7.879274137998675e+17
19223.0	7.877733895897088e+17
19224.0	7.875899284957866e+17
19225.0	7.874069308724563e+17
19226.0	7.87267389174579e+17
19227.0	7.870700555599871e+17
19228.0	7.869151376834556e+17
19229.0	7.867452841700006e+17
19230.0	7.865725518260906e+17
19231.0	7.86398449622494e+17
19232.0	7.862317436545704e+17
19233.0	7.860304046194685e+17
19234.0	7.858854017979732e+17
19235.0	7.856967256462678e+17
19236.0	7.855357545502034e+17
19237.0	7.85357266362914e+17
19238.0	7.851507709902847e+17
19239.0	7.850189666648061e+17
19240.0	7.848407515267072e+17
19241.0	7.846592378481322e+17
19242.0	7.84490513441314e+17
19243.0	7.84235096126259e+17
19244.0	7.841505386779987e+17
19245.0	7.839718966995624e+17
19246.0	7.837676010995711e+17
19247.0	7.835781936010582e+17
19248.0	7.834082555024722e+17
19249.0	7.832298751087955e+17
19250.0	7.830440329084928e+17
19251.0	7.82823475013222e+17
19252.0	7.825455780462591e+17
19253.0	7.82509049852723e+17
19254.0	7.82339619544542e+17
19255.0	7.820617035634002e+17
19256.0	7.819685071071913e+17
19257.0	7.817988213658964e+17
19258.0	7.816189027811327e+17
19259.0	7.813971444760573e+17
19260.0	7.812159027281917e+17
19261.0	7.81063953999462e+17
19262.0	7.808437057836372e+17
19263.0	7.806316718325756e+17
19264.0	7.803085697755817e+17
19265.0	7.802324431579817e+17
19266.0	7.800692493604182e+17
19267.0	7.799426185691136e+17
19268.0	7.797539147350012e+17
19269.0	7.795658786340863e+17
19270.0	7.793648670343165e+17
19271.0	7.790665770816851e+17
19272.0	7.789518249787391e+17
19273.0	7.785257175263913e+17
19274.0	7.783168534904826e+17
19275.0	7.784065553924093e+17
19276.0	7.78215249412096e+17
19277.0	7.780271537520639e+17
19278.0	7.778389110117715e+17
19279.0	7.776306446641833e+17
19280.0	7.774251458581844e+17
19281.0	7.772532116903251e+17
19282.0	7.770669816567123e+17
19283.0	7.768632980056745e+17
19284.0	7.766337118710441e+17
19285.0	7.76426327445777e+17
19286.0	7.762432255240873e+17
19287.0	7.760512927749459e+17
19288.0	7.75261252275404e+17
19289.0	7.746075665017503e+17
19290.0	7.754506358663849e+17
19291.0	7.751457451977391e+17
19292.0	7.750744399325866e+17
19293.0	7.748724356808701e+17
19294.0	7.746278168810836e+17
19295.0	7.744274338676735e+17
19296.0	7.742164415021055e+17
19297.0	7.739980126355453e+17
19298.0	7.737875000983552e+17
19299.0	7.735904259713706e+17
19300.0	7.733788340999508e+17
19301.0	7.731651494106451e+17
19302.0	7.729427945357311e+17
19303.0	7.727040642591402e+17
19304.0	7.725078812819455e+17
19305.0	7.722896685618515e+17
19306.0	7.720727778863786e+17
19307.0	7.718330521616384e+17
19308.0	7.716123821386409e+17
19309.0	7.713664812799315e+17
19310.0	7.711161773806932e+17
19311.0	7.708868852667731e+17
19312.0	7.706651777127763e+17
19313.0	7.704346941369002e+17
19314.0	7.691881282535421e+17
19315.0	7.690255135495517e+17
19316.0	7.697258652893183e+17
19317.0	7.69495150747102e+17
19318.0	7.692563898520915e+17
19319.0	7.690236242952191e+17
19320.0	7.68781506838528e+17
19321.0	7.685319050657792e+17
19322.0	7.682645465672361e+17
19323.0	7.680232426657108e+17
19324.0	7.677650445271039e+17
19325.0	7.674397819841194e+17
19326.0	7.671854595222185e+17
19327.0	7.669329003457193e+17
19328.0	7.666810939069782e+17
19329.0	7.664263717279059e+17
19330.0	7.661560777758034e+17
19331.0	7.658833097435816e+17
19332.0	7.656420579912361e+17
19333.0	7.653690083814058e+17
19334.0	7.65108676320734e+17
19335.0	7.648367865757693e+17
19336.0	7.645361964668244e+17
19337.0	7.642121589402281e+17
19338.0	7.638468153485993e+17
19339.0	7.636602136996522e+17
19340.0	7.633544521536851e+17
19341.0	7.630580847301972e+17
19342.0	7.626773157467475e+17
19343.0	7.624814884465322e+17
19344.0	7.621582067335168e+17
19345.0	7.612825100178769e+17
19346.0	7.611595514795347e+17
19347.0	7.610858308545193e+17
19348.0	7.608083366805501e+17
19349.0	7.604846949564416e+17
19350.0	7.601724597818706e+17
19351.0	7.598442300484266e+17
19352.0	7.595042338941612e+17
19353.0	7.592068385865727e+17
19354.0	7.588724885247318e+17
19355.0	7.584895440956076e+17
19356.0	7.581887091791186e+17
19357.0	7.57766675234816e+17
19358.0	7.573752293709139e+17
19359.0	7.569999764564649e+17
19360.0	7.566329921929215e+17
19361.0	7.56224257827362e+17
19362.0	7.558236889328297e+17
19363.0	7.554463699042303e+17
19364.0	7.550602379438761e+17
19365.0	7.546650833365674e+17
19366.0	7.542684493982377e+17
19367.0	7.538412694623572e+17
19368.0	7.53342835711454e+17
19369.0	7.52901908804403e+17
19370.0	7.524721030944084e+17
19371.0	7.5203654741306e+17
19372.0	7.516201433432064e+17
19373.0	7.51103691002129e+17
19374.0	7.505902340931583e+17
19375.0	7.5013091767965e+17
19376.0	7.496628601967956e+17
19377.0	7.491824016949247e+17
19378.0	7.486998657542825e+17
19379.0	7.48209463116868e+17
19380.0	7.476797790049619e+17
19381.0	7.47143045526323e+17
19382.0	7.465767526902441e+17
19383.0	7.460515281021608e+17
19384.0	7.454414976232105e+17
19385.0	7.448584906255017e+17
19386.0	7.442928308497064e+17
19387.0	7.437110603328169e+17
19388.0	7.431157156500822e+17
19389.0	7.425072320304468e+17
19390.0	7.418592514889044e+17
19391.0	7.400407269638132e+17
19392.0	7.404608257960616e+17
19393.0	7.399376306918739e+17
19394.0	7.39255180661009e+17
19395.0	7.384233293818536e+17
19396.0	7.376453119945385e+17
19397.0	7.369128876703743e+17
19398.0	7.361400320731817e+17
19399.0	7.351943631820116e+17
19400.0	7.345185779002025e+17
19401.0	7.337478158199466e+17
19402.0	7.329162120047272e+17
19403.0	7.320497529640275e+17
19404.0	7.3117714101917e+17
19405.0	7.302252185605462e+17
19406.0	7.292632869546666e+17
19407.0	7.283189254280531e+17
19408.0	7.271632888397824e+17
19409.0	7.262994137699668e+17
19410.0	7.252767087962796e+17
19411.0	7.24179531019059e+17
19412.0	7.230447991215446e+17
19413.0	7.218765490028543e+17
19414.0	7.206564409289385e+17
19415.0	7.194078424858624e+17
19416.0	7.180667846655999e+17
19417.0	7.167709032742911e+17
19418.0	7.153238442071382e+17
19419.0	7.138767370452991e+17
19420.0	7.1239908486458e+17
19421.0	7.108674614984701e+17
19422.0	7.092448727662591e+17
19423.0	7.075700234256383e+17
19424.0	7.058345735225344e+17
19425.0	7.040052123839145e+17
19426.0	7.020895442130259e+17
19427.0	7.001031419013802e+17
19428.0	6.980394367494825e+17
19429.0	6.959069619989161e+17
19430.0	6.935654443952812e+17
19431.0	6.910327685906432e+17
19432.0	6.886750317532499e+17
19433.0	6.860323657788076e+17
19434.0	6.832230909345791e+17
19435.0	6.801911218263378e+17
19436.0	6.7699286226589e+17
19437.0	6.736893526583977e+17
19438.0	6.68897187463168e+17
19439.0	6.661490750783488e+17
19440.0	6.621920390807551e+17
19441.0	6.57768982983475e+17
19442.0	6.5298192400384e+17
19443.0	6.477504947333801e+17
19444.0	6.420391234196818e+17
19445.0	6.357331790353751e+17
19446.0	6.287265320577705e+17
19447.0	6.208761528057851e+17
19448.0	6.119761525429592e+17
19449.0	6.017482400377514e+17
19450.0	5.894393231835127e+17
19451.0	5.822638353372502e+17
19452.0	5.959259363038548e+17
19453.0	6.067691946595671e+17
19454.0	6.160453037544785e+17
19455.0	6.241484095356927e+17
19456.0	6.31307218102955e+17
19457.0	6.376949479899131e+17
19458.0	6.423147172244155e+17
19459.0	6.486042210555224e+17
19460.0	6.534155219937958e+17
19461.0	6.577709991155027e+17
19462.0	6.6178687434752e+17
19463.0	6.654894621239976e+17
19464.0	6.689347984861865e+17
19465.0	6.721389221030572e+17
19466.0	6.751159331061757e+17
19467.0	6.779343856467967e+17
19468.0	6.805724155871232e+17
19469.0	6.829846526514514e+17
19470.0	6.853337312570025e+17
19471.0	6.875519844876288e+17
19472.0	6.896381972534611e+17
19473.0	6.915583430535849e+17
19474.0	6.933804583223295e+17
19475.0	6.949564753204563e+17
19476.0	6.967850152143529e+17
19477.0	6.984159736102911e+17
19478.0	6.999231968925012e+17
19479.0	7.0135751653021e+17
19480.0	7.02720578088687e+17
19481.0	7.040235998631252e+17
19482.0	7.052499856916479e+17
19483.0	7.064371770075817e+17
19484.0	7.076281830430036e+17
19485.0	7.087174549766143e+17
19486.0	7.09755306840337e+17
19487.0	7.107562326108841e+17
19488.0	7.117011403756884e+17
19489.0	7.125283672948735e+17
19490.0	7.131660513793363e+17
19491.0	7.142966938304511e+17
19492.0	7.151180281719466e+17
19493.0	7.158723576681812e+17
19494.0	7.16588588343842e+17
19495.0	7.172566373717331e+17
19496.0	7.178082887314088e+17
19497.0	7.185794905145343e+17
19498.0	7.188417600640339e+17
19499.0	7.179722646268581e+17
19500.0	7.203303673473705e+17
19501.0	7.209162906446505e+17
19502.0	7.214504017046185e+17
19503.0	7.219601974056275e+17
19504.0	7.22443680559923e+17
19505.0	7.229061457772543e+17
19506.0	7.233593331941375e+17
19507.0	7.239347787005952e+17
19508.0	7.243757676833449e+17
19509.0	7.247482104141139e+17
19510.0	7.250382799503357e+17
19511.0	7.235412604310858e+17
19512.0	7.25355283629124e+17
19513.0	7.254565992792058e+17
19514.0	7.259373285933048e+17
19515.0	7.266230547950252e+17
19516.0	7.270386237789526e+17
19517.0	7.273088875320659e+17
19518.0	7.27710882350148e+17
19519.0	7.279684421156863e+17
19520.0	7.282000485067434e+17
19521.0	7.284715374160553e+17
19522.0	7.287068106074794e+17
19523.0	7.289322706654547e+17
19524.0	7.291321467273215e+17
19525.0	7.293235683306153e+17
19526.0	7.295139961634815e+17
19527.0	7.296888847990783e+17
19528.0	7.298722341847039e+17
19529.0	7.301406662852607e+17
19530.0	7.303027859215702e+17
19531.0	7.304571767138986e+17
19532.0	7.305998844122451e+17
19533.0	7.307385054603948e+17
19534.0	7.30929086804787e+17
19535.0	7.310799356471977e+17
19536.0	7.311876649473364e+17
19537.0	7.313067184488445e+17
19538.0	7.313448674612564e+17
19539.0	7.313559270020438e+17
19540.0	7.315784872580436e+17
19541.0	7.317572971484499e+17
19542.0	7.318393996705791e+17
19543.0	7.31910264394001e+17
19544.0	7.319874749595647e+17
19545.0	7.319504350609407e+17
19546.0	7.319367163314173e+17
19547.0	7.322556440772608e+17
19548.0	7.323182372137641e+17
19549.0	7.323186900587859e+17
19550.0	7.324102032009896e+17
19551.0	7.324492256073044e+17
19552.0	7.324825311772671e+17
19553.0	7.325038490069672e+17
19554.0	7.325255314614953e+17
19555.0	7.326298475768489e+17
19556.0	7.327244158500863e+17
19557.0	7.327429244747773e+17
19558.0	7.327562552311807e+17
19559.0	7.327676073945769e+17
19560.0	7.327638312626857e+17
19561.0	7.327681614621353e+17
19562.0	7.327767691526144e+17
19563.0	7.327720218995369e+17
19564.0	7.327594157790548e+17
19565.0	7.32772422595379e+17
19566.0	7.327960408610131e+17
19567.0	7.327902172097193e+17
19568.0	7.327569533031763e+17
19569.0	7.327424970751999e+17
19570.0	7.327297118579369e+17
19571.0	7.327057837730474e+17
19572.0	7.3266141083293e+17
19573.0	7.326470754009084e+17
19574.0	7.325762872934399e+17
19575.0	7.32590823912243e+17
19576.0	7.325571717529599e+17
19577.0	7.325439385840298e+17
19578.0	7.325604912649556e+17
19579.0	7.325215352684543e+17
19580.0	7.324826837101224e+17
19581.0	7.324504134341972e+17
19582.0	7.324119771119616e+17
19583.0	7.323672824687272e+17
19584.0	7.32318904946961e+17
19585.0	7.322180935920297e+17
19586.0	7.321559447721303e+17
19587.0	7.321548049001129e+17
19588.0	7.319680825950208e+17
19589.0	7.320385938784256e+17
19590.0	7.319729039474687e+17
19591.0	7.319829555970047e+17
19592.0	7.319349487119017e+17
19593.0	7.318630356921e+17
19594.0	7.316960440920744e+17
19595.0	7.317307694339411e+17
19596.0	7.316020482015232e+17
19597.0	7.316013857811113e+17
19598.0	7.31426619339571e+17
19599.0	7.314648269324288e+17
19600.0	7.313973430976511e+17
19601.0	7.312968854623574e+17
19602.0	7.312078004027391e+17
19603.0	7.310390189533864e+17
19604.0	7.310583598678016e+17
19605.0	7.308945482492588e+17
19606.0	7.309407773087059e+17
19607.0	7.308641473746259e+17
19608.0	7.30795377566242e+17
19609.0	7.307166416721238e+17
19610.0	7.306546760034985e+17
19611.0	7.305688425081513e+17
19612.0	7.304910574627497e+17
19613.0	7.303999666869587e+17
19614.0	7.302971683504127e+17
19615.0	7.302260789521066e+17
19616.0	7.301244435562493e+17
19617.0	7.300346751046995e+17
19618.0	7.297269739727529e+17
19619.0	7.295800458259113e+17
19620.0	7.295476711118164e+17
19621.0	7.296646123618301e+17
19622.0	7.295970882617344e+17
19623.0	7.295071992938493e+17
19624.0	7.294080178454527e+17
19625.0	7.293166499659773e+17
19626.0	7.292118218659155e+17
19627.0	7.291095011207849e+17
19628.0	7.289717252248918e+17
19629.0	7.288056601466195e+17
19630.0	7.283692545594706e+17
19631.0	7.275853342485162e+17
19632.0	7.285111193425236e+17
19633.0	7.284974310916093e+17
19634.0	7.284479496290301e+17
19635.0	7.283373159131816e+17
19636.0	7.282561178228051e+17
19637.0	7.279624318178647e+17
19638.0	7.280786095647402e+17
19639.0	7.279763773194239e+17
19640.0	7.278230415343615e+17
19641.0	7.275522513960964e+17
19642.0	7.276686802419711e+17
19643.0	7.275647760072701e+17
19644.0	7.274296462977704e+17
19645.0	7.273188926248276e+17
19646.0	7.273062596607999e+17
19647.0	7.27206890447394e+17
19648.0	7.270997156342441e+17
19649.0	7.269932971939156e+17
19650.0	7.268900202872832e+17
19651.0	7.267901042764458e+17
19652.0	7.267041295728639e+17
19653.0	7.265998679834624e+17
19654.0	7.264867656400893e+17
19655.0	7.263757152900436e+17
19656.0	7.26271897178385e+17
19657.0	7.261609512665088e+17
19658.0	7.260542333528745e+17
19659.0	7.259436926107645e+17
19660.0	7.258348304291156e+17
19661.0	7.257212022598313e+17
19662.0	7.256106511717716e+17
19663.0	7.254831076999168e+17
19664.0	7.253796711301119e+17
19665.0	7.252755651493887e+17
19666.0	7.251666046812157e+17
