# Flux units: erg / (cm m2 s)
# Wavelength units: Angstrom
wave	flux
19000.0	5.3617759641490765e+17
19001.0	5.3607522687604045e+17
19002.0	5.359892565764778e+17
19003.0	5.3589373437870074e+17
19004.0	5.357998436253696e+17
19005.0	5.357032139216213e+17
19006.0	5.3560811073481376e+17
19007.0	5.355128887792979e+17
19008.0	5.354164583748949e+17
19009.0	5.3531713033557325e+17
19010.0	5.352225374557524e+17
19011.0	5.351306638131199e+17
19012.0	5.350327220611753e+17
19013.0	5.349455517712383e+17
19014.0	5.348477314443945e+17
19015.0	5.3475371975529805e+17
19016.0	5.3466312334813856e+17
19017.0	5.3456906929657165e+17
19018.0	5.3447361120174074e+17
19019.0	5.343793530972842e+17
19020.0	5.3428458601403725e+17
19021.0	5.341911183261696e+17
19022.0	5.340962057704788e+17
19023.0	5.339987140673535e+17
19024.0	5.339045593524905e+17
19025.0	5.338123978407934e+17
19026.0	5.337182527029247e+17
19027.0	5.3362387603947514e+17
19028.0	5.335287251075072e+17
19029.0	5.3343279711081805e+17
19030.0	5.3334010879453856e+17
19031.0	5.3324544405230925e+17
19032.0	5.3314940784257696e+17
19033.0	5.330456058789887e+17
19034.0	5.3295133442266445e+17
19035.0	5.328392261992447e+17
19036.0	5.32719294550289e+17
19037.0	5.3265480712628896e+17
19038.0	5.32574436012851e+17
19039.0	5.324872506234196e+17
19040.0	5.323955811734868e+17
19041.0	5.3230191467560954e+17
19042.0	5.321569224796841e+17
19043.0	5.32115301142801e+17
19044.0	5.3202040871976954e+17
19045.0	5.319260976272724e+17
19046.0	5.3183009420301645e+17
19047.0	5.317357986294442e+17
19048.0	5.3163375680552954e+17
19049.0	5.314483319384744e+17
19050.0	5.314480204414975e+17
19051.0	5.3135119423460685e+17
19052.0	5.3126215622109875e+17
19053.0	5.3117198399788365e+17
19054.0	5.3107980752650234e+17
19055.0	5.30953983229952e+17
19056.0	5.308876644330154e+17
19057.0	5.307999274227028e+17
19058.0	5.306583126201683e+17
19059.0	5.305945416531967e+17
19060.0	5.3051922397702816e+17
19061.0	5.3042531770477216e+17
19062.0	5.303310530292394e+17
19063.0	5.3023740596497056e+17
19064.0	5.301416244193961e+17
19065.0	5.300411369346389e+17
19066.0	5.299351031119872e+17
19067.0	5.2986214298419194e+17
19068.0	5.297698890579967e+17
19069.0	5.296764164767743e+17
19070.0	5.2958074433262925e+17
19071.0	5.29488560591121e+17
19072.0	5.2937808360243194e+17
19073.0	5.2930201920034125e+17
19074.0	5.2920842030066336e+17
19075.0	5.291149023510526e+17
19076.0	5.290211105832959e+17
19077.0	5.2892718473762125e+17
19078.0	5.2883242045057696e+17
19079.0	5.287403598817963e+17
19080.0	5.2864636203390285e+17
19081.0	5.285499270856703e+17
19082.0	5.2846036394530125e+17
19083.0	5.2836067603469645e+17
19084.0	5.282571429958996e+17
19085.0	5.281791824188757e+17
19086.0	5.2803465166629536e+17
19087.0	5.279530088398847e+17
19088.0	5.2787058978761363e+17
19089.0	5.277935737678506e+17
19090.0	5.277118716619434e+17
19091.0	5.276169503681194e+17
19092.0	5.274861554018986e+17
19093.0	5.2743424061385376e+17
19094.0	5.273412788289535e+17
19095.0	5.2724791669773645e+17
19096.0	5.271546749430442e+17
19097.0	5.2706168267953485e+17
19098.0	5.269484202535594e+17
19099.0	5.268510013915135e+17
19100.0	5.2678014694413645e+17
19101.0	5.2668729232370336e+17
19102.0	5.2659364980326394e+17
19103.0	5.265017760208212e+17
19104.0	5.2640981576581114e+17
19105.0	5.2627320127269555e+17
19106.0	5.262231690280959e+17
19107.0	5.261193929992874e+17
19108.0	5.2602044985726285e+17
19109.0	5.2594399489556474e+17
19110.0	5.2585082940730016e+17
19111.0	5.2574550735803725e+17
19112.0	5.25649565380335e+17
19113.0	5.255710339585364e+17
19114.0	5.2546788176254285e+17
19115.0	5.2537839181277856e+17
19116.0	5.252826208228692e+17
19117.0	5.251766522216447e+17
19118.0	5.2500555481743366e+17
19119.0	5.246541742735359e+17
19120.0	5.2485442041282554e+17
19121.0	5.2480982887956474e+17
19122.0	5.247276839250602e+17
19123.0	5.2463778768704845e+17
19124.0	5.245432266839379e+17
19125.0	5.244492758821546e+17
19126.0	5.2434995385466874e+17
19127.0	5.2424797788132685e+17
19128.0	5.241645421297664e+17
19129.0	5.24074306572561e+17
19130.0	5.239913467346943e+17
19131.0	5.239021558388051e+17
19132.0	5.23811021721873e+17
19133.0	5.2371672621820576e+17
19134.0	5.2362705493469856e+17
19135.0	5.235349247404713e+17
19136.0	5.2344260034996896e+17
19137.0	5.2334941878353914e+17
19138.0	5.23257912631842e+17
19139.0	5.2316651147755514e+17
19140.0	5.230745568149503e+17
19141.0	5.229824247332862e+17
19142.0	5.228882009522175e+17
19143.0	5.227972946558975e+17
19144.0	5.227030117351423e+17
19145.0	5.226130362247849e+17
19146.0	5.224725557018624e+17
19147.0	5.2242819981858125e+17
19148.0	5.223218496755028e+17
19149.0	5.222265303422292e+17
19150.0	5.2215317972473165e+17
19151.0	5.220605830539945e+17
19152.0	5.219684513917609e+17
19153.0	5.2184193797106336e+17
19154.0	5.217810544328704e+17
19155.0	5.2169198027844256e+17
19156.0	5.216001647269205e+17
19157.0	5.214980362906281e+17
19158.0	5.2139285370197325e+17
19159.0	5.2132378679705574e+17
19160.0	5.2123148966952954e+17
19161.0	5.211397894613674e+17
19162.0	5.2104763920438605e+17
19163.0	5.2095595053056e+17
19164.0	5.2086397217013754e+17
19165.0	5.20735799063347e+17
19166.0	5.206787848404991e+17
19167.0	5.205883299910996e+17
19168.0	5.20497592865041e+17
19169.0	5.2040609160669856e+17
19170.0	5.203145338650623e+17
19171.0	5.20221875118626e+17
19172.0	5.2013151107590816e+17
19173.0	5.200393751494655e+17
19174.0	5.199472316732757e+17
19175.0	5.1985568211053216e+17
19176.0	5.197641013701289e+17
19177.0	5.1966119894493856e+17
19178.0	5.195810125206869e+17
19179.0	5.1948928421068794e+17
19180.0	5.1939561121163936e+17
19181.0	5.1930306473274016e+17
19182.0	5.1921185833396896e+17
19183.0	5.191223252527785e+17
19184.0	5.1903109501637965e+17
19185.0	5.189389509809492e+17
19186.0	5.1884811389064525e+17
19187.0	5.1875193290751994e+17
19188.0	5.186647038274217e+17
19189.0	5.1857286227121485e+17
19190.0	5.1848103134057805e+17
19191.0	5.1838664230393165e+17
19192.0	5.182966769997141e+17
19193.0	5.181993128034303e+17
19194.0	5.181032410819242e+17
19195.0	5.1801842834036045e+17
19196.0	5.1792439574964896e+17
19197.0	5.178310548695721e+17
19198.0	5.1773676880308896e+17
19199.0	5.176402868087465e+17
19200.0	5.1755061237951136e+17
19201.0	5.1746269871909536e+17
19202.0	5.1737466608025594e+17
19203.0	5.17285817159953e+17
19204.0	5.1719708001785165e+17
19205.0	5.1710586040702285e+17
19206.0	5.170162433698474e+17
19207.0	5.169173619539966e+17
19208.0	5.16833454133521e+17
19209.0	5.1674470000448845e+17
19210.0	5.1665522382602234e+17
19211.0	5.165662687898281e+17
19212.0	5.164751513802068e+17
19213.0	5.1637758103388154e+17
19214.0	5.1629189308088314e+17
19215.0	5.162013760159743e+17
19216.0	5.1610958681866234e+17
19217.0	5.160159678562303e+17
19218.0	5.1592251848349e+17
19219.0	5.1582297541618336e+17
19220.0	5.1574312866065043e+17
19221.0	5.156540183653034e+17
19222.0	5.1556550806514336e+17
19223.0	5.154744062443519e+17
19224.0	5.153826946416639e+17
19225.0	5.152953172230143e+17
19226.0	5.152042467895978e+17
19227.0	5.15114510843904e+17
19228.0	5.1502626660242765e+17
19229.0	5.1493549592193696e+17
19230.0	5.148451039870975e+17
19231.0	5.147540432704851e+17
19232.0	5.146646288880981e+17
19233.0	5.145705032537428e+17
19234.0	5.1448364446078285e+17
19235.0	5.143905268574889e+17
19236.0	5.1430290365262496e+17
19237.0	5.14211676492049e+17
19238.0	5.1411716512153594e+17
19239.0	5.140317249819989e+17
19240.0	5.139404302232234e+17
19241.0	5.138496774384298e+17
19242.0	5.137593388411562e+17
19243.0	5.136582384986794e+17
19244.0	5.135803385293483e+17
19245.0	5.134893828101462e+17
19246.0	5.133994792321024e+17
19247.0	5.133085962141696e+17
19248.0	5.1321901433924256e+17
19249.0	5.131272673645909e+17
19250.0	5.130300369666047e+17
19251.0	5.129355429325481e+17
19252.0	5.128337128510803e+17
19253.0	5.127662227248468e+17
19254.0	5.126771920513706e+17
19255.0	5.125711887073279e+17
19256.0	5.124958204198911e+17
19257.0	5.12405717192977e+17
19258.0	5.1231553070912845e+17
19259.0	5.1221857224185165e+17
19260.0	5.121304954929151e+17
19261.0	5.120417776446122e+17
19262.0	5.119460739732821e+17
19263.0	5.1185470609380685e+17
19264.0	5.1176136982746445e+17
19265.0	5.116718657568767e+17
19266.0	5.115810965443925e+17
19267.0	5.1150035423505043e+17
19268.0	5.114118876255573e+17
19269.0	5.1132250057605114e+17
19270.0	5.1123088194710176e+17
19271.0	5.111397109202943e+17
19272.0	5.110523855110143e+17
19273.0	5.109520990732287e+17
19274.0	5.108444667314174e+17
19275.0	5.1078593109469856e+17
19276.0	5.1069467149817165e+17
19277.0	5.1060548885108045e+17
19278.0	5.1051477745008634e+17
19279.0	5.1042439823796896e+17
19280.0	5.103351137391956e+17
19281.0	5.1024550355271674e+17
19282.0	5.101567590705834e+17
19283.0	5.1006656573603834e+17
19284.0	5.0997465133875194e+17
19285.0	5.0988294141378554e+17
19286.0	5.0978881116569594e+17
19287.0	5.0969393740731725e+17
19288.0	5.095791608375977e+17
19289.0	5.094867671711742e+17
19290.0	5.0942396914292045e+17
19291.0	5.0932445501631136e+17
19292.0	5.0925781605416954e+17
19293.0	5.091701471313919e+17
19294.0	5.090803938492415e+17
19295.0	5.089927317072554e+17
19296.0	5.088814388565334e+17
19297.0	5.088092054618111e+17
19298.0	5.087222794900822e+17
19299.0	5.086110345942357e+17
19300.0	5.085450544174419e+17
19301.0	5.084561328657749e+17
19302.0	5.083658058028372e+17
19303.0	5.082730762425683e+17
19304.0	5.08187214225954e+17
19305.0	5.080965284102143e+17
19306.0	5.080070096595625e+17
19307.0	5.0791441480635725e+17
19308.0	5.0782507403400525e+17
19309.0	5.077356315497813e+17
19310.0	5.076431549060437e+17
19311.0	5.075485991458132e+17
19312.0	5.074505348502868e+17
19313.0	5.0732366959738874e+17
19314.0	5.06836641836783e+17
19315.0	5.067608741817003e+17
19316.0	5.0702952382682445e+17
19317.0	5.0700264749574816e+17
19318.0	5.0692603951185914e+17
19319.0	5.068425251170985e+17
19320.0	5.067470335377407e+17
19321.0	5.0664786397320525e+17
19322.0	5.065787589001215e+17
19323.0	5.064897987608575e+17
19324.0	5.0640111733309434e+17
19325.0	5.0631258179720525e+17
19326.0	5.062238969440939e+17
19327.0	5.061345519075328e+17
19328.0	5.0600646730055674e+17
19329.0	5.059564363841535e+17
19330.0	5.058672864526335e+17
19331.0	5.057750402159956e+17
19332.0	5.0568911304785914e+17
19333.0	5.055989592795817e+17
19334.0	5.0550964220504736e+17
19335.0	5.053425291799211e+17
19336.0	5.053311263353514e+17
19337.0	5.052415824188756e+17
19338.0	5.05136267010594e+17
19339.0	5.050597962503509e+17
19340.0	5.049615622952277e+17
19341.0	5.048440583094272e+17
19342.0	5.0477480035396256e+17
19343.0	5.046920489030996e+17
19344.0	5.0456454926172154e+17
19345.0	5.0447373950429856e+17
19346.0	5.0439773878572365e+17
19347.0	5.042924048525994e+17
19348.0	5.0424899247800314e+17
19349.0	5.0416234256138234e+17
19350.0	5.04060461519121e+17
19351.0	5.03986823242274e+17
19352.0	5.03859167572787e+17
19353.0	5.038140827194708e+17
19354.0	5.037255260023466e+17
19355.0	5.036289625686016e+17
19356.0	5.035476972295509e+17
19357.0	5.034584796998313e+17
19358.0	5.0336896032003405e+17
19359.0	5.032701569881427e+17
19360.0	5.031578599511381e+17
19361.0	5.031007473019562e+17
19362.0	5.030113383721641e+17
19363.0	5.029218405231274e+17
19364.0	5.0283237210412365e+17
19365.0	5.0274252612785485e+17
19366.0	5.026526992356692e+17
19367.0	5.025629328812713e+17
19368.0	5.0247295555338234e+17
19369.0	5.023818187101524e+17
19370.0	5.022919358240085e+17
19371.0	5.021983147644245e+17
19372.0	5.021115516015957e+17
19373.0	5.020210925578921e+17
19374.0	5.0193124588257274e+17
19375.0	5.0184141996905805e+17
19376.0	5.0175044614444365e+17
19377.0	5.0165877963052365e+17
19378.0	5.015678550889813e+17
19379.0	5.0147707755779405e+17
19380.0	5.013858673142441e+17
19381.0	5.012939635425279e+17
19382.0	5.0119676579020794e+17
19383.0	5.011087878870356e+17
19384.0	5.010184024533674e+17
19385.0	5.0092619333632e+17
19386.0	5.008345559728127e+17
19387.0	5.007410355765247e+17
19388.0	5.006462557705557e+17
19389.0	5.0054870583650976e+17
19390.0	5.004439186309119e+17
19391.0	5.003200592259754e+17
19392.0	5.002420974605651e+17
19393.0	5.0016723067207674e+17
19394.0	5.000787327451136e+17
19395.0	4.9997458642916685e+17
19396.0	4.998884747815594e+17
19397.0	4.997941074853887e+17
19398.0	4.9968318715876685e+17
19399.0	4.995797985438377e+17
19400.0	4.9948768107233274e+17
19401.0	4.9940472549867514e+17
19402.0	4.993093229084671e+17
19403.0	4.992094422695936e+17
19404.0	4.9910991024728736e+17
19405.0	4.9900603565233485e+17
19406.0	4.9890284899314336e+17
19407.0	4.987831081151146e+17
19408.0	4.986855324560042e+17
19409.0	4.985814672299348e+17
19410.0	4.9847900562609485e+17
19411.0	4.983715708360021e+17
19412.0	4.9826133620817914e+17
19413.0	4.981358524891135e+17
19414.0	4.980354584674303e+17
19415.0	4.979190177376938e+17
19416.0	4.977901761287508e+17
19417.0	4.976796554493951e+17
19418.0	4.9755415264624634e+17
19419.0	4.9742453320362656e+17
19420.0	4.972910424184149e+17
19421.0	4.971552409212245e+17
19422.0	4.970075233364649e+17
19423.0	4.968635080638464e+17
19424.0	4.967110434357247e+17
19425.0	4.965509520250196e+17
19426.0	4.9638237868305056e+17
19427.0	4.962058047761066e+17
19428.0	4.9601545334947834e+17
19429.0	4.958212842673492e+17
19430.0	4.9561024115070285e+17
19431.0	4.953826419277824e+17
19432.0	4.951452727028393e+17
19433.0	4.94881314246929e+17
19434.0	4.945913607531178e+17
19435.0	4.942879087307434e+17
19436.0	4.939522439643136e+17
19437.0	4.9355781937561594e+17
19438.0	4.9306949543526374e+17
19439.0	4.9263295283418445e+17
19440.0	4.921910659208532e+17
19441.0	4.916069224764756e+17
19442.0	4.909040870096896e+17
19443.0	4.901701774125738e+17
19444.0	4.892357073130836e+17
19445.0	4.881551306610005e+17
19446.0	4.868334967324672e+17
19447.0	4.851920819366569e+17
19448.0	4.8305898950492154e+17
19449.0	4.800778564796415e+17
19450.0	4.748141869924348e+17
19451.0	4.700462521516033e+17
19452.0	4.7783412250269005e+17
19453.0	4.8138818543069875e+17
19454.0	4.8369564360813216e+17
19455.0	4.853613713162239e+17
19456.0	4.866396743095637e+17
19457.0	4.875207806287872e+17
19458.0	4.872681042913966e+17
19459.0	4.8866549860488544e+17
19460.0	4.8963764417986554e+17
19461.0	4.9016964284852896e+17
19462.0	4.905515642869076e+17
19463.0	4.908552698549589e+17
19464.0	4.9113990385281696e+17
19465.0	4.913657024610303e+17
19466.0	4.915424999243774e+17
19467.0	4.9167665292028576e+17
19468.0	4.917985021351253e+17
19469.0	4.9187078774893203e+17
19470.0	4.9197612909199354e+17
19471.0	4.920366589105493e+17
19472.0	4.9207513703601485e+17
19473.0	4.921002470058666e+17
19474.0	4.920869694472191e+17
19475.0	4.9210591574753274e+17
19476.0	4.921171805995006e+17
19477.0	4.9211354036305914e+17
19478.0	4.92099443027695e+17
19479.0	4.920498534219774e+17
19480.0	4.920461165767338e+17
19481.0	4.920124472208042e+17
19482.0	4.9197681500050765e+17
19483.0	4.9193516017909766e+17
19484.0	4.918880981308756e+17
19485.0	4.9183692811141114e+17
19486.0	4.917545877023402e+17
19487.0	4.9172447057237325e+17
19488.0	4.916625239878314e+17
19489.0	4.915931111227392e+17
19490.0	4.915279066824704e+17
19491.0	4.9147292397076474e+17
19492.0	4.9141696859996154e+17
19493.0	4.913528637663914e+17
19494.0	4.912844730531839e+17
19495.0	4.912115172595027e+17
19496.0	4.911311191627092e+17
19497.0	4.910530268146345e+17
19498.0	4.9095055675228154e+17
19499.0	4.9085577331124896e+17
19500.0	4.9083083013488634e+17
19501.0	4.9077334062749e+17
19502.0	4.9070496676140365e+17
19503.0	4.906322535383039e+17
19504.0	4.905563669047977e+17
19505.0	4.9047872579392845e+17
19506.0	4.904015796109311e+17
19507.0	4.9031980920777376e+17
19508.0	4.9023595255780685e+17
19509.0	4.9014013682865485e+17
19510.0	4.899836238583124e+17
19511.0	4.894683046084607e+17
19512.0	4.89777197481984e+17
19513.0	4.897771358257151e+17
19514.0	4.897184628255402e+17
19515.0	4.896686900685482e+17
19516.0	4.8959921226164896e+17
19517.0	4.8952884197676365e+17
19518.0	4.894443299667966e+17
19519.0	4.8936517953563296e+17
19520.0	4.892645329469438e+17
19521.0	4.8921410524938234e+17
19522.0	4.8912618173235194e+17
19523.0	4.8904461195673594e+17
19524.0	4.8894830640278176e+17
19525.0	4.8888724915049805e+17
19526.0	4.8880637912459936e+17
19527.0	4.887220428559702e+17
19528.0	4.8863771308851194e+17
19529.0	4.8855454227715405e+17
19530.0	4.8847685446970016e+17
19531.0	4.8839384513904634e+17
19532.0	4.883109194148521e+17
19533.0	4.88227724276531e+17
19534.0	4.8814479652509e+17
19535.0	4.880594701910015e+17
19536.0	4.879734564803925e+17
19537.0	4.8789131599981216e+17
19538.0	4.877780734268757e+17
19539.0	4.8772019112290976e+17
19540.0	4.8763897108234234e+17
19541.0	4.875523355661653e+17
19542.0	4.8747222114413216e+17
19543.0	4.873614526513151e+17
19544.0	4.8730113681216845e+17
19545.0	4.872112333040298e+17
19546.0	4.871284376731647e+17
19547.0	4.870534355484672e+17
19548.0	4.8697455956459514e+17
19549.0	4.868855543365632e+17
19550.0	4.8681142966026234e+17
19551.0	4.8672862759813114e+17
19552.0	4.866453580808191e+17
19553.0	4.865619264536575e+17
19554.0	4.8647821213040634e+17
19555.0	4.8639024729948154e+17
19556.0	4.863097834919253e+17
19557.0	4.8622837365910176e+17
19558.0	4.861451239948287e+17
19559.0	4.8606180680226125e+17
19560.0	4.859659148765865e+17
19561.0	4.858926795325439e+17
19562.0	4.85800777228834e+17
19563.0	4.8572808497725434e+17
19564.0	4.856438837652138e+17
19565.0	4.855606351495166e+17
19566.0	4.8547617619749536e+17
19567.0	4.853934817891669e+17
19568.0	4.853081250463743e+17
19569.0	4.852252105069909e+17
19570.0	4.8514218859342496e+17
19571.0	4.850585457131519e+17
19572.0	4.849723883476308e+17
19573.0	4.8488756812622496e+17
19574.0	4.847990646767615e+17
19575.0	4.8472422221523616e+17
19576.0	4.846382499583317e+17
19577.0	4.84549384680243e+17
19578.0	4.844724922526378e+17
19579.0	4.8438699416180045e+17
19580.0	4.8430375610176845e+17
19581.0	4.8422179115281056e+17
19582.0	4.8413836763463674e+17
19583.0	4.840547226572117e+17
19584.0	4.839706019059028e+17
19585.0	4.8387748332393805e+17
19586.0	4.8379155433826976e+17
19587.0	4.8371629706007885e+17
19588.0	4.836297984180224e+17
19589.0	4.835466797558443e+17
19590.0	4.834617788639914e+17
19591.0	4.8338311825762976e+17
19592.0	4.8330137917194234e+17
19593.0	4.832140831227903e+17
19594.0	4.83112117285683e+17
19595.0	4.8304940223474336e+17
19596.0	4.8296584296093005e+17
19597.0	4.828788500201471e+17
19598.0	4.82780671709457e+17
19599.0	4.827104222904319e+17
19600.0	4.826308483044691e+17
19601.0	4.825449881752917e+17
19602.0	4.824616450479444e+17
19603.0	4.8237711115769165e+17
19604.0	4.822931813870251e+17
19605.0	4.822006144259413e+17
19606.0	4.821313241743359e+17
19607.0	4.8204959145000954e+17
19608.0	4.819654302236672e+17
19609.0	4.818812199239678e+17
19610.0	4.8178670093380256e+17
19611.0	4.816961527611392e+17
19612.0	4.816332335174996e+17
19613.0	4.815482973934932e+17
19614.0	4.8146219112857594e+17
19615.0	4.813801824889514e+17
19616.0	4.812806826928811e+17
19617.0	4.811844062194345e+17
19618.0	4.8111006784334483e+17
19619.0	4.8102143066548896e+17
19620.0	4.8094064068089165e+17
19621.0	4.8084369570529274e+17
19622.0	4.8079479781021005e+17
19623.0	4.8071243363341645e+17
19624.0	4.8062675469817165e+17
19625.0	4.805492730407594e+17
19626.0	4.804654707070293e+17
19627.0	4.8038189822115834e+17
19628.0	4.802965170115924e+17
19629.0	4.8013718917393056e+17
19630.0	4.801253013979136e+17
19631.0	4.80037026607923e+17
19632.0	4.7996184175138125e+17
19633.0	4.7987894566693536e+17
19634.0	4.798010142403242e+17
19635.0	4.7971376314013e+17
19636.0	4.796045512933374e+17
19637.0	4.794974477134507e+17
19638.0	4.794681887380821e+17
19639.0	4.7938341919784954e+17
19640.0	4.792789063696383e+17
19641.0	4.7918352754715296e+17
19642.0	4.791292380140885e+17
19643.0	4.790519079108607e+17
19644.0	4.789703477821439e+17
19645.0	4.788901333958655e+17
19646.0	4.78775530959667e+17
19647.0	4.7872688661026125e+17
19648.0	4.786461182962346e+17
19649.0	4.7856381598542496e+17
19650.0	4.784817627463679e+17
19651.0	4.783988242994517e+17
19652.0	4.78316324856354e+17
19653.0	4.7823428594783565e+17
19654.0	4.7815126389445965e+17
19655.0	4.7806854816508576e+17
