# Flux units: erg / (cm m2 s)
# Wavelength units: Angstrom
wave	flux
19000.0	7.287668162778451e+17
19001.0	7.286276420009983e+17
19002.0	7.284945276545705e+17
19003.0	7.28358266741282e+17
19004.0	7.282220048493225e+17
19005.0	7.280858503315455e+17
19006.0	7.279495838258516e+17
19007.0	7.278114631581693e+17
19008.0	7.276750678873427e+17
19009.0	7.275384670956202e+17
19010.0	7.273905706237951e+17
19011.0	7.272669176485204e+17
19012.0	7.271262232160938e+17
19013.0	7.269952007088808e+17
19014.0	7.26856512971298e+17
19015.0	7.267216135290879e+17
19016.0	7.26584179888401e+17
19017.0	7.264477670014973e+17
19018.0	7.26312794858018e+17
19019.0	7.261765251366911e+17
19020.0	7.260385002389501e+17
19021.0	7.259029805989888e+17
19022.0	7.257671097559722e+17
19023.0	7.256305764925437e+17
19024.0	7.254932291147092e+17
19025.0	7.25357308079855e+17
19026.0	7.252199991498067e+17
19027.0	7.250810980619604e+17
19028.0	7.249479475047081e+17
19029.0	7.248113878171645e+17
19030.0	7.24674845745698e+17
19031.0	7.245382877358761e+17
19032.0	7.244017213374463e+17
19033.0	7.242624005395795e+17
19034.0	7.24128553308433e+17
19035.0	7.239907754551977e+17
19036.0	7.236248081705641e+17
19037.0	7.237187769379497e+17
19038.0	7.235814832472063e+17
19039.0	7.234456869229908e+17
19040.0	7.233091087805097e+17
19041.0	7.231725099461289e+17
19042.0	7.230334503135913e+17
19043.0	7.228993705781929e+17
19044.0	7.227627123245055e+17
19045.0	7.226262000325972e+17
19046.0	7.224881119406761e+17
19047.0	7.223526858336938e+17
19048.0	7.222103319947945e+17
19049.0	7.220778890166271e+17
19050.0	7.219420190124713e+17
19051.0	7.217709852218708e+17
19052.0	7.216649231575721e+17
19053.0	7.215335954448381e+17
19054.0	7.213970420487508e+17
19055.0	7.212526665553236e+17
19056.0	7.211232756323667e+17
19057.0	7.209874053485908e+17
19058.0	7.208508676112383e+17
19059.0	7.207142986962259e+17
19060.0	7.205770511428266e+17
19061.0	7.204412639062697e+17
19062.0	7.203045997805565e+17
19063.0	7.201681483060564e+17
19064.0	7.200281706801833e+17
19065.0	7.198896490370387e+17
19066.0	7.197567590858752e+17
19067.0	7.19622163730705e+17
19068.0	7.194857379812692e+17
19069.0	7.193493394948093e+17
19070.0	7.192125594664957e+17
19071.0	7.190764113799849e+17
19072.0	7.189399554315603e+17
19073.0	7.188033483483817e+17
19074.0	7.186670810038271e+17
19075.0	7.185306500814164e+17
19076.0	7.183935753333417e+17
19077.0	7.182574648557568e+17
19078.0	7.181204421170516e+17
19079.0	7.179850140527274e+17
19080.0	7.178484106046121e+17
19081.0	7.177109846534825e+17
19082.0	7.175744607573331e+17
19083.0	7.174363930776916e+17
19084.0	7.172955756123476e+17
19085.0	7.171667967781545e+17
19086.0	7.170185086981459e+17
19087.0	7.168869743460351e+17
19088.0	7.167553126268927e+17
19089.0	7.16612370047522e+17
19090.0	7.16484488794385e+17
19091.0	7.163480296303274e+17
19092.0	7.162095401435136e+17
19093.0	7.160763795199316e+17
19094.0	7.159391466465961e+17
19095.0	7.158026655323476e+17
19096.0	7.156670585110527e+17
19097.0	7.155313453738666e+17
19098.0	7.153952341972308e+17
19099.0	7.152589992886272e+17
19100.0	7.151228356831914e+17
19101.0	7.14986601194018e+17
19102.0	7.148477817552893e+17
19103.0	7.147143194214399e+17
19104.0	7.145781656027135e+17
19105.0	7.144420029759487e+17
19106.0	7.143045718518441e+17
19107.0	7.141692775858175e+17
19108.0	7.140335919912275e+17
19109.0	7.138751380368041e+17
19110.0	7.1376090183325e+17
19111.0	7.136253610819583e+17
19112.0	7.134893014952617e+17
19113.0	7.13353245963059e+17
19114.0	7.132171979806036e+17
19115.0	7.130800742989824e+17
19116.0	7.12944389403443e+17
19117.0	7.128084327170047e+17
19118.0	7.126695426741587e+17
19119.0	7.124508709573971e+17
19120.0	7.123991853880659e+17
19121.0	7.122637036366505e+17
19122.0	7.121291446321151e+17
19123.0	7.119930492540244e+17
19124.0	7.118559603851263e+17
19125.0	7.117210633196884e+17
19126.0	7.115850220481194e+17
19127.0	7.113983158211923e+17
19128.0	7.113019933502121e+17
19129.0	7.111749387943935e+17
19130.0	7.11041449197568e+17
19131.0	7.109057533968381e+17
19132.0	7.107697858052093e+17
19133.0	7.106228721986217e+17
19134.0	7.104930431107071e+17
19135.0	7.103622954702164e+17
19136.0	7.102265336791037e+17
19137.0	7.100858311376896e+17
19138.0	7.099536321282045e+17
19139.0	7.098189907755007e+17
19140.0	7.09683254989073e+17
19141.0	7.095474541909331e+17
19142.0	7.094109042900991e+17
19143.0	7.092743016808445e+17
19144.0	7.091398218088445e+17
19145.0	7.090043243986943e+17
19146.0	7.088510997626879e+17
19147.0	7.087300433412093e+17
19148.0	7.085969052270591e+17
19149.0	7.08461192089873e+17
19150.0	7.083252264555859e+17
19151.0	7.081898151684777e+17
19152.0	7.080537793495039e+17
19153.0	7.079177359807827e+17
19154.0	7.077787672248317e+17
19155.0	7.076469099113129e+17
19156.0	7.075110969496916e+17
19157.0	7.073750031095126e+17
19158.0	7.072243175653373e+17
19159.0	7.071033780251305e+17
19160.0	7.069678472003583e+17
19161.0	7.068312911478783e+17
19162.0	7.066621793271807e+17
19163.0	7.065605545568936e+17
19164.0	7.064256457474047e+17
19165.0	7.062893150688595e+17
19166.0	7.0615046319418e+17
19167.0	7.060153516599977e+17
19168.0	7.058805991582378e+17
19169.0	7.057454091905705e+17
19170.0	7.056115492367017e+17
19171.0	7.054739714517672e+17
19172.0	7.053402097844223e+17
19173.0	7.052045429243904e+17
19174.0	7.050672629350399e+17
19175.0	7.049332939292671e+17
19176.0	7.047976126687913e+17
19177.0	7.046573591975252e+17
19178.0	7.045254297419775e+17
19179.0	7.043878237153961e+17
19180.0	7.042532090664275e+17
19181.0	7.041160785341097e+17
19182.0	7.039822093527722e+17
19183.0	7.038475843578538e+17
19184.0	7.037099992328872e+17
19185.0	7.035760933513897e+17
19186.0	7.034405753891498e+17
19187.0	7.033028587727529e+17
19188.0	7.031690708910079e+17
19189.0	7.030329274881364e+17
19190.0	7.028969322840061e+17
19191.0	7.027615564387668e+17
19192.0	7.026260644113066e+17
19193.0	7.024894202784426e+17
19194.0	7.023541941698559e+17
19195.0	7.022187321316692e+17
19196.0	7.020826064147796e+17
19197.0	7.01946663150114e+17
19198.0	7.018103224751443e+17
19199.0	7.014682217589417e+17
19200.0	7.013984023259818e+17
19201.0	7.01402899878161e+17
19202.0	7.012677118678355e+17
19203.0	7.011319804155219e+17
19204.0	7.009953501238612e+17
19205.0	7.008601860909738e+17
19206.0	7.007238528958463e+17
19207.0	7.005863375361364e+17
19208.0	7.004463932549802e+17
19209.0	7.003162940538879e+17
19210.0	7.001802318107987e+17
19211.0	7.000441094493524e+17
19212.0	6.999080799917396e+17
19213.0	6.997682771285332e+17
19214.0	6.996307842782548e+17
19215.0	6.994988281189716e+17
19216.0	6.993630733882708e+17
19217.0	6.992272108639572e+17
19218.0	6.990663669951145e+17
19219.0	6.989497078120447e+17
19220.0	6.988176074386089e+17
19221.0	6.986722947279529e+17
19222.0	6.985455000791722e+17
19223.0	6.984091108201812e+17
19224.0	6.982713035369129e+17
19225.0	6.981317677809661e+17
19226.0	6.979997261277865e+17
19227.0	6.978624521502719e+17
19228.0	6.977265742468436e+17
19229.0	6.975898976081236e+17
19230.0	6.974530796213587e+17
19231.0	6.973164833035604e+17
19232.0	6.971789167034367e+17
19233.0	6.970405797494783e+17
19234.0	6.969051758723071e+17
19235.0	6.967682644224681e+17
19236.0	6.966319641526271e+17
19237.0	6.964944238368084e+17
19238.0	6.963548266343081e+17
19239.0	6.962206881087487e+17
19240.0	6.960790231143764e+17
19241.0	6.959440528583337e+17
19242.0	6.958082618469034e+17
19243.0	6.956660256582313e+17
19244.0	6.955339688356521e+17
19245.0	6.953964085968895e+17
19246.0	6.952583079220563e+17
19247.0	6.951210250665983e+17
19248.0	6.949833445212159e+17
19249.0	6.948454557286397e+17
19250.0	6.947073742777002e+17
19251.0	6.945657665355775e+17
19252.0	6.944224122852692e+17
19253.0	6.942929845223424e+17
19254.0	6.941543370500778e+17
19255.0	6.940108499801428e+17
19256.0	6.938770813222911e+17
19257.0	6.937396826341375e+17
19258.0	6.936009948266496e+17
19259.0	6.934600004315817e+17
19260.0	6.933196523787603e+17
19261.0	6.931844679335935e+17
19262.0	6.930444893989546e+17
19263.0	6.929045356806143e+17
19264.0	6.927519430563155e+17
19265.0	6.926219044629162e+17
19266.0	6.924834219666089e+17
19267.0	6.923482661825193e+17
19268.0	6.922084598240598e+17
19269.0	6.920685139350867e+17
19270.0	6.919283839161684e+17
19271.0	6.917785065444692e+17
19272.0	6.916458602823679e+17
19273.0	6.913828984629929e+17
19274.0	6.912969862545405e+17
19275.0	6.912232007576234e+17
19276.0	6.910822518707539e+17
19277.0	6.909410971134633e+17
19278.0	6.907997626302461e+17
19279.0	6.906580443682132e+17
19280.0	6.905142116177236e+17
19281.0	6.903745584212649e+17
19282.0	6.902325054537727e+17
19283.0	6.900871265430185e+17
19284.0	6.899435203548499e+17
19285.0	6.897991292026879e+17
19286.0	6.896611925251412e+17
19287.0	6.895185659166719e+17
19288.0	6.892441452587689e+17
19289.0	6.890132669289809e+17
19290.0	6.890189561528319e+17
19291.0	6.888667726129834e+17
19292.0	6.887305614021971e+17
19293.0	6.885857201313108e+17
19294.0	6.884411061917012e+17
19295.0	6.882959664261801e+17
19296.0	6.88150531940898e+17
19297.0	6.880047491186687e+17
19298.0	6.878587699331071e+17
19299.0	6.877124231167999e+17
19300.0	6.87565693779968e+17
19301.0	6.874211530309632e+17
19302.0	6.872751026121385e+17
19303.0	6.871252727059796e+17
19304.0	6.869782303342591e+17
19305.0	6.868312855500116e+17
19306.0	6.866824925457065e+17
19307.0	6.865314211954687e+17
19308.0	6.863824773360297e+17
19309.0	6.862265654793555e+17
19310.0	6.860730373854548e+17
19311.0	6.85930421752081e+17
19312.0	6.857808532209664e+17
19313.0	6.856278495548758e+17
19314.0	6.853554186747903e+17
19315.0	6.85209125196049e+17
19316.0	6.851700162472618e+17
19317.0	6.850167637890387e+17
19318.0	6.848623237136383e+17
19319.0	6.847073638241622e+17
19320.0	6.845514790906538e+17
19321.0	6.843955840811007e+17
19322.0	6.842352027740842e+17
19323.0	6.840780920455167e+17
19324.0	6.839230958753107e+17
19325.0	6.837582710527316e+17
19326.0	6.835710500448938e+17
19327.0	6.833517461766143e+17
19328.0	6.831912084919635e+17
19329.0	6.830294538300073e+17
19330.0	6.828580503814143e+17
19331.0	6.826753361532244e+17
19332.0	6.825122509881343e+17
19333.0	6.823471651400361e+17
19334.0	6.821807154440873e+17
19335.0	6.820140638623059e+17
19336.0	6.818459849588735e+17
19337.0	6.81676817703458e+17
19338.0	6.815005923431763e+17
19339.0	6.81335839662626e+17
19340.0	6.8116199519901e+17
19341.0	6.809896053200212e+17
19342.0	6.808045025056084e+17
19343.0	6.80639581004322e+17
19344.0	6.804259634937855e+17
19345.0	6.801082714598057e+17
19346.0	6.799606618783741e+17
19347.0	6.798007421545129e+17
19348.0	6.796199377327444e+17
19349.0	6.794346674956969e+17
19350.0	6.792485627319636e+17
19351.0	6.790608519692287e+17
19352.0	6.78869925363712e+17
19353.0	6.786809774211071e+17
19354.0	6.784879318532095e+17
19355.0	6.782551563698173e+17
19356.0	6.779455151625555e+17
19357.0	6.777462030248618e+17
19358.0	6.77543649808657e+17
19359.0	6.773348302323711e+17
19360.0	6.771339989177684e+17
19361.0	6.769256894387539e+17
19362.0	6.767160563772074e+17
19363.0	6.764056868290559e+17
19364.0	6.761014829077843e+17
19365.0	6.758820196559529e+17
19366.0	6.756595495075837e+17
19367.0	6.754340027673258e+17
19368.0	6.752052458465962e+17
19369.0	6.748004166576812e+17
19370.0	6.745014147219455e+17
19371.0	6.742736684187647e+17
19372.0	6.740315775959037e+17
19373.0	6.737223365252435e+17
19374.0	6.732695612686335e+17
19375.0	6.730127157930666e+17
19376.0	6.727515457803604e+17
19377.0	6.722688141754367e+17
19378.0	6.718559756135081e+17
19379.0	6.715785530922323e+17
19380.0	6.71221087871522e+17
19381.0	6.708311765636435e+17
19382.0	6.705339686016339e+17
19383.0	6.702321192927231e+17
19384.0	6.699283064203945e+17
19385.0	6.696144823735636e+17
19386.0	6.692939401702057e+17
19387.0	6.689660505948159e+17
19388.0	6.68630603792384e+17
19389.0	6.682872362565632e+17
19390.0	6.678666404691967e+17
19391.0	6.673006242474662e+17
19392.0	6.671195894885033e+17
19393.0	6.667429638482601e+17
19394.0	6.663534134602409e+17
19395.0	6.659533186618708e+17
19396.0	6.655421957799933e+17
19397.0	6.650190303155542e+17
19398.0	6.645622188802047e+17
19399.0	6.640944332581545e+17
19400.0	6.636487964972371e+17
19401.0	6.631236955712169e+17
19402.0	6.62516729380864e+17
19403.0	6.620064328100521e+17
19404.0	6.614725580292095e+17
19405.0	6.607252644779348e+17
19406.0	6.601582191138131e+17
19407.0	6.594448119037951e+17
19408.0	6.586785294101161e+17
19409.0	6.579103162084009e+17
19410.0	6.570791732772863e+17
19411.0	6.560983094220118e+17
19412.0	6.55138286504072e+17
19413.0	6.540282196306595e+17
19414.0	6.527580960194561e+17
19415.0	6.513322305606999e+17
19416.0	6.49747610905259e+17
19417.0	6.484876352028671e+17
19418.0	6.474627512882516e+17
19419.0	6.463738896973823e+17
19420.0	6.452608273918633e+17
19421.0	6.440964622472534e+17
19422.0	6.428848216342527e+17
19423.0	6.416209940228777e+17
19424.0	6.402616472895487e+17
19425.0	6.388398516338687e+17
19426.0	6.373836184354815e+17
19427.0	6.357811434181974e+17
19428.0	6.341263133507583e+17
19429.0	6.322961611664041e+17
19430.0	6.304005552603136e+17
19431.0	6.282624328794113e+17
19432.0	6.259567061106688e+17
19433.0	6.231759226142717e+17
19434.0	6.199719153893371e+17
19435.0	6.159518245322747e+17
19436.0	6.118795265441791e+17
19437.0	6.086155769828692e+17
19438.0	6.048974430186153e+17
19439.0	6.01261685464542e+17
19440.0	5.970872708541097e+17
19441.0	5.923335035333289e+17
19442.0	5.866548011641518e+17
19443.0	5.793660030069413e+17
19444.0	5.716915843148455e+17
19445.0	5.639545283062444e+17
19446.0	5.545966387418453e+17
19447.0	5.428455223066618e+17
19448.0	5.2915108661166144e+17
19449.0	5.11361137316113e+17
19450.0	4.850996693259562e+17
19451.0	4.7725633692412595e+17
19452.0	4.986769182643544e+17
19453.0	5.2094988766412883e+17
19454.0	5.359174217804451e+17
19455.0	5.4846056311029766e+17
19456.0	5.586742406370648e+17
19457.0	5.669198100780369e+17
19458.0	5.739498204474026e+17
19459.0	5.817277161144326e+17
19460.0	5.878553269414566e+17
19461.0	5.92786274455825e+17
19462.0	5.969754773433002e+17
19463.0	6.007218163242322e+17
19464.0	6.041466190517588e+17
19465.0	6.073033933804884e+17
19466.0	6.105610494585513e+17
19467.0	6.146558107407699e+17
19468.0	6.179413758574588e+17
19469.0	6.206512416423936e+17
19470.0	6.229226248208388e+17
19471.0	6.249156463034368e+17
19472.0	6.266872991318015e+17
19473.0	6.282773702639616e+17
19474.0	6.297439250153472e+17
19475.0	6.311453515928915e+17
19476.0	6.324209212981247e+17
19477.0	6.335966997031593e+17
19478.0	6.347708111519743e+17
19479.0	6.358161303448233e+17
19480.0	6.3680211334813e+17
19481.0	6.377409151150761e+17
19482.0	6.386288006878548e+17
19483.0	6.394718887870464e+17
19484.0	6.40291364282914e+17
19485.0	6.411524419616765e+17
19486.0	6.423638719507108e+17
19487.0	6.435848546069166e+17
19488.0	6.446439964781221e+17
19489.0	6.455287503039149e+17
19490.0	6.46345119707955e+17
19491.0	6.471027371190956e+17
19492.0	6.476370258777427e+17
19493.0	6.483356329967615e+17
19494.0	6.48708295299345e+17
19495.0	6.492997289334102e+17
19496.0	6.496204268852564e+17
19497.0	6.500122777791146e+17
19498.0	6.503972223320064e+17
19499.0	6.503764639525544e+17
19500.0	6.509456740668758e+17
19501.0	6.513191093796863e+17
19502.0	6.515350253688148e+17
19503.0	6.517373060950697e+17
19504.0	6.519262166384639e+17
19505.0	6.521536191485268e+17
19506.0	6.523804926170451e+17
19507.0	6.525315813037395e+17
19508.0	6.526723789160447e+17
19509.0	6.52802584093218e+17
19510.0	6.529177900198569e+17
19511.0	6.527618364298579e+17
19512.0	6.531085919147346e+17
19513.0	6.532163068843347e+17
19514.0	6.533309879637331e+17
19515.0	6.534563107613353e+17
19516.0	6.535411679625216e+17
19517.0	6.536030839985492e+17
19518.0	6.536610808769193e+17
19519.0	6.537109515010047e+17
19520.0	6.537541889032191e+17
19521.0	6.53792631656721e+17
19522.0	6.539518154200403e+17
19523.0	6.540171082203136e+17
19524.0	6.540379760710995e+17
19525.0	6.542126211574442e+17
19526.0	6.543656955674623e+17
19527.0	6.544049484507817e+17
19528.0	6.544057578116436e+17
19529.0	6.545780991066112e+17
19530.0	6.546399118229503e+17
19531.0	6.546276929765376e+17
19532.0	6.546117941177002e+17
19533.0	6.545923717638825e+17
19534.0	6.547710709246634e+17
19535.0	6.547494982210899e+17
19536.0	6.547184156322474e+17
19537.0	6.546867747815423e+17
19538.0	6.546484153548799e+17
19539.0	6.545971752206335e+17
19540.0	6.547165669228541e+17
19541.0	6.546981654626303e+17
19542.0	6.546516039346858e+17
19543.0	6.546026948547926e+17
19544.0	6.545515481836201e+17
19545.0	6.544852695820969e+17
19546.0	6.544175638686378e+17
19547.0	6.543854450769919e+17
19548.0	6.543972458212009e+17
19549.0	6.543999224862036e+17
19550.0	6.543398124475732e+17
19551.0	6.542749905278291e+17
19552.0	6.542084034352467e+17
19553.0	6.541396015404371e+17
19554.0	6.540695372999338e+17
19555.0	6.539994495713279e+17
19556.0	6.539268577733289e+17
19557.0	6.538527613386751e+17
19558.0	6.53777512309282e+17
19559.0	6.537006131707903e+17
19560.0	6.536260888472233e+17
19561.0	6.5365252519581e+17
19562.0	6.535722004294314e+17
19563.0	6.534907032152746e+17
19564.0	6.534082356488874e+17
19565.0	6.533246927328596e+17
19566.0	6.53239549759761e+17
19567.0	6.531545393266687e+17
19568.0	6.530672626412202e+17
19569.0	6.529805842732371e+17
19570.0	6.528926157373437e+17
19571.0	6.528034295250943e+17
19572.0	6.527127448977407e+17
19573.0	6.526223521939455e+17
19574.0	6.525286989081257e+17
19575.0	6.524393938572628e+17
19576.0	6.523465513304063e+17
19577.0	6.522521423708159e+17
19578.0	6.521574530919082e+17
19579.0	6.520630328776019e+17
19580.0	6.519675636678656e+17
19581.0	6.518716565028864e+17
19582.0	6.517754058244096e+17
19583.0	6.517514334197078e+17
19584.0	6.516619413727914e+17
19585.0	6.515602701156351e+17
19586.0	6.514601462071296e+17
19587.0	6.513635471917055e+17
19588.0	6.512641704984576e+17
19589.0	6.511872128494249e+17
19590.0	6.510848161174867e+17
19591.0	6.509856766820351e+17
19592.0	6.508837929833812e+17
19593.0	6.50780914745344e+17
19594.0	6.506718966753961e+17
19595.0	6.505753223364607e+17
19596.0	6.504399278964735e+17
19597.0	6.503674410958845e+17
19598.0	6.502564212943529e+17
19599.0	6.501599687300436e+17
19600.0	6.500551223148541e+17
19601.0	6.49947884097809e+17
19602.0	6.498430203461631e+17
19603.0	6.497240649913684e+17
19604.0	6.496306609870164e+17
19605.0	6.495171017441279e+17
19606.0	6.494192742869674e+17
19607.0	6.493125034551977e+17
19608.0	6.492051220026708e+17
19609.0	6.490964006797311e+17
19610.0	6.489900388625065e+17
19611.0	6.488818876153855e+17
19612.0	6.487738389189971e+17
19613.0	6.486653801594879e+17
19614.0	6.485553939742719e+17
19615.0	6.484477444358141e+17
19616.0	6.483369667854335e+17
19617.0	6.482293474459647e+17
19618.0	6.481039125905407e+17
19619.0	6.479902920409087e+17
19620.0	6.478810991383892e+17
19621.0	6.477901164358314e+17
19622.0	6.476798482535763e+17
19623.0	6.47569405588275e+17
19624.0	6.474587993451178e+17
19625.0	6.473479930336595e+17
19626.0	6.472370690020692e+17
19627.0	6.471259532907859e+17
19628.0	6.470099257698985e+17
19629.0	6.469005915892393e+17
19630.0	6.46781379612945e+17
19631.0	6.46459826512418e+17
19632.0	6.465680488529919e+17
19633.0	6.464562898053802e+17
19634.0	6.463443099975679e+17
19635.0	6.462308600162985e+17
19636.0	6.461198490228052e+17
19637.0	6.459952572923904e+17
19638.0	6.458946532059817e+17
19639.0	6.457818239817044e+17
19640.0	6.456673218592768e+17
19641.0	6.455382117449728e+17
19642.0	6.454436763271167e+17
19643.0	6.453303386133844e+17
19644.0	6.452155633019561e+17
19645.0	6.450962786942975e+17
19646.0	6.449908821262335e+17
19647.0	6.448774593380351e+17
19648.0	6.447639522443263e+17
19649.0	6.446503682550442e+17
19650.0	6.445943633914537e+17
19651.0	6.444809632524969e+17
19652.0	6.443671002021887e+17
19653.0	6.442531058701652e+17
19654.0	6.441391576754857e+17
19655.0	6.44024938598673e+17
19656.0	6.43910723576354e+17
19657.0	6.437967245606911e+17
19658.0	6.436824529851732e+17
19659.0	6.435680731267071e+17
19660.0	6.434537291295402e+17
19661.0	6.433392754513236e+17
19662.0	6.432247664082943e+17
19663.0	6.431088757615274e+17
19664.0	6.429947685328212e+17
19665.0	6.428809286909951e+17
