# Flux units: erg / (cm m2 s)
# Wavelength units: Angstrom
wave	flux
19000.0	8.336235063934975e+17
19001.0	8.334691161604095e+17
19002.0	8.333189570013866e+17
19003.0	8.331664590984531e+17
19004.0	8.330138588545021e+17
19005.0	8.328612569328297e+17
19006.0	8.327085258265939e+17
19007.0	8.325441478372009e+17
19008.0	8.324013228381523e+17
19009.0	8.322485820850175e+17
19010.0	8.320867641589757e+17
19011.0	8.319422825496572e+17
19012.0	8.317741891059708e+17
19013.0	8.316364664777385e+17
19014.0	8.314816997359616e+17
19015.0	8.313293388469587e+17
19016.0	8.311744233471999e+17
19017.0	8.310198677187242e+17
19018.0	8.308669973615955e+17
19019.0	8.307140392037034e+17
19020.0	8.305594528169981e+17
19021.0	8.304054930593106e+17
19022.0	8.302518544454994e+17
19023.0	8.300975980107091e+17
19024.0	8.29943024067106e+17
19025.0	8.297875872153599e+17
19026.0	8.296323758773586e+17
19027.0	8.294655148599977e+17
19028.0	8.293254154594986e+17
19029.0	8.291707984543744e+17
19030.0	8.290161160181074e+17
19031.0	8.28861345501457e+17
19032.0	8.287065145868285e+17
19033.0	8.285496502736212e+17
19034.0	8.283965661467988e+17
19035.0	8.282399095914496e+17
19036.0	8.271337615960742e+17
19037.0	8.279308257372842e+17
19038.0	8.277762832509609e+17
19039.0	8.276211724364456e+17
19040.0	8.274659276838228e+17
19041.0	8.273106271469567e+17
19042.0	8.271534983129769e+17
19043.0	8.26999923872017e+17
19044.0	8.268443693001385e+17
19045.0	8.266883307055788e+17
19046.0	8.26532287357474e+17
19047.0	8.263776429495636e+17
19048.0	8.2621784667805e+17
19049.0	8.260649661147817e+17
19050.0	8.259096283884202e+17
19051.0	8.256018717518501e+17
19052.0	8.255814333278888e+17
19053.0	8.254402857708202e+17
19054.0	8.252873748687528e+17
19055.0	8.25125885636335e+17
19056.0	8.24975515923251e+17
19057.0	8.248192964143782e+17
19058.0	8.246606229580458e+17
19059.0	8.245073682628607e+17
19060.0	8.24350738830677e+17
19061.0	8.241951041475923e+17
19062.0	8.24038814593843e+17
19063.0	8.238826408028841e+17
19064.0	8.237239568607914e+17
19065.0	8.235660190853802e+17
19066.0	8.234123297204905e+17
19067.0	8.232574360311124e+17
19068.0	8.231010458140671e+17
19069.0	8.229446480472745e+17
19070.0	8.227879583569236e+17
19071.0	8.22631180725999e+17
19072.0	8.224750506956118e+17
19073.0	8.223185540830548e+17
19074.0	8.221621013708797e+17
19075.0	8.22005510246673e+17
19076.0	8.218483769387688e+17
19077.0	8.216919946909012e+17
19078.0	8.215347400278016e+17
19079.0	8.213787892340051e+17
19080.0	8.212219379231402e+17
19081.0	8.21064271659008e+17
19082.0	8.209074185306111e+17
19083.0	8.207491906491732e+17
19084.0	8.205889931225769e+17
19085.0	8.204376324352681e+17
19086.0	8.202702001537021e+17
19087.0	8.200955754796374e+17
19088.0	8.199615874596864e+17
19089.0	8.197906006452905e+17
19090.0	8.196515685553492e+17
19091.0	8.194948173485396e+17
19092.0	8.193308091569492e+17
19093.0	8.191816018253139e+17
19094.0	8.190229252931583e+17
19095.0	8.188653747918164e+17
19096.0	8.187099528997545e+17
19097.0	8.185533398253565e+17
19098.0	8.183963106760019e+17
19099.0	8.182390898469545e+17
19100.0	8.180803243955539e+17
19101.0	8.179246516841132e+17
19102.0	8.177656298209279e+17
19103.0	8.176100611282258e+17
19104.0	8.174526905625257e+17
19105.0	8.172950989570045e+17
19106.0	8.171326391626412e+17
19107.0	8.169797840448169e+17
19108.0	8.168222925433516e+17
19109.0	8.165627506895528e+17
19110.0	8.165039595498153e+17
19111.0	8.163504434096808e+17
19112.0	8.161931677750611e+17
19113.0	8.160357025579004e+17
19114.0	8.158781492603561e+17
19115.0	8.157180965770578e+17
19116.0	8.155629099854505e+17
19117.0	8.15404575568691e+17
19118.0	8.152409402507264e+17
19119.0	8.150447539180883e+17
19120.0	8.149238998018732e+17
19121.0	8.147688155512831e+17
19122.0	8.146167544152063e+17
19123.0	8.144588069928957e+17
19124.0	8.142951885919572e+17
19125.0	8.141425683551572e+17
19126.0	8.139847434065236e+17
19127.0	8.137925046130003e+17
19128.0	8.136016716103679e+17
19129.0	8.135096534739625e+17
19130.0	8.133536557039615e+17
19131.0	8.131934829237586e+17
19132.0	8.130376143383209e+17
19133.0	8.128637425418237e+17
19134.0	8.126898756386816e+17
19135.0	8.125631682314239e+17
19136.0	8.124052900151296e+17
19137.0	8.12243447063074e+17
19138.0	8.120849494878889e+17
19139.0	8.119303254922579e+17
19140.0	8.117724767759018e+17
19141.0	8.116142597996543e+17
19142.0	8.114559348899837e+17
19143.0	8.112964670324733e+17
19144.0	8.11139111845888e+17
19145.0	8.109803793896787e+17
19146.0	8.108075606431059e+17
19147.0	8.106620992443732e+17
19148.0	8.105046870152531e+17
19149.0	8.103463001696936e+17
19150.0	8.101878231465981e+17
19151.0	8.100295175307263e+17
19152.0	8.098696398897148e+17
19153.0	8.097121391607807e+17
19154.0	8.095506211274751e+17
19155.0	8.093943728177151e+17
19156.0	8.092349913628671e+17
19157.0	8.090719207380308e+17
19158.0	8.088512722457939e+17
19159.0	8.087559944361302e+17
19160.0	8.085976440810154e+17
19161.0	8.084324638610772e+17
19162.0	8.081231962963969e+17
19163.0	8.081167030943743e+17
19164.0	8.079629838101161e+17
19165.0	8.078017151980882e+17
19166.0	8.076397940921683e+17
19167.0	8.074705413428564e+17
19168.0	8.073238606599508e+17
19169.0	8.071637735833599e+17
19170.0	8.070071476464297e+17
19171.0	8.068405627540819e+17
19172.0	8.066871815307263e+17
19173.0	8.065285469416105e+17
19174.0	8.06368288317986e+17
19175.0	8.062097258708991e+17
19176.0	8.060498754928639e+17
19177.0	8.058865471979517e+17
19178.0	8.05725887598865e+17
19179.0	8.05559078171443e+17
19180.0	8.054029189207379e+17
19181.0	8.052471705720147e+17
19182.0	8.050887774349994e+17
19183.0	8.049288143699965e+17
19184.0	8.047664864165888e+17
19185.0	8.046089282256892e+17
19186.0	8.04448688616243e+17
19187.0	8.042866311954431e+17
19188.0	8.04126833246208e+17
19189.0	8.039637020835839e+17
19190.0	8.038021215551485e+17
19191.0	8.036433716226728e+17
19192.0	8.034832442807636e+17
19193.0	8.03316388016947e+17
19194.0	8.031586243051519e+17
19195.0	8.029995406458879e+17
19196.0	8.028376797981353e+17
19197.0	8.026737082367997e+17
19198.0	8.025007537345876e+17
19199.0	8.014120670461948e+17
19200.0	8.015327092102486e+17
19201.0	8.020125427608234e+17
19202.0	8.018146061451263e+17
19203.0	8.016532961492992e+17
19204.0	8.014939037892607e+17
19205.0	8.013329254230698e+17
19206.0	8.011708371042303e+17
19207.0	8.010078604318036e+17
19208.0	8.008428092566186e+17
19209.0	8.006844760981501e+17
19210.0	8.005219339556183e+17
19211.0	8.003591829367466e+17
19212.0	8.001963063683753e+17
19213.0	8.000244435036841e+17
19214.0	7.998566440807081e+17
19215.0	7.99703336956723e+17
19216.0	7.99543713210914e+17
19217.0	7.993807217186131e+17
19218.0	7.992001928626175e+17
19219.0	7.99049827763268e+17
19220.0	7.988894318460928e+17
19221.0	7.987183647806803e+17
19222.0	7.985616380406441e+17
19223.0	7.983973918922067e+17
19224.0	7.982325086289919e+17
19225.0	7.980653264677545e+17
19226.0	7.979037348943187e+17
19227.0	7.977389123087017e+17
19228.0	7.975738321928191e+17
19229.0	7.974085878000297e+17
19230.0	7.972403144207018e+17
19231.0	7.970757571947177e+17
19232.0	7.969112702932308e+17
19233.0	7.967442957500416e+17
19234.0	7.965792602335913e+17
19235.0	7.9641347883008e+17
19236.0	7.962469406343167e+17
19237.0	7.960798752145408e+17
19238.0	7.959099067771561e+17
19239.0	7.957461773669718e+17
19240.0	7.955751897137152e+17
19241.0	7.954101157494781e+17
19242.0	7.952435068097876e+17
19243.0	7.95071571104017e+17
19244.0	7.949072551903232e+17
19245.0	7.947387553185792e+17
19246.0	7.945696892157951e+17
19247.0	7.944009527853055e+17
19248.0	7.942318085286569e+17
19249.0	7.940622771377489e+17
19250.0	7.938924071266986e+17
19251.0	7.937201115496447e+17
19252.0	7.935451056133459e+17
19253.0	7.933813704709459e+17
19254.0	7.932014570591574e+17
19255.0	7.929658424513875e+17
19256.0	7.927962526198442e+17
19257.0	7.926269417095164e+17
19258.0	7.92454961963554e+17
19259.0	7.922808274638164e+17
19260.0	7.920962729148415e+17
19261.0	7.919367294200489e+17
19262.0	7.91762895651908e+17
19263.0	7.915887274579283e+17
19264.0	7.914053330534397e+17
19265.0	7.912370359063892e+17
19266.0	7.910632991664808e+17
19267.0	7.908906072276991e+17
19268.0	7.907149023805439e+17
19269.0	7.905387797807103e+17
19270.0	7.90362205454336e+17
19271.0	7.901787398864896e+17
19272.0	7.900070200475647e+17
19273.0	7.89733140804403e+17
19274.0	7.895982073883306e+17
19275.0	7.894728896937981e+17
19276.0	7.892937196524884e+17
19277.0	7.891139951241898e+17
19278.0	7.889337516206762e+17
19279.0	7.887509567220394e+17
19280.0	7.885700217176063e+17
19281.0	7.883162789085181e+17
19282.0	7.881166828863488e+17
19283.0	7.879215054236328e+17
19284.0	7.877246368175444e+17
19285.0	7.875406577270783e+17
19286.0	7.873525385789439e+17
19287.0	7.871678197530621e+17
19288.0	7.867483855781883e+17
19289.0	7.8616783350661e+17
19290.0	7.866078615743145e+17
19291.0	7.864142246794582e+17
19292.0	7.862313693828438e+17
19293.0	7.860417527283711e+17
19294.0	7.858517132880553e+17
19295.0	7.856607443899732e+17
19296.0	7.85468979273182e+17
19297.0	7.85267817657139e+17
19298.0	7.849689504284671e+17
19299.0	7.847747607243434e+17
19300.0	7.845796667282774e+17
19301.0	7.843835726703273e+17
19302.0	7.841865908180308e+17
19303.0	7.839871146131456e+17
19304.0	7.837890713223165e+17
19305.0	7.835903712034815e+17
19306.0	7.833892979474432e+17
19307.0	7.831854807777279e+17
19308.0	7.829834517796177e+17
19309.0	7.827108158679722e+17
19310.0	7.823903685257897e+17
19311.0	7.822239821638314e+17
19312.0	7.820210831272617e+17
19313.0	7.818115953983488e+17
19314.0	7.812493739731624e+17
19315.0	7.81059592063113e+17
19316.0	7.811761825295016e+17
19317.0	7.809658311933951e+17
19318.0	7.807175021122902e+17
19319.0	7.803646800560128e+17
19320.0	7.801546862144168e+17
19321.0	7.799353675961684e+17
19322.0	7.797098236521128e+17
19323.0	7.794774284522836e+17
19324.0	7.792658915262463e+17
19325.0	7.790178886221821e+17
19326.0	7.786914857877505e+17
19327.0	7.784325990842367e+17
19328.0	7.782018982434131e+17
19329.0	7.779688355900073e+17
19330.0	7.777329761746943e+17
19331.0	7.774958184824832e+17
19332.0	7.772575943185747e+17
19333.0	7.770164001680041e+17
19334.0	7.767726565796521e+17
19335.0	7.765273296415402e+17
19336.0	7.76279496606788e+17
19337.0	7.76029243179008e+17
19338.0	7.757724694260394e+17
19339.0	7.755218566862166e+17
19340.0	7.752631075558739e+17
19341.0	7.750035877920765e+17
19342.0	7.74732616320068e+17
19343.0	7.744753781178367e+17
19344.0	7.741725660064426e+17
19345.0	7.738216309675347e+17
19346.0	7.735713562886143e+17
19347.0	7.733006044583251e+17
19348.0	7.730181501004457e+17
19349.0	7.727331359588351e+17
19350.0	7.724444910878719e+17
19351.0	7.721521682317311e+17
19352.0	7.718553239158781e+17
19353.0	7.715571751714815e+17
19354.0	7.712534157066237e+17
19355.0	7.708833672243884e+17
19356.0	7.70525890748962e+17
19357.0	7.702087848689664e+17
19358.0	7.698862494624425e+17
19359.0	7.695562529483434e+17
19360.0	7.692293711243945e+17
19361.0	7.688931207632211e+17
19362.0	7.685477016535039e+17
19363.0	7.680617502911145e+17
19364.0	7.677084868542463e+17
19365.0	7.673494235338068e+17
19366.0	7.669844395338409e+17
19367.0	7.666132798406655e+17
19368.0	7.661678489501693e+17
19369.0	7.656626718769151e+17
19370.0	7.652621958163114e+17
19371.0	7.648719558148093e+17
19372.0	7.644661167773011e+17
19373.0	7.63836059755042e+17
19374.0	7.633943278212436e+17
19375.0	7.629615570179412e+17
19376.0	7.624281282314236e+17
19377.0	7.61784967364608e+17
19378.0	7.613234861309951e+17
19379.0	7.607635684971863e+17
19380.0	7.600327968686076e+17
19381.0	7.595387752458922e+17
19382.0	7.587847814337875e+17
19383.0	7.581169414220458e+17
19384.0	7.574326043738108e+17
19385.0	7.565601808930132e+17
19386.0	7.559202000076797e+17
19387.0	7.551635868527272e+17
19388.0	7.545739198595071e+17
19389.0	7.539701730071892e+17
19390.0	7.533514243877545e+17
19391.0	7.520310931401375e+17
19392.0	7.52064456032256e+17
19393.0	7.514019172013395e+17
19394.0	7.507148257536684e+17
19395.0	7.499820716173994e+17
19396.0	7.4924424195386e+17
19397.0	7.485109561196543e+17
19398.0	7.477577673342972e+17
19399.0	7.46974872810291e+17
19400.0	7.461935865222484e+17
19401.0	7.453349055386966e+17
19402.0	7.444697175119187e+17
19403.0	7.436125501128701e+17
19404.0	7.427310294663168e+17
19405.0	7.41742887514931e+17
19406.0	7.407546490945536e+17
19407.0	7.397799557595135e+17
19408.0	7.386539038343165e+17
19409.0	7.375755924559187e+17
19410.0	7.364176070574079e+17
19411.0	7.351754885343914e+17
19412.0	7.338824939427156e+17
19413.0	7.325596851197267e+17
19414.0	7.310086658938194e+17
19415.0	7.294660703682557e+17
19416.0	7.277311468503041e+17
19417.0	7.258269970071548e+17
19418.0	7.237836074560177e+17
19419.0	7.215173316116471e+17
19420.0	7.194900266571091e+17
19421.0	7.177918712468822e+17
19422.0	7.160043223558825e+17
19423.0	7.141709393690623e+17
19424.0	7.12241429086208e+17
19425.0	7.101823627646292e+17
19426.0	7.080384683223721e+17
19427.0	7.057652795659604e+17
19428.0	7.033733970395135e+17
19429.0	7.007894049041065e+17
19430.0	6.98013263663377e+17
19431.0	6.949476253390167e+17
19432.0	6.918449626349565e+17
19433.0	6.883819757327703e+17
19434.0	6.844762053847718e+17
19435.0	6.801614901870588e+17
19436.0	6.759331202596864e+17
19437.0	6.71893818651443e+17
19438.0	6.671133319364605e+17
19439.0	6.627897723497133e+17
19440.0	6.575063016931328e+17
19441.0	6.517404223231313e+17
19442.0	6.454316592966314e+17
19443.0	6.384494361706493e+17
19444.0	6.311461990520145e+17
19445.0	6.231586215297027e+17
19446.0	6.14344997015825e+17
19447.0	6.046594538755407e+17
19448.0	5.940157900040879e+17
19449.0	5.817615243717289e+17
19450.0	5.6323556776782035e+17
19451.0	5.545190275503456e+17
19452.0	5.733926500128089e+17
19453.0	5.879890678469978e+17
19454.0	5.989911677807269e+17
19455.0	6.089016517241513e+17
19456.0	6.179071390821038e+17
19457.0	6.260446577994406e+17
19458.0	6.332170565408086e+17
19459.0	6.403105776205825e+17
19460.0	6.46720362136644e+17
19461.0	6.524674740933971e+17
19462.0	6.577438614093827e+17
19463.0	6.624937263497213e+17
19464.0	6.667605544097108e+17
19465.0	6.707033714371242e+17
19466.0	6.744630912963922e+17
19467.0	6.785909522082468e+17
19468.0	6.824070498746365e+17
19469.0	6.858153640940882e+17
19470.0	6.888741984185001e+17
19471.0	6.91677520147251e+17
19472.0	6.94257727832064e+17
19473.0	6.966422536891049e+17
19474.0	6.98845599244834e+17
19475.0	7.009221528081746e+17
19476.0	7.028262259654655e+17
19477.0	7.046738685373098e+17
19478.0	7.06375608259925e+17
19479.0	7.079707324099242e+17
19480.0	7.095081026715647e+17
19481.0	7.109632951932246e+17
19482.0	7.125035276479148e+17
19483.0	7.143922644025343e+17
19484.0	7.162596521497937e+17
19485.0	7.179802547759781e+17
19486.0	7.195027247726591e+17
19487.0	7.208717423826262e+17
19488.0	7.220778026139649e+17
19489.0	7.231534875191977e+17
19490.0	7.242639939556692e+17
19491.0	7.251630828639572e+17
19492.0	7.261450298283348e+17
19493.0	7.269183648344745e+17
19494.0	7.277764243619839e+17
19495.0	7.285046571783508e+17
19496.0	7.291713843014313e+17
19497.0	7.299124730789888e+17
19498.0	7.304892088931668e+17
19499.0	7.300467124775583e+17
19500.0	7.316712150706858e+17
19501.0	7.322708675832489e+17
19502.0	7.327897660424191e+17
19503.0	7.332810789836118e+17
19504.0	7.337514447317674e+17
19505.0	7.342047177124521e+17
19506.0	7.346394518694569e+17
19507.0	7.350954364676778e+17
19508.0	7.355055250341888e+17
19509.0	7.358908328138067e+17
19510.0	7.362524025105066e+17
19511.0	7.357544361448782e+17
19512.0	7.367829860209998e+17
19513.0	7.369459619943758e+17
19514.0	7.37338589533525e+17
19515.0	7.378729008016041e+17
19516.0	7.38370637738803e+17
19517.0	7.387066639843324e+17
19518.0	7.393282735385258e+17
19519.0	7.395665992045906e+17
19520.0	7.401105296894633e+17
19521.0	7.403669941824169e+17
19522.0	7.406146812553901e+17
19523.0	7.410646582121811e+17
19524.0	7.412363842027519e+17
19525.0	7.414189289810602e+17
19526.0	7.418196000768e+17
19527.0	7.419625092415487e+17
19528.0	7.420968469266432e+17
19529.0	7.423135161428652e+17
19530.0	7.425582259590484e+17
19531.0	7.426671481192449e+17
19532.0	7.427687632426323e+17
19533.0	7.428633204708692e+17
19534.0	7.431045852255574e+17
19535.0	7.432047105321641e+17
19536.0	7.432777210615126e+17
19537.0	7.433463019864063e+17
19538.0	7.434070095036416e+17
19539.0	7.434628583391232e+17
19540.0	7.436476983803901e+17
19541.0	7.436928268544681e+17
19542.0	7.437321379687084e+17
19543.0	7.437665975315114e+17
19544.0	7.43796526686754e+17
19545.0	7.43814213088051e+17
19546.0	7.438256118082217e+17
19547.0	7.438822038743722e+17
19548.0	7.439694579804842e+17
19549.0	7.439751651699369e+17
19550.0	7.439812990599168e+17
19551.0	7.439814329980244e+17
19552.0	7.439778369415849e+17
19553.0	7.439703127796394e+17
19554.0	7.43959453307153e+17
19555.0	7.43946272706833e+17
19556.0	7.439291635815764e+17
19557.0	7.439088301550249e+17
19558.0	7.438864574578688e+17
19559.0	7.439142314399062e+17
19560.0	7.43904028655616e+17
19561.0	7.438726299560617e+17
19562.0	7.438379170572969e+17
19563.0	7.438006137563817e+17
19564.0	7.437610748914345e+17
19565.0	7.437190911666858e+17
19566.0	7.436743390614867e+17
19567.0	7.436281118195711e+17
19568.0	7.435787834490879e+17
19569.0	7.435284587915944e+17
19570.0	7.434756255208787e+17
19571.0	7.434205224326483e+17
19572.0	7.433628805322068e+17
19573.0	7.433042680698195e+17
19574.0	7.43241719812369e+17
19575.0	7.431812320766633e+17
19576.0	7.431169031973544e+17
19577.0	7.430914318882131e+17
19578.0	7.430746953569619e+17
19579.0	7.43040031531554e+17
19580.0	7.429779607257087e+17
19581.0	7.42905512932147e+17
19582.0	7.428317577740287e+17
19583.0	7.427562129063935e+17
19584.0	7.426791913641299e+17
19585.0	7.42719692542225e+17
19586.0	7.426697018911402e+17
19587.0	7.425871672158888e+17
19588.0	7.425007234493097e+17
19589.0	7.424253122401619e+17
19590.0	7.423408112751956e+17
19591.0	7.422567263851862e+17
19592.0	7.421698364844713e+17
19593.0	7.420819494578858e+17
19594.0	7.419920093194922e+17
19595.0	7.420267181637632e+17
19596.0	7.417713180453548e+17
19597.0	7.418420422595923e+17
19598.0	7.417459039185577e+17
19599.0	7.416566421389311e+17
19600.0	7.415617205654868e+17
19601.0	7.414644595490815e+17
19602.0	7.413682185874089e+17
19603.0	7.4124915390109e+17
19604.0	7.411707998284458e+17
19605.0	7.410676918124543e+17
19606.0	7.409740662789459e+17
19607.0	7.408734863097855e+17
19608.0	7.408670865009322e+17
19609.0	7.407678805857619e+17
19610.0	7.406654927317674e+17
19611.0	7.405617928994815e+17
19612.0	7.404576061085012e+17
19613.0	7.403526763664726e+17
19614.0	7.402461635543039e+17
19615.0	7.401408083700393e+17
19616.0	7.400270988312575e+17
19617.0	7.399266955821053e+17
19618.0	7.398084019486719e+17
19619.0	7.396967312610644e+17
19620.0	7.395882977372842e+17
19621.0	7.394914962767871e+17
19622.0	7.393813655977983e+17
19623.0	7.392707163630249e+17
19624.0	7.39159559198037e+17
19625.0	7.390478306290345e+17
19626.0	7.389356855656447e+17
19627.0	7.38860442408277e+17
19628.0	7.387640398260905e+17
19629.0	7.386691325132799e+17
19630.0	7.385127161517396e+17
19631.0	7.374622933996882e+17
19632.0	7.383503428998484e+17
19633.0	7.382375207359828e+17
19634.0	7.381229898126676e+17
19635.0	7.38006319095262e+17
19636.0	7.378911209979901e+17
19637.0	7.377653447262208e+17
19638.0	7.376574261231615e+17
19639.0	7.3753996338135e+17
19640.0	7.374213832769535e+17
19641.0	7.372939085916841e+17
19642.0	7.37186307777058e+17
19643.0	7.370674511282175e+17
19644.0	7.369474158799529e+17
19645.0	7.368241485010262e+17
19646.0	7.367099788470953e+17
19647.0	7.365901679940947e+17
19648.0	7.36470093738803e+17
19649.0	7.36349649965329e+17
19650.0	7.362290735120381e+17
19651.0	7.361081812276563e+17
19652.0	7.35987025121553e+17
19653.0	7.35865585480499e+17
19654.0	7.357439885530451e+17
19655.0	7.356220135789906e+17
19656.0	7.354998539157503e+17
19657.0	7.353776590203561e+17
19658.0	7.352551071896916e+17
19659.0	7.351323041202173e+17
19660.0	7.350093513140905e+17
19661.0	7.34929814168098e+17
19662.0	7.348190653885097e+17
19663.0	7.346941474111487e+17
19664.0	7.3456784783005e+17
19665.0	7.344476385181693e+17
19666.0	7.34323163599121e+17
