# Flux units: erg / (cm m2 s)
# Wavelength units: Angstrom
wave	flux
19000.0	5.3684974663325005e+17
19001.0	5.367462391098025e+17
19002.0	5.366609666026153e+17
19003.0	5.3656525761850016e+17
19004.0	5.3647004684779514e+17
19005.0	5.3637319079144083e+17
19006.0	5.3627868627162445e+17
19007.0	5.361836337659904e+17
19008.0	5.360869340173652e+17
19009.0	5.35986557751569e+17
19010.0	5.35892509012787e+17
19011.0	5.3579980594653856e+17
19012.0	5.356989527184725e+17
19013.0	5.356153935844692e+17
19014.0	5.35517253931281e+17
19015.0	5.354228304314367e+17
19016.0	5.353323072847871e+17
19017.0	5.35238380949777e+17
19018.0	5.3514266448581965e+17
19019.0	5.350484266538325e+17
19020.0	5.349528714608639e+17
19021.0	5.3485962082822816e+17
19022.0	5.347645110703444e+17
19023.0	5.346651317207039e+17
19024.0	5.3456979714812576e+17
19025.0	5.344784824664064e+17
19026.0	5.3438312174933325e+17
19027.0	5.3428977576618656e+17
19028.0	5.3419389013196794e+17
19029.0	5.3409753774161914e+17
19030.0	5.3400352451461114e+17
19031.0	5.339083425447935e+17
19032.0	5.3381057597494605e+17
19033.0	5.3370129310460576e+17
19034.0	5.335981957141845e+17
19035.0	5.3346115843522554e+17
19036.0	5.332981040982698e+17
19037.0	5.332794991443967e+17
19038.0	5.332216183783423e+17
19039.0	5.3314300852305914e+17
19040.0	5.3305415771531936e+17
19041.0	5.329627133597013e+17
19042.0	5.327520587055101e+17
19043.0	5.3277774860779514e+17
19044.0	5.3268333832000845e+17
19045.0	5.325875384593066e+17
19046.0	5.32492148801536e+17
19047.0	5.323972505763839e+17
19048.0	5.3228467902218234e+17
19049.0	5.319669437868711e+17
19050.0	5.321025747856041e+17
19051.0	5.320014945757866e+17
19052.0	5.319133549122901e+17
19053.0	5.318277848192341e+17
19054.0	5.3173803300509005e+17
19055.0	5.315944140941994e+17
19056.0	5.3154253083333965e+17
19057.0	5.314611968475135e+17
19058.0	5.3124836814574906e+17
19059.0	5.312286054940672e+17
19060.0	5.311812051053226e+17
19061.0	5.3108646773172896e+17
19062.0	5.309924518483285e+17
19063.0	5.308991238307839e+17
19064.0	5.308032718908074e+17
19065.0	5.307026429881002e+17
19066.0	5.305711951784619e+17
19067.0	5.3052174971699194e+17
19068.0	5.3043133324547405e+17
19069.0	5.30337501352209e+17
19070.0	5.3024095273833805e+17
19071.0	5.3014840597981856e+17
19072.0	5.3001223216824314e+17
19073.0	5.299626465471145e+17
19074.0	5.298673057529855e+17
19075.0	5.2977498485773645e+17
19076.0	5.2968058204979194e+17
19077.0	5.2958682956868256e+17
19078.0	5.2949141090030925e+17
19079.0	5.2939915655468365e+17
19080.0	5.2930574507048954e+17
19081.0	5.292084945398441e+17
19082.0	5.2911924862866765e+17
19083.0	5.2901912576873805e+17
19084.0	5.289155025524053e+17
19085.0	5.288370609586175e+17
19086.0	5.2865396483904845e+17
19087.0	5.2855035770088083e+17
19088.0	5.28490819695411e+17
19089.0	5.2845058317789856e+17
19090.0	5.283688121455956e+17
19091.0	5.282692351743317e+17
19092.0	5.280868535544493e+17
19093.0	5.2809106435604474e+17
19094.0	5.2799814982696954e+17
19095.0	5.2790368396465485e+17
19096.0	5.2781135363222176e+17
19097.0	5.277180174357846e+17
19098.0	5.2757558068947616e+17
19099.0	5.274716354904064e+17
19100.0	5.2743538803561805e+17
19101.0	5.2734256871724365e+17
19102.0	5.272486498620757e+17
19103.0	5.2715609967820794e+17
19104.0	5.2706467321828685e+17
19105.0	5.2686398262258374e+17
19106.0	5.2687732169768954e+17
19107.0	5.267575777438377e+17
19108.0	5.266488933307732e+17
19109.0	5.2659687732019194e+17
19110.0	5.265035969079978e+17
19111.0	5.263791188432213e+17
19112.0	5.2628004749530445e+17
19113.0	5.2622414944665594e+17
19114.0	5.261074941782698e+17
19115.0	5.2602967459976525e+17
19116.0	5.2593532135451296e+17
19117.0	5.2582937148784634e+17
19118.0	5.2565789324083194e+17
19119.0	5.253029076227412e+17
19120.0	5.2550639966399136e+17
19121.0	5.2546091740037114e+17
19122.0	5.253797341997738e+17
19123.0	5.252902334846294e+17
19124.0	5.2519312080677536e+17
19125.0	5.2510135859281914e+17
19126.0	5.250018799080789e+17
19127.0	5.248996856212138e+17
19128.0	5.248153947908777e+17
19129.0	5.247259642604202e+17
19130.0	5.2464286279488845e+17
19131.0	5.245536139476991e+17
19132.0	5.2446208318941856e+17
19133.0	5.2436795405981005e+17
19134.0	5.242776461508607e+17
19135.0	5.2418560934980256e+17
19136.0	5.2409304819083936e+17
19137.0	5.239992332845055e+17
19138.0	5.239080368821587e+17
19139.0	5.2381655498751994e+17
19140.0	5.237243815919615e+17
19141.0	5.236319244517375e+17
19142.0	5.23537547788288e+17
19143.0	5.2344642765236896e+17
19144.0	5.233517576672596e+17
19145.0	5.232616092816724e+17
19146.0	5.231209848941226e+17
19147.0	5.230763704319998e+17
19148.0	5.229475030979925e+17
19149.0	5.2284740204844365e+17
19150.0	5.228011850126677e+17
19151.0	5.2270792857791136e+17
19152.0	5.226151621077674e+17
19153.0	5.2244053163158163e+17
19154.0	5.2242343620771834e+17
19155.0	5.22338274709777e+17
19156.0	5.222461791884628e+17
19157.0	5.2212832448894285e+17
19158.0	5.2200386928312326e+17
19159.0	5.219678084049578e+17
19160.0	5.2187536098153805e+17
19161.0	5.2178328055971834e+17
19162.0	5.2169045522950816e+17
19163.0	5.215991050360149e+17
19164.0	5.215070677456213e+17
19165.0	5.213269301482834e+17
19166.0	5.2132168237492896e+17
19167.0	5.2123198879170554e+17
19168.0	5.211409526117715e+17
19169.0	5.2104944771836576e+17
19170.0	5.209578822172671e+17
19171.0	5.2086526981789e+17
19172.0	5.207740233635157e+17
19173.0	5.206824791834623e+17
19174.0	5.205901649291947e+17
19175.0	5.2049828352709965e+17
19176.0	5.204067383683754e+17
19177.0	5.203030687350783e+17
19178.0	5.202221116074667e+17
19179.0	5.201306627779242e+17
19180.0	5.200368984828586e+17
19181.0	5.199440588920147e+17
19182.0	5.1985166564502176e+17
19183.0	5.1976214990028794e+17
19184.0	5.1967128344985594e+17
19185.0	5.1957847056274765e+17
19186.0	5.194867595193002e+17
19187.0	5.193902527785641e+17
19188.0	5.193022099335851e+17
19189.0	5.19208941195537e+17
19190.0	5.191164119831893e+17
19191.0	5.1902102644981754e+17
19192.0	5.18928850817297e+17
19193.0	5.188230304148139e+17
19194.0	5.187210421381802e+17
19195.0	5.186437740407466e+17
19196.0	5.18546053538338e+17
19197.0	5.1844843020397216e+17
19198.0	5.183483303428094e+17
19199.0	5.182473382832809e+17
19200.0	5.181575357879636e+17
19201.0	5.1807473778032634e+17
19202.0	5.179921373244073e+17
19203.0	5.179059651390121e+17
19204.0	5.1782155938474656e+17
19205.0	5.177329503786326e+17
19206.0	5.176449631780862e+17
19207.0	5.1754693921778336e+17
19208.0	5.174649923043327e+17
19209.0	5.1737719412708685e+17
19210.0	5.1728802776787616e+17
19211.0	5.171997670288042e+17
19212.0	5.1710914279942816e+17
19213.0	5.170117927938729e+17
19214.0	5.169265588742826e+17
19215.0	5.168364199258793e+17
19216.0	5.167448859519658e+17
19217.0	5.166513599632724e+17
19218.0	5.1655707089087136e+17
19219.0	5.164578465906687e+17
19220.0	5.16378394169617e+17
19221.0	5.1628982410062496e+17
19222.0	5.1619984642321056e+17
19223.0	5.1610956270141434e+17
19224.0	5.1601761188358816e+17
19225.0	5.1593099097757005e+17
19226.0	5.158401639535956e+17
19227.0	5.1575005625275725e+17
19228.0	5.156619066627413e+17
19229.0	5.1556997199298554e+17
19230.0	5.1548020584830285e+17
19231.0	5.1538943642610336e+17
19232.0	5.152997695466154e+17
19233.0	5.1520538295664634e+17
19234.0	5.1511844733801805e+17
19235.0	5.1502486933995514e+17
19236.0	5.1493747738105165e+17
19237.0	5.1484581373323936e+17
19238.0	5.147516488122366e+17
19239.0	5.146659198948693e+17
19240.0	5.1457445400849056e+17
19241.0	5.144835828744191e+17
19242.0	5.1439223058377376e+17
19243.0	5.142915377878356e+17
19244.0	5.142131334534485e+17
19245.0	5.141225298460672e+17
19246.0	5.1403249058228896e+17
19247.0	5.139414673347924e+17
19248.0	5.13851351315251e+17
19249.0	5.137575931718313e+17
19250.0	5.13651607933201e+17
19251.0	5.1355724259437216e+17
19252.0	5.1346601774066336e+17
19253.0	5.133979341903188e+17
19254.0	5.133093827160745e+17
19255.0	5.132028991242239e+17
19256.0	5.1312737431934285e+17
19257.0	5.130372802499925e+17
19258.0	5.129461696910677e+17
19259.0	5.1284855649293645e+17
19260.0	5.127565264027647e+17
19261.0	5.1267100230724256e+17
19262.0	5.1257542663208954e+17
19263.0	5.124839311059625e+17
19264.0	5.1239181629085005e+17
19265.0	5.123019154391039e+17
19266.0	5.1221141745827834e+17
19267.0	5.1213031765442554e+17
19268.0	5.120413524120917e+17
19269.0	5.119521088776874e+17
19270.0	5.118602585833472e+17
19271.0	5.1176863464161274e+17
19272.0	5.1168149462056954e+17
19273.0	5.11581202939904e+17
19274.0	5.1147314256936934e+17
19275.0	5.114144244105215e+17
19276.0	5.113227723669503e+17
19277.0	5.11233505693969e+17
19278.0	5.1114104477887136e+17
19279.0	5.1105189673478816e+17
19280.0	5.109620206294355e+17
19281.0	5.1087183009109325e+17
19282.0	5.1078243751908685e+17
19283.0	5.1069094297163085e+17
19284.0	5.1059742816774816e+17
19285.0	5.105035419582464e+17
19286.0	5.104036403478528e+17
19287.0	5.1029581220194976e+17
19288.0	5.1014495532045645e+17
19289.0	5.1004476283508045e+17
19290.0	5.1002312211387725e+17
19291.0	5.099373257381205e+17
19292.0	5.098764544333141e+17
19293.0	5.097912978986324e+17
19294.0	5.097026133251412e+17
19295.0	5.0961562373980154e+17
19296.0	5.094727382728704e+17
19297.0	5.094274829910015e+17
19298.0	5.093460746960896e+17
19299.0	5.091984774878549e+17
19300.0	5.0916806514879136e+17
19301.0	5.090790130144598e+17
19302.0	5.089886530961407e+17
19303.0	5.08895293411601e+17
19304.0	5.0880908648338765e+17
19305.0	5.0871753216709965e+17
19306.0	5.0862775539684685e+17
19307.0	5.085332327017129e+17
19308.0	5.0844254968217594e+17
19309.0	5.083500295574868e+17
19310.0	5.082543802023935e+17
19311.0	5.081534727279957e+17
19312.0	5.0803949118859936e+17
19313.0	5.078542407346858e+17
19314.0	5.0675929998950406e+17
19315.0	5.067060538594646e+17
19316.0	5.0752035714935475e+17
19317.0	5.075918801687893e+17
19318.0	5.0753143759175674e+17
19319.0	5.074536187822079e+17
19320.0	5.0734925827713696e+17
19321.0	5.0723532699948365e+17
19322.0	5.0719630375430816e+17
19323.0	5.0710773976705696e+17
19324.0	5.07019319644433e+17
19325.0	5.0693177039912954e+17
19326.0	5.068427255349247e+17
19327.0	5.06753804612403e+17
19328.0	5.065680653123584e+17
19329.0	5.065754956617045e+17
19330.0	5.064867657198251e+17
19331.0	5.063942360880468e+17
19332.0	5.063085654715051e+17
19333.0	5.0621781806940154e+17
19334.0	5.061271141482496e+17
19335.0	5.0584439303263584e+17
19336.0	5.059488068053674e+17
19337.0	5.0586078423285754e+17
19338.0	5.0575469196957e+17
19339.0	5.0567823770692256e+17
19340.0	5.055793126703103e+17
19341.0	5.0541911395532806e+17
19342.0	5.0538016732610554e+17
19343.0	5.0531011035572896e+17
19344.0	5.051398768383318e+17
19345.0	5.0507280201809914e+17
19346.0	5.050146354102272e+17
19347.0	5.0485463270905165e+17
19348.0	5.048660843473578e+17
19349.0	5.0477930133149e+17
19350.0	5.046560466752853e+17
19351.0	5.046031099450708e+17
19352.0	5.0441716044049043e+17
19353.0	5.0443032845789856e+17
19354.0	5.0434221451946656e+17
19355.0	5.0424550966777165e+17
19356.0	5.041633531090261e+17
19357.0	5.040742428136788e+17
19358.0	5.03984387470131e+17
19359.0	5.0387298689570106e+17
19360.0	5.0372728488372896e+17
19361.0	5.0371564722804045e+17
19362.0	5.0362610827482445e+17
19363.0	5.0353680483177805e+17
19364.0	5.034469850000043e+17
19365.0	5.03356801941504e+17
19366.0	5.0326612940772685e+17
19367.0	5.03176476229632e+17
19368.0	5.0308674531710285e+17
19369.0	5.029952366488234e+17
19370.0	5.029049990643711e+17
19371.0	5.028107915711828e+17
19372.0	5.027243548650154e+17
19373.0	5.0263329449792845e+17
19374.0	5.025429031922346e+17
19375.0	5.024528614817791e+17
19376.0	5.02361973920017e+17
19377.0	5.0227033578755405e+17
19378.0	5.0217942578626554e+17
19379.0	5.0208823938034336e+17
19380.0	5.019953818238975e+17
19381.0	5.019034956682581e+17
19382.0	5.01805928747281e+17
19383.0	5.017174438925653e+17
19384.0	5.016262363054079e+17
19385.0	5.015338667562323e+17
19386.0	5.014409108433577e+17
19387.0	5.0134528966000634e+17
19388.0	5.0124695560082765e+17
19389.0	5.011427305018709e+17
19390.0	5.010199558837588e+17
19391.0	5.008492672144725e+17
19392.0	5.0080044244008954e+17
19393.0	5.0075417765915296e+17
19394.0	5.0067561603836576e+17
19395.0	5.005590950576128e+17
19396.0	5.0048754540434765e+17
19397.0	5.003977842229247e+17
19398.0	5.0027213336084474e+17
19399.0	5.0016485292113914e+17
19400.0	5.000787520389119e+17
19401.0	5.00008945258769e+17
19402.0	4.999135628711251e+17
19403.0	4.9981312075475616e+17
19404.0	4.9971267633151994e+17
19405.0	4.996085564396883e+17
19406.0	4.9950511029288954e+17
19407.0	4.99364859617826e+17
19408.0	4.992867083397802e+17
19409.0	4.991821063826089e+17
19410.0	4.9907930531976525e+17
19411.0	4.9897093904465914e+17
19412.0	4.988594907949738e+17
19413.0	4.987142551197012e+17
19414.0	4.986333850238975e+17
19415.0	4.98515850769203e+17
19416.0	4.983856450327893e+17
19417.0	4.982745969896106e+17
19418.0	4.9814811460676256e+17
19419.0	4.980171936017066e+17
19420.0	4.978833216940714e+17
19421.0	4.977446425548117e+17
19422.0	4.975966769468757e+17
19423.0	4.9745080157033805e+17
19424.0	4.972969684107262e+17
19425.0	4.9713407506513914e+17
19426.0	4.969633910095871e+17
19427.0	4.9678337882193914e+17
19428.0	4.9658943175830176e+17
19429.0	4.96391805870626e+17
19430.0	4.961739751118164e+17
19431.0	4.959409014134102e+17
19432.0	4.9570271611671885e+17
19433.0	4.95435399631121e+17
19434.0	4.951391541220692e+17
19435.0	4.948271732621311e+17
19436.0	4.94471908163584e+17
19437.0	4.940418964433578e+17
19438.0	4.9344952719988045e+17
19439.0	4.930722276048895e+17
19440.0	4.9268780272626336e+17
19441.0	4.921211997214036e+17
19442.0	4.914244890569387e+17
19443.0	4.906902044890451e+17
19444.0	4.8975003537899514e+17
19445.0	4.886666593785173e+17
19446.0	4.873386747144874e+17
19447.0	4.8569013197864934e+17
19448.0	4.835540157333503e+17
19449.0	4.8057260665296205e+17
19450.0	4.753469630753447e+17
19451.0	4.706791055862443e+17
19452.0	4.783334360088576e+17
19453.0	4.818739267982677e+17
19454.0	4.841764612822356e+17
19455.0	4.8583318451869e+17
19456.0	4.870792753272149e+17
19457.0	4.8780686599563936e+17
19458.0	4.8589150330989325e+17
19459.0	4.884327203252909e+17
19460.0	4.90033550336546e+17
19461.0	4.9065543643518285e+17
19462.0	4.9107044205417805e+17
19463.0	4.9138680505303046e+17
19464.0	4.9168025533808634e+17
19465.0	4.9191367317913594e+17
19466.0	4.9209785184856736e+17
19467.0	4.922353131716607e+17
19468.0	4.9235984429438285e+17
19469.0	4.9239555389958803e+17
19470.0	4.9254405365213856e+17
19471.0	4.9260671445674656e+17
19472.0	4.9264824715400525e+17
19473.0	4.9267493488121165e+17
19474.0	4.9262065240855885e+17
19475.0	4.926828066111487e+17
19476.0	4.9269554827755514e+17
19477.0	4.926928041541632e+17
19478.0	4.9268052784578554e+17
19479.0	4.9259192638941843e+17
19480.0	4.926286543017299e+17
19481.0	4.925957692806483e+17
19482.0	4.9256037858235725e+17
19483.0	4.92519975690786e+17
19484.0	4.9247309805213005e+17
19485.0	4.9242254480506874e+17
19486.0	4.922979593661099e+17
19487.0	4.9231060708010656e+17
19488.0	4.9224889020361376e+17
19489.0	4.9217877591108256e+17
19490.0	4.9211327360532474e+17
19491.0	4.9205810690348365e+17
19492.0	4.9200208225675936e+17
19493.0	4.9193675149803514e+17
19494.0	4.918659473823061e+17
19495.0	4.917889086433961e+17
19496.0	4.9169936130157216e+17
19497.0	4.916038194604713e+17
19498.0	4.914490710338217e+17
19499.0	4.913192055952725e+17
19500.0	4.9136760933143885e+17
19501.0	4.913374109717845e+17
19502.0	4.9127939179369805e+17
19503.0	4.9121158569656314e+17
19504.0	4.9113656896170656e+17
19505.0	4.910574076253525e+17
19506.0	4.909804338981545e+17
19507.0	4.9089445562941434e+17
19508.0	4.9080139695609165e+17
19509.0	4.9068116380658336e+17
19510.0	4.90410830148403e+17
19511.0	4.8922557128813203e+17
19512.0	4.90131398205986e+17
19513.0	4.902557239476223e+17
19514.0	4.9022985991181645e+17
19515.0	4.9022453657108474e+17
19516.0	4.901635879512746e+17
19517.0	4.9010678071732896e+17
19518.0	4.900139824403796e+17
19519.0	4.899367783759871e+17
19520.0	4.898076265982633e+17
19521.0	4.898016663524692e+17
19522.0	4.897072144711678e+17
19523.0	4.8962184996891296e+17
19524.0	4.8950450208112646e+17
19525.0	4.894755114014037e+17
19526.0	4.8939541494497274e+17
19527.0	4.8931205203449165e+17
19528.0	4.8922360709556896e+17
19529.0	4.8913826237644806e+17
19530.0	4.890660486949546e+17
19531.0	4.8898351052445005e+17
19532.0	4.889004343645524e+17
19533.0	4.8881691696387405e+17
19534.0	4.887342050792789e+17
19535.0	4.886493187975851e+17
19536.0	4.885631723372543e+17
19537.0	4.884804440249683e+17
19538.0	4.8832739436134406e+17
19539.0	4.8830972872185165e+17
19540.0	4.882282106759851e+17
19541.0	4.8813158691416736e+17
19542.0	4.880570088336042e+17
19543.0	4.879073319496362e+17
19544.0	4.8788705186065056e+17
19545.0	4.8779918545605965e+17
19546.0	4.877171954810879e+17
19547.0	4.876424192196608e+17
19548.0	4.8756365648199674e+17
19549.0	4.874741542289406e+17
19550.0	4.873995549671423e+17
19551.0	4.873173589819392e+17
19552.0	4.872334794031102e+17
19553.0	4.871501109701289e+17
19554.0	4.8706577861618336e+17
19555.0	4.8697303060097696e+17
19556.0	4.8689375000657914e+17
19557.0	4.868153629387434e+17
19558.0	4.8673249803195725e+17
19559.0	4.8664912093074765e+17
19560.0	4.865380570890239e+17
19561.0	4.864798295239338e+17
19562.0	4.8637231881693856e+17
19563.0	4.863148775440383e+17
19564.0	4.862295487632725e+17
19565.0	4.8614731530895354e+17
19566.0	4.8606201525917005e+17
19567.0	4.8597976803355296e+17
19568.0	4.8589434627904845e+17
19569.0	4.858112601926314e+17
19570.0	4.857279719407615e+17
19571.0	4.8564429243023354e+17
19572.0	4.8555845012684794e+17
19573.0	4.854679257219072e+17
19574.0	4.85383069709107e+17
19575.0	4.8530976508914336e+17
19576.0	4.852208964556117e+17
19577.0	4.851267447466665e+17
19578.0	4.8505762604209485e+17
19579.0	4.849722529415166e+17
19580.0	4.848885428824747e+17
19581.0	4.848056728726185e+17
19582.0	4.8472293477362336e+17
19583.0	4.8463938444765856e+17
19584.0	4.845543840808959e+17
19585.0	4.844617477739859e+17
19586.0	4.843755810411861e+17
19587.0	4.843001692727978e+17
19588.0	4.842134584688639e+17
19589.0	4.841304674533376e+17
19590.0	4.840454320641364e+17
19591.0	4.839666109557417e+17
19592.0	4.838847311511551e+17
19593.0	4.837928921115307e+17
19594.0	4.8369147034555725e+17
19595.0	4.8363237903346336e+17
19596.0	4.835476494090239e+17
19597.0	4.834616904340821e+17
19598.0	4.833620285281621e+17
19599.0	4.8329285620640416e+17
19600.0	4.832127208128511e+17
19601.0	4.831266312552447e+17
19602.0	4.830429778892117e+17
19603.0	4.8295861316922016e+17
19604.0	4.8287430185669965e+17
19605.0	4.827814034057899e+17
19606.0	4.8271203290316794e+17
19607.0	4.8263054960011936e+17
19608.0	4.8254536643160736e+17
19609.0	4.824618200902314e+17
19610.0	4.823473994072064e+17
19611.0	4.822468233527296e+17
19612.0	4.8221341676994554e+17
19613.0	4.8212762388944205e+17
19614.0	4.820417086750719e+17
19615.0	4.8195935316650656e+17
19616.0	4.8183975098013005e+17
19617.0	4.817336724881408e+17
19618.0	4.816863593409193e+17
19619.0	4.815944392813225e+17
19620.0	4.8150758279522976e+17
19621.0	4.8137833615633056e+17
19622.0	4.8137161268701856e+17
19623.0	4.8128659386531834e+17
19624.0	4.8119551385490765e+17
19625.0	4.811234550830419e+17
19626.0	4.81037711905041e+17
19627.0	4.809524837875711e+17
19628.0	4.8086378509325645e+17
19629.0	4.805997193330686e+17
19630.0	4.806829048244906e+17
19631.0	4.80591037403409e+17
19632.0	4.8052310282076154e+17
19633.0	4.804438536836436e+17
19634.0	4.8036986455326726e+17
19635.0	4.802803731354964e+17
19636.0	4.801288808868521e+17
19637.0	4.8002431639879674e+17
19638.0	4.8003911355378336e+17
19639.0	4.799577739056468e+17
19640.0	4.7985336991962445e+17
19641.0	4.7975835698025805e+17
19642.0	4.7970117666297165e+17
19643.0	4.7962410772507296e+17
19644.0	4.795456024477696e+17
19645.0	4.794653317879124e+17
19646.0	4.792998969737214e+17
19647.0	4.793011038147924e+17
19648.0	4.792216619494057e+17
19649.0	4.791388222783487e+17
19650.0	4.7905660595077114e+17
19651.0	4.7897389826048e+17
19652.0	4.7889121930117114e+17
19653.0	4.7880859752420685e+17
19654.0	4.787258973137577e+17
19655.0	4.7864283135999994e+17
