# Flux units: erg / (cm m2 s)
# Wavelength units: Angstrom
wave	flux
19000.0	5.728653405760169e+17
19001.0	5.7275852905949856e+17
19002.0	5.726517225062398e+17
19003.0	5.725449027409235e+17
19004.0	5.724381048558932e+17
19005.0	5.723313387077631e+17
19006.0	5.7222456186415763e+17
19007.0	5.721177927101099e+17
19008.0	5.720105860202496e+17
19009.0	5.719031522088277e+17
19010.0	5.71794315752243e+17
19011.0	5.7169052755995296e+17
19012.0	5.7158350472041805e+17
19013.0	5.7147737750459725e+17
19014.0	5.713706765778943e+17
19015.0	5.7126398571752096e+17
19016.0	5.711568627040255e+17
19017.0	5.710505133299028e+17
19018.0	5.7094394459368096e+17
19019.0	5.7083733405422925e+17
19020.0	5.707306316595198e+17
19021.0	5.7062402112006816e+17
19022.0	5.705174632191317e+17
19023.0	5.7041086078866765e+17
19024.0	5.7030419439506765e+17
19025.0	5.7019767431277216e+17
19026.0	5.700909042499583e+17
19027.0	5.6998401905349965e+17
19028.0	5.6987806149727565e+17
19029.0	5.6977153589248e+17
19030.0	5.696650335660715e+17
19031.0	5.695585385796949e+17
19032.0	5.69452056945186e+17
19033.0	5.6934558684501325e+17
19034.0	5.692391291180372e+17
19035.0	5.6913244182282234e+17
19036.0	5.689845964516009e+17
19037.0	5.6891979137897805e+17
19038.0	5.688134551470079e+17
19039.0	5.6870707487484576e+17
19040.0	5.6860070571758925e+17
19041.0	5.684943524287827e+17
19042.0	5.683880113034581e+17
19043.0	5.6828169198851405e+17
19044.0	5.681755472265215e+17
19045.0	5.6807193729215136e+17
19046.0	5.679652516746581e+17
19047.0	5.678590871295317e+17
19048.0	5.67751696589346e+17
19049.0	5.676468800935253e+17
19050.0	5.675406503968768e+17
19051.0	5.674292837264042e+17
19052.0	5.6732658710173e+17
19053.0	5.6722206889082874e+17
19054.0	5.6711588784810656e+17
19055.0	5.670084545959252e+17
19056.0	5.6690363236788896e+17
19057.0	5.667975214399487e+17
19058.0	5.666914228852054e+17
19059.0	5.665853164311892e+17
19060.0	5.664791151859028e+17
19061.0	5.663732310299989e+17
19062.0	5.662671609266175e+17
19063.0	5.661611606583977e+17
19064.0	5.660544837790377e+17
19065.0	5.65948655407377e+17
19066.0	5.6584324646611616e+17
19067.0	5.657372959003989e+17
19068.0	5.6563136253132794e+17
19069.0	5.6552548452706976e+17
19070.0	5.6541952683103565e+17
19071.0	5.6531372788940794e+17
19072.0	5.6520786477492896e+17
19073.0	5.65101984883234e+17
19074.0	5.6499619747594234e+17
19075.0	5.6489039119428256e+17
19076.0	5.647844608311296e+17
19077.0	5.646786745423188e+17
19078.0	5.645728721054379e+17
19079.0	5.644673283872086e+17
19080.0	5.643616108150783e+17
19081.0	5.642559083424426e+17
19082.0	5.6414992373295776e+17
19083.0	5.640444019649194e+17
19084.0	5.639372416920234e+17
19085.0	5.6383326454633805e+17
19086.0	5.6372548966809594e+17
19087.0	5.6362082843142816e+17
19088.0	5.6351621368162976e+17
19089.0	5.634092831866879e+17
19090.0	5.633053455373653e+17
19091.0	5.631997867196415e+17
19092.0	5.630940778157397e+17
19093.0	5.629888523053737e+17
19094.0	5.628831965992277e+17
19095.0	5.6277770384179194e+17
19096.0	5.626723765496489e+17
19097.0	5.625670398902271e+17
19098.0	5.6246167876403194e+17
19099.0	5.6235629750517754e+17
19100.0	5.622509365886975e+17
19101.0	5.621454987766441e+17
19102.0	5.620395178022228e+17
19103.0	5.619349576482815e+17
19104.0	5.618296669863935e+17
19105.0	5.617243920531455e+17
19106.0	5.616189308928e+17
19107.0	5.6151379227443194e+17
19108.0	5.614086813384703e+17
19109.0	5.6130051030821536e+17
19110.0	5.611980617067179e+17
19111.0	5.6109313657842336e+17
19112.0	5.609879922278399e+17
19113.0	5.6088286381561165e+17
19114.0	5.607777519708841e+17
19115.0	5.606724239796905e+17
19116.0	5.605675775645013e+17
19117.0	5.604624815882238e+17
19118.0	5.603566948799828e+17
19119.0	5.602117990132393e+17
19120.0	5.601471498289151e+17
19121.0	5.6004221505372154e+17
19122.0	5.599375224995839e+17
19123.0	5.59832570737459e+17
19124.0	5.597276372205567e+17
19125.0	5.596227269121364e+17
19126.0	5.595177834687145e+17
19127.0	5.5939949263148365e+17
19128.0	5.593080158399147e+17
19129.0	5.592032242302975e+17
19130.0	5.5909843877232634e+17
19131.0	5.5899361123150496e+17
19132.0	5.588887985804628e+17
19133.0	5.587832533942271e+17
19134.0	5.5867932126740474e+17
19135.0	5.585745800593407e+17
19136.0	5.584698647860564e+17
19137.0	5.5836398936828576e+17
19138.0	5.5826029498859514e+17
19139.0	5.58155808584499e+17
19140.0	5.5805117880511136e+17
19141.0	5.5794654944515386e+17
19142.0	5.5784192365035514e+17
19143.0	5.577369787389268e+17
19144.0	5.576326292089513e+17
19145.0	5.5752820208435194e+17
19146.0	5.574195816344234e+17
19147.0	5.5731813449291085e+17
19148.0	5.572146436767743e+17
19149.0	5.5711015454638074e+17
19150.0	5.5700562515066874e+17
19151.0	5.569012291338239e+17
19152.0	5.567967743967231e+17
19153.0	5.5669236432896e+17
19154.0	5.5658698712459936e+17
19155.0	5.564835532111871e+17
19156.0	5.563791623673172e+17
19157.0	5.562747497829717e+17
19158.0	5.5616832470166176e+17
19159.0	5.560660140228607e+17
19160.0	5.559617853587455e+17
19161.0	5.558575149613055e+17
19162.0	5.557486278934526e+17
19163.0	5.5564864302612474e+17
19164.0	5.555447541006335e+17
19165.0	5.554404134486015e+17
19166.0	5.5533530013586765e+17
19167.0	5.5523165545867936e+17
19168.0	5.551276859326464e+17
19169.0	5.5502350990704634e+17
19170.0	5.5491958539987616e+17
19171.0	5.5481515799565645e+17
19172.0	5.547113219883006e+17
19173.0	5.5460721565805216e+17
19174.0	5.5450269576942925e+17
19175.0	5.543990497640447e+17
19176.0	5.5429498992066554e+17
19177.0	5.541898120855551e+17
19178.0	5.54086747410705e+17
19179.0	5.539825009907028e+17
19180.0	5.538787669049342e+17
19181.0	5.537740524006057e+17
19182.0	5.536705975156735e+17
19183.0	5.53566914880034e+17
19184.0	5.5339870392593043e+17
19185.0	5.530863169175551e+17
19186.0	5.529824740595028e+17
19187.0	5.528785785629354e+17
19188.0	5.527747329785855e+17
19189.0	5.5267093520930125e+17
19190.0	5.525670812363434e+17
19191.0	5.524632331354111e+17
19192.0	5.523594724857172e+17
19193.0	5.522556493408938e+17
19194.0	5.5215188219002874e+17
19195.0	5.52048108118562e+17
19196.0	5.519442651906047e+17
19197.0	5.518405185219241e+17
19198.0	5.517368049882452e+17
19199.0	5.5160584805198496e+17
19200.0	5.5150908266250234e+17
19201.0	5.51425657676322e+17
19202.0	5.5132199873850003e+17
19203.0	5.5121831673200634e+17
19204.0	5.511144579355987e+17
19205.0	5.510109413943979e+17
19206.0	5.5090721723514874e+17
19207.0	5.508032042980691e+17
19208.0	5.506985372592809e+17
19209.0	5.505963764569428e+17
19210.0	5.5049274366361594e+17
19211.0	5.503891194686122e+17
19212.0	5.502855075069951e+17
19213.0	5.5018166024492365e+17
19214.0	5.5007741752989005e+17
19215.0	5.49974580535842e+17
19216.0	5.498710875526485e+17
19217.0	5.497675300470783e+17
19218.0	5.4965780446795085e+17
19219.0	5.4956035058346643e+17
19220.0	5.4945682572356256e+17
19221.0	5.4935100490164896e+17
19222.0	5.492494696098473e+17
19223.0	5.4914612776140794e+17
19224.0	5.4904252915165856e+17
19225.0	5.4893797969319245e+17
19226.0	5.488355127765674e+17
19227.0	5.4873197673185274e+17
19228.0	5.486284387997011e+17
19229.0	5.4852488744577696e+17
19230.0	5.484213335752703e+17
19231.0	5.48317829407266e+17
19232.0	5.4821417780947616e+17
19233.0	5.481105729082708e+17
19234.0	5.4800705252229114e+17
19235.0	5.479036724357802e+17
19236.0	5.47800126464546e+17
19237.0	5.476964611653631e+17
19238.0	5.4759273400019616e+17
19239.0	5.47489513157427e+17
19240.0	5.473855801218388e+17
19241.0	5.472822422579883e+17
19242.0	5.4717873641226234e+17
19243.0	5.470742226752853e+17
19244.0	5.4697171381562016e+17
19245.0	5.4686813729587194e+17
19246.0	5.467644418676053e+17
19247.0	5.466609471367851e+17
19248.0	5.4655735971184634e+17
19249.0	5.464537395713364e+17
19250.0	5.4635007539063456e+17
19251.0	5.4624538465402874e+17
19252.0	5.461410581927252e+17
19253.0	5.4603910948235936e+17
19254.0	5.459354759200767e+17
19255.0	5.4583070171682106e+17
19256.0	5.457277025430186e+17
19257.0	5.456244550664191e+17
19258.0	5.455207244059988e+17
19259.0	5.4541698235105274e+17
19260.0	5.453124784007849e+17
19261.0	5.452094420374868e+17
19262.0	5.451056446177279e+17
19263.0	5.4500137100465485e+17
19264.0	5.4489409028532896e+17
19265.0	5.447925005374804e+17
19266.0	5.4468864768300365e+17
19267.0	5.4458631568315725e+17
19268.0	5.4448237530753696e+17
19269.0	5.443784084378964e+17
19270.0	5.4427432853176314e+17
19271.0	5.4416786730953376e+17
19272.0	5.4406605617233914e+17
19273.0	5.4394972561298765e+17
19274.0	5.4384953179941536e+17
19275.0	5.437539477356543e+17
19276.0	5.43649758847522e+17
19277.0	5.435455269677738e+17
19278.0	5.43441254752802e+17
19279.0	5.4333689466716154e+17
19280.0	5.4323203280295245e+17
19281.0	5.431281383549609e+17
19282.0	5.430237284270079e+17
19283.0	5.4291880357833376e+17
19284.0	5.4281458882532685e+17
19285.0	5.427088127426558e+17
19286.0	5.426054296502271e+17
19287.0	5.4250072807833594e+17
19288.0	5.4238195314851834e+17
19289.0	5.422663910555647e+17
19290.0	5.4218625775916365e+17
19291.0	5.420794746940074e+17
19292.0	5.419762467209216e+17
19293.0	5.418711481581567e+17
19294.0	5.4176605274112e+17
19295.0	5.416608214286335e+17
19296.0	5.415555120321877e+17
19297.0	5.4145011161934496e+17
19298.0	5.413446497599488e+17
19299.0	5.412390937384277e+17
19300.0	5.4113342782614176e+17
19301.0	5.4102766390695245e+17
19302.0	5.4092182854478496e+17
19303.0	5.408156651880447e+17
19304.0	5.4070960773748045e+17
19305.0	5.4060375468933114e+17
19306.0	5.4049752415382176e+17
19307.0	5.401788290520406e+17
19308.0	5.3997473568740685e+17
19309.0	5.3986680806659405e+17
19310.0	5.39759600537873e+17
19311.0	5.3965356769389216e+17
19312.0	5.3954644307258003e+17
19313.0	5.394389193632425e+17
19314.0	5.392865569363285e+17
19315.0	5.391806212603903e+17
19316.0	5.391156473670313e+17
19317.0	5.3900766172501325e+17
19318.0	5.388993875148799e+17
19319.0	5.3879094735011834e+17
19320.0	5.386822832095232e+17
19321.0	5.385734642991104e+17
19322.0	5.3846371746884256e+17
19323.0	5.383547616843092e+17
19324.0	5.3824568405524474e+17
19325.0	5.381350221676543e+17
19326.0	5.3802603919005e+17
19327.0	5.379157584947881e+17
19328.0	5.378054139062953e+17
19329.0	5.3769473412300794e+17
19330.0	5.375834988041556e+17
19331.0	5.3747240231676576e+17
19332.0	5.373609602187264e+17
19333.0	5.3724910477202765e+17
19334.0	5.371369137111038e+17
19335.0	5.37024442470673e+17
19336.0	5.36911582208546e+17
19337.0	5.3679835760121165e+17
19338.0	5.366832900166996e+17
19339.0	5.3656553367360864e+17
19340.0	5.3609636980326394e+17
19341.0	5.3598098995281914e+17
19342.0	5.358627707682815e+17
19343.0	5.357488361351849e+17
19344.0	5.356317970879827e+17
19345.0	5.3550081890058234e+17
19346.0	5.353882014187519e+17
19347.0	5.352770237715796e+17
19348.0	5.351582928120489e+17
19349.0	5.3503846490221216e+17
19350.0	5.349180130197503e+17
19351.0	5.347969275876692e+17
19352.0	5.3467502377697274e+17
19353.0	5.345526407670442e+17
19354.0	5.344294497244501e+17
19355.0	5.3430477900130995e+17
19356.0	5.3376905187601075e+17
19357.0	5.3363894288820896e+17
19358.0	5.3351050022748154e+17
19359.0	5.3338077879336954e+17
19360.0	5.332508390457343e+17
19361.0	5.33119483580689e+17
19362.0	5.3298730057946445e+17
19363.0	5.32853667607347e+17
19364.0	5.3271881912593043e+17
19365.0	5.3256740356314426e+17
19366.0	5.3220863691980794e+17
19367.0	5.320684356676266e+17
19368.0	5.3192669930018125e+17
19369.0	5.317828775247871e+17
19370.0	5.3163720284569594e+17
19371.0	5.3149171558208845e+17
19372.0	5.313432035961513e+17
19373.0	5.311927957149012e+17
19374.0	5.3104040805225805e+17
19375.0	5.308859054118228e+17
19376.0	5.307292673114111e+17
19377.0	5.305702886495572e+17
19378.0	5.304089553054377e+17
19379.0	5.302450796538538e+17
19380.0	5.300785529924266e+17
19381.0	5.2990925410577056e+17
19382.0	5.29737027105587e+17
19383.0	5.2956128024548685e+17
19384.0	5.293831906568874e+17
19385.0	5.2920136785810765e+17
19386.0	5.2901600653475834e+17
19387.0	5.2882682881419936e+17
19388.0	5.286145522925567e+17
19389.0	5.2841260452413434e+17
19390.0	5.282109184802815e+17
19391.0	5.2797013257530016e+17
19392.0	5.2779091408977914e+17
19393.0	5.2757739521529165e+17
19394.0	5.2735580132693325e+17
19395.0	5.2712864516232525e+17
19396.0	5.268955620267349e+17
19397.0	5.2665633437559456e+17
19398.0	5.26410528727586e+17
19399.0	5.2615348108656634e+17
19400.0	5.258978276321963e+17
19401.0	5.256310989783038e+17
19402.0	5.2535555536541005e+17
19403.0	5.2507144544583686e+17
19404.0	5.2477846051880954e+17
19405.0	5.2447606734847994e+17
19406.0	5.2416383874498554e+17
19407.0	5.238413092803925e+17
19408.0	5.2350244048513696e+17
19409.0	5.2316322027711136e+17
19410.0	5.2280837041466016e+17
19411.0	5.224413532957354e+17
19412.0	5.2206161715964576e+17
19413.0	5.2166869000738125e+17
19414.0	5.212618306355198e+17
19415.0	5.208413674580649e+17
19416.0	5.204049759917396e+17
19417.0	5.199554009890816e+17
19418.0	5.1949120121733114e+17
19419.0	5.1900459309684045e+17
19420.0	5.1845281702652576e+17
19421.0	5.17940423163904e+17
19422.0	5.174112420888574e+17
19423.0	5.168649520283647e+17
19424.0	5.1630113488022176e+17
19425.0	5.1566007039645e+17
19426.0	5.150095387394046e+17
19427.0	5.143892494822058e+17
19428.0	5.1361519438397434e+17
19429.0	5.129071718913364e+17
19430.0	5.119867588618922e+17
19431.0	5.1102170949003936e+17
19432.0	5.09891852701969e+17
19433.0	5.083844565445293e+17
19434.0	5.0645660427004634e+17
19435.0	5.0363695614306906e+17
19436.0	5.003769538412546e+17
19437.0	4.984763314776746e+17
19438.0	4.964525945476436e+17
19439.0	4.9435226606141434e+17
19440.0	4.919779086652756e+17
19441.0	4.89476854137924e+17
19442.0	4.8666279673856e+17
19443.0	4.8331836910905965e+17
19444.0	4.783710821242196e+17
19445.0	4.696827876081671e+17
19446.0	4.627293465651882e+17
19447.0	4.551469075617105e+17
19448.0	4.4297415228566163e+17
19449.0	4.227548523266045e+17
19450.0	3.735663186105648e+17
19451.0	3.580147389868705e+17
19452.0	4.0167100278374515e+17
19453.0	4.339692966597987e+17
19454.0	4.500285166015831e+17
19455.0	4.585729149632507e+17
19456.0	4.6534121075944134e+17
19457.0	4.73358568539204e+17
19458.0	4.799787125003598e+17
19459.0	4.8374885793136634e+17
19460.0	4.866000593179987e+17
19461.0	4.890627715454292e+17
19462.0	4.913016597730645e+17
19463.0	4.9338064505405414e+17
19464.0	4.952484108479146e+17
19465.0	4.9694051898053965e+17
19466.0	4.9922782849051155e+17
19467.0	5.023477117485051e+17
19468.0	5.044530631234903e+17
19469.0	5.0591843417238214e+17
19470.0	5.070046762805929e+17
19471.0	5.0789649771834035e+17
19472.0	5.0860351197020154e+17
19473.0	5.0920014758980256e+17
19474.0	5.0978881172493664e+17
19475.0	5.102655310746964e+17
19476.0	5.106888830091264e+17
19477.0	5.111902653557417e+17
19478.0	5.115755039293439e+17
19479.0	5.119371129126911e+17
19480.0	5.122809988644864e+17
19481.0	5.126074983077204e+17
19482.0	5.1293413441535994e+17
19483.0	5.132716893448874e+17
19484.0	5.135477578749268e+17
19485.0	5.1380955283892896e+17
19486.0	5.1405647333294074e+17
19487.0	5.1428869370019834e+17
19488.0	5.1450610181297485e+17
19489.0	5.1470753738697376e+17
19490.0	5.148897945758378e+17
19491.0	5.1507587815833594e+17
19492.0	5.152400435664212e+17
19493.0	5.153930967252991e+17
19494.0	5.1553505902591994e+17
19495.0	5.1566593578106874e+17
19496.0	5.157833356782249e+17
19497.0	5.158962322210814e+17
19498.0	5.159872955241812e+17
19499.0	5.160349909123071e+17
19500.0	5.161713697554432e+17
19501.0	5.1624590358609914e+17
19502.0	5.163124829891241e+17
19503.0	5.16371451547921e+17
19504.0	5.16423492374801e+17
19505.0	5.1646912032058016e+17
19506.0	5.165083890723498e+17
19507.0	5.165415863593642e+17
19508.0	5.1656921403009683e+17
19509.0	5.1659129438426445e+17
19510.0	5.1660677458165754e+17
19511.0	5.1654043180728314e+17
19512.0	5.1661591487883936e+17
19513.0	5.166126601688404e+17
19514.0	5.1661591949257376e+17
19515.0	5.166206164839081e+17
19516.0	5.1661464484358816e+17
19517.0	5.1660173030195194e+17
19518.0	5.165942045321897e+17
19519.0	5.1658896612611405e+17
19520.0	5.165663396036607e+17
19521.0	5.16541061861649e+17
19522.0	5.1651282252158285e+17
19523.0	5.16481934688256e+17
19524.0	5.16448492523793e+17
19525.0	5.1641252035515725e+17
19526.0	5.163744696292692e+17
19527.0	5.163341346155178e+17
19528.0	5.1629170685378554e+17
19529.0	5.162472803663871e+17
19530.0	5.162009528806058e+17
19531.0	5.161528069543253e+17
19532.0	5.161029423420756e+17
19533.0	5.160514239157589e+17
19534.0	5.1599832843113805e+17
19535.0	5.159437276108117e+17
19536.0	5.158876357853183e+17
19537.0	5.1583027497314976e+17
19538.0	5.157702541333845e+17
19539.0	5.158414734153044e+17
19540.0	5.158700569679189e+17
19541.0	5.158065770157396e+17
19542.0	5.1574201710018554e+17
19543.0	5.1567644992252576e+17
19544.0	5.156099092469076e+17
19545.0	5.1553828982838605e+17
19546.0	5.1546792387761485e+17
19547.0	5.1540487733684896e+17
19548.0	5.15334837772834e+17
19549.0	5.1526405036441594e+17
19550.0	5.1519250644336634e+17
19551.0	5.1529464697323514e+17
19552.0	5.154295131406335e+17
19553.0	5.1535425844893005e+17
19554.0	5.152785855851177e+17
19555.0	5.152026482704382e+17
19556.0	5.151259035522389e+17
19557.0	5.1504859840511994e+17
19558.0	5.1497083586914976e+17
19559.0	5.148925627465727e+17
19560.0	5.148138687954943e+17
19561.0	5.14734694806323e+17
19562.0	5.146550864969727e+17
19563.0	5.1457507168965965e+17
19564.0	5.144946544388777e+17
19565.0	5.144138485159253e+17
19566.0	5.143325427018409e+17
19567.0	5.1425113412730874e+17
19568.0	5.141692813060778e+17
19569.0	5.140870143672319e+17
19570.0	5.140045712676181e+17
19571.0	5.1392174690577056e+17
19572.0	5.138386177578324e+17
19573.0	5.13755171730227e+17
19574.0	5.138662844355929e+17
19575.0	5.139143573110783e+17
19576.0	5.138295024167594e+17
19577.0	5.137442587104595e+17
19578.0	5.136587616681983e+17
19579.0	5.135735911525034e+17
19580.0	5.1348782833117856e+17
19581.0	5.134018310482602e+17
19582.0	5.1331582978075296e+17
19583.0	5.1322953386338976e+17
19584.0	5.1314305794047994e+17
19585.0	5.1305637377037645e+17
19586.0	5.1296858013695994e+17
19587.0	5.1288243060080634e+17
19588.0	5.127919443640319e+17
19589.0	5.127081778916009e+17
19590.0	5.1262024822292474e+17
19591.0	5.1253322955707725e+17
19592.0	5.1244552756920314e+17
19593.0	5.123577292521471e+17
19594.0	5.122682511163392e+17
19595.0	5.1218134345973754e+17
19596.0	5.12091319435264e+17
19597.0	5.120049935286272e+17
19598.0	5.1191420362424314e+17
19599.0	5.118283016918356e+17
19600.0	5.1173971603401376e+17
19601.0	5.1165071241379834e+17
19602.0	5.1156159463860896e+17
19603.0	5.114701293114708e+17
19604.0	5.1138395796493645e+17
19605.0	5.112933197545471e+17
19606.0	5.112060921424554e+17
19607.0	5.111169024349525e+17
19608.0	5.1102757075025914e+17
19609.0	5.1093804025555616e+17
19610.0	5.1084877526029645e+17
19611.0	5.107592095334398e+17
19612.0	5.106696872176297e+17
19613.0	5.105800417989972e+17
19614.0	5.104903374503935e+17
19615.0	5.1040054124653216e+17
19616.0	5.1031045325892256e+17
19617.0	5.1022087124418554e+17
19618.0	5.101263919600981e+17
19619.0	5.100355805948585e+17
19620.0	5.099460197613566e+17
19621.0	5.0986085162243405e+17
19622.0	5.097707300803925e+17
19623.0	5.0968056477777914e+17
19624.0	5.095903529183915e+17
19625.0	5.095000970188117e+17
19626.0	5.094098108503381e+17
19627.0	5.0931946008958285e+17
19628.0	5.092284425743017e+17
19629.0	5.0913868754452474e+17
19630.0	5.0904411703432525e+17
19631.0	5.0892879569442125e+17
19632.0	5.0886729929850874e+17
19633.0	5.0877677789948576e+17
19634.0	5.086862342007466e+17
19635.0	5.085956572971007e+17
19636.0	5.085050369824083e+17
19637.0	5.084118791137961e+17
19638.0	5.083236526981119e+17
19639.0	5.082330795693396e+17
19640.0	5.0814107779071994e+17
19641.0	5.080453076396715e+17
19642.0	5.079609153770836e+17
19643.0	5.0787013211368083e+17
19644.0	5.0777904280589645e+17
19645.0	5.076865532297215e+17
19646.0	5.075977653365419e+17
19647.0	5.075069367746559e+17
19648.0	5.0741609059669325e+17
19649.0	5.073271377275561e+17
19650.0	5.0723840589823994e+17
19651.0	5.071475160995157e+17
19652.0	5.0705660847499936e+17
19653.0	5.069656706514943e+17
19654.0	5.068747605103956e+17
19655.0	5.0678379101989536e+17
