# Flux units: erg / (cm m2 s)
# Wavelength units: Angstrom
wave	flux
19000.0	7.254876105648808e+17
19001.0	7.253494303380819e+17
19002.0	7.252240360275965e+17
19003.0	7.250958231448233e+17
19004.0	7.249732625061204e+17
19005.0	7.248412512616447e+17
19006.0	7.247090248493736e+17
19007.0	7.245758348656637e+17
19008.0	7.244438285145428e+17
19009.0	7.243047551806122e+17
19010.0	7.241657805526355e+17
19011.0	7.240460376473599e+17
19012.0	7.239064640727721e+17
19013.0	7.237850371544404e+17
19014.0	7.236494469103616e+17
19015.0	7.23518477111569e+17
19016.0	7.233876276893011e+17
19017.0	7.232565340187306e+17
19018.0	7.231234061107199e+17
19019.0	7.229913140559871e+17
19020.0	7.22858009567778e+17
19021.0	7.227268110396072e+17
19022.0	7.225943634477055e+17
19023.0	7.224588066182483e+17
19024.0	7.223278433905321e+17
19025.0	7.221952944362835e+17
19026.0	7.220604913232553e+17
19027.0	7.219245272268799e+17
19028.0	7.217966581372244e+17
19029.0	7.216646787694591e+17
19030.0	7.215329812589225e+17
19031.0	7.213997733795156e+17
19032.0	7.212659538307753e+17
19033.0	7.211248303210493e+17
19034.0	7.209890889422164e+17
19035.0	7.208005270153897e+17
19036.0	7.202372438720511e+17
19037.0	7.205498390577151e+17
19038.0	7.204586593626793e+17
19039.0	7.203345040495955e+17
19040.0	7.202041098491219e+17
19041.0	7.200718212213417e+17
19042.0	7.199308998770687e+17
19043.0	7.1980755728029e+17
19044.0	7.196740331503615e+17
19045.0	7.19541062668561e+17
19046.0	7.194067261019475e+17
19047.0	7.192720668535464e+17
19048.0	7.191350575366143e+17
19049.0	7.189957192624808e+17
19050.0	7.188641140266323e+17
19051.0	7.186732692799487e+17
19052.0	7.185697486842536e+17
19053.0	7.184717455556607e+17
19054.0	7.183440140391764e+17
19055.0	7.181953679054164e+17
19056.0	7.180782191771645e+17
19057.0	7.179473299090089e+17
19058.0	7.178109652566015e+17
19059.0	7.176808621408255e+17
19060.0	7.175489093369853e+17
19061.0	7.17416487190528e+17
19062.0	7.172833985691647e+17
19063.0	7.171500444483583e+17
19064.0	7.170128132527444e+17
19065.0	7.168741724913663e+17
19066.0	7.167463240936105e+17
19067.0	7.166190594031615e+17
19068.0	7.164862490039636e+17
19069.0	7.163533337471657e+17
19070.0	7.16219265196578e+17
19071.0	7.16087036547345e+17
19072.0	7.159532757188607e+17
19073.0	7.158215499666772e+17
19074.0	7.156886851813375e+17
19075.0	7.155556593347241e+17
19076.0	7.15422154498594e+17
19077.0	7.152886841955668e+17
19078.0	7.151557520217428e+17
19079.0	7.150236380168191e+17
19080.0	7.14889791484723e+17
19081.0	7.147546627538943e+17
19082.0	7.146233754462889e+17
19083.0	7.144839907551913e+17
19084.0	7.14342403215633e+17
19085.0	7.142243261480957e+17
19086.0	7.140627316386474e+17
19087.0	7.139509696550228e+17
19088.0	7.138158865022975e+17
19089.0	7.136773409516202e+17
19090.0	7.135561640138067e+17
19091.0	7.134247644386644e+17
19092.0	7.132875413520383e+17
19093.0	7.131615082490538e+17
19094.0	7.13029171806208e+17
19095.0	7.12896511423283e+17
19096.0	7.127633640816639e+17
19097.0	7.126307579450708e+17
19098.0	7.124967145603071e+17
19099.0	7.12363573370334e+17
19100.0	7.122306774073343e+17
19101.0	7.120983062915753e+17
19102.0	7.119625105266003e+17
19103.0	7.118331976176982e+17
19104.0	7.11700201410833e+17
19105.0	7.115635628703743e+17
19106.0	7.114326540287999e+17
19107.0	7.112975842978474e+17
19108.0	7.111605759595862e+17
19109.0	7.110157627206314e+17
19110.0	7.108915440735571e+17
19111.0	7.107654954516479e+17
19112.0	7.106347826238803e+17
19113.0	7.105039097135101e+17
19114.0	7.103709857884841e+17
19115.0	7.102353699591508e+17
19116.0	7.101034856622761e+17
19117.0	7.09969954681651e+17
19118.0	7.098240349853011e+17
19119.0	7.09505495352388e+17
19120.0	7.095628454690816e+17
19121.0	7.094363428836692e+17
19122.0	7.093079647453183e+17
19123.0	7.091756871625385e+17
19124.0	7.090375958549844e+17
19125.0	7.089077295775743e+17
19126.0	7.087656264182441e+17
19127.0	7.085814173401088e+17
19128.0	7.084950792699901e+17
19129.0	7.083710214045693e+17
19130.0	7.082448876382889e+17
19131.0	7.081136801622697e+17
19132.0	7.079809795140266e+17
19133.0	7.078451963319636e+17
19134.0	7.077135892785833e+17
19135.0	7.07582640730931e+17
19136.0	7.074494009748136e+17
19137.0	7.073126054275753e+17
19138.0	7.07182998917393e+17
19139.0	7.070518424720723e+17
19140.0	7.069194298327039e+17
19141.0	7.06786700103953e+17
19142.0	7.066522014973951e+17
19143.0	7.065193279040169e+17
19144.0	7.063853323343187e+17
19145.0	7.062552106237951e+17
19146.0	7.060838478599508e+17
19147.0	7.059871718091433e+17
19148.0	7.058554798910122e+17
19149.0	7.057226752240297e+17
19150.0	7.055910990686889e+17
19151.0	7.054582105156265e+17
19152.0	7.053241355337727e+17
19153.0	7.051876723152212e+17
19154.0	7.050548325558952e+17
19155.0	7.049241261593939e+17
19156.0	7.047899263270911e+17
19157.0	7.046517055553535e+17
19158.0	7.045135180584276e+17
19159.0	7.043855361419945e+17
19160.0	7.042525561531049e+17
19161.0	7.0411432769181e+17
19162.0	7.039610106413053e+17
19163.0	7.038424331933012e+17
19164.0	7.037214921850879e+17
19165.0	7.035890164214442e+17
19166.0	7.034551633881769e+17
19167.0	7.033249821884415e+17
19168.0	7.0319448012445e+17
19169.0	7.030627648580266e+17
19170.0	7.029304248500223e+17
19171.0	7.027973091054931e+17
19172.0	7.026644583710719e+17
19173.0	7.025320913797119e+17
19174.0	7.023978640048127e+17
19175.0	7.02266426331409e+17
19176.0	7.021337885278207e+17
19177.0	7.019910177051987e+17
19178.0	7.018666328937812e+17
19179.0	7.017331942577492e+17
19180.0	7.016004315338068e+17
19181.0	7.014640455603539e+17
19182.0	7.013338663878655e+17
19183.0	7.012025931311785e+17
19184.0	7.010694494246228e+17
19185.0	7.009361904446121e+17
19186.0	7.00802909863936e+17
19187.0	7.006647512378026e+17
19188.0	7.0053571606173e+17
19189.0	7.004018907807743e+17
19190.0	7.002676117460308e+17
19191.0	7.001313323078996e+17
19192.0	6.999985876194643e+17
19193.0	6.998623861953876e+17
19194.0	6.997240186929151e+17
19195.0	6.995854630759081e+17
19196.0	6.99440020271923e+17
19197.0	6.992828490055679e+17
19198.0	6.99093188031283e+17
19199.0	6.988036421539156e+17
19200.0	6.986891881960788e+17
19201.0	6.986997525992788e+17
19202.0	6.986190029499049e+17
19203.0	6.985065754700458e+17
19204.0	6.983854536174249e+17
19205.0	6.982579821477887e+17
19206.0	6.981288669304147e+17
19207.0	6.979898768534185e+17
19208.0	6.978588153391785e+17
19209.0	6.977329687429119e+17
19210.0	6.976008841680212e+17
19211.0	6.974683371012095e+17
19212.0	6.973345393628499e+17
19213.0	6.971942761048745e+17
19214.0	6.970623569952768e+17
19215.0	6.969323936197289e+17
19216.0	6.967990364230995e+17
19217.0	6.966612062109696e+17
19218.0	6.965078542079316e+17
19219.0	6.963817563728553e+17
19220.0	6.962611081969663e+17
19221.0	6.961222645710847e+17
19222.0	6.959935740968959e+17
19223.0	6.958616389091327e+17
19224.0	6.957255325559466e+17
19225.0	6.955917821433171e+17
19226.0	6.954594405974015e+17
19227.0	6.953256193709395e+17
19228.0	6.951933875759785e+17
19229.0	6.950589321707519e+17
19230.0	6.949243923901098e+17
19231.0	6.94785294869026e+17
19232.0	6.946507178289833e+17
19233.0	6.945122954510333e+17
19234.0	6.943809591399763e+17
19235.0	6.94244547161839e+17
19236.0	6.941115666137087e+17
19237.0	6.939759744821929e+17
19238.0	6.938362383783252e+17
19239.0	6.937062601829033e+17
19240.0	6.935710762270719e+17
19241.0	6.93434391339554e+17
19242.0	6.932993215386963e+17
19243.0	6.931538949526867e+17
19244.0	6.930294071711059e+17
19245.0	6.928932063062698e+17
19246.0	6.927573663612927e+17
19247.0	6.926218284062036e+17
19248.0	6.924859999256575e+17
19249.0	6.923498549848746e+17
19250.0	6.922113907337897e+17
19251.0	6.920695109211476e+17
19252.0	6.919192020254719e+17
19253.0	6.918018033167017e+17
19254.0	6.916665713360896e+17
19255.0	6.915167123494227e+17
19256.0	6.913920223324841e+17
19257.0	6.912562742427645e+17
19258.0	6.911190973633875e+17
19259.0	6.909758079150762e+17
19260.0	6.908331264311295e+17
19261.0	6.90705272021538e+17
19262.0	6.905647048163327e+17
19263.0	6.904236807116116e+17
19264.0	6.902722400529065e+17
19265.0	6.901416188706815e+17
19266.0	6.900022796178772e+17
19267.0	6.898733353183913e+17
19268.0	6.897353532724563e+17
19269.0	6.895964994404352e+17
19270.0	6.894548635265705e+17
19271.0	6.893072756157097e+17
19272.0	6.891767108468735e+17
19273.0	6.890229714998612e+17
19274.0	6.888735429186899e+17
19275.0	6.887618609064617e+17
19276.0	6.886216809054205e+17
19277.0	6.884821959005524e+17
19278.0	6.8834217178781e+17
19279.0	6.882002793223508e+17
19280.0	6.880585626681343e+17
19281.0	6.879185566608041e+17
19282.0	6.877782320960852e+17
19283.0	6.876353794845353e+17
19284.0	6.874907110888787e+17
19285.0	6.873470942052351e+17
19286.0	6.87202766946304e+17
19287.0	6.870488392051369e+17
19288.0	6.866997874087252e+17
19289.0	6.864524845339986e+17
19290.0	6.866091636686847e+17
19291.0	6.864658366114476e+17
19292.0	6.863427641278463e+17
19293.0	6.862000658666836e+17
19294.0	6.860556055784105e+17
19295.0	6.85911958495778e+17
19296.0	6.857654357983231e+17
19297.0	6.856206847748777e+17
19298.0	6.85474156974353e+17
19299.0	6.853279986221055e+17
19300.0	6.851831728002388e+17
19301.0	6.850361740492799e+17
19302.0	6.848878540925609e+17
19303.0	6.84737150722594e+17
19304.0	6.845921295160659e+17
19305.0	6.844318879492778e+17
19306.0	6.842819490611199e+17
19307.0	6.841281414168575e+17
19308.0	6.839752059781119e+17
19309.0	6.838196230946815e+17
19310.0	6.836651419151017e+17
19311.0	6.835202326265855e+17
19312.0	6.83371808301602e+17
19313.0	6.832128462771539e+17
19314.0	6.825035547279359e+17
19315.0	6.823893122329262e+17
19316.0	6.827529176350717e+17
19317.0	6.82611077947938e+17
19318.0	6.824518520318633e+17
19319.0	6.822910931675817e+17
19320.0	6.821356533099178e+17
19321.0	6.819787209091753e+17
19322.0	6.818215131523753e+17
19323.0	6.816649695636138e+17
19324.0	6.815078532426408e+17
19325.0	6.813477491791187e+17
19326.0	6.811898674675711e+17
19327.0	6.810301782207146e+17
19328.0	6.808670202145449e+17
19329.0	6.807081679410516e+17
19330.0	6.805366562095103e+17
19331.0	6.803690235800233e+17
19332.0	6.802076093557417e+17
19333.0	6.800391944186537e+17
19334.0	6.798665226824361e+17
19335.0	6.796936439573161e+17
19336.0	6.795305381702314e+17
19337.0	6.793607844812116e+17
19338.0	6.791768776026793e+17
19339.0	6.790164225458175e+17
19340.0	6.788385790230527e+17
19341.0	6.786605431914496e+17
19342.0	6.784786053988351e+17
19343.0	6.783107102758228e+17
19344.0	6.781253833457663e+17
19345.0	6.778826858867369e+17
19346.0	6.777182465206953e+17
19347.0	6.775829540022953e+17
19348.0	6.774093601483434e+17
19349.0	6.772248329322495e+17
19350.0	6.770382267394729e+17
19351.0	6.768415414244692e+17
19352.0	6.76645388366643e+17
19353.0	6.764619748780714e+17
19354.0	6.762706767271252e+17
19355.0	6.760715387229523e+17
19356.0	6.758829785437524e+17
19357.0	6.7568680842909e+17
19358.0	6.754887378752852e+17
19359.0	6.752871701807101e+17
19360.0	6.750837081287338e+17
19361.0	6.748811588971178e+17
19362.0	6.746734489938602e+17
19363.0	6.744624232835753e+17
19364.0	6.742442023146836e+17
19365.0	6.740153475268608e+17
19366.0	6.737965439691433e+17
19367.0	6.735749534362281e+17
19368.0	6.733450936232617e+17
19369.0	6.731150423403177e+17
19370.0	6.728848542531583e+17
19371.0	6.726497248564564e+17
19372.0	6.724159703526057e+17
19373.0	6.721729519594153e+17
19374.0	6.719272507495763e+17
19375.0	6.716767990710271e+17
19376.0	6.714059383985491e+17
19377.0	6.711436278147753e+17
19378.0	6.708826646511615e+17
19379.0	6.706177103975764e+17
19380.0	6.703479756161021e+17
19381.0	6.700734140295849e+17
19382.0	6.697901867313834e+17
19383.0	6.695089265617577e+17
19384.0	6.692255956642474e+17
19385.0	6.689351199795881e+17
19386.0	6.686291685015551e+17
19387.0	6.683169400378708e+17
19388.0	6.679928399462397e+17
19389.0	6.676739553318227e+17
19390.0	6.673270940805801e+17
19391.0	6.666269870085458e+17
19392.0	6.665938393541289e+17
19393.0	6.663318712352767e+17
19394.0	6.659887738126335e+17
19395.0	6.656289499250687e+17
19396.0	6.652583707934719e+17
19397.0	6.648780401846953e+17
19398.0	6.644837252770474e+17
19399.0	6.64058149802257e+17
19400.0	6.636461868711936e+17
19401.0	6.632316283650047e+17
19402.0	6.627797904654333e+17
19403.0	6.623281074055849e+17
19404.0	6.618650086386346e+17
19405.0	6.613868265253546e+17
19406.0	6.608952790526634e+17
19407.0	6.603844046465705e+17
19408.0	6.598405407812265e+17
19409.0	6.593089149861887e+17
19410.0	6.587673366669993e+17
19411.0	6.582057714406739e+17
19412.0	6.576330133645993e+17
19413.0	6.570190728855551e+17
19414.0	6.563698461463892e+17
19415.0	6.556970662931114e+17
19416.0	6.549994472822102e+17
19417.0	6.54291065058099e+17
19418.0	6.535506152827562e+17
19419.0	6.527788941049855e+17
19420.0	6.519702250935636e+17
19421.0	6.511120264549718e+17
19422.0	6.50217618809378e+17
19423.0	6.492883699193172e+17
19424.0	6.483044537292116e+17
19425.0	6.472859697632596e+17
19426.0	6.462367792977235e+17
19427.0	6.451286353029802e+17
19428.0	6.439173893040809e+17
19429.0	6.426507562625705e+17
19430.0	6.412925849130326e+17
19431.0	6.398588858925055e+17
19432.0	6.384019103722153e+17
19433.0	6.36805338628096e+17
19434.0	6.351105162215423e+17
19435.0	6.332794422689791e+17
19436.0	6.313139846337876e+17
19437.0	6.29175042056738e+17
19438.0	6.263320354313556e+17
19439.0	6.243034003931136e+17
19440.0	6.217197000414548e+17
19441.0	6.18771380454468e+17
19442.0	6.154565266527574e+17
19443.0	6.1175957042845e+17
19444.0	6.07576455992661e+17
19445.0	6.027742252367873e+17
19446.0	5.971732713526612e+17
19447.0	5.904862531988134e+17
19448.0	5.822789841147224e+17
19449.0	5.7170127126964896e+17
19450.0	5.5642010974945184e+17
19451.0	5.4620973579632646e+17
19452.0	5.649613695833428e+17
19453.0	5.771073579297454e+17
19454.0	5.861010520233297e+17
19455.0	5.932327475609599e+17
19456.0	5.990930820278956e+17
19457.0	6.040139751664294e+17
19458.0	6.070805037318157e+17
19459.0	6.11825748786108e+17
19460.0	6.152225181837992e+17
19461.0	6.181274986566996e+17
19462.0	6.207242105782272e+17
19463.0	6.231006545007955e+17
19464.0	6.252278936414889e+17
19465.0	6.271923858178047e+17
19466.0	6.289958700580863e+17
19467.0	6.306277474959359e+17
19468.0	6.321370315096064e+17
19469.0	6.335336981812563e+17
19470.0	6.348564816986111e+17
19471.0	6.360666173254314e+17
19472.0	6.371917532845395e+17
19473.0	6.382413613629437e+17
19474.0	6.392301757311657e+17
19475.0	6.401220851094868e+17
19476.0	6.409729339293695e+17
19477.0	6.417624586693289e+17
19478.0	6.425283146022911e+17
19479.0	6.432354159558655e+17
19480.0	6.438988533465087e+17
19481.0	6.445314319144276e+17
19482.0	6.451199815450623e+17
19483.0	6.456628023569065e+17
19484.0	6.461734325846015e+17
19485.0	6.466537917513727e+17
19486.0	6.471072272613376e+17
19487.0	6.475383676687699e+17
19488.0	6.479570081415167e+17
19489.0	6.483224373668521e+17
19490.0	6.486407254114303e+17
19491.0	6.489982026558121e+17
19492.0	6.493120654300502e+17
19493.0	6.496118036059476e+17
19494.0	6.498998223372288e+17
19495.0	6.501648929827498e+17
19496.0	6.503978487513087e+17
19497.0	6.506280312460627e+17
19498.0	6.506632480205482e+17
19499.0	6.504658742804479e+17
19500.0	6.512416195433811e+17
19501.0	6.514719926692521e+17
19502.0	6.516487169419946e+17
19503.0	6.518260229647017e+17
19504.0	6.519740363877034e+17
19505.0	6.521122844224169e+17
19506.0	6.522401983911252e+17
19507.0	6.5235759136768e+17
19508.0	6.524626631568042e+17
19509.0	6.525557835563007e+17
19510.0	6.526115182368084e+17
19511.0	6.517801284009979e+17
19512.0	6.526058742415359e+17
19513.0	6.526620737208317e+17
19514.0	6.527641813953193e+17
19515.0	6.529997769889108e+17
19516.0	6.530804784037887e+17
19517.0	6.531366861318826e+17
19518.0	6.531807691057834e+17
19519.0	6.532174392765097e+17
19520.0	6.532482135141034e+17
19521.0	6.532791079185065e+17
19522.0	6.533010065894057e+17
19523.0	6.533216287238825e+17
19524.0	6.533348792991743e+17
19525.0	6.533470200616276e+17
19526.0	6.533641396027391e+17
19527.0	6.533787255046143e+17
19528.0	6.533781861171199e+17
19529.0	6.533747629359101e+17
19530.0	6.53366272406323e+17
19531.0	6.533529280184319e+17
19532.0	6.533366376213161e+17
19533.0	6.533172389653162e+17
19534.0	6.532947346369192e+17
19535.0	6.532740220452863e+17
19536.0	6.532441685972308e+17
19537.0	6.532145380764329e+17
19538.0	6.531828530457257e+17
19539.0	6.531443540186452e+17
19540.0	6.531207577731071e+17
19541.0	6.530831230522708e+17
19542.0	6.530383587136852e+17
19543.0	6.52988235522594e+17
19544.0	6.529382861154985e+17
19545.0	6.528635652188842e+17
19546.0	6.528049376570025e+17
19547.0	6.527807736425129e+17
19548.0	6.527284559216639e+17
19549.0	6.526659529626964e+17
19550.0	6.526147066068991e+17
19551.0	6.52555838431778e+17
19552.0	6.525053192284841e+17
19553.0	6.524418538864637e+17
19554.0	6.523778653050195e+17
19555.0	6.52313127620881e+17
19556.0	6.522477612105727e+17
19557.0	6.52179964830242e+17
19558.0	6.521110601050794e+17
19559.0	6.520410448680276e+17
19560.0	6.519669414428672e+17
19561.0	6.518952237378218e+17
19562.0	6.518226148829866e+17
19563.0	6.517487272547667e+17
19564.0	6.516729127632895e+17
19565.0	6.515954745868287e+17
19566.0	6.515155386324308e+17
19567.0	6.514369190603434e+17
19568.0	6.513546712754857e+17
19569.0	6.512740856233984e+17
19570.0	6.511983984989523e+17
19571.0	6.511164830427817e+17
19572.0	6.510316437372927e+17
19573.0	6.509561698932052e+17
19574.0	6.508645894324223e+17
19575.0	6.507845124095997e+17
19576.0	6.50697256206336e+17
19577.0	6.506083572340052e+17
19578.0	6.505191455763114e+17
19579.0	6.504283671363583e+17
19580.0	6.503377399010644e+17
19581.0	6.50247690850577e+17
19582.0	6.50156185747456e+17
19583.0	6.500636505232723e+17
19584.0	6.499734217468585e+17
19585.0	6.49883382133555e+17
19586.0	6.497873388634111e+17
19587.0	6.496986615600468e+17
19588.0	6.49590825095441e+17
19589.0	6.495071075565567e+17
19590.0	6.494108037502292e+17
19591.0	6.493195496762025e+17
19592.0	6.49223089562146e+17
19593.0	6.491246308622335e+17
19594.0	6.490129733167785e+17
19595.0	6.489290262795604e+17
19596.0	6.488222634868735e+17
19597.0	6.487319811631785e+17
19598.0	6.486231979742548e+17
19599.0	6.485473405610665e+17
19600.0	6.484486688604159e+17
19601.0	6.483447806339753e+17
19602.0	6.48241055076625e+17
19603.0	6.481309730515625e+17
19604.0	6.480388792079699e+17
19605.0	6.479288963781972e+17
19606.0	6.478427659261268e+17
19607.0	6.477608899663188e+17
19608.0	6.476577742607699e+17
19609.0	6.475537351791956e+17
19610.0	6.474520825167871e+17
19611.0	6.473482863553194e+17
19612.0	6.472463063274835e+17
19613.0	6.471415012261887e+17
19614.0	6.470349916995581e+17
19615.0	6.469356871483391e+17
19616.0	6.468301914548906e+17
19617.0	6.467248326355626e+17
19618.0	6.465949797100201e+17
19619.0	6.464812563999401e+17
19620.0	6.463864454163113e+17
19621.0	6.463012513426089e+17
19622.0	6.462001913353556e+17
19623.0	6.460941968692564e+17
19624.0	6.459865316021587e+17
19625.0	6.458792170487808e+17
19626.0	6.457698332355242e+17
19627.0	6.456571795428692e+17
19628.0	6.455382422235817e+17
19629.0	6.4540030547613e+17
19630.0	6.452018791055359e+17
19631.0	6.449858105136468e+17
19632.0	6.450636119867391e+17
19633.0	6.449947703159465e+17
19634.0	6.449019193305769e+17
19635.0	6.447958232924159e+17
19636.0	6.446904526591316e+17
19637.0	6.445583870984192e+17
19638.0	6.444768615727103e+17
19639.0	6.443726534606847e+17
19640.0	6.442533667558739e+17
19641.0	6.441212714156031e+17
19642.0	6.440453650688682e+17
19643.0	6.439364006161065e+17
19644.0	6.438223923030698e+17
19645.0	6.437093432273577e+17
19646.0	6.436055269332307e+17
19647.0	6.434992576703146e+17
19648.0	6.433896065400831e+17
19649.0	6.432795997328723e+17
19650.0	6.431695324577791e+17
19651.0	6.430588398119593e+17
19652.0	6.429488004289876e+17
19653.0	6.428384913522687e+17
19654.0	6.427274077973162e+17
19655.0	6.426172383909204e+17
19656.0	6.425065117712383e+17
19657.0	6.42395960054033e+17
19658.0	6.422851150850729e+17
19659.0	6.421741354789546e+17
19660.0	6.420631342721706e+17
19661.0	6.419519529200297e+17
19662.0	6.418404312700244e+17
19663.0	6.417279025676287e+17
19664.0	6.416180299781459e+17
19665.0	6.415078703584595e+17
