# Flux units: erg / (cm m2 s)
# Wavelength units: Angstrom
wave	flux
19000.0	8.091838078517245e+17
19001.0	8.090008335766867e+17
19002.0	8.089213113903785e+17
19003.0	8.087883311218685e+17
19004.0	8.086472880029693e+17
19005.0	8.085048929200812e+17
19006.0	8.083627297822036e+17
19007.0	8.082067697609386e+17
19008.0	8.080534085304319e+17
19009.0	8.079002939250004e+17
19010.0	8.076062843994107e+17
19011.0	8.076376631061161e+17
19012.0	8.07433789592917e+17
19013.0	8.073626996353706e+17
19014.0	8.071920624861181e+17
19015.0	8.070608614413651e+17
19016.0	8.069153374076927e+17
19017.0	8.067782949557587e+17
19018.0	8.066393847802537e+17
19019.0	8.064964449970857e+17
19020.0	8.063454296408063e+17
19021.0	8.062108450510164e+17
19022.0	8.060674936668161e+17
19023.0	8.059048203823785e+17
19024.0	8.057703596643667e+17
19025.0	8.056281252233217e+17
19026.0	8.054741840603817e+17
19027.0	8.053000276104531e+17
19028.0	8.051964682873513e+17
19029.0	8.050439477351764e+17
19030.0	8.04910571664179e+17
19031.0	8.047672819362473e+17
19032.0	8.046202025148415e+17
19033.0	8.044331559900498e+17
19034.0	8.043172289227433e+17
19035.0	8.041460470732115e+17
19036.0	8.009864911519735e+17
19037.0	8.038680603481428e+17
19038.0	8.037282082717693e+17
19039.0	8.035917258992297e+17
19040.0	8.034478407199404e+17
19041.0	8.032973559431167e+17
19042.0	8.031120982889812e+17
19043.0	8.030051491293866e+17
19044.0	8.028535153928873e+17
19045.0	8.027095375194792e+17
19046.0	8.025363703660543e+17
19047.0	8.024068290073939e+17
19048.0	8.021800691346088e+17
19049.0	8.020845421832872e+17
19050.0	8.019450501180073e+17
19051.0	8.012994611686052e+17
19052.0	8.015719607653718e+17
19053.0	8.015192364067497e+17
19054.0	8.01374340120576e+17
19055.0	8.011138325981869e+17
19056.0	8.010669859973802e+17
19057.0	8.009265846069932e+17
19058.0	8.007700969422847e+17
19059.0	8.00630152171793e+17
19060.0	8.004735971186003e+17
19061.0	8.00334557478912e+17
19062.0	8.0018189334173e+17
19063.0	8.000340279077545e+17
19064.0	7.998278627666604e+17
19065.0	7.996516539039743e+17
19066.0	7.995565456840019e+17
19067.0	7.994292032591187e+17
19068.0	7.992840027460948e+17
19069.0	7.991348633621844e+17
19070.0	7.989718341211476e+17
19071.0	7.988307447250944e+17
19072.0	7.986835752659624e+17
19073.0	7.985304543690751e+17
19074.0	7.983840123420671e+17
19075.0	7.982332493430783e+17
19076.0	7.980738020376573e+17
19077.0	7.979261667311615e+17
19078.0	7.977623737073663e+17
19079.0	7.976276435752275e+17
19080.0	7.97470525227008e+17
19081.0	7.973065064098473e+17
19082.0	7.971944434150058e+17
19083.0	7.970178072925523e+17
19084.0	7.968093699571712e+17
19085.0	7.967629878056278e+17
19086.0	7.964311452385279e+17
19087.0	7.963871833402025e+17
19088.0	7.9625957961018e+17
19089.0	7.960341582796118e+17
19090.0	7.959877787844607e+17
19091.0	7.958415963848701e+17
19092.0	7.956607818967721e+17
19093.0	7.955503553795411e+17
19094.0	7.954000727681705e+17
19095.0	7.952488061730815e+17
19096.0	7.950909222245718e+17
19097.0	7.949440883097599e+17
19098.0	7.947901970590377e+17
19099.0	7.946368410015059e+17
19100.0	7.944802468014762e+17
19101.0	7.943309653704703e+17
19102.0	7.941422805505363e+17
19103.0	7.940240214502058e+17
19104.0	7.938739375090344e+17
19105.0	7.937168339806889e+17
19106.0	7.93551184138513e+17
19107.0	7.934019357026986e+17
19108.0	7.932519931095722e+17
19109.0	7.928243972385445e+17
19110.0	7.929206869939539e+17
19111.0	7.927948325683199e+17
19112.0	7.926442569149097e+17
19113.0	7.924902243161428e+17
19114.0	7.923343843917824e+17
19115.0	7.921565797362348e+17
19116.0	7.920174018243241e+17
19117.0	7.918610864057002e+17
19118.0	7.916716238219945e+17
19119.0	7.904911545772699e+17
19120.0	7.913733333101226e+17
19121.0	7.9123470904634e+17
19122.0	7.911015910648489e+17
19123.0	7.909451674331817e+17
19124.0	7.907717107329705e+17
19125.0	7.906325379940351e+17
19126.0	7.904737786942803e+17
19127.0	7.896197192744957e+17
19128.0	7.900525397103953e+17
19129.0	7.899743412464297e+17
19130.0	7.898515857124008e+17
19131.0	7.897002774538924e+17
19132.0	7.895461824998058e+17
19133.0	7.893158455847594e+17
19134.0	7.891845426184191e+17
19135.0	7.890787930297683e+17
19136.0	7.889255744055978e+17
19137.0	7.887038966311594e+17
19138.0	7.886053443283624e+17
19139.0	7.884568356279636e+17
19140.0	7.883019830427648e+17
19141.0	7.881456695814826e+17
19142.0	7.879769072861183e+17
19143.0	7.878080929813846e+17
19144.0	7.876569899641513e+17
19145.0	7.875161485912745e+17
19146.0	7.870993702496942e+17
19147.0	7.8716717788474e+17
19148.0	7.870443787299497e+17
19149.0	7.86885883531537e+17
19150.0	7.867287237995176e+17
19151.0	7.865721143601833e+17
19152.0	7.864119213075114e+17
19153.0	7.862498362043049e+17
19154.0	7.860482656436224e+17
19155.0	7.859402656710655e+17
19156.0	7.85779810054963e+17
19157.0	7.856001382350848e+17
19158.0	7.852999977555284e+17
19159.0	7.852874065947305e+17
19160.0	7.851331115723433e+17
19161.0	7.849441058881535e+17
19162.0	7.843770327717204e+17
19163.0	7.846037073603242e+17
19164.0	7.844877453404842e+17
19165.0	7.843221277944488e+17
19166.0	7.841238257150634e+17
19167.0	7.839731129079123e+17
19168.0	7.838387310428157e+17
19169.0	7.836825222993238e+17
19170.0	7.835356303633064e+17
19171.0	7.83357766008832e+17
19172.0	7.832115532704425e+17
19173.0	7.830581938574675e+17
19174.0	7.828755712049152e+17
19175.0	7.827396367482876e+17
19176.0	7.825771702430377e+17
19177.0	7.823522639730003e+17
19178.0	7.82244349284625e+17
19179.0	7.820697987099305e+17
19180.0	7.819261786106536e+17
19181.0	7.817347756021074e+17
19182.0	7.816046133466451e+17
19183.0	7.814532987966804e+17
19184.0	7.812803498868736e+17
19185.0	7.8112421328541e+17
19186.0	7.80968880312593e+17
19187.0	7.8076869373242e+17
19188.0	7.806426727929172e+17
19189.0	7.804786283905021e+17
19190.0	7.803133630261928e+17
19191.0	7.801385037507242e+17
19192.0	7.799922634697386e+17
19193.0	7.798217493534036e+17
19194.0	7.796526531914412e+17
19195.0	7.794929405263872e+17
19196.0	7.793138926791338e+17
19197.0	7.791324367421439e+17
19198.0	7.788760860546386e+17
19199.0	7.762146077878947e+17
19200.0	7.766656208775858e+17
19201.0	7.783993200781996e+17
19202.0	7.783187017804458e+17
19203.0	7.781692647407615e+17
19204.0	7.78008336985839e+17
19205.0	7.778527325017427e+17
19206.0	7.776873041188179e+17
19207.0	7.774839491614036e+17
19208.0	7.772852185639593e+17
19209.0	7.771927570896212e+17
19210.0	7.770291526696957e+17
19211.0	7.768695690493952e+17
19212.0	7.767009144078336e+17
19213.0	7.764817758650365e+17
19214.0	7.762971912568832e+17
19215.0	7.761903722605225e+17
19216.0	7.760331024979283e+17
19217.0	7.758605240849747e+17
19218.0	7.753636921387685e+17
19219.0	7.754518112501757e+17
19220.0	7.753493660740266e+17
19221.0	7.750605780374868e+17
19222.0	7.750180057120767e+17
19223.0	7.748438990345555e+17
19224.0	7.746619662052009e+17
19225.0	7.74453725442867e+17
19226.0	7.743327534667094e+17
19227.0	7.741621768552448e+17
19228.0	7.740047632280232e+17
19229.0	7.73833765368627e+17
19230.0	7.736556243298986e+17
19231.0	7.734828465476947e+17
19232.0	7.733147641490089e+17
19233.0	7.731154021690025e+17
19234.0	7.729647150869161e+17
19235.0	7.727854846476287e+17
19236.0	7.726303001531731e+17
19237.0	7.724493831842473e+17
19238.0	7.722422287466496e+17
19239.0	7.721111668129791e+17
19240.0	7.719147605590015e+17
19241.0	7.717448406357332e+17
19242.0	7.71580479283746e+17
19243.0	7.713328198931795e+17
19244.0	7.712399482159101e+17
19245.0	7.710618830940841e+17
19246.0	7.708814578373972e+17
19247.0	7.707081781368148e+17
19248.0	7.705372851350182e+17
19249.0	7.703585999552511e+17
19250.0	7.701745800402259e+17
19251.0	7.699522220894886e+17
19252.0	7.696957900324861e+17
19253.0	7.696414518454953e+17
19254.0	7.6946997275962e+17
19255.0	7.69208205408119e+17
19256.0	7.690988731848018e+17
19257.0	7.689354060584276e+17
19258.0	7.687568818001234e+17
19259.0	7.685435962687487e+17
19260.0	7.683391440814079e+17
19261.0	7.682097527390207e+17
19262.0	7.68008599511586e+17
19263.0	7.678273015600467e+17
19264.0	7.674593998624082e+17
19265.0	7.674120211442344e+17
19266.0	7.672467725571412e+17
19267.0	7.671206224330751e+17
19268.0	7.669322024135338e+17
19269.0	7.667463618909523e+17
19270.0	7.665602743238655e+17
19271.0	7.662414953360044e+17
19272.0	7.661688035737597e+17
19273.0	7.652865851348303e+17
19274.0	7.653087279841272e+17
19275.0	7.65573292377156e+17
19276.0	7.653781367248212e+17
19277.0	7.651893594903891e+17
19278.0	7.650013463183357e+17
19279.0	7.647956805790377e+17
19280.0	7.645836793435475e+17
19281.0	7.644220954596692e+17
19282.0	7.642340077688147e+17
19283.0	7.640126086359721e+17
19284.0	7.637923015600808e+17
19285.0	7.63580984135953e+17
19286.0	7.634391234073939e+17
19287.0	7.632602918464169e+17
19288.0	7.622391127605239e+17
19289.0	7.60942649898868e+17
19290.0	7.626691699889492e+17
19291.0	7.623583249465345e+17
19292.0	7.622752159312553e+17
19293.0	7.620735180035411e+17
19294.0	7.618702014939136e+17
19295.0	7.616738981401939e+17
19296.0	7.614683952797012e+17
19297.0	7.612549496657234e+17
19298.0	7.610497764775251e+17
19299.0	7.608577297831251e+17
19300.0	7.606512790099283e+17
19301.0	7.604424018318675e+17
19302.0	7.602295476147539e+17
19303.0	7.59995346068002e+17
19304.0	7.598018042440361e+17
19305.0	7.595548184586922e+17
19306.0	7.59304713788894e+17
19307.0	7.590722250560854e+17
19308.0	7.588635608088573e+17
19309.0	7.585760834923177e+17
19310.0	7.5831206505786e+17
19311.0	7.582031644284242e+17
19312.0	7.58006458561331e+17
19313.0	7.577893236375551e+17
19314.0	7.560912996488532e+17
19315.0	7.55961231905043e+17
19316.0	7.571145287707306e+17
19317.0	7.568980196371114e+17
19318.0	7.566715867802284e+17
19319.0	7.564516911655593e+17
19320.0	7.562237177408168e+17
19321.0	7.559923599321769e+17
19322.0	7.55702188474368e+17
19323.0	7.553626055988563e+17
19324.0	7.551561885199016e+17
19325.0	7.5487066994333e+17
19326.0	7.546847971246079e+17
19327.0	7.544483611323049e+17
19328.0	7.54214259270178e+17
19329.0	7.539730129704276e+17
19330.0	7.53713396458018e+17
19331.0	7.534626959174313e+17
19332.0	7.532312781302441e+17
19333.0	7.529742419536552e+17
19334.0	7.525950644289536e+17
19335.0	7.522927155085311e+17
19336.0	7.520342255861757e+17
19337.0	7.51774055006208e+17
19338.0	7.51426553005124e+17
19339.0	7.512460103079251e+17
19340.0	7.509563002235561e+17
19341.0	7.506980586039978e+17
19342.0	7.50149067831159e+17
19343.0	7.499149982651732e+17
19344.0	7.49626649092642e+17
19345.0	7.486312870663496e+17
19346.0	7.487466074974888e+17
19347.0	7.487484910196051e+17
19348.0	7.483106076393471e+17
19349.0	7.478600036341074e+17
19350.0	7.475627396082345e+17
19351.0	7.472545427095548e+17
19352.0	7.469329416541523e+17
19353.0	7.464425906066772e+17
19354.0	7.459490757956947e+17
19355.0	7.455889859892564e+17
19356.0	7.453034317611007e+17
19357.0	7.448819393014442e+17
19358.0	7.441575690196308e+17
19359.0	7.437910121556649e+17
19360.0	7.434618684833791e+17
19361.0	7.429683073952429e+17
19362.0	7.421985978056701e+17
19363.0	7.418364575438163e+17
19364.0	7.414696751661056e+17
19365.0	7.406751042590033e+17
19366.0	7.400476629445288e+17
19367.0	7.396518027154772e+17
19368.0	7.389508481144148e+17
19369.0	7.384286786573651e+17
19370.0	7.379758567041705e+17
19371.0	7.375961843914067e+17
19372.0	7.371893489270781e+17
19373.0	7.367464499980969e+17
19374.0	7.363120284565501e+17
19375.0	7.358669831624022e+17
19376.0	7.354140671169876e+17
19377.0	7.349489030048425e+17
19378.0	7.344820179697663e+17
19379.0	7.340067552318802e+17
19380.0	7.334939203381929e+17
19381.0	7.329892874059773e+17
19382.0	7.32461215444719e+17
19383.0	7.319419459294548e+17
19384.0	7.314608777155923e+17
19385.0	7.309323921959594e+17
19386.0	7.30394906538803e+17
19387.0	7.298452381062483e+17
19388.0	7.292778223151786e+17
19389.0	7.286337192678739e+17
19390.0	7.280455506198528e+17
19391.0	7.253085206347744e+17
19392.0	7.268071612525224e+17
19393.0	7.262416875640147e+17
19394.0	7.255371265605632e+17
19395.0	7.248500602787155e+17
19396.0	7.242004843637416e+17
19397.0	7.235406939204266e+17
19398.0	7.227842418267476e+17
19399.0	7.217589830811645e+17
19400.0	7.212346968986964e+17
19401.0	7.205104433583444e+17
19402.0	7.195163526255955e+17
19403.0	7.187094616495444e+17
19404.0	7.178017913350829e+17
19405.0	7.167487661572093e+17
19406.0	7.158385925423104e+17
19407.0	7.145976933034666e+17
19408.0	7.133644146955604e+17
19409.0	7.122032708463274e+17
19410.0	7.109498906170708e+17
19411.0	7.095930771734527e+17
19412.0	7.07906836942029e+17
19413.0	7.063335789570733e+17
19414.0	7.046169391093079e+17
19415.0	7.027350750014125e+17
19416.0	7.009710139331926e+17
19417.0	6.996477815554045e+17
19418.0	6.98312339488768e+17
19419.0	6.9691845930298e+17
19420.0	6.954855309858132e+17
19421.0	6.939682199830528e+17
19422.0	6.923211524538368e+17
19423.0	6.906838222110719e+17
19424.0	6.889466989903872e+17
19425.0	6.870614091846995e+17
19426.0	6.851415430048425e+17
19427.0	6.82951708770304e+17
19428.0	6.807696453926912e+17
19429.0	6.783683027533823e+17
19430.0	6.758330327018158e+17
19431.0	6.729024244023302e+17
19432.0	6.702622058042707e+17
19433.0	6.670685982861997e+17
19434.0	6.63567454821854e+17
19435.0	6.598067288189605e+17
19436.0	6.558039949006164e+17
19437.0	6.517535531510446e+17
19438.0	6.455272602075139e+17
19439.0	6.424222188437504e+17
19440.0	6.375230183658838e+17
19441.0	6.32073897657412e+17
19442.0	6.259699532606125e+17
19443.0	6.192644222877695e+17
19444.0	6.117560675554641e+17
19445.0	6.033907514343427e+17
19446.0	5.940123685005994e+17
19447.0	5.834536383763791e+17
19448.0	5.714644373777071e+17
19449.0	5.5767364251156474e+17
19450.0	5.406119297373512e+17
19451.0	5.3128786003449274e+17
19452.0	5.4971392208841376e+17
19453.0	5.646502900793349e+17
19454.0	5.772280323200335e+17
19455.0	5.882320328327168e+17
19456.0	5.979340391754414e+17
19457.0	6.065455282956966e+17
19458.0	6.131264555843601e+17
19459.0	6.210549127140698e+17
19460.0	6.272087995274577e+17
19461.0	6.32745554345984e+17
19462.0	6.376413381438124e+17
19463.0	6.422594032325971e+17
19464.0	6.466316266722642e+17
19465.0	6.50727961797154e+17
19466.0	6.544777708655951e+17
19467.0	6.580847098462208e+17
19468.0	6.614158666279594e+17
19469.0	6.644115643738796e+17
19470.0	6.672706318281384e+17
19471.0	6.69849266229521e+17
19472.0	6.721793832954536e+17
19473.0	6.743006918301011e+17
19474.0	6.7636118421504e+17
19475.0	6.780927813702994e+17
19476.0	6.800379570290687e+17
19477.0	6.816769734519468e+17
19478.0	6.832366237166249e+17
19479.0	6.84648256643618e+17
19480.0	6.860109793722368e+17
19481.0	6.873308149929299e+17
19482.0	6.885334202362538e+17
19483.0	6.896829675339775e+17
19484.0	6.907821947180372e+17
19485.0	6.918625540352681e+17
19486.0	6.931533787037692e+17
19487.0	6.946072718999547e+17
19488.0	6.960890061870419e+17
19489.0	6.976452975831724e+17
19490.0	6.985608511619059e+17
19491.0	6.99986491246729e+17
19492.0	7.012443610589866e+17
19493.0	7.021380056907775e+17
19494.0	7.031004299875668e+17
19495.0	7.0390680939834e+17
19496.0	7.046202250668712e+17
19497.0	7.053574255848106e+17
19498.0	7.059093613882029e+17
19499.0	7.033946180506947e+17
19500.0	7.073128015811922e+17
19501.0	7.078907632506195e+17
19502.0	7.08343834485282e+17
19503.0	7.088092552888317e+17
19504.0	7.093637001947817e+17
19505.0	7.0976020690589e+17
19506.0	7.101447475473065e+17
19507.0	7.105042549047296e+17
19508.0	7.109709391724543e+17
19509.0	7.11320234238498e+17
19510.0	7.115842142251688e+17
19511.0	7.089120020354372e+17
19512.0	7.117272120295412e+17
19513.0	7.11539087289001e+17
19514.0	7.122030309321377e+17
19515.0	7.130348638961668e+17
19516.0	7.134707113612628e+17
19517.0	7.137115722044756e+17
19518.0	7.13975485501713e+17
19519.0	7.142075468349437e+17
19520.0	7.144227769854633e+17
19521.0	7.146498835873791e+17
19522.0	7.148643280049491e+17
19523.0	7.150928891914922e+17
19524.0	7.152831231077033e+17
19525.0	7.154603127384745e+17
19526.0	7.156419764333224e+17
19527.0	7.158080759048874e+17
19528.0	7.159692256783017e+17
19529.0	7.161233126632105e+17
19530.0	7.162765336641535e+17
19531.0	7.164218274305363e+17
19532.0	7.165581866303487e+17
19533.0	7.166922030317565e+17
19534.0	7.17101101953843e+17
19535.0	7.172837062912681e+17
19536.0	7.173875933293225e+17
19537.0	7.180682978306734e+17
19538.0	7.181716886825642e+17
19539.0	7.181015492941146e+17
19540.0	7.185077393948671e+17
19541.0	7.189771147280383e+17
19542.0	7.190423196576425e+17
19543.0	7.191010712311126e+17
19544.0	7.193018553597953e+17
19545.0	7.194784498188283e+17
19546.0	7.193744201744383e+17
19547.0	7.197348501389311e+17
19548.0	7.197721549777577e+17
19549.0	7.200913979954519e+17
19550.0	7.201911407815338e+17
19551.0	7.202145069694975e+17
19552.0	7.202336830477651e+17
19553.0	7.202419504403798e+17
19554.0	7.204906584069463e+17
19555.0	7.205529715037523e+17
19556.0	7.205632433542484e+17
19557.0	7.205649574264832e+17
19558.0	7.205639321987753e+17
19559.0	7.205597746648403e+17
19560.0	7.20688426970863e+17
19561.0	7.20750899031791e+17
19562.0	7.207461166863699e+17
19563.0	7.207328232592726e+17
19564.0	7.207130857035092e+17
19565.0	7.206916175779156e+17
19566.0	7.206560068184745e+17
19567.0	7.206431149260799e+17
19568.0	7.20644489818931e+17
19569.0	7.207361257144319e+17
19570.0	7.207119107391487e+17
19571.0	7.206761733117268e+17
19572.0	7.206234338536105e+17
19573.0	7.205930244505599e+17
19574.0	7.205191089302185e+17
19575.0	7.205163316019199e+17
19576.0	7.204719211926867e+17
19577.0	7.2041767122589e+17
19578.0	7.203631187099645e+17
19579.0	7.203181820553898e+17
19580.0	7.203085081728339e+17
19581.0	7.203346751771987e+17
19582.0	7.202872694756692e+17
19583.0	7.202320233616723e+17
19584.0	7.201725878370304e+17
19585.0	7.200690643053225e+17
19586.0	7.199961452118016e+17
19587.0	7.199823575558825e+17
19588.0	7.197569785877847e+17
19589.0	7.198610602415444e+17
19590.0	7.197764404379645e+17
19591.0	7.197413960493738e+17
19592.0	7.196784463970304e+17
19593.0	7.196023902437373e+17
19594.0	7.194397070327805e+17
19595.0	7.194588256490836e+17
19596.0	7.19160422310434e+17
19597.0	7.193219265025364e+17
19598.0	7.191472373759997e+17
19599.0	7.192440080782676e+17
19600.0	7.191832541440681e+17
19601.0	7.190797067048276e+17
19602.0	7.19008207802641e+17
19603.0	7.187615375687677e+17
19604.0	7.1884503791261e+17
19605.0	7.186670495465472e+17
19606.0	7.187128419789481e+17
19607.0	7.186325321023487e+17
19608.0	7.185469480282794e+17
19609.0	7.184477710538067e+17
19610.0	7.18388097851938e+17
19611.0	7.183004848532138e+17
19612.0	7.182211669295104e+17
19613.0	7.181308322469204e+17
19614.0	7.180310883423572e+17
19615.0	7.179614800926036e+17
19616.0	7.178529068985002e+17
19617.0	7.177850922729471e+17
19618.0	7.174767766754641e+17
19619.0	7.173346417792334e+17
19620.0	7.17258109712247e+17
19621.0	7.174228956676093e+17
19622.0	7.173364878322345e+17
19623.0	7.172461486757204e+17
19624.0	7.171492987011071e+17
19625.0	7.17060626780433e+17
19626.0	7.169613720715263e+17
19627.0	7.168685346477395e+17
19628.0	7.167045725934932e+17
19629.0	7.16624249434931e+17
19630.0	7.162695609133738e+17
19631.0	7.137017670402049e+17
19632.0	7.163548216066047e+17
19633.0	7.162679684759551e+17
19634.0	7.161983523968339e+17
19635.0	7.160937840639999e+17
19636.0	7.160403791096489e+17
19637.0	7.157654880605526e+17
19638.0	7.158428257135274e+17
19639.0	7.157395184680957e+17
19640.0	7.156090510071126e+17
19641.0	7.153062941207215e+17
19642.0	7.154366628757504e+17
19643.0	7.153317149584041e+17
19644.0	7.152087506878463e+17
19645.0	7.150263007008083e+17
19646.0	7.15030246002961e+17
19647.0	7.149270011128489e+17
19648.0	7.148208122407594e+17
19649.0	7.147152583862956e+17
19650.0	7.146137609830399e+17
19651.0	7.14505661325858e+17
19652.0	7.143989297108308e+17
19653.0	7.14295513972736e+17
19654.0	7.141857665133225e+17
19655.0	7.140777869530451e+17
19656.0	7.139747847733247e+17
19657.0	7.138673974487721e+17
19658.0	7.13762926563601e+17
19659.0	7.136549176431955e+17
19660.0	7.135489907752957e+17
19661.0	7.134387091013632e+17
19662.0	7.133322180995753e+17
19663.0	7.132023220426067e+17
19664.0	7.131012086977875e+17
19665.0	7.13005607227665e+17
19666.0	7.128895513952253e+17
