# Flux units: erg / (cm m2 s)
# Wavelength units: Angstrom
wave	flux
19000.0	7.679921529465514e+17
19001.0	7.678483565466963e+17
19002.0	7.677158895211859e+17
19003.0	7.675730260743506e+17
19004.0	7.674240875976022e+17
19005.0	7.672862212445523e+17
19006.0	7.671479706932563e+17
19007.0	7.670068927616339e+17
19008.0	7.668684987651411e+17
19009.0	7.667298187171155e+17
19010.0	7.665953765938518e+17
19011.0	7.664677050559148e+17
19012.0	7.66311654437683e+17
19013.0	7.661905232177834e+17
19014.0	7.66049118130449e+17
19015.0	7.65911771451665e+17
19016.0	7.657737580183552e+17
19017.0	7.6563586496157e+17
19018.0	7.65495967027473e+17
19019.0	7.653573521309696e+17
19020.0	7.652187197581994e+17
19021.0	7.650808150971732e+17
19022.0	7.649426812873386e+17
19023.0	7.648014922066602e+17
19024.0	7.646629597981352e+17
19025.0	7.645217858169513e+17
19026.0	7.643778744931668e+17
19027.0	7.642272371834879e+17
19028.0	7.641017497594538e+17
19029.0	7.639635549924012e+17
19030.0	7.63841137099844e+17
19031.0	7.637118557880317e+17
19032.0	7.635711374480723e+17
19033.0	7.634214974040745e+17
19034.0	7.632723394254163e+17
19035.0	7.630332190785533e+17
19036.0	7.617808660343464e+17
19037.0	7.627836468057428e+17
19038.0	7.6271691249309e+17
19039.0	7.625897319683412e+17
19040.0	7.624432818323455e+17
19041.0	7.623009663014227e+17
19042.0	7.621528093633194e+17
19043.0	7.620210994096808e+17
19044.0	7.618802580368042e+17
19045.0	7.61738757738769e+17
19046.0	7.615971808247808e+17
19047.0	7.614549540732927e+17
19048.0	7.61308671849267e+17
19049.0	7.611613402103807e+17
19050.0	7.610191247835135e+17
19051.0	7.607269084626944e+17
19052.0	7.606649725736275e+17
19053.0	7.606058531596969e+17
19054.0	7.6047461646336e+17
19055.0	7.603204787273728e+17
19056.0	7.601951053884072e+17
19057.0	7.600554823210323e+17
19058.0	7.599106383238483e+17
19059.0	7.59772860190993e+17
19060.0	7.596318637686783e+17
19061.0	7.594907233419264e+17
19062.0	7.593494493964969e+17
19063.0	7.592079770604884e+17
19064.0	7.590625773180246e+17
19065.0	7.589159914263891e+17
19066.0	7.587795972740438e+17
19067.0	7.58643623390959e+17
19068.0	7.585023813222399e+17
19069.0	7.583610763389612e+17
19070.0	7.582186647584765e+17
19071.0	7.580776353409706e+17
19072.0	7.579358928917844e+17
19073.0	7.577958257874259e+17
19074.0	7.57654468375347e+17
19075.0	7.575128983120553e+17
19076.0	7.573707607594326e+17
19077.0	7.572288098533375e+17
19078.0	7.570873937210025e+17
19079.0	7.569462846117203e+17
19080.0	7.56804004033331e+17
19081.0	7.56660024761822e+17
19082.0	7.565194768504148e+17
19083.0	7.563714541300393e+17
19084.0	7.56221467636531e+17
19085.0	7.560925199116969e+17
19086.0	7.55920876688725e+17
19087.0	7.557930618454015e+17
19088.0	7.556519033831424e+17
19089.0	7.555054377282217e+17
19090.0	7.553778305029462e+17
19091.0	7.552388620266154e+17
19092.0	7.550927475747497e+17
19093.0	7.549591749307049e+17
19094.0	7.548187033556308e+17
19095.0	7.546774484243796e+17
19096.0	7.545354808808786e+17
19097.0	7.543940237841748e+17
19098.0	7.542510097618259e+17
19099.0	7.541088358585684e+17
19100.0	7.539654605668352e+17
19101.0	7.538244768672425e+17
19102.0	7.536804095153492e+17
19103.0	7.535416911593471e+17
19104.0	7.533990839844863e+17
19105.0	7.532524163039232e+17
19106.0	7.531104916821331e+17
19107.0	7.529654504128511e+17
19108.0	7.528135816555177e+17
19109.0	7.526293243428864e+17
19110.0	7.525167265742847e+17
19111.0	7.52394886656819e+17
19112.0	7.522581018749609e+17
19113.0	7.521188547570345e+17
19114.0	7.519763717335721e+17
19115.0	7.518306361671679e+17
19116.0	7.516910786707456e+17
19117.0	7.515481514704897e+17
19118.0	7.5139644405405e+17
19119.0	7.511058899359058e+17
19120.0	7.511083939353939e+17
19121.0	7.509712586495315e+17
19122.0	7.508385521292627e+17
19123.0	7.506970874828115e+17
19124.0	7.505434808855209e+17
19125.0	7.504103478045353e+17
19126.0	7.502611996125866e+17
19127.0	7.500619143883434e+17
19128.0	7.499569415847935e+17
19129.0	7.498318600295763e+17
19130.0	7.496947471133352e+17
19131.0	7.495514365536938e+17
19132.0	7.494062767254186e+17
19133.0	7.492593376733866e+17
19134.0	7.491140215373824e+17
19135.0	7.489781438436692e+17
19136.0	7.488352292263254e+17
19137.0	7.48688000627507e+17
19138.0	7.485488615828138e+17
19139.0	7.484075434573824e+17
19140.0	7.482642028385619e+17
19141.0	7.481206076254889e+17
19142.0	7.479760993124351e+17
19143.0	7.478329458993833e+17
19144.0	7.476889863411028e+17
19145.0	7.47548523574067e+17
19146.0	7.473704722934442e+17
19147.0	7.472600457762131e+17
19148.0	7.471175654091433e+17
19149.0	7.469743508990633e+17
19150.0	7.468325146372776e+17
19151.0	7.4668804421277e+17
19152.0	7.46543178125585e+17
19153.0	7.46397512184627e+17
19154.0	7.462531201936042e+17
19155.0	7.461112526143488e+17
19156.0	7.459654553916756e+17
19157.0	7.458126156529664e+17
19158.0	7.456549098225663e+17
19159.0	7.455275388764156e+17
19160.0	7.453856143944361e+17
19161.0	7.452279245023914e+17
19162.0	7.450175604435625e+17
19163.0	7.449223989559293e+17
19164.0	7.44811929936418e+17
19165.0	7.446725915224745e+17
19166.0	7.445285092108969e+17
19167.0	7.443842932408319e+17
19168.0	7.442464505156948e+17
19169.0	7.441094080637609e+17
19170.0	7.439687216005119e+17
19171.0	7.438238978757972e+17
19172.0	7.436806751169194e+17
19173.0	7.435385978224639e+17
19174.0	7.43394102092322e+17
19175.0	7.432519456653311e+17
19176.0	7.431080544742057e+17
19177.0	7.429546006893906e+17
19178.0	7.428165462917119e+17
19179.0	7.426714277074262e+17
19180.0	7.425297614547624e+17
19181.0	7.423827611658921e+17
19182.0	7.422408463308118e+17
19183.0	7.4209832206336e+17
19184.0	7.419535153954816e+17
19185.0	7.418076038081194e+17
19186.0	7.416619166160211e+17
19187.0	7.415111887093757e+17
19188.0	7.413703372701693e+17
19189.0	7.412239531245568e+17
19190.0	7.41076754305297e+17
19191.0	7.409280399441919e+17
19192.0	7.407825380005204e+17
19193.0	7.406300367421439e+17
19194.0	7.40476377296623e+17
19195.0	7.403192621640362e+17
19196.0	7.401498715619325e+17
19197.0	7.399532216188927e+17
19198.0	7.396732753149951e+17
19199.0	7.39052972286498e+17
19200.0	7.389668098179072e+17
19201.0	7.392534664489642e+17
19202.0	7.392319712002045e+17
19203.0	7.391308501658281e+17
19204.0	7.390108790904148e+17
19205.0	7.388782884727464e+17
19206.0	7.387448664042153e+17
19207.0	7.385941747083945e+17
19208.0	7.384450065235965e+17
19209.0	7.383059661848575e+17
19210.0	7.381621242068991e+17
19211.0	7.380167917131091e+17
19212.0	7.378699642295636e+17
19213.0	7.377155060487508e+17
19214.0	7.375687993611603e+17
19215.0	7.374286048897705e+17
19216.0	7.372845919240191e+17
19217.0	7.371353111920639e+17
19218.0	7.369657364600147e+17
19219.0	7.368309882923689e+17
19220.0	7.366958018199551e+17
19221.0	7.365425205608445e+17
19222.0	7.364011314118655e+17
19223.0	7.362561551542953e+17
19224.0	7.361060942817961e+17
19225.0	7.359577551710889e+17
19226.0	7.358122578411517e+17
19227.0	7.356645182362964e+17
19228.0	7.35518397632785e+17
19229.0	7.353720496979968e+17
19230.0	7.352257114101076e+17
19231.0	7.350819924650666e+17
19232.0	7.349336335013204e+17
19233.0	7.347819846653267e+17
19234.0	7.3463707481757e+17
19235.0	7.344876498015572e+17
19236.0	7.343394145697791e+17
19237.0	7.341894642870956e+17
19238.0	7.340352759398399e+17
19239.0	7.338935478910973e+17
19240.0	7.33745094275891e+17
19241.0	7.335941513412607e+17
19242.0	7.334350862767444e+17
19243.0	7.332731846044329e+17
19244.0	7.331243398004735e+17
19245.0	7.329734488752127e+17
19246.0	7.328225315258368e+17
19247.0	7.326727810318336e+17
19248.0	7.325231538503679e+17
19249.0	7.323745131692032e+17
19250.0	7.322305989094057e+17
19251.0	7.320744810425e+17
19252.0	7.319109220608681e+17
19253.0	7.317769737469952e+17
19254.0	7.316261451770536e+17
19255.0	7.314618608604499e+17
19256.0	7.313193582635689e+17
19257.0	7.311682186160808e+17
19258.0	7.310114799921833e+17
19259.0	7.308515795621203e+17
19260.0	7.306791029309439e+17
19261.0	7.305479108340393e+17
19262.0	7.303908421184169e+17
19263.0	7.302316268978173e+17
19264.0	7.30065648362018e+17
19265.0	7.2991336576669e+17
19266.0	7.297585871410516e+17
19267.0	7.296000369972564e+17
19268.0	7.294402295409322e+17
19269.0	7.292845352987305e+17
19270.0	7.291251471329961e+17
19271.0	7.289581502201855e+17
19272.0	7.288091482696362e+17
19273.0	7.286313104790868e+17
19274.0	7.284646275798356e+17
19275.0	7.2833505979706e+17
19276.0	7.281751034429437e+17
19277.0	7.280125192175616e+17
19278.0	7.27850159387443e+17
19279.0	7.276873000157183e+17
19280.0	7.275253640899241e+17
19281.0	7.27363492057361e+17
19282.0	7.272025641626281e+17
19283.0	7.270188265242623e+17
19284.0	7.268464884449279e+17
19285.0	7.266731085004799e+17
19286.0	7.265043873092948e+17
19287.0	7.263266761867263e+17
19288.0	7.257054929136294e+17
19289.0	7.252483404813647e+17
19290.0	7.25824437363234e+17
19291.0	7.256713943405908e+17
19292.0	7.255269844538708e+17
19293.0	7.253587679772671e+17
19294.0	7.251919117134505e+17
19295.0	7.250255917613055e+17
19296.0	7.248636126341802e+17
19297.0	7.246884986246483e+17
19298.0	7.245014235785897e+17
19299.0	7.243283018634582e+17
19300.0	7.241520792993791e+17
19301.0	7.239833985133225e+17
19302.0	7.238116480559785e+17
19303.0	7.23636783747345e+17
19304.0	7.234671810532691e+17
19305.0	7.232954712806739e+17
19306.0	7.231122338829651e+17
19307.0	7.229248917995519e+17
19308.0	7.227470173787476e+17
19309.0	7.225453847423657e+17
19310.0	7.22336522104559e+17
19311.0	7.221802258399232e+17
19312.0	7.220106835438249e+17
19313.0	7.218325858462378e+17
19314.0	7.206429352700585e+17
19315.0	7.205360509823667e+17
19316.0	7.212902964527101e+17
19317.0	7.211264332442281e+17
19318.0	7.209506808616276e+17
19319.0	7.207691466309632e+17
19320.0	7.205806579646463e+17
19321.0	7.203733553283071e+17
19322.0	7.201809047224319e+17
19323.0	7.199890566982314e+17
19324.0	7.197988914287956e+17
19325.0	7.196035726180351e+17
19326.0	7.194191092252671e+17
19327.0	7.192169819406335e+17
19328.0	7.190093137007956e+17
19329.0	7.188158054312617e+17
19330.0	7.186229934161919e+17
19331.0	7.184197985413802e+17
19332.0	7.182197763779241e+17
19333.0	7.180180194503338e+17
19334.0	7.178082646840659e+17
19335.0	7.17593409364514e+17
19336.0	7.173862531093844e+17
19337.0	7.171720154710012e+17
19338.0	7.169460628619263e+17
19339.0	7.167524156211199e+17
19340.0	7.165338363188564e+17
19341.0	7.163170078588927e+17
19342.0	7.160521781062313e+17
19343.0	7.158295055826943e+17
19344.0	7.156031068394836e+17
19345.0	7.153164657273513e+17
19346.0	7.15110704357922e+17
19347.0	7.149319154390356e+17
19348.0	7.147240809649492e+17
19349.0	7.145215468328275e+17
19350.0	7.142941663428608e+17
19351.0	7.14070185755716e+17
19352.0	7.138324597353129e+17
19353.0	7.135996351785641e+17
19354.0	7.133470307035816e+17
19355.0	7.130397102746284e+17
19356.0	7.127809443670697e+17
19357.0	7.125228508064425e+17
19358.0	7.122635494260735e+17
19359.0	7.120197687880361e+17
19360.0	7.117612942447956e+17
19361.0	7.114994121091753e+17
19362.0	7.112413890128553e+17
19363.0	7.109593065499305e+17
19364.0	7.106928267580756e+17
19365.0	7.1039252969117e+17
19366.0	7.100484801615187e+17
19367.0	7.097440435961853e+17
19368.0	7.094511005422931e+17
19369.0	7.091452130273961e+17
19370.0	7.088667624123049e+17
19371.0	7.085602253395284e+17
19372.0	7.082521980305407e+17
19373.0	7.079303289591126e+17
19374.0	7.076288337193641e+17
19375.0	7.073179595964415e+17
19376.0	7.069887207134547e+17
19377.0	7.065844042082985e+17
19378.0	7.061963540529151e+17
19379.0	7.058329013933398e+17
19380.0	7.054800692707327e+17
19381.0	7.051224216677033e+17
19382.0	7.047522023374847e+17
19383.0	7.043737869178195e+17
19384.0	7.039607944948394e+17
19385.0	7.035804188671999e+17
19386.0	7.031810268244649e+17
19387.0	7.027792727594323e+17
19388.0	7.023569868073642e+17
19389.0	7.018729170796541e+17
19390.0	7.013533710898516e+17
19391.0	6.999667458615969e+17
19392.0	7.002852695561555e+17
19393.0	6.999731718848511e+17
19394.0	6.995102753532585e+17
19395.0	6.990328110951081e+17
19396.0	6.985352498293417e+17
19397.0	6.980252585339562e+17
19398.0	6.974817081229311e+17
19399.0	6.969278787310931e+17
19400.0	6.963805270223529e+17
19401.0	6.958090654755497e+17
19402.0	6.951829498407594e+17
19403.0	6.945352320024575e+17
19404.0	6.938974335533055e+17
19405.0	6.932670011408383e+17
19406.0	6.926074469067433e+17
19407.0	6.919181863048531e+17
19408.0	6.912004589617151e+17
19409.0	6.904932461794644e+17
19410.0	6.897280721005225e+17
19411.0	6.889361729650687e+17
19412.0	6.880728530113876e+17
19413.0	6.871885569938772e+17
19414.0	6.86345879167522e+17
19415.0	6.8545883944605e+17
19416.0	6.845285893057193e+17
19417.0	6.835614427119615e+17
19418.0	6.825520485018281e+17
19419.0	6.81479147565875e+17
19420.0	6.803584070276436e+17
19421.0	6.791999242545834e+17
19422.0	6.780177269566121e+17
19423.0	6.767892513860265e+17
19424.0	6.755114186440704e+17
19425.0	6.741522291272361e+17
19426.0	6.727007078798676e+17
19427.0	6.711871448372564e+17
19428.0	6.696193351832916e+17
19429.0	6.679184545240403e+17
19430.0	6.660778516021248e+17
19431.0	6.641337781365417e+17
19432.0	6.623120757970259e+17
19433.0	6.602467182990678e+17
19434.0	6.580112606625791e+17
19435.0	6.555887876090536e+17
19436.0	6.53022055174417e+17
19437.0	6.503450443513855e+17
19438.0	6.462280362710358e+17
19439.0	6.440724962039124e+17
19440.0	6.40911171195153e+17
19441.0	6.371814638878717e+17
19442.0	6.330916044887382e+17
19443.0	6.285703644184575e+17
19444.0	6.234964356672166e+17
19445.0	6.177769972389207e+17
19446.0	6.112212846379007e+17
19447.0	6.035980925184678e+17
19448.0	5.945317803425795e+17
19449.0	5.834112128516095e+17
19450.0	5.6863022466989984e+17
19451.0	5.594881116340224e+17
19452.0	5.76687496634914e+17
19453.0	5.890298929130158e+17
19454.0	5.987643991698085e+17
19455.0	6.06806341582848e+17
19456.0	6.136158877996375e+17
19457.0	6.194743969753766e+17
19458.0	6.228941046022166e+17
19459.0	6.29027470084233e+17
19460.0	6.332127961066152e+17
19461.0	6.368920880895316e+17
19462.0	6.402221220560896e+17
19463.0	6.432189593245011e+17
19464.0	6.460320898525866e+17
19465.0	6.485870691483649e+17
19466.0	6.509296968444585e+17
19467.0	6.531484859673258e+17
19468.0	6.551901898975914e+17
19469.0	6.570951791607805e+17
19470.0	6.58842482376704e+17
19471.0	6.604984871288832e+17
19472.0	6.620690360128852e+17
19473.0	6.635543770518868e+17
19474.0	6.64919163937314e+17
19475.0	6.661672947853993e+17
19476.0	6.674214875911508e+17
19477.0	6.685697658322943e+17
19478.0	6.696295218195114e+17
19479.0	6.706200494211071e+17
19480.0	6.715614061483348e+17
19481.0	6.724700660389203e+17
19482.0	6.733557093367805e+17
19483.0	6.741893719960236e+17
19484.0	6.749745225662461e+17
19485.0	6.757016873730047e+17
19486.0	6.763853813645312e+17
19487.0	6.770284712077994e+17
19488.0	6.776292898766847e+17
19489.0	6.782031288948052e+17
19490.0	6.788016722935807e+17
19491.0	6.793955453348521e+17
19492.0	6.799176188122452e+17
19493.0	6.804072378837674e+17
19494.0	6.80842738340113e+17
19495.0	6.812717665659561e+17
19496.0	6.816650113668436e+17
19497.0	6.820201907617791e+17
19498.0	6.820309909547689e+17
19499.0	6.813484687818748e+17
19500.0	6.831292770768212e+17
19501.0	6.835110482193065e+17
19502.0	6.838238343157076e+17
19503.0	6.841127425889619e+17
19504.0	6.843804721435987e+17
19505.0	6.846449487358633e+17
19506.0	6.848870475279017e+17
19507.0	6.851158755420842e+17
19508.0	6.853212885046612e+17
19509.0	6.855188625227775e+17
19510.0	6.85664822694161e+17
19511.0	6.840834736870733e+17
19512.0	6.857268869289299e+17
19513.0	6.858764753130833e+17
19514.0	6.861400327935314e+17
19515.0	6.866492554827092e+17
19516.0	6.868333963334998e+17
19517.0	6.869300493156351e+17
19518.0	6.870817127617876e+17
19519.0	6.872157930564266e+17
19520.0	6.873261502278313e+17
19521.0	6.874228227134804e+17
19522.0	6.875134965055487e+17
19523.0	6.875977668537002e+17
19524.0	6.877129664888832e+17
19525.0	6.878520510076244e+17
19526.0	6.879485718691839e+17
19527.0	6.880084740101462e+17
19528.0	6.880331593067178e+17
19529.0	6.88085347143953e+17
19530.0	6.881369043675817e+17
19531.0	6.881809588202153e+17
19532.0	6.881977250611197e+17
19533.0	6.882331017783978e+17
19534.0	6.882687947461971e+17
19535.0	6.882943356108799e+17
19536.0	6.883547442839551e+17
19537.0	6.884179111313407e+17
19538.0	6.884218453185876e+17
19539.0	6.884187611070463e+17
19540.0	6.884357176994474e+17
19541.0	6.884396570596692e+17
19542.0	6.884364833696426e+17
19543.0	6.884111597699072e+17
19544.0	6.884037048139775e+17
19545.0	6.883736608746153e+17
19546.0	6.88356509806319e+17
19547.0	6.884001941815293e+17
19548.0	6.884242755682303e+17
19549.0	6.883946386161661e+17
19550.0	6.883712380349098e+17
19551.0	6.883374584386899e+17
19552.0	6.883010146205695e+17
19553.0	6.882423123301716e+17
19554.0	6.881948536406015e+17
19555.0	6.881424435751593e+17
19556.0	6.881069652159145e+17
19557.0	6.88066355405346e+17
19558.0	6.880249612599295e+17
19559.0	6.879792263593983e+17
19560.0	6.879571424400724e+17
19561.0	6.879294857587369e+17
19562.0	6.878815037598378e+17
19563.0	6.878294103643476e+17
19564.0	6.877661328572415e+17
19565.0	6.8771704223389e+17
19566.0	6.876688302473215e+17
19567.0	6.87615271781444e+17
19568.0	6.875580118422868e+17
19569.0	6.875029413997225e+17
19570.0	6.874437315985407e+17
19571.0	6.873773751227731e+17
19572.0	6.873082116789588e+17
19573.0	6.872431498450259e+17
19574.0	6.87171736646451e+17
19575.0	6.871100334014463e+17
19576.0	6.870408672313343e+17
19577.0	6.869731601197738e+17
19578.0	6.86901507985681e+17
19579.0	6.868267640203946e+17
19580.0	6.867514355788458e+17
19581.0	6.866886570541055e+17
19582.0	6.866152170280276e+17
19583.0	6.865373200646143e+17
19584.0	6.864633000361983e+17
19585.0	6.863681155497983e+17
19586.0	6.862777761835689e+17
19587.0	6.861995266889044e+17
19588.0	6.861031158579199e+17
19589.0	6.860212374514346e+17
19590.0	6.859316494947668e+17
19591.0	6.858491144699903e+17
19592.0	6.857756944367615e+17
19593.0	6.856984738747731e+17
19594.0	6.855954610694825e+17
19595.0	6.855202913823402e+17
19596.0	6.854058599339348e+17
19597.0	6.853547572330493e+17
19598.0	6.852491300481706e+17
19599.0	6.851653738517844e+17
19600.0	6.850713137184765e+17
19601.0	6.849797301119657e+17
19602.0	6.848818088422057e+17
19603.0	6.847767666928297e+17
19604.0	6.84706983330884e+17
19605.0	6.8462125252608e+17
19606.0	6.845330114303318e+17
19607.0	6.844207417262077e+17
19608.0	6.843263549265236e+17
19609.0	6.842300431510185e+17
19610.0	6.841336086921215e+17
19611.0	6.840364802157225e+17
19612.0	6.83939968721442e+17
19613.0	6.838628911852202e+17
19614.0	6.83764522942464e+17
19615.0	6.836660477449555e+17
19616.0	6.835550409457663e+17
19617.0	6.834709067726847e+17
19618.0	6.833461807546367e+17
19619.0	6.832504097647274e+17
19620.0	6.831578654528852e+17
19621.0	6.830769095835647e+17
19622.0	6.829773431679657e+17
19623.0	6.828738943647743e+17
19624.0	6.827726966445395e+17
19625.0	6.826685495596371e+17
19626.0	6.825600134152191e+17
19627.0	6.824440325909162e+17
19628.0	6.823112038765908e+17
19629.0	6.82155071050001e+17
19630.0	6.817917849042943e+17
19631.0	6.813359866030762e+17
19632.0	6.817969947891028e+17
19633.0	6.817798707740671e+17
19634.0	6.817157706241363e+17
19635.0	6.816329968735572e+17
19636.0	6.815422237463892e+17
19637.0	6.814133589988692e+17
19638.0	6.813313107929769e+17
19639.0	6.812231257817087e+17
19640.0	6.811052560525993e+17
19641.0	6.809762370245972e+17
19642.0	6.808963997761533e+17
19643.0	6.807881469569705e+17
19644.0	6.806711948017661e+17
19645.0	6.805459171628372e+17
19646.0	6.804417664428714e+17
19647.0	6.803328435836244e+17
19648.0	6.802175489474559e+17
19649.0	6.801012292233897e+17
19650.0	6.799905605550079e+17
19651.0	6.798796244997462e+17
19652.0	6.797678884509012e+17
19653.0	6.796554717364223e+17
19654.0	6.795433180048041e+17
19655.0	6.794359248781311e+17
19656.0	6.793228340690943e+17
19657.0	6.792104957181951e+17
19658.0	6.791031248213332e+17
19659.0	6.789982942046889e+17
19660.0	6.788874562961405e+17
19661.0	6.787739994641748e+17
19662.0	6.78658926846498e+17
19663.0	6.785411050722644e+17
19664.0	6.784274925617151e+17
19665.0	6.783142821451091e+17
19666.0	6.781951875394217e+17
