# Flux units: erg / (cm m2 s)
# Wavelength units: Angstrom
wave	flux
19000.0	3.900467253870591e+17
19001.0	3.899747150594047e+17
19002.0	3.8990338316042234e+17
19003.0	3.8983172158914554e+17
19004.0	3.897600744183125e+17
19005.0	3.896884545104554e+17
19006.0	3.896168369094655e+17
19007.0	3.895452308428116e+17
19008.0	3.894734274341547e+17
19009.0	3.8940199878655994e+17
19010.0	3.893285957402623e+17
19011.0	3.892588334197418e+17
19012.0	3.891868902708565e+17
19013.0	3.891158704979968e+17
19014.0	3.89044212072448e+17
19015.0	3.889728279543808e+17
19016.0	3.889011428950016e+17
19017.0	3.8882981120573434e+17
19018.0	3.8875841282703354e+17
19019.0	3.886869764898815e+17
19020.0	3.886154763993087e+17
19021.0	3.885440675348479e+17
19022.0	3.8847270816317434e+17
19023.0	3.88401310203904e+17
19024.0	3.8832989148282874e+17
19025.0	3.88258561261568e+17
19026.0	3.881870930477055e+17
19027.0	3.881156103634944e+17
19028.0	3.8804454899711994e+17
19029.0	3.8797320912895994e+17
19030.0	3.8790192399646714e+17
19031.0	3.8783063949311994e+17
19032.0	3.8775934534287354e+17
19033.0	3.876877976469504e+17
19034.0	3.8761685623767034e+17
19035.0	3.8754550567403514e+17
19036.0	3.874549976268799e+17
19037.0	3.874032009084928e+17
19038.0	3.873320128741374e+17
19039.0	3.872608355352574e+17
19040.0	3.871896756027391e+17
19041.0	3.871185267851264e+17
19042.0	3.87047116242944e+17
19043.0	3.869762717220864e+17
19044.0	3.8690516030368416e+17
19045.0	3.868340763579732e+17
19046.0	3.8676281646120954e+17
19047.0	3.866919306264576e+17
19048.0	3.8662010862305274e+17
19049.0	3.8654964599357434e+17
19050.0	3.8647867836989434e+17
19051.0	3.8640482863022074e+17
19052.0	3.8633670984772256e+17
19053.0	3.862658476408831e+17
19054.0	3.8619488099587405e+17
19055.0	3.8612307625902074e+17
19056.0	3.860529187651583e+17
19057.0	3.8598207613173754e+17
19058.0	3.8591116911575034e+17
19059.0	3.858402769895423e+17
19060.0	3.857693118824447e+17
19061.0	3.8569853530931194e+17
19062.0	3.856276666712063e+17
19063.0	3.8555684270243834e+17
19064.0	3.854856320188416e+17
19065.0	3.854146444722176e+17
19066.0	3.8534423259381754e+17
19067.0	3.852736514752512e+17
19068.0	3.852028851781632e+17
19069.0	3.851321409011711e+17
19070.0	3.85061374464273e+17
19071.0	3.8499069030563834e+17
19072.0	3.8491998538519885e+17
19073.0	3.848492766898857e+17
19074.0	3.847786197942272e+17
19075.0	3.8470795723625805e+17
19076.0	3.846372307850581e+17
19077.0	3.845666370136746e+17
19078.0	3.8449594866073594e+17
19079.0	3.844254552730283e+17
19080.0	3.843548652066132e+17
19081.0	3.842841394544638e+17
19082.0	3.842135554697898e+17
19083.0	3.8414294324346874e+17
19084.0	3.84071927734818e+17
19085.0	3.8400214828755616e+17
19086.0	3.83930448478208e+17
19087.0	3.8386067385439565e+17
19088.0	3.83790487629551e+17
19089.0	3.837194226980181e+17
19090.0	3.836497855075669e+17
19091.0	3.8357929862103034e+17
19092.0	3.8350867583904416e+17
19093.0	3.8343855490553165e+17
19094.0	3.8336808102133754e+17
19095.0	3.8329768571043834e+17
19096.0	3.8322737470504954e+17
19097.0	3.8315710753013754e+17
19098.0	3.83086785270033e+17
19099.0	3.8301647538312525e+17
19100.0	3.8294614648203936e+17
19101.0	3.8287590034855245e+17
19102.0	3.8280524862586874e+17
19103.0	3.827353845934763e+17
19104.0	3.8266514817679354e+17
19105.0	3.8259492497216845e+17
19106.0	3.82524627947793e+17
19107.0	3.8245447751434234e+17
19108.0	3.823843497301333e+17
19109.0	3.823127527511381e+17
19110.0	3.8224403704927565e+17
19111.0	3.8217390409209165e+17
19112.0	3.821037859547818e+17
19113.0	3.820336828470612e+17
19114.0	3.8196359316111354e+17
19115.0	3.818934065867433e+17
19116.0	3.8182345433415674e+17
19117.0	3.8175337499415885e+17
19118.0	3.816830557399722e+17
19119.0	3.815835640528895e+17
19120.0	3.813937056666964e+17
19121.0	3.813238259755691e+17
19122.0	3.8125401276416e+17
19123.0	3.811840919688532e+17
19124.0	3.81114202001681e+17
19125.0	3.8104431636862285e+17
19126.0	3.8097442779955206e+17
19127.0	3.8089848880715085e+17
19128.0	3.808342926775637e+17
19129.0	3.807646577939797e+17
19130.0	3.806951400712874e+17
19131.0	3.806253413302272e+17
19132.0	3.805555583178068e+17
19133.0	3.8048491819936416e+17
19134.0	3.804158620598272e+17
19135.0	3.8034632273646925e+17
19136.0	3.802766108175018e+17
19137.0	3.802063337859754e+17
19138.0	3.801371279796906e+17
19139.0	3.8006754181993805e+17
19140.0	3.7999788100157434e+17
19141.0	3.799282365409963e+17
19142.0	3.7985851658294605e+17
19143.0	3.797887723678378e+17
19144.0	3.797193777479679e+17
19145.0	3.7964979620194995e+17
19146.0	3.795782271849813e+17
19147.0	3.7951035146239994e+17
19148.0	3.794411080471893e+17
19149.0	3.793715807475029e+17
19150.0	3.7930204170376525e+17
19151.0	3.7923257053784736e+17
19152.0	3.7916306001537696e+17
19153.0	3.790935291505322e+17
19154.0	3.790237155895978e+17
19155.0	3.789547093622783e+17
19156.0	3.788852646204757e+17
19157.0	3.788158479805098e+17
19158.0	3.787454967797076e+17
19159.0	3.7867699673497594e+17
19160.0	3.786076637014698e+17
19161.0	3.785383405944832e+17
19162.0	3.784667550799189e+17
19163.0	3.783996615251285e+17
19164.0	3.783303503020032e+17
19165.0	3.782610032175786e+17
19166.0	3.781912947239593e+17
19167.0	3.781222792691711e+17
19168.0	3.7805302599734605e+17
19169.0	3.779838402538154e+17
19170.0	3.779147465752576e+17
19171.0	3.778453949470037e+17
19172.0	3.777763369899348e+17
19173.0	3.777071377547264e+17
19174.0	3.776377680210602e+17
19175.0	3.7756880828061e+17
19176.0	3.7749966210334714e+17
19177.0	3.77430017642769e+17
19178.0	3.7736139086015136e+17
19179.0	3.7729209187041274e+17
19180.0	3.7722311311578445e+17
19181.0	3.7715365697945594e+17
19182.0	3.7708497685927245e+17
19183.0	3.7701601068755616e+17
19184.0	3.7694680872605e+17
19185.0	3.768779324522495e+17
19186.0	3.7680894167394976e+17
19187.0	3.76739772567825e+17
19188.0	3.766709643116544e+17
19189.0	3.7660201323943245e+17
19190.0	3.765330529397418e+17
19191.0	3.7646408956422816e+17
19192.0	3.763951901518506e+17
19193.0	3.7632624614004045e+17
19194.0	3.7625736832832845e+17
19195.0	3.761884888388948e+17
19196.0	3.7611958145733965e+17
19197.0	3.760507286716416e+17
19198.0	3.759819092306602e+17
19199.0	3.758998365579946e+17
19200.0	3.7583622721153696e+17
19201.0	3.757754519562922e+17
19202.0	3.757066597782869e+17
19203.0	3.756378841677823e+17
19204.0	3.7556902110603936e+17
19205.0	3.755003631457621e+17
19206.0	3.7543158054475085e+17
19207.0	3.753627358680404e+17
19208.0	3.75293313425954e+17
19209.0	3.7522547859783674e+17
19210.0	3.751567868734122e+17
19211.0	3.750881091999061e+17
19212.0	3.7501945061048314e+17
19213.0	3.749504352955051e+17
19214.0	3.7488172609481376e+17
19215.0	3.7481349273791136e+17
19216.0	3.747448917502634e+17
19217.0	3.746763216606548e+17
19218.0	3.7460493530562566e+17
19219.0	3.7453867082492576e+17
19220.0	3.744705958729045e+17
19221.0	3.744009178578944e+17
19222.0	3.7433350728362656e+17
19223.0	3.7426496152098125e+17
19224.0	3.7419631488532486e+17
19225.0	3.7412745245272736e+17
19226.0	3.740594636936532e+17
19227.0	3.7399098965360634e+17
19228.0	3.7392252756732576e+17
19229.0	3.7385407191231136e+17
19230.0	3.737856084978346e+17
19231.0	3.737171952052906e+17
19232.0	3.7364871620198394e+17
19233.0	3.735801278671531e+17
19234.0	3.735118765446485e+17
19235.0	3.734435806926165e+17
19236.0	3.7337520333127674e+17
19237.0	3.7330678130059936e+17
19238.0	3.732381594113366e+17
19239.0	3.73170150309888e+17
19240.0	3.73101418320145e+17
19241.0	3.7303339894265165e+17
19242.0	3.7296518725631994e+17
19243.0	3.728963583781546e+17
19244.0	3.7282859149776205e+17
19245.0	3.727603199027882e+17
19246.0	3.726920021704704e+17
19247.0	3.7262378992489805e+17
19248.0	3.72555547480337e+17
19249.0	3.7248730608435194e+17
19250.0	3.724190598649172e+17
19251.0	3.7235061993854285e+17
19252.0	3.722815888250197e+17
19253.0	3.7221440809861114e+17
19254.0	3.7214620277364045e+17
19255.0	3.7207739745348256e+17
19256.0	3.7200986859984205e+17
19257.0	3.7194174925810336e+17
19258.0	3.718736026533887e+17
19259.0	3.718054410190848e+17
19260.0	3.717372191965183e+17
19261.0	3.7166942645125114e+17
19262.0	3.7160120392963405e+17
19263.0	3.7153300461649914e+17
19264.0	3.714632796252842e+17
19265.0	3.713962484258133e+17
19266.0	3.713280458271402e+17
19267.0	3.7126080435322874e+17
19268.0	3.7119272485737805e+17
19269.0	3.711246518626987e+17
19270.0	3.7105658369146874e+17
19271.0	3.709873476162901e+17
19272.0	3.709203536063146e+17
19273.0	3.708407720706048e+17
19274.0	3.7077848155313485e+17
19275.0	3.707163476230142e+17
19276.0	3.7064831608203936e+17
19277.0	3.7058029125195085e+17
19278.0	3.705122669111978e+17
19279.0	3.7044423858585594e+17
19280.0	3.703759593712298e+17
19281.0	3.70308220522769e+17
19282.0	3.7024021911087776e+17
19283.0	3.701720116188501e+17
19284.0	3.7010399664537594e+17
19285.0	3.7003562305890976e+17
19286.0	3.6996811021352954e+17
19287.0	3.6990022120898554e+17
19288.0	3.6982831510978554e+17
19289.0	3.697501608957268e+17
19290.0	3.696962434673322e+17
19291.0	3.6962740438302714e+17
19292.0	3.695602602169685e+17
19293.0	3.694922389520383e+17
19294.0	3.694242717936298e+17
19295.0	3.693562757644287e+17
19296.0	3.692882772885503e+17
19297.0	3.6922027252121594e+17
19298.0	3.6915227271714125e+17
19299.0	3.6908426536331936e+17
19300.0	3.690162351505408e+17
19301.0	3.689482066154837e+17
19302.0	3.6888018842637645e+17
19303.0	3.688118684570963e+17
19304.0	3.6874398721201485e+17
19305.0	3.686760921956351e+17
19306.0	3.6860805499234976e+17
19307.0	3.685399142596608e+17
19308.0	3.684719229140991e+17
19309.0	3.684033829535744e+17
19310.0	3.683350543160661e+17
19311.0	3.6826750113546234e+17
19312.0	3.681995377519274e+17
19313.0	3.6813131390211405e+17
19314.0	3.6804085562736634e+17
19315.0	3.679753819826859e+17
19316.0	3.6792691358433274e+17
19317.0	3.678587567035733e+17
19318.0	3.677905427802795e+17
19319.0	3.6772231620416845e+17
19320.0	3.6752894396989434e+17
19321.0	3.6743230287162016e+17
19322.0	3.6736368098235725e+17
19323.0	3.672954686668799e+17
19324.0	3.6722734631922336e+17
19325.0	3.67158543655458e+17
19326.0	3.670905662210047e+17
19327.0	3.670220716288682e+17
19328.0	3.6695366616569165e+17
19329.0	3.6688516087807994e+17
19330.0	3.6681646181362336e+17
19331.0	3.6674787291955194e+17
19332.0	3.6667940055722656e+17
19333.0	3.6661073357919565e+17
19334.0	3.665419893560661e+17
19335.0	3.6647326009262074e+17
19336.0	3.6640443960306336e+17
19337.0	3.663355624904021e+17
19338.0	3.6626595151435085e+17
19339.0	3.661976921527637e+17
19340.0	3.661281849158314e+17
19341.0	3.660594974556159e+17
19342.0	3.6598911256057165e+17
19343.0	3.6592114484292256e+17
19344.0	3.6585183452856314e+17
19345.0	3.6577426290333e+17
19346.0	3.6571129570481485e+17
19347.0	3.6564317272801274e+17
19348.0	3.655737694399146e+17
19349.0	3.655040252947114e+17
19350.0	3.6543409527193594e+17
19351.0	3.6536414259991885e+17
19352.0	3.65293952110865e+17
19353.0	3.6522403082622285e+17
19354.0	3.651537492508672e+17
19355.0	3.650830548860927e+17
19356.0	3.650127869422251e+17
19357.0	3.649421092148565e+17
19358.0	3.6487121422254074e+17
19359.0	3.6479972280019616e+17
19360.0	3.647290761106772e+17
19361.0	3.6465769101393914e+17
19362.0	3.6458636177134925e+17
19363.0	3.643968005515946e+17
19364.0	3.6427544458690554e+17
19365.0	3.64203259077154e+17
19366.0	3.6413079317818016e+17
19367.0	3.640580994585942e+17
19368.0	3.6398515030589434e+17
19369.0	3.639117060156074e+17
19370.0	3.638371354148863e+17
19371.0	3.6376444651874976e+17
19372.0	3.6369052617495885e+17
19373.0	3.636160840597504e+17
19374.0	3.63541294027025e+17
19375.0	3.6346612315149645e+17
19376.0	3.633905848549376e+17
19377.0	3.6331460182234445e+17
19378.0	3.632382119422634e+17
19379.0	3.6309094475584845e+17
19380.0	3.629008867906901e+17
19381.0	3.6282263261238605e+17
19382.0	3.627435140579327e+17
19383.0	3.626640034758655e+17
19384.0	3.6258426577223674e+17
19385.0	3.6250348487529805e+17
19386.0	3.624219987760469e+17
19387.0	3.623397151298901e+17
19388.0	3.622241910652927e+17
19389.0	3.6207266526221645e+17
19390.0	3.619873874422442e+17
19391.0	3.6188331466642765e+17
19392.0	3.618136616075264e+17
19393.0	3.617251102730921e+17
19394.0	3.61635256537361e+17
19395.0	3.6154408879609165e+17
19396.0	3.6145148681256954e+17
19397.0	3.6135738340802554e+17
19398.0	3.6126151622874445e+17
19399.0	3.611613654067882e+17
19400.0	3.6106440288501754e+17
19401.0	3.609630568262314e+17
19402.0	3.6085934182454605e+17
19403.0	3.6075323187527674e+17
19404.0	3.605812705143466e+17
19405.0	3.6044179802248525e+17
19406.0	3.603270704562176e+17
19407.0	3.602090978967551e+17
19408.0	3.6008484268933114e+17
19409.0	3.599622071823018e+17
19410.0	3.598328983278933e+17
19411.0	3.596990176821248e+17
19412.0	3.5956028681311565e+17
19413.0	3.594163006909099e+17
19414.0	3.5926655075614714e+17
19415.0	3.5911077395606176e+17
19416.0	3.5894757051159885e+17
19417.0	3.587778549907455e+17
19418.0	3.586001300269738e+17
19419.0	3.5841345239121914e+17
19420.0	3.582173438629205e+17
19421.0	3.580109762068479e+17
19422.0	3.5774665473392634e+17
19423.0	3.5746002753290234e+17
19424.0	3.5721535812184736e+17
19425.0	3.569563187456682e+17
19426.0	3.5668158575192736e+17
19427.0	3.563267353302357e+17
19428.0	3.5594474587422714e+17
19429.0	3.5561144788363936e+17
19430.0	3.551099799732223e+17
19431.0	3.5466786447032314e+17
19432.0	3.5410241252229126e+17
19433.0	3.534034676918955e+17
19434.0	3.525708043954857e+17
19435.0	3.514997525883561e+17
19436.0	3.499898022046386e+17
19437.0	3.478351985857883e+17
19438.0	3.462303819235326e+17
19439.0	3.450641700268715e+17
19440.0	3.4373478051566925e+17
19441.0	3.4220512441794534e+17
19442.0	3.406127293267968e+17
19443.0	3.388723624411135e+17
19444.0	3.3674366424186874e+17
19445.0	3.335352601979565e+17
19446.0	3.2679964785158746e+17
19447.0	3.212989549947559e+17
19448.0	3.155883541397508e+17
19449.0	3.0174444463499834e+17
19450.0	2.6386705535030502e+17
19451.0	2.526263038181369e+17
19452.0	2.8541549141470026e+17
19453.0	3.1038667083830694e+17
19454.0	3.1843389367036544e+17
19455.0	3.233586290360321e+17
19456.0	3.3010883979728115e+17
19457.0	3.3473279267525984e+17
19458.0	3.369930434019329e+17
19459.0	3.388508108139179e+17
19460.0	3.4035978707053216e+17
19461.0	3.41801449291776e+17
19462.0	3.430993485976917e+17
19463.0	3.4423158970777594e+17
19464.0	3.4530528224870406e+17
19465.0	3.472976075816962e+17
19466.0	3.4895674439543456e+17
19467.0	3.50074806136559e+17
19468.0	3.508990995595264e+17
19469.0	3.51500555448047e+17
19470.0	3.5197263778501965e+17
19471.0	3.5237621832963405e+17
19472.0	3.527043827717461e+17
19473.0	3.529872102828714e+17
19474.0	3.5317975959470074e+17
19475.0	3.53472130126097e+17
19476.0	3.5363293016446285e+17
19477.0	3.537687105503231e+17
19478.0	3.538893887154858e+17
19479.0	3.539961531858944e+17
19480.0	3.541719204582742e+17
19481.0	3.542701978943487e+17
19482.0	3.5434021271197e+17
19483.0	3.5440052128098976e+17
19484.0	3.5445166326852256e+17
19485.0	3.5449434562450765e+17
19486.0	3.5452966467010554e+17
19487.0	3.54558043820305e+17
19488.0	3.5457983392863565e+17
19489.0	3.5459564170117114e+17
19490.0	3.546007395281578e+17
19491.0	3.5461145905070074e+17
19492.0	3.5461242996217165e+17
19493.0	3.546090104859306e+17
19494.0	3.5460167968139936e+17
19495.0	3.5459068578146976e+17
19496.0	3.5457495616279885e+17
19497.0	3.54558928818449e+17
19498.0	3.5453835883315194e+17
19499.0	3.5448582643384314e+17
19500.0	3.544936564304554e+17
19501.0	3.545503764927829e+17
19502.0	3.5452037638389754e+17
19503.0	3.54488468635648e+17
19504.0	3.5445475901439994e+17
19505.0	3.5441935852939936e+17
19506.0	3.54382382174481e+17
19507.0	3.543439032101546e+17
19508.0	3.543041659546282e+17
19509.0	3.5426311511299405e+17
19510.0	3.542202040975359e+17
19511.0	3.5413631969525754e+17
19512.0	3.5413005697023994e+17
19513.0	3.5407852910673914e+17
19514.0	3.540362280828927e+17
19515.0	3.5399242563802445e+17
19516.0	3.539591553002154e+17
19517.0	3.539919540584448e+17
19518.0	3.539425489321983e+17
19519.0	3.5389220763729914e+17
19520.0	3.5384120378217805e+17
19521.0	3.5378975644931405e+17
19522.0	3.5373767955141965e+17
19523.0	3.5368511730264736e+17
19524.0	3.5363205963666765e+17
19525.0	3.5357846111518714e+17
19526.0	3.5352459996037114e+17
19527.0	3.534702336715434e+17
19528.0	3.5341553624241485e+17
19529.0	3.535246317671765e+17
19530.0	3.5347661544488954e+17
19531.0	3.5342054480063136e+17
19532.0	3.53364177129745e+17
19533.0	3.533075289997312e+17
19534.0	3.5325061662856525e+17
19535.0	3.531934603586218e+17
19536.0	3.5313591716413434e+17
19537.0	3.5307842555958605e+17
19538.0	3.5302050145239034e+17
19539.0	3.5296034087239674e+17
19540.0	3.529042942754816e+17
19541.0	3.528458867048447e+17
19542.0	3.5278729814999034e+17
19543.0	3.5272853217607674e+17
19544.0	3.526696177238015e+17
19545.0	3.526094087695018e+17
19546.0	3.5254770098066765e+17
19547.0	3.5249198531433805e+17
19548.0	3.5243250449121274e+17
19549.0	3.52372590186769e+17
19550.0	3.52313211285231e+17
19551.0	3.5225339743436794e+17
19552.0	3.52193467191569e+17
19553.0	3.5213337868369914e+17
19554.0	3.520731628787029e+17
19555.0	3.520131070864042e+17
19556.0	3.519528054379861e+17
19557.0	3.5189240753029114e+17
19558.0	3.518319511120554e+17
19559.0	3.517713884381183e+17
19560.0	3.517715981533184e+17
19561.0	3.5180416262471674e+17
19562.0	3.5174329918423034e+17
19563.0	3.5168236590858234e+17
19564.0	3.5162138450329594e+17
19565.0	3.515603458108074e+17
19566.0	3.5149918055519565e+17
19567.0	3.5143810862284794e+17
19568.0	3.5137692872212474e+17
19569.0	3.513156645857962e+17
19570.0	3.5125442477643085e+17
19571.0	3.511931090501632e+17
19572.0	3.5113165596043936e+17
19573.0	3.5107032628811085e+17
19574.0	3.510086195129002e+17
19575.0	3.5094749218078714e+17
19576.0	3.5088600749397325e+17
19577.0	3.5082424947834874e+17
19578.0	3.507627994294954e+17
19579.0	3.507012909749589e+17
19580.0	3.506397176485205e+17
19581.0	3.5057809273214285e+17
19582.0	3.5051651772798285e+17
19583.0	3.5045485485315405e+17
19584.0	3.503931694339413e+17
19585.0	3.503310812566869e+17
19586.0	3.5026926854034765e+17
19587.0	3.5020790042023245e+17
19588.0	3.5014457964189005e+17
19589.0	3.5008442140371616e+17
19590.0	3.5002233850429434e+17
19591.0	3.4996089764795725e+17
19592.0	3.498990789896874e+17
19593.0	3.4983726868507296e+17
19594.0	3.4977458145634976e+17
19595.0	3.497135877477717e+17
19596.0	3.4965001940063565e+17
19597.0	3.495898797921621e+17
19598.0	3.495266232915285e+17
19599.0	3.4946613961031674e+17
19600.0	3.494042573384362e+17
19601.0	3.4934214008067405e+17
19602.0	3.4928033875886074e+17
19603.0	3.492169434966698e+17
19604.0	3.4915654377144314e+17
19605.0	3.49093742317841e+17
19606.0	3.490328394159445e+17
19607.0	3.4897094700782925e+17
19608.0	3.4890901545287674e+17
19609.0	3.48847026016529e+17
19610.0	3.487851970472618e+17
19611.0	3.4872325172101114e+17
19612.0	3.4866135798469965e+17
19613.0	3.4859942772299085e+17
19614.0	3.485373848092671e+17
19615.0	3.484755992160938e+17
19616.0	3.4841352739662496e+17
19617.0	3.483517349527552e+17
19618.0	3.4828803305198925e+17
19619.0	3.4822529877715616e+17
19620.0	3.481636862339754e+17
19621.0	3.4810411380026016e+17
19622.0	3.480422079703722e+17
19623.0	3.4798030616002554e+17
19624.0	3.4791840592254285e+17
19625.0	3.4785650879583565e+17
19626.0	3.4779461932373325e+17
19627.0	3.477327310050645e+17
19628.0	3.47670536851729e+17
19629.0	3.4760867981557754e+17
19630.0	3.475470014567765e+17
19631.0	3.474702141663914e+17
19632.0	3.4742335921192954e+17
19633.0	3.4736147742938445e+17
19634.0	3.472996516058453e+17
19635.0	3.4723768618188794e+17
19636.0	3.471759683267242e+17
19637.0	3.47112989069585e+17
19638.0	3.470522734783146e+17
19639.0	3.4699046202026656e+17
19640.0	3.469284790850901e+17
19641.0	3.4686325709864954e+17
19642.0	3.468050683308714e+17
19643.0	3.4674324841431034e+17
19644.0	3.466812767688021e+17
19645.0	3.466187419331242e+17
19646.0	3.465579407780522e+17
19647.0	3.464961796866048e+17
19648.0	3.464344233137493e+17
19649.0	3.463726694574762e+17
19650.0	3.463109426195114e+17
19651.0	3.462492139989674e+17
19652.0	3.461874925087402e+17
19653.0	3.461257744089088e+17
19654.0	3.4606407864374605e+17
