# Flux units: erg / (cm m2 s)
# Wavelength units: Angstrom
wave	flux
19000.0	8.188420813051219e+17
19001.0	8.186537799843839e+17
19002.0	8.18558899794739e+17
19003.0	8.18414548628275e+17
19004.0	8.182727471792125e+17
19005.0	8.181273152804182e+17
19006.0	8.179833841035944e+17
19007.0	8.178372598650196e+17
19008.0	8.176699545310548e+17
19009.0	8.175064739829076e+17
19010.0	8.172143483988646e+17
19011.0	8.172501841128104e+17
19012.0	8.170681848736425e+17
19013.0	8.169713969747284e+17
19014.0	8.167966601729364e+17
19015.0	8.166647828665684e+17
19016.0	8.165193130792275e+17
19017.0	8.163818711897428e+17
19018.0	8.162409157317974e+17
19019.0	8.160949243128489e+17
19020.0	8.159427778925908e+17
19021.0	8.158069976465407e+17
19022.0	8.156610388033535e+17
19023.0	8.154949759620436e+17
19024.0	8.153600075934377e+17
19025.0	8.153249074206034e+17
19026.0	8.152176432687786e+17
19027.0	8.150673698848767e+17
19028.0	8.149325602007724e+17
19029.0	8.147781783562918e+17
19030.0	8.146434501814953e+17
19031.0	8.144986286937427e+17
19032.0	8.143497455818068e+17
19033.0	8.141565777499475e+17
19034.0	8.140427342730582e+17
19035.0	8.138712135237631e+17
19036.0	8.124649165204134e+17
19037.0	8.135898380806825e+17
19038.0	8.134462737656488e+17
19039.0	8.13308499267857e+17
19040.0	8.131630259852628e+17
19041.0	8.130104404213757e+17
19042.0	8.12820769240951e+17
19043.0	8.127145844233555e+17
19044.0	8.125609746104319e+17
19045.0	8.124164043614888e+17
19046.0	8.122387755870889e+17
19047.0	8.121052552320339e+17
19048.0	8.118783365349373e+17
19049.0	8.117814722996906e+17
19050.0	8.116403840221184e+17
19051.0	8.11283122574677e+17
19052.0	8.113137131716607e+17
19053.0	8.112140600038739e+17
19054.0	8.110631889316522e+17
19055.0	8.107921808293889e+17
19056.0	8.107521302593535e+17
19057.0	8.106111232114688e+17
19058.0	8.104560649655634e+17
19059.0	8.103103693848573e+17
19060.0	8.101527905020588e+17
19061.0	8.100553074671615e+17
19062.0	8.099091129040896e+17
19063.0	8.097590239297533e+17
19064.0	8.095490843344896e+17
19065.0	8.093654700086612e+17
19066.0	8.092731442899625e+17
19067.0	8.09145741606912e+17
19068.0	8.089997296358739e+17
19069.0	8.088487822273192e+17
19070.0	8.086830622004564e+17
19071.0	8.08541572388181e+17
19072.0	8.083920756495698e+17
19073.0	8.082367580558675e+17
19074.0	8.080885699401042e+17
19075.0	8.07935896855074e+17
19076.0	8.077746475368445e+17
19077.0	8.076241512955901e+17
19078.0	8.074586511900672e+17
19079.0	8.073227480509098e+17
19080.0	8.071633956765696e+17
19081.0	8.069956303672659e+17
19082.0	8.068460493231444e+17
19083.0	8.066483151525203e+17
19084.0	8.064339434362196e+17
19085.0	8.063961986149033e+17
19086.0	8.060510680733012e+17
19087.0	8.060676945739773e+17
19088.0	8.058960123439785e+17
19089.0	8.056805246631936e+17
19090.0	8.056151322482004e+17
19091.0	8.054659579117565e+17
19092.0	8.052924001288192e+17
19093.0	8.0517053546496e+17
19094.0	8.050175580132694e+17
19095.0	8.048654891876351e+17
19096.0	8.047051043154604e+17
19097.0	8.045560830711123e+17
19098.0	8.044009108799488e+17
19099.0	8.042459362405033e+17
19100.0	8.040902838015318e+17
19101.0	8.039367855570943e+17
19102.0	8.037442475698857e+17
19103.0	8.036257717638483e+17
19104.0	8.034745346686973e+17
19105.0	8.03316996051217e+17
19106.0	8.031584382178644e+17
19107.0	8.029984100013395e+17
19108.0	8.028478437152084e+17
19109.0	8.025913462270632e+17
19110.0	8.025237975203837e+17
19111.0	8.023854586090834e+17
19112.0	8.022315772848809e+17
19113.0	8.020754987046227e+17
19114.0	8.019176870379519e+17
19115.0	8.017413635309569e+17
19116.0	8.015963988776276e+17
19117.0	8.014392761952938e+17
19118.0	8.012518639271936e+17
19119.0	8.000096034968899e+17
19120.0	8.009605781826218e+17
19121.0	8.008178741193386e+17
19122.0	8.006715029760684e+17
19123.0	8.00513403719953e+17
19124.0	8.003485459021824e+17
19125.0	8.001966828770646e+17
19126.0	8.0002921033018e+17
19127.0	7.991485741225297e+17
19128.0	7.996734795240786e+17
19129.0	7.995271301911892e+17
19130.0	7.994074981553491e+17
19131.0	7.992578560141992e+17
19132.0	7.990988110823421e+17
19133.0	7.988865806980438e+17
19134.0	7.987665921463636e+17
19135.0	7.986277942383956e+17
19136.0	7.984718384114345e+17
19137.0	7.982479099734696e+17
19138.0	7.981493455071913e+17
19139.0	7.979992001893718e+17
19140.0	7.978428145860608e+17
19141.0	7.976848674433704e+17
19142.0	7.974933660084905e+17
19143.0	7.97196936089873e+17
19144.0	7.970415698422441e+17
19145.0	7.969026865102847e+17
19146.0	7.964628037053103e+17
19147.0	7.965504750048595e+17
19148.0	7.964268965483859e+17
19149.0	7.962666075859625e+17
19150.0	7.961078000517119e+17
19151.0	7.959489789558781e+17
19152.0	7.957898385337004e+17
19153.0	7.956219395659091e+17
19154.0	7.954197086819666e+17
19155.0	7.953121173744298e+17
19156.0	7.951515889172479e+17
19157.0	7.949809270216019e+17
19158.0	7.947737144229888e+17
19159.0	7.946595147098794e+17
19160.0	7.945045832717654e+17
19161.0	7.943415380923731e+17
19162.0	7.94025824022255e+17
19163.0	7.940059026161664e+17
19164.0	7.938718821602644e+17
19165.0	7.937073930218154e+17
19166.0	7.935068941058045e+17
19167.0	7.93375746887953e+17
19168.0	7.932196293006676e+17
19169.0	7.930618432192511e+17
19170.0	7.929093830650534e+17
19171.0	7.927411330340179e+17
19172.0	7.925837501650259e+17
19173.0	7.924265030516736e+17
19174.0	7.92240019542289e+17
19175.0	7.92102948848708e+17
19176.0	7.919391081496575e+17
19177.0	7.917081451648339e+17
19178.0	7.916119131510099e+17
19179.0	7.914448291364863e+17
19180.0	7.912850771847849e+17
19181.0	7.91087034872627e+17
19182.0	7.909572397585748e+17
19183.0	7.908035115264684e+17
19184.0	7.906321739284479e+17
19185.0	7.904698173139625e+17
19186.0	7.903131762775379e+17
19187.0	7.901085389815807e+17
19188.0	7.899843095691263e+17
19189.0	7.898210995535871e+17
19190.0	7.896555779173033e+17
19191.0	7.894762257033897e+17
19192.0	7.893272138263208e+17
19193.0	7.891573378034345e+17
19194.0	7.889847284924416e+17
19195.0	7.888151403386194e+17
19196.0	7.884512138625021e+17
19197.0	7.8827539688762e+17
19198.0	7.880475185337684e+17
19199.0	7.869244824529576e+17
19200.0	7.869703253568172e+17
19201.0	7.87560119157828e+17
19202.0	7.874507301715967e+17
19203.0	7.872971505576617e+17
19204.0	7.87128176170325e+17
19205.0	7.869683139084285e+17
19206.0	7.86801279246882e+17
19207.0	7.865916824660649e+17
19208.0	7.863934160382632e+17
19209.0	7.863013807052115e+17
19210.0	7.861353876291581e+17
19211.0	7.859746076535464e+17
19212.0	7.858041649801897e+17
19213.0	7.855931239606952e+17
19214.0	7.854173005545471e+17
19215.0	7.852940836470783e+17
19216.0	7.851273927786493e+17
19217.0	7.849476391698432e+17
19218.0	7.844452601167864e+17
19219.0	7.845267873202171e+17
19220.0	7.844340822966272e+17
19221.0	7.841442220561748e+17
19222.0	7.840944710396586e+17
19223.0	7.838576975456941e+17
19224.0	7.834899100729343e+17
19225.0	7.832814700811602e+17
19226.0	7.83157682328917e+17
19227.0	7.829854804246527e+17
19228.0	7.82827182638148e+17
19229.0	7.826537971012947e+17
19230.0	7.82476017751381e+17
19231.0	7.822993767355731e+17
19232.0	7.821187244272297e+17
19233.0	7.818782948982783e+17
19234.0	7.817267334436179e+17
19235.0	7.815429911915178e+17
19236.0	7.813862703235071e+17
19237.0	7.812021237405012e+17
19238.0	7.809917536698365e+17
19239.0	7.808575662806356e+17
19240.0	7.806636926872233e+17
19241.0	7.803645953310717e+17
19242.0	7.80003182641152e+17
19243.0	7.79745768977203e+17
19244.0	7.796556215003816e+17
19245.0	7.794731815796735e+17
19246.0	7.792890014422356e+17
19247.0	7.791108590054058e+17
19248.0	7.789361217841833e+17
19249.0	7.787541296753322e+17
19250.0	7.785635788095489e+17
19251.0	7.783356599107579e+17
19252.0	7.780631207477247e+17
19253.0	7.780157259513855e+17
19254.0	7.778406975056554e+17
19255.0	7.775013416817998e+17
19256.0	7.770778037998932e+17
19257.0	7.769062016811008e+17
19258.0	7.767219172453032e+17
19259.0	7.764996800905215e+17
19260.0	7.763207164089683e+17
19261.0	7.761566014024361e+17
19262.0	7.759474570472106e+17
19263.0	7.757567968499028e+17
19264.0	7.753815134568443e+17
19265.0	7.753315537037993e+17
19266.0	7.751627276550144e+17
19267.0	7.750308148368726e+17
19268.0	7.746119317935444e+17
19269.0	7.744207727536809e+17
19270.0	7.742262796615679e+17
19271.0	7.739014288594263e+17
19272.0	7.738234311628114e+17
19273.0	7.731190443627857e+17
19274.0	7.730544439721979e+17
19275.0	7.73224769205043e+17
19276.0	7.729774562639872e+17
19277.0	7.727804484070058e+17
19278.0	7.725853525934079e+17
19279.0	7.723736196535636e+17
19280.0	7.72151262122257e+17
19281.0	7.719821651214335e+17
19282.0	7.71788197995042e+17
19283.0	7.715761815202473e+17
19284.0	7.713512194659667e+17
19285.0	7.711136048742397e+17
19286.0	7.70953611330628e+17
19287.0	7.70768368915797e+17
19288.0	7.702060074008571e+17
19289.0	7.695589626085363e+17
19290.0	7.70148788146449e+17
19291.0	7.69819506621372e+17
19292.0	7.697338020309673e+17
19293.0	7.695220447641599e+17
19294.0	7.693072587904339e+17
19295.0	7.691005151150079e+17
19296.0	7.688836026291542e+17
19297.0	7.685804854520489e+17
19298.0	7.683130857095167e+17
19299.0	7.681090691705513e+17
19300.0	7.678883832091987e+17
19301.0	7.676655735319209e+17
19302.0	7.67437448552994e+17
19303.0	7.671873168998399e+17
19304.0	7.66981295902993e+17
19305.0	7.667605299702441e+17
19306.0	7.66537059130846e+17
19307.0	7.662893579370493e+17
19308.0	7.660671300097363e+17
19309.0	7.658151028107945e+17
19310.0	7.655315796044457e+17
19311.0	7.651790943507796e+17
19312.0	7.649577968599037e+17
19313.0	7.647252954043732e+17
19314.0	7.63857168568593e+17
19315.0	7.636589815529481e+17
19316.0	7.640037374033919e+17
19317.0	7.63761289854976e+17
19318.0	7.635157532016639e+17
19319.0	7.63277802086946e+17
19320.0	7.630316646694911e+17
19321.0	7.625620987751081e+17
19322.0	7.62240458293248e+17
19323.0	7.620028034362025e+17
19324.0	7.617597496710484e+17
19325.0	7.614904483708927e+17
19326.0	7.61247151895347e+17
19327.0	7.609870672986111e+17
19328.0	7.607326515833514e+17
19329.0	7.603991268207274e+17
19330.0	7.598541227338408e+17
19331.0	7.595740264136703e+17
19332.0	7.593172526607017e+17
19333.0	7.590316782998867e+17
19334.0	7.587559138568874e+17
19335.0	7.58471792402978e+17
19336.0	7.578483760824317e+17
19337.0	7.574675541109416e+17
19338.0	7.570833202129576e+17
19339.0	7.568720728337064e+17
19340.0	7.565471279393449e+17
19341.0	7.560302273669805e+17
19342.0	7.552852720003752e+17
19343.0	7.551107403000489e+17
19344.0	7.547817692932777e+17
19345.0	7.537543841753757e+17
19346.0	7.533181111282348e+17
19347.0	7.53154315727667e+17
19348.0	7.528415122249044e+17
19349.0	7.524841397682175e+17
19350.0	7.515839958526625e+17
19351.0	7.510407263901011e+17
19352.0	7.506650362893651e+17
19353.0	7.502772719058943e+17
19354.0	7.495314997684906e+17
19355.0	7.491123324911617e+17
19356.0	7.487667222609919e+17
19357.0	7.483762828902399e+17
19358.0	7.47976323428079e+17
19359.0	7.475576386355197e+17
19360.0	7.471621605075625e+17
19361.0	7.46760082502451e+17
19362.0	7.46361718972962e+17
19363.0	7.459443737012905e+17
19364.0	7.455216423840425e+17
19365.0	7.450864697824596e+17
19366.0	7.446482969952255e+17
19367.0	7.442105346905428e+17
19368.0	7.437668961659561e+17
19369.0	7.432911452110845e+17
19370.0	7.428162347947348e+17
19371.0	7.423768676095315e+17
19372.0	7.419276626842964e+17
19373.0	7.414422638515539e+17
19374.0	7.40967335399697e+17
19375.0	7.404816150036479e+17
19376.0	7.399861936018772e+17
19377.0	7.394797473322323e+17
19378.0	7.3897332455069e+17
19379.0	7.384603393611094e+17
19380.0	7.379410938931881e+17
19381.0	7.374051248963583e+17
19382.0	7.368149829681152e+17
19383.0	7.362687166753449e+17
19384.0	7.357601013912916e+17
19385.0	7.352090348574036e+17
19386.0	7.346503643299837e+17
19387.0	7.340761853635241e+17
19388.0	7.334850296720042e+17
19389.0	7.328861589777064e+17
19390.0	7.32270859194641e+17
19391.0	7.307250463582876e+17
19392.0	7.309171568061097e+17
19393.0	7.302978636262057e+17
19394.0	7.296347089316521e+17
19395.0	7.289590587064319e+17
19396.0	7.282464612767059e+17
19397.0	7.274444094089897e+17
19398.0	7.267083737890815e+17
19399.0	7.25755660424533e+17
19400.0	7.251740655091711e+17
19401.0	7.242760323072e+17
19402.0	7.234258833768447e+17
19403.0	7.225662126773587e+17
19404.0	7.216448385930578e+17
19405.0	7.205548820092244e+17
19406.0	7.19628043166242e+17
19407.0	7.186194235042476e+17
19408.0	7.17190406655181e+17
19409.0	7.163844754756948e+17
19410.0	7.151719098788521e+17
19411.0	7.139547984953343e+17
19412.0	7.127370871865345e+17
19413.0	7.112563575051604e+17
19414.0	7.099605811112616e+17
19415.0	7.082840743215104e+17
19416.0	7.068777921380344e+17
19417.0	7.050668120473597e+17
19418.0	7.035726062769494e+17
19419.0	7.015861702011561e+17
19420.0	6.99882775825612e+17
19421.0	6.978303450327722e+17
19422.0	6.960479510811987e+17
19423.0	6.941240411029501e+17
19424.0	6.923881602351104e+17
19425.0	6.9059227942912e+17
19426.0	6.886236063006719e+17
19427.0	6.865121495569748e+17
19428.0	6.843374074768041e+17
19429.0	6.819492438999037e+17
19430.0	6.794178576340308e+17
19431.0	6.767095110959105e+17
19432.0	6.739704754645672e+17
19433.0	6.710634376855551e+17
19434.0	6.678102445566633e+17
19435.0	6.64337195029845e+17
19436.0	6.605984199868416e+17
19437.0	6.566527837579946e+17
19438.0	6.517488100922708e+17
19439.0	6.477805015531521e+17
19440.0	6.427718602893993e+17
19441.0	6.373616741864785e+17
19442.0	6.314396163418797e+17
19443.0	6.249385392340991e+17
19444.0	6.178039288649041e+17
19445.0	6.099003696130733e+17
19446.0	6.011182995472383e+17
19447.0	5.912713344931153e+17
19448.0	5.80089387976841e+17
19449.0	5.671000294643028e+17
19450.0	5.50934876922401e+17
19451.0	5.420727426962778e+17
19452.0	5.595863257361066e+17
19453.0	5.736604085780485e+17
19454.0	5.854190286230863e+17
19455.0	5.95652595819042e+17
19456.0	6.047048354059608e+17
19457.0	6.127826375802875e+17
19458.0	6.195782792598876e+17
19459.0	6.266003928033965e+17
19460.0	6.325524763421352e+17
19461.0	6.379790702127785e+17
19462.0	6.42916294922513e+17
19463.0	6.475095636355752e+17
19464.0	6.516775504052223e+17
19465.0	6.554877942912343e+17
19466.0	6.59095352071509e+17
19467.0	6.623911711429972e+17
19468.0	6.655282840425814e+17
19469.0	6.68256553874227e+17
19470.0	6.709283046206122e+17
19471.0	6.734026846328148e+17
19472.0	6.756666536099837e+17
19473.0	6.778945209543336e+17
19474.0	6.798881144001876e+17
19475.0	6.815697053854374e+17
19476.0	6.83535139742242e+17
19477.0	6.851404394135551e+17
19478.0	6.866375533745491e+17
19479.0	6.881646199089832e+17
19480.0	6.89835257888768e+17
19481.0	6.913688116133887e+17
19482.0	6.930962540309162e+17
19483.0	6.945910595867986e+17
19484.0	6.960854002739881e+17
19485.0	6.974409680792233e+17
19486.0	6.987924493740713e+17
19487.0	7.000089678228141e+17
19488.0	7.012539627995133e+17
19489.0	7.022556464108884e+17
19490.0	7.03081816365465e+17
19491.0	7.042388708382038e+17
19492.0	7.053648079792812e+17
19493.0	7.061074545213437e+17
19494.0	7.069249496765778e+17
19495.0	7.077952385362602e+17
19496.0	7.083529900916733e+17
19497.0	7.09159493653845e+17
19498.0	7.098159329880745e+17
19499.0	7.091937244872695e+17
19500.0	7.11070678463283e+17
19501.0	7.117249672380415e+17
19502.0	7.122617117616808e+17
19503.0	7.127395235179177e+17
19504.0	7.131957509663402e+17
19505.0	7.13670632022562e+17
19506.0	7.141716588320083e+17
19507.0	7.145674908194132e+17
19508.0	7.149630301842088e+17
19509.0	7.153339969394003e+17
19510.0	7.156324932517888e+17
19511.0	7.148415541925197e+17
19512.0	7.162156035691855e+17
19513.0	7.162702247318861e+17
19514.0	7.167718906134525e+17
19515.0	7.172356845862915e+17
19516.0	7.176653474103296e+17
19517.0	7.179278873526272e+17
19518.0	7.182150260490239e+17
19519.0	7.184737663713279e+17
19520.0	7.187252969646761e+17
19521.0	7.190091931844608e+17
19522.0	7.19234708467439e+17
19523.0	7.194831906406399e+17
19524.0	7.197097693194921e+17
19525.0	7.199259637405012e+17
19526.0	7.201467196069203e+17
19527.0	7.203519257903101e+17
19528.0	7.20550694555921e+17
19529.0	7.207434713388372e+17
19530.0	7.209371347976191e+17
19531.0	7.211230949976745e+17
19532.0	7.212950318219263e+17
19533.0	7.21464180272879e+17
19534.0	7.21623972909329e+17
19535.0	7.217715220927828e+17
19536.0	7.219149341545811e+17
19537.0	7.220797568800084e+17
19538.0	7.221816437942957e+17
19539.0	7.221737708060676e+17
19540.0	7.224756224218454e+17
19541.0	7.226114697767593e+17
19542.0	7.227287776089428e+17
19543.0	7.228418873622527e+17
19544.0	7.229519362523135e+17
19545.0	7.228820837542566e+17
19546.0	7.228481974130004e+17
19547.0	7.232560144842751e+17
19548.0	7.235899358882472e+17
19549.0	7.237856230987092e+17
19550.0	7.239076335845375e+17
19551.0	7.239822231295318e+17
19552.0	7.247168111553196e+17
19553.0	7.247844473831423e+17
19554.0	7.248335877089961e+17
19555.0	7.248949150045523e+17
19556.0	7.254473502796457e+17
19557.0	7.255631822760617e+17
19558.0	7.255971917900457e+17
19559.0	7.256289579106301e+17
19560.0	7.257492162958676e+17
19561.0	7.261474584701612e+17
19562.0	7.261737487870633e+17
19563.0	7.261909297747284e+17
19564.0	7.262007795384319e+17
19565.0	7.262084702142463e+17
19566.0	7.26516324298479e+17
19567.0	7.265995742423722e+17
19568.0	7.265806858933587e+17
19569.0	7.265791504984745e+17
19570.0	7.265798452150272e+17
19571.0	7.26568443978274e+17
19572.0	7.266385520492541e+17
19573.0	7.268298436291241e+17
19574.0	7.267689714155517e+17
19575.0	7.267855790418602e+17
19576.0	7.267575013922132e+17
19577.0	7.267199365065385e+17
19578.0	7.266813279382185e+17
19579.0	7.266522211461802e+17
19580.0	7.266195255678291e+17
19581.0	7.267095322558461e+17
19582.0	7.26789073735953e+17
19583.0	7.26748738093056e+17
19584.0	7.26705601913378e+17
19585.0	7.266120934009513e+17
19586.0	7.265550399613612e+17
19587.0	7.26563985433122e+17
19588.0	7.263434471112705e+17
19589.0	7.264614914632362e+17
19590.0	7.263919122939904e+17
19591.0	7.263709534967123e+17
19592.0	7.26483919245585e+17
19593.0	7.264214625637716e+17
19594.0	7.262647972003837e+17
19595.0	7.263017574072319e+17
19596.0	7.261726674954922e+17
19597.0	7.261890352076116e+17
19598.0	7.260178925049172e+17
19599.0	7.260695631145642e+17
19600.0	7.260090776158207e+17
19601.0	7.259152487983785e+17
19602.0	7.258510770656595e+17
19603.0	7.256427324243964e+17
19604.0	7.257129011729748e+17
19605.0	7.255402268502701e+17
19606.0	7.257077986623487e+17
19607.0	7.25635365409041e+17
19608.0	7.255572473359017e+17
19609.0	7.254647184730794e+17
19610.0	7.254126839376553e+17
19611.0	7.253319621804032e+17
19612.0	7.252597565379923e+17
19613.0	7.2517560579741e+17
19614.0	7.250811797110783e+17
19615.0	7.250191898553e+17
19616.0	7.24929277539123e+17
19617.0	7.248524254467411e+17
19618.0	7.245380855704232e+17
19619.0	7.243980780251814e+17
19620.0	7.243357466132477e+17
19621.0	7.245113077355859e+17
19622.0	7.244312402897577e+17
19623.0	7.243459864472233e+17
19624.0	7.24253394669841e+17
19625.0	7.241694988031316e+17
19626.0	7.240742081309352e+17
19627.0	7.239866639187968e+17
19628.0	7.238645148811263e+17
19629.0	7.238103703311699e+17
19630.0	7.235971295390378e+17
19631.0	7.225812878447956e+17
19632.0	7.235636599717887e+17
19633.0	7.234717471124138e+17
19634.0	7.235332860805117e+17
19635.0	7.234873145513299e+17
19636.0	7.234064501877417e+17
19637.0	7.231195339292672e+17
19638.0	7.232127180821844e+17
19639.0	7.231128371636905e+17
19640.0	7.229804094248276e+17
19641.0	7.226743191852379e+17
19642.0	7.228166898013523e+17
19643.0	7.227154623714644e+17
19644.0	7.225909854950739e+17
19645.0	7.224120581641555e+17
19646.0	7.225463839653887e+17
19647.0	7.226470420884138e+17
19648.0	7.225426557883732e+17
19649.0	7.224389246386173e+17
19650.0	7.223402555943594e+17
19651.0	7.222334433088854e+17
19652.0	7.221280326199977e+17
19653.0	7.220273626131114e+17
19654.0	7.219170985552553e+17
19655.0	7.218092467814399e+17
19656.0	7.217083055428948e+17
19657.0	7.216015455464105e+17
19658.0	7.214980338985641e+17
19659.0	7.213906181925544e+17
19660.0	7.212971082820266e+17
19661.0	7.214380686333267e+17
19662.0	7.213316886407849e+17
19663.0	7.212025629376511e+17
19664.0	7.211065565773823e+17
19665.0	7.210050527428607e+17
19666.0	7.209263113961471e+17
