# Flux units: erg / (cm m2 s)
# Wavelength units: Angstrom
wave	flux
19000.0	5.830564665884671e+17
19001.0	5.829403802075135e+17
19002.0	5.828392140144639e+17
19003.0	5.827302162169855e+17
19004.0	5.82621647077376e+17
19005.0	5.825131614044159e+17
19006.0	5.824046247706623e+17
19007.0	5.822914238611456e+17
19008.0	5.821828395521364e+17
19009.0	5.820688108268201e+17
19010.0	5.819367728786089e+17
19011.0	5.818574246860116e+17
19012.0	5.817338874036223e+17
19013.0	5.816435283940692e+17
19014.0	5.815309380354048e+17
19015.0	5.814237293882025e+17
19016.0	5.813139576717312e+17
19017.0	5.81209125097745e+17
19018.0	5.81099720942114e+17
19019.0	5.80991821423138e+17
19020.0	5.808819962991956e+17
19021.0	5.807750434346324e+17
19022.0	5.806670349336575e+17
19023.0	5.805562851753983e+17
19024.0	5.804486440255488e+17
19025.0	5.803402990015827e+17
19026.0	5.802299566500521e+17
19027.0	5.801109400584191e+17
19028.0	5.800162867107156e+17
19029.0	5.799076315878739e+17
19030.0	5.798003658282324e+17
19031.0	5.796920540790783e+17
19032.0	5.795833464575316e+17
19033.0	5.794685331876521e+17
19034.0	5.793660406857727e+17
19035.0	5.792535376385364e+17
19036.0	5.782589871401646e+17
19037.0	5.79041047417105e+17
19038.0	5.789351782907904e+17
19039.0	5.78828732867106e+17
19040.0	5.787204960561833e+17
19041.0	5.786119746617341e+17
19042.0	5.784965421028692e+17
19043.0	5.783958796457302e+17
19044.0	5.782866831081471e+17
19045.0	5.781790355270313e+17
19046.0	5.780674125845843e+17
19047.0	5.779608793601364e+17
19048.0	5.77839928844834e+17
19049.0	5.777402131120127e+17
19050.0	5.776357032897193e+17
19051.0	5.773920256218452e+17
19052.0	5.773859781345279e+17
19053.0	5.773135431335935e+17
19054.0	5.772062931025919e+17
19055.0	5.77079459446784e+17
19056.0	5.769884690546687e+17
19057.0	5.768820142637055e+17
19058.0	5.767723067200852e+17
19059.0	5.76666247102464e+17
19060.0	5.76557170102545e+17
19061.0	5.7645095983950496e+17
19062.0	5.7634267059978234e+17
19063.0	5.7623491172980045e+17
19064.0	5.761184159148715e+17
19065.0	5.7600659444203514e+17
19066.0	5.759072187274581e+17
19067.0	5.758033488161449e+17
19068.0	5.7569591884950176e+17
19069.0	5.755881168480937e+17
19070.0	5.7547863782413645e+17
19071.0	5.753722832770388e+17
19072.0	5.7526444415604045e+17
19073.0	5.7515687172287136e+17
19074.0	5.7504957191946234e+17
19075.0	5.749419046950228e+17
19076.0	5.7483276687769594e+17
19077.0	5.7472521254993914e+17
19078.0	5.746169196052479e+17
19079.0	5.7451112800365216e+17
19080.0	5.7440232153634125e+17
19081.0	5.74293307031552e+17
19082.0	5.7418540219979085e+17
19083.0	5.7407327230580045e+17
19084.0	5.739568638022996e+17
19085.0	5.738659678519294e+17
19086.0	5.737314461766996e+17
19087.0	5.7362149347601043e+17
19088.0	5.7353619720110074e+17
19089.0	5.734093396377599e+17
19090.0	5.733265688231935e+17
19091.0	5.732189609481556e+17
19092.0	5.7310376949186554e+17
19093.0	5.7300665213037216e+17
19094.0	5.728991424719529e+17
19095.0	5.7279176975755936e+17
19096.0	5.7268338516732576e+17
19097.0	5.725770803227306e+17
19098.0	5.724697739482451e+17
19099.0	5.72362413047808e+17
19100.0	5.7225356288983034e+17
19101.0	5.7214729775131296e+17
19102.0	5.7203347762271565e+17
19103.0	5.719341025372842e+17
19104.0	5.7182693827979936e+17
19105.0	5.717189590690473e+17
19106.0	5.7160751403499514e+17
19107.0	5.715041770799103e+17
19108.0	5.71398083837952e+17
19109.0	5.712149859707561e+17
19110.0	5.711800664326142e+17
19111.0	5.710770418832723e+17
19112.0	5.7097002435652256e+17
19113.0	5.7086331574026234e+17
19114.0	5.707561126155604e+17
19115.0	5.7064410959926605e+17
19116.0	5.7054075090370554e+17
19117.0	5.7043361670539936e+17
19118.0	5.703166017055402e+17
19119.0	5.698124081965733e+17
19120.0	5.7010605540420256e+17
19121.0	5.700015676020052e+17
19122.0	5.699011577118719e+17
19123.0	5.697942795758249e+17
19124.0	5.696832414591658e+17
19125.0	5.695796882877098e+17
19126.0	5.6947337421564576e+17
19127.0	5.692320775842473e+17
19128.0	5.692324038311935e+17
19129.0	5.6914832138786125e+17
19130.0	5.690451726172158e+17
19131.0	5.689401035543892e+17
19132.0	5.688333492202154e+17
19133.0	5.687111490120362e+17
19134.0	5.686081434069674e+17
19135.0	5.6851317744380576e+17
19136.0	5.684073321551188e+17
19137.0	5.6828870626290336e+17
19138.0	5.6819171018670074e+17
19139.0	5.680875479323987e+17
19140.0	5.679812022632447e+17
19141.0	5.678746282142377e+17
19142.0	5.677664220217343e+17
19143.0	5.6765786658351776e+17
19144.0	5.675523107018068e+17
19145.0	5.6744852726306125e+17
19146.0	5.672995826346666e+17
19147.0	5.6722633093283834e+17
19148.0	5.6712891682433696e+17
19149.0	5.670226237237929e+17
19150.0	5.6691628196932256e+17
19151.0	5.668105462218751e+17
19152.0	5.667028356562942e+17
19153.0	5.665961254322175e+17
19154.0	5.6648194620129274e+17
19155.0	5.6638547671995725e+17
19156.0	5.662790027750058e+17
19157.0	5.6617146019130016e+17
19158.0	5.6601285055829325e+17
19159.0	5.659590618251263e+17
19160.0	5.658531496372905e+17
19161.0	5.657457100237483e+17
19162.0	5.655233001335467e+17
19163.0	5.6552959564404045e+17
19164.0	5.654297725370367e+17
19165.0	5.6532058019375763e+17
19166.0	5.652055507075071e+17
19167.0	5.651002236949845e+17
19168.0	5.650028820081321e+17
19169.0	5.6489568007181645e+17
19170.0	5.6479325999158605e+17
19171.0	5.646798552388949e+17
19172.0	5.645807025214804e+17
19173.0	5.644749778190335e+17
19174.0	5.6436513472948896e+17
19175.0	5.6426338706609485e+17
19176.0	5.641576913742506e+17
19177.0	5.6404041667706874e+17
19178.0	5.639422914243241e+17
19179.0	5.63829960413457e+17
19180.0	5.637316811598506e+17
19181.0	5.6361952861661856e+17
19182.0	5.635196059648e+17
19183.0	5.6341618652173645e+17
19184.0	5.6330865442379085e+17
19185.0	5.632042727374847e+17
19186.0	5.6309883534486176e+17
19187.0	5.6298819338021523e+17
19188.0	5.628870626290347e+17
19189.0	5.6278066257373856e+17
19190.0	5.626742361642324e+17
19191.0	5.625669009189547e+17
19192.0	5.624643507453952e+17
19193.0	5.623578391915179e+17
19194.0	5.622519227394729e+17
19195.0	5.621473228794537e+17
19196.0	5.6204077294769485e+17
19197.0	5.6193500567306234e+17
19198.0	5.618289773030058e+17
19199.0	5.6102994093015014e+17
19200.0	5.611181954476716e+17
19201.0	5.6151233720046925e+17
19202.0	5.6140764010250234e+17
19203.0	5.6130035693649914e+17
19204.0	5.6119484733194234e+17
19205.0	5.6109015624581114e+17
19206.0	5.609841636671487e+17
19207.0	5.608710793592831e+17
19208.0	5.6075917728590496e+17
19209.0	5.6066806337153696e+17
19210.0	5.605628123458218e+17
19211.0	5.6045792447692794e+17
19212.0	5.6035241326455456e+17
19213.0	5.6023598427886925e+17
19214.0	5.6012575321620474e+17
19215.0	5.6003293298906445e+17
19216.0	5.5993010704001696e+17
19217.0	5.598248749585749e+17
19218.0	5.596565158057299e+17
19219.0	5.59602976563746e+17
19220.0	5.5950645353512954e+17
19221.0	5.5937962351438496e+17
19222.0	5.5929584697562445e+17
19223.0	5.591903651233792e+17
19224.0	5.5908270852450976e+17
19225.0	5.589700179219796e+17
19226.0	5.58874035958579e+17
19227.0	5.5876841863031456e+17
19228.0	5.586647162115413e+17
19229.0	5.585592723177471e+17
19230.0	5.5845256922398714e+17
19231.0	5.583467488215039e+17
19232.0	5.5824185284362214e+17
19233.0	5.5813234886355616e+17
19234.0	5.580303396853076e+17
19235.0	5.5792505531487565e+17
19236.0	5.5782111927336954e+17
19237.0	5.5771445840226976e+17
19238.0	5.5760260875769165e+17
19239.0	5.57504715240243e+17
19240.0	5.573954008427177e+17
19241.0	5.572908836803926e+17
19242.0	5.571866866832724e+17
19243.0	5.570714452448596e+17
19244.0	5.56977539392034e+17
19245.0	5.568721257671339e+17
19246.0	5.5676548761518074e+17
19247.0	5.566610152620031e+17
19248.0	5.565556358206804e+17
19249.0	5.564494456203945e+17
19250.0	5.5634311316329805e+17
19251.0	5.5622835665633274e+17
19252.0	5.5611471122049696e+17
19253.0	5.560260932665343e+17
19254.0	5.559217085743103e+17
19255.0	5.5580467428065274e+17
19256.0	5.5570634357691725e+17
19257.0	5.556054285527722e+17
19258.0	5.5549987337011194e+17
19259.0	5.553895391974741e+17
19260.0	5.552681194793641e+17
19261.0	5.551818077634558e+17
19262.0	5.550729106292735e+17
19263.0	5.549654297717418e+17
19264.0	5.548248254469459e+17
19265.0	5.547441162726057e+17
19266.0	5.546377938119338e+17
19267.0	5.5454833664764576e+17
19268.0	5.544424846480724e+17
19269.0	5.5433660517580794e+17
19270.0	5.5423024000314016e+17
19271.0	5.540991567484245e+17
19272.0	5.5401608611102714e+17
19273.0	5.537833838881449e+17
19274.0	5.5372035083905683e+17
19275.0	5.5370061572997114e+17
19276.0	5.535930323916115e+17
19277.0	5.5348726155182074e+17
19278.0	5.5338113251846816e+17
19279.0	5.532735216375124e+17
19280.0	5.531632803687081e+17
19281.0	5.5306187684795725e+17
19282.0	5.529569622753279e+17
19283.0	5.528391167333715e+17
19284.0	5.527334960496639e+17
19285.0	5.524123986602667e+17
19286.0	5.522154431621802e+17
19287.0	5.521112128203434e+17
19288.0	5.517018737060515e+17
19289.0	5.513330130507087e+17
19290.0	5.517906610399913e+17
19291.0	5.516650600202239e+17
19292.0	5.5157638075951776e+17
19293.0	5.5146883544951456e+17
19294.0	5.5136141072575136e+17
19295.0	5.5125488798706336e+17
19296.0	5.511469961576447e+17
19297.0	5.510384059766101e+17
19298.0	5.509303811877545e+17
19299.0	5.508242325110783e+17
19300.0	5.507163543131477e+17
19301.0	5.5060846709746336e+17
19302.0	5.5049923504810656e+17
19303.0	5.503873773644459e+17
19304.0	5.5028150131752954e+17
19305.0	5.5017462087461536e+17
19306.0	5.5006673673475405e+17
19307.0	5.4995471931801594e+17
19308.0	5.4984735324460365e+17
19309.0	5.4971424085551776e+17
19310.0	5.4959843640169805e+17
19311.0	5.4951724586106874e+17
19312.0	5.4941315504974496e+17
19313.0	5.4930400968267085e+17
19314.0	5.480867960280415e+17
19315.0	5.480285971240281e+17
19316.0	5.489725789962238e+17
19317.0	5.4886492477412685e+17
19318.0	5.487543968246442e+17
19319.0	5.4864513038199443e+17
19320.0	5.4853423997474125e+17
19321.0	5.4842348378521594e+17
19322.0	5.483045219991551e+17
19323.0	5.481909314387966e+17
19324.0	5.4808946640158714e+17
19325.0	5.47953848684817e+17
19326.0	5.4786619898593274e+17
19327.0	5.47753119851042e+17
19328.0	5.476410279854079e+17
19329.0	5.475292000813055e+17
19330.0	5.474080237027329e+17
19331.0	5.469368132217513e+17
19332.0	5.46825370145041e+17
19333.0	5.467113215666858e+17
19334.0	5.465961058533375e+17
19335.0	5.4647983275595085e+17
19336.0	5.463652516407977e+17
19337.0	5.4624899441186125e+17
19338.0	5.4611735729930214e+17
19339.0	5.4601586318158496e+17
19340.0	5.4589134652921165e+17
19341.0	5.457767596818431e+17
19342.0	5.4563371343325843e+17
19343.0	5.455437892332202e+17
19344.0	5.4542435398014285e+17
19345.0	5.4516681833185254e+17
19346.0	5.451079560287572e+17
19347.0	5.450585276241236e+17
19348.0	5.4494331911099725e+17
19349.0	5.4481893940264954e+17
19350.0	5.4455621330315974e+17
19351.0	5.441535977280852e+17
19352.0	5.440240993610409e+17
19353.0	5.4390374254946976e+17
19354.0	5.4377692923603616e+17
19355.0	5.436420147642367e+17
19356.0	5.4352016589892256e+17
19357.0	5.433906060154196e+17
19358.0	5.432585850541396e+17
19359.0	5.4312106277382816e+17
19360.0	5.429919374901246e+17
19361.0	5.428594157289471e+17
19362.0	5.425389325254655e+17
19363.0	5.42350023799603e+17
19364.0	5.422112983132841e+17
19365.0	5.420716125410645e+17
19366.0	5.419303125909502e+17
19367.0	5.4178759713314125e+17
19368.0	5.4163030024738125e+17
19369.0	5.41470201356834e+17
19370.0	5.4131449054713165e+17
19371.0	5.411752373474645e+17
19372.0	5.4102762301248845e+17
19373.0	5.4087298517565434e+17
19374.0	5.407194922440021e+17
19375.0	5.405620950444713e+17
19376.0	5.4040289205725856e+17
19377.0	5.4024087322405536e+17
19378.0	5.4007686671018656e+17
19379.0	5.399101496972628e+17
19380.0	5.39740697858321e+17
19381.0	5.395684366745599e+17
19382.0	5.3938797807315616e+17
19383.0	5.3920635583201274e+17
19384.0	5.390325217842517e+17
19385.0	5.3884796786442234e+17
19386.0	5.386596964630526e+17
19387.0	5.3846729472081914e+17
19388.0	5.382709027973802e+17
19389.0	5.3807031090763085e+17
19390.0	5.3786521077022714e+17
19391.0	5.3677086554630714e+17
19392.0	5.373951027620519e+17
19393.0	5.372215825181353e+17
19394.0	5.369958234062847e+17
19395.0	5.3676413166114125e+17
19396.0	5.365272075217577e+17
19397.0	5.362861612903083e+17
19398.0	5.360352799752191e+17
19399.0	5.3572957679998285e+17
19400.0	5.35509289996561e+17
19401.0	5.352453075632126e+17
19402.0	5.349668233237844e+17
19403.0	5.3467745703253325e+17
19404.0	5.3438170701059405e+17
19405.0	5.3407433310426445e+17
19406.0	5.337589189967872e+17
19407.0	5.3343273000195405e+17
19408.0	5.3303882250103456e+17
19409.0	5.327449102832982e+17
19410.0	5.323890221907967e+17
19411.0	5.3201813275060896e+17
19412.0	5.316345679839232e+17
19413.0	5.3123767218121376e+17
19414.0	5.3082488206349645e+17
19415.0	5.304019264907947e+17
19416.0	5.299491368337407e+17
19417.0	5.2949195888612685e+17
19418.0	5.2898294996664314e+17
19419.0	5.284991091081215e+17
19420.0	5.280011370102783e+17
19421.0	5.274856927002623e+17
19422.0	5.269505409635668e+17
19423.0	5.264033306028713e+17
19424.0	5.2575309254710605e+17
19425.0	5.251442611497641e+17
19426.0	5.2453976624332794e+17
19427.0	5.2379664203994445e+17
19428.0	5.2309945427339936e+17
19429.0	5.222575319810046e+17
19430.0	5.2133972913684474e+17
19431.0	5.201517098653016e+17
19432.0	5.190452186360493e+17
19433.0	5.1740925615581843e+17
19434.0	5.1518451909044986e+17
19435.0	5.119124657842865e+17
19436.0	5.0927035849113594e+17
19437.0	5.075024040602283e+17
19438.0	5.040875123332442e+17
19439.0	5.0317162307037856e+17
19440.0	5.0092204146469536e+17
19441.0	4.9837013379754656e+17
19442.0	4.955087730376708e+17
19443.0	4.9201631947216186e+17
19444.0	4.8655833976449715e+17
19445.0	4.7771694756003834e+17
19446.0	4.709964953507158e+17
19447.0	4.6330664196942483e+17
19448.0	4.5056701329571744e+17
19449.0	4.304129296607912e+17
19450.0	3.8036681526695046e+17
19451.0	3.6403466644138496e+17
19452.0	4.092118805686971e+17
19453.0	4.414916921043635e+17
19454.0	4.579786786253483e+17
19455.0	4.6678739510449466e+17
19456.0	4.7365266782289926e+17
19457.0	4.812167303222589e+17
19458.0	4.860190734854844e+17
19459.0	4.922622227775497e+17
19460.0	4.954368014374226e+17
19461.0	4.9796661595777683e+17
19462.0	5.001924082401279e+17
19463.0	5.023193374217556e+17
19464.0	5.0421570039971834e+17
19465.0	5.059393654270635e+17
19466.0	5.076714184332623e+17
19467.0	5.1084522841702445e+17
19468.0	5.1329870947068666e+17
19469.0	5.1490243851496083e+17
19470.0	5.162069009629181e+17
19471.0	5.171285994067285e+17
19472.0	5.179193918750719e+17
19473.0	5.185789644242943e+17
19474.0	5.1911286639820794e+17
19475.0	5.196188176700755e+17
19476.0	5.2012926020266656e+17
19477.0	5.205321953837055e+17
19478.0	5.2098866169774074e+17
19479.0	5.2137948589588474e+17
19480.0	5.2172076676546554e+17
19481.0	5.220472381068628e+17
19482.0	5.2235700738020685e+17
19483.0	5.226511249790292e+17
19484.0	5.22940984590336e+17
19485.0	5.232437636366335e+17
19486.0	5.234906821033983e+17
19487.0	5.2372581268848634e+17
19488.0	5.2394416759548576e+17
19489.0	5.2413236231099725e+17
19490.0	5.24239845405491e+17
19491.0	5.2451193060502176e+17
19492.0	5.246793169589588e+17
19493.0	5.2483212055674874e+17
19494.0	5.2497438491716256e+17
19495.0	5.251053301093717e+17
19496.0	5.251961959306581e+17
19497.0	5.2533417168513696e+17
19498.0	5.2523685432524774e+17
19499.0	5.241477911281664e+17
19500.0	5.2561221174777165e+17
19501.0	5.2568720981797536e+17
19502.0	5.2575325067236685e+17
19503.0	5.2581317951706445e+17
19504.0	5.258649699439958e+17
19505.0	5.259107257461417e+17
19506.0	5.259501045983915e+17
19507.0	5.2598195048065696e+17
19508.0	5.2601109837687456e+17
19509.0	5.2603307925613216e+17
19510.0	5.26034407592209e+17
19511.0	5.2406361759853184e+17
19512.0	5.2579793727651834e+17
19513.0	5.256623940785488e+17
19514.0	5.257541309868711e+17
19515.0	5.2602273924819616e+17
19516.0	5.260525651536553e+17
19517.0	5.260367435399167e+17
19518.0	5.2602466478325754e+17
19519.0	5.260037962334207e+17
19520.0	5.2597902747019936e+17
19521.0	5.2595559263546016e+17
19522.0	5.2592445873629856e+17
19523.0	5.25895070855987e+17
19524.0	5.258606833653077e+17
19525.0	5.2582315161463456e+17
19526.0	5.2578530368334496e+17
19527.0	5.257439140817577e+17
19528.0	5.257002511674025e+17
19529.0	5.256553073825108e+17
19530.0	5.256085215991124e+17
19531.0	5.255594471937366e+17
19532.0	5.2550861572450976e+17
19533.0	5.2545611212608845e+17
19534.0	5.25401690472448e+17
19535.0	5.253456077346132e+17
19536.0	5.252862699372543e+17
19537.0	5.252307560868521e+17
19538.0	5.251587405862228e+17
19539.0	5.250722711644843e+17
19540.0	5.2504543006556154e+17
19541.0	5.249836728538453e+17
19542.0	5.2491888218166605e+17
19543.0	5.249098447148375e+17
19544.0	5.250094699205972e+17
19545.0	5.2490092538757114e+17
19546.0	5.248083177417385e+17
19547.0	5.2480094765055994e+17
19548.0	5.247290704221525e+17
19549.0	5.246510151936681e+17
19550.0	5.2458458587682125e+17
19551.0	5.2451114759837005e+17
19552.0	5.244367494534485e+17
19553.0	5.2435971015529805e+17
19554.0	5.242847617875968e+17
19555.0	5.242285172894378e+17
19556.0	5.241527509625513e+17
19557.0	5.2407497933892256e+17
19558.0	5.242112717793963e+17
19559.0	5.243033138233343e+17
19560.0	5.24221537268531e+17
19561.0	5.241407056904192e+17
19562.0	5.240617186973012e+17
19563.0	5.2398018708985165e+17
19564.0	5.238982687675732e+17
19565.0	5.238159498193578e+17
19566.0	5.2373103466687136e+17
19567.0	5.2364998477523616e+17
19568.0	5.2356499803996154e+17
19569.0	5.2348232642068474e+17
19570.0	5.2339896274124794e+17
19571.0	5.2331405052477434e+17
19572.0	5.232279030158676e+17
19573.0	5.2314293221894816e+17
19574.0	5.2305358012197536e+17
19575.0	5.2297400739430394e+17
19576.0	5.228884105975124e+17
19577.0	5.228001775408469e+17
19578.0	5.227126684210515e+17
19579.0	5.2262754334365e+17
19580.0	5.225406716182526e+17
19581.0	5.2245481596299936e+17
19582.0	5.223688575472979e+17
19583.0	5.222815173181439e+17
19584.0	5.2219292942335994e+17
19585.0	5.220985842171903e+17
19586.0	5.2200780158293325e+17
19587.0	5.2192577323007994e+17
19588.0	5.218063748868777e+17
19589.0	5.2177938698731475e+17
19590.0	5.2198411278308685e+17
19591.0	5.2190256810338976e+17
19592.0	5.218132123014485e+17
19593.0	5.2172239960801274e+17
19594.0	5.216178646198953e+17
19595.0	5.215400009312938e+17
19596.0	5.2139661655190176e+17
19597.0	5.2135919832705696e+17
19598.0	5.212444420298068e+17
19599.0	5.2118408410781e+17
19600.0	5.21094449734178e+17
19601.0	5.2099901449830406e+17
19602.0	5.209083539881983e+17
19603.0	5.207834471956478e+17
19604.0	5.207259972545194e+17
19605.0	5.206205601415167e+17
19606.0	5.2055059237000525e+17
19607.0	5.204600547530068e+17
19608.0	5.2036756517683194e+17
19609.0	5.2027421492947616e+17
19610.0	5.2018657613578214e+17
19611.0	5.20094856843537e+17
19612.0	5.20004452885026e+17
19613.0	5.1991237686722554e+17
19614.0	5.1981888247562234e+17
19615.0	5.19729795248947e+17
19616.0	5.1963095430813e+17
19617.0	5.195464292259157e+17
19618.0	5.1941053776090445e+17
19619.0	5.193105614918996e+17
19620.0	5.192219819857236e+17
19621.0	5.191801828103508e+17
19622.0	5.190888760279038e+17
19623.0	5.189970420214442e+17
19624.0	5.189044509431125e+17
19625.0	5.188131611475966e+17
19626.0	5.187212344470185e+17
19627.0	5.1862894326142285e+17
19628.0	5.185198465482751e+17
19629.0	5.1843722931514016e+17
19630.0	5.182707348100436e+17
19631.0	5.1750740161112774e+17
19632.0	5.1816808732863136e+17
19633.0	5.180728996965034e+17
19634.0	5.179841049526271e+17
19635.0	5.1788913626316794e+17
19636.0	5.1779912209530874e+17
19637.0	5.1768110116154016e+17
19638.0	5.176140661871957e+17
19639.0	5.1752131950018554e+17
19640.0	5.1741688776185165e+17
19641.0	5.1727198518422195e+17
19642.0	5.1724844395397114e+17
19643.0	5.1715633962461856e+17
19644.0	5.170595510266538e+17
19645.0	5.1695155587754656e+17
19646.0	5.1687922279819936e+17
19647.0	5.1678724401834656e+17
19648.0	5.1669476926204576e+17
19649.0	5.1660201656319994e+17
19650.0	5.165096579891198e+17
19651.0	5.164166702694398e+17
19652.0	5.163242577985536e+17
19653.0	5.1623174857905485e+17
19654.0	5.161392861260458e+17
19655.0	5.1604629484120736e+17
