# Flux units: erg / (cm m2 s)
# Wavelength units: Angstrom
wave	flux
19000.0	3.8513905730846714e+17
19001.0	3.8507214005425485e+17
19002.0	3.850083976784554e+17
19003.0	3.849431143153663e+17
19004.0	3.8487317303787514e+17
19005.0	3.84809151041809e+17
19006.0	3.847425889752404e+17
19007.0	3.846803865381547e+17
19008.0	3.846138286658901e+17
19009.0	3.8454811154186234e+17
19010.0	3.844730614622891e+17
19011.0	3.8441519006351354e+17
19012.0	3.843423739401556e+17
19013.0	3.8428781156761594e+17
19014.0	3.8421801387513165e+17
19015.0	3.841510211234474e+17
19016.0	3.8408724099891194e+17
19017.0	3.840256888187561e+17
19018.0	3.839588969043285e+17
19019.0	3.838941946620587e+17
19020.0	3.8382789487930016e+17
19021.0	3.837629890734763e+17
19022.0	3.8369883677436576e+17
19023.0	3.836290094421333e+17
19024.0	3.8356429664419834e+17
19025.0	3.8350109337627296e+17
19026.0	3.8343547887288314e+17
19027.0	3.8336954035950925e+17
19028.0	3.8330394815583565e+17
19029.0	3.832373614127786e+17
19030.0	3.831705165103103e+17
19031.0	3.831087890781525e+17
19032.0	3.8304473408689485e+17
19033.0	3.829747961648469e+17
19034.0	3.829131756175359e+17
19035.0	3.82848979697664e+17
19036.0	3.826759013236735e+17
19037.0	3.827170456283819e+17
19038.0	3.826513963122687e+17
19039.0	3.825865252492629e+17
19040.0	3.825202171478015e+17
19041.0	3.8245579466560845e+17
19042.0	3.821812597828264e+17
19043.0	3.823265492850004e+17
19044.0	3.822630754145621e+17
19045.0	3.8219580360185165e+17
19046.0	3.821298512472746e+17
19047.0	3.8206500465104205e+17
19048.0	3.8197303076454394e+17
19049.0	3.814987671098704e+17
19050.0	3.818701537148927e+17
19051.0	3.8178730097158816e+17
19052.0	3.817396914268843e+17
19053.0	3.816762159486293e+17
19054.0	3.8160917657026554e+17
19055.0	3.814763091285333e+17
19056.0	3.814626975634772e+17
19057.0	3.814170381604181e+17
19058.0	3.811284775949649e+17
19059.0	3.811930691775146e+17
19060.0	3.812219521335296e+17
19061.0	3.8115511806634656e+17
19062.0	3.8108837900014925e+17
19063.0	3.8102752831733754e+17
19064.0	3.809611826768555e+17
19065.0	3.808952873648127e+17
19066.0	3.8074738103637344e+17
19067.0	3.8076248479498234e+17
19068.0	3.807038367509163e+17
19069.0	3.806385333949781e+17
19070.0	3.805699237391017e+17
19071.0	3.805071419288234e+17
19072.0	3.803557749500585e+17
19073.0	3.8038077495924045e+17
19074.0	3.8031138446376954e+17
19075.0	3.802503320349354e+17
19076.0	3.8018338339334816e+17
19077.0	3.80119894003985e+17
19078.0	3.800547711429289e+17
19079.0	3.799891246929237e+17
19080.0	3.7992626948232525e+17
19081.0	3.7986104511911245e+17
19082.0	3.7979803646689274e+17
19083.0	3.79731409178897e+17
19084.0	3.796656209614164e+17
19085.0	3.796030511033002e+17
19086.0	3.7942915707699194e+17
19087.0	3.792951445902673e+17
19088.0	3.7930648584847334e+17
19089.0	3.7934198531904845e+17
19090.0	3.792810829064874e+17
19091.0	3.792044621299712e+17
19092.0	3.789844273343151e+17
19093.0	3.7908674136855885e+17
19094.0	3.790228966517418e+17
19095.0	3.789566544008534e+17
19096.0	3.788937713680383e+17
19097.0	3.78828912398609e+17
19098.0	3.7867976406685e+17
19099.0	3.785955594993664e+17
19100.0	3.7863636916852045e+17
19101.0	3.7857051824619514e+17
19102.0	3.785048290142889e+17
19103.0	3.7844123204102816e+17
19104.0	3.7838022134551885e+17
19105.0	3.781250112290821e+17
19106.0	3.7824922484299085e+17
19107.0	3.7814225890618016e+17
19108.0	3.780512195805184e+17
19109.0	3.7805248570108576e+17
19110.0	3.779927121155413e+17
19111.0	3.77874338231091e+17
19112.0	3.777998083151188e+17
19113.0	3.7780042061359776e+17
19114.0	3.777018944552959e+17
19115.0	3.776653438921386e+17
19116.0	3.7760498345355936e+17
19117.0	3.775429228538537e+17
19118.0	3.77478364196591e+17
19119.0	3.770133002584057e+17
19120.0	3.77350700208401e+17
19121.0	3.7728518902469965e+17
19122.0	3.772248738146986e+17
19123.0	3.7716151395942394e+17
19124.0	3.770959435661311e+17
19125.0	3.7703200594548045e+17
19126.0	3.769677055175338e+17
19127.0	3.768689569213097e+17
19128.0	3.768382423826432e+17
19129.0	3.767754489681237e+17
19130.0	3.767129536987136e+17
19131.0	3.7664850961585485e+17
19132.0	3.765829565590186e+17
19133.0	3.7651972358144e+17
19134.0	3.764559760326655e+17
19135.0	3.7639313885757434e+17
19136.0	3.763278094969514e+17
19137.0	3.7625875475551565e+17
19138.0	3.762004649050111e+17
19139.0	3.761378565991082e+17
19140.0	3.760740550836223e+17
19141.0	3.7600979240441165e+17
19142.0	3.75945104003345e+17
19143.0	3.7587995506769914e+17
19144.0	3.7581596564739405e+17
19145.0	3.7575327799924045e+17
19146.0	3.7568077728754336e+17
19147.0	3.756231632093183e+17
19148.0	3.754905244270593e+17
19149.0	3.7541115980677126e+17
19150.0	3.7543623209779194e+17
19151.0	3.7537130622921376e+17
19152.0	3.753086256414719e+17
19153.0	3.7508784642676026e+17
19154.0	3.7516698434491725e+17
19155.0	3.7511782081058125e+17
19156.0	3.750531811333459e+17
19157.0	3.7494178796885344e+17
19158.0	3.748126157788503e+17
19159.0	3.7485872376272205e+17
19160.0	3.7479764476996256e+17
19161.0	3.7473467470533965e+17
19162.0	3.7466407520174074e+17
19163.0	3.7460823419562656e+17
19164.0	3.7454395417995936e+17
19165.0	3.743119632411303e+17
19166.0	3.744122259810986e+17
19167.0	3.743532559542954e+17
19168.0	3.7429024974875296e+17
19169.0	3.742266576688469e+17
19170.0	3.741638460091051e+17
19171.0	3.740985704054783e+17
19172.0	3.740363834174122e+17
19173.0	3.739744712960683e+17
19174.0	3.739088136612522e+17
19175.0	3.73845823394065e+17
19176.0	3.7378373630033914e+17
19177.0	3.7371754340242765e+17
19178.0	3.7365493894130336e+17
19179.0	3.7359095518330874e+17
19180.0	3.7352992652219725e+17
19181.0	3.734627335624021e+17
19182.0	3.734004036883797e+17
19183.0	3.7333958208607565e+17
19184.0	3.732767542083582e+17
19185.0	3.7321269537232205e+17
19186.0	3.731499787135657e+17
19187.0	3.730867808982357e+17
19188.0	3.730245043617791e+17
19189.0	3.729614804003498e+17
19190.0	3.7289785665344845e+17
19191.0	3.728344001893717e+17
19192.0	3.727714308937044e+17
19193.0	3.7269119378827936e+17
19194.0	3.7261810608373754e+17
19195.0	3.725827809563989e+17
19196.0	3.725188118085632e+17
19197.0	3.724538834234027e+17
19198.0	3.723899142755668e+17
19199.0	3.722723131217236e+17
19200.0	3.7223061565822285e+17
19201.0	3.7220248152528205e+17
19202.0	3.721411811431766e+17
19203.0	3.720771085358421e+17
19204.0	3.720152022865237e+17
19205.0	3.7195204361803085e+17
19206.0	3.718886168636074e+17
19207.0	3.7181959931166714e+17
19208.0	3.7175665811783674e+17
19209.0	3.7169991967047674e+17
19210.0	3.7163466825400314e+17
19211.0	3.7157358143187616e+17
19212.0	3.7151081744738976e+17
19213.0	3.7144706171972256e+17
19214.0	3.713833060619604e+17
19215.0	3.713223212313259e+17
19216.0	3.7125944686673914e+17
19217.0	3.711979732598784e+17
19218.0	3.7111901220154016e+17
19219.0	3.7106766790874445e+17
19220.0	3.7100868152415565e+17
19221.0	3.709399375806464e+17
19222.0	3.7088009604737696e+17
19223.0	3.708194836010325e+17
19224.0	3.707552836965717e+17
19225.0	3.706923240478036e+17
19226.0	3.7063260414935034e+17
19227.0	3.705693640414549e+17
19228.0	3.705069961390761e+17
19229.0	3.704388942736041e+17
19230.0	3.703801645804201e+17
19231.0	3.70320019099921e+17
19232.0	3.702569948588714e+17
19233.0	3.7019241893505696e+17
19234.0	3.7012928606153376e+17
19235.0	3.700675982655487e+17
19236.0	3.7000550138511354e+17
19237.0	3.699404676530176e+17
19238.0	3.6987699224466765e+17
19239.0	3.6981782592443725e+17
19240.0	3.697535750591829e+17
19241.0	3.696931142369279e+17
19242.0	3.6962627059275085e+17
19243.0	3.6956581864843936e+17
19244.0	3.695042073285972e+17
19245.0	3.69442885275921e+17
19246.0	3.6938063313633274e+17
19247.0	3.693189192657578e+17
19248.0	3.692552553933482e+17
19249.0	3.691883442907818e+17
19250.0	3.6910216406630394e+17
19251.0	3.6904056546918394e+17
19252.0	3.690026177134591e+17
19253.0	3.6894249390353056e+17
19254.0	3.6888149152672416e+17
19255.0	3.6881570869193376e+17
19256.0	3.68754683875601e+17
19257.0	3.686935852395178e+17
19258.0	3.68630458028305e+17
19259.0	3.685694582379861e+17
19260.0	3.68502060945681e+17
19261.0	3.684452922294272e+17
19262.0	3.683812478637397e+17
19263.0	3.6831714897210016e+17
19264.0	3.6824716547194874e+17
19265.0	3.681893416785236e+17
19266.0	3.6812256290624845e+17
19267.0	3.680711147345237e+17
19268.0	3.680062453492393e+17
19269.0	3.6794567400707405e+17
19270.0	3.6788408428789754e+17
19271.0	3.6781338950369274e+17
19272.0	3.6775946040115194e+17
19273.0	3.676953435439103e+17
19274.0	3.6763015336427514e+17
19275.0	3.675740668515668e+17
19276.0	3.6751158276696736e+17
19277.0	3.674503383089151e+17
19278.0	3.6738635580921165e+17
19279.0	3.673258476612266e+17
19280.0	3.672634344603648e+17
19281.0	3.672019268097365e+17
19282.0	3.671399871457963e+17
19283.0	3.670767880022698e+17
19284.0	3.6701574480090445e+17
19285.0	3.6695090365726714e+17
19286.0	3.6688978069422074e+17
19287.0	3.668271341502463e+17
19288.0	3.6674616248238074e+17
19289.0	3.6662717189543226e+17
19290.0	3.666443518345216e+17
19291.0	3.665783398509227e+17
19292.0	3.665198430814208e+17
19293.0	3.6645727133586765e+17
19294.0	3.663967155825322e+17
19295.0	3.6633330539560954e+17
19296.0	3.661835056884396e+17
19297.0	3.661972609783125e+17
19298.0	3.661475416986965e+17
19299.0	3.659888114095445e+17
19300.0	3.660251447776597e+17
19301.0	3.6596355827411616e+17
19302.0	3.6590201623019514e+17
19303.0	3.6583716425127245e+17
19304.0	3.657769527104853e+17
19305.0	3.65715202838801e+17
19306.0	3.6565476892999674e+17
19307.0	3.6559156859808416e+17
19308.0	3.6553054741681485e+17
19309.0	3.6546625992130554e+17
19310.0	3.654041780005546e+17
19311.0	3.653437183666858e+17
19312.0	3.652822481152682e+17
19313.0	3.652205339650729e+17
19314.0	3.644501525179037e+17
19315.0	3.64434587036332e+17
19316.0	3.6492389167486304e+17
19317.0	3.6497676563032736e+17
19318.0	3.6491481778749434e+17
19319.0	3.648509400754858e+17
19320.0	3.647592661516286e+17
19321.0	3.6465170441393485e+17
19322.0	3.6466816628817914e+17
19323.0	3.6460819382271994e+17
19324.0	3.6454644465008634e+17
19325.0	3.644839150572885e+17
19326.0	3.644229622431744e+17
19327.0	3.6436227681594016e+17
19328.0	3.64126487305694e+17
19329.0	3.6423942858779296e+17
19330.0	3.641782271912618e+17
19331.0	3.6411721803366394e+17
19332.0	3.6405516903819936e+17
19333.0	3.6399530863056205e+17
19334.0	3.639267499354795e+17
19335.0	3.6351669163786285e+17
19336.0	3.638071989196117e+17
19337.0	3.637485747830783e+17
19338.0	3.6368311197368314e+17
19339.0	3.6362356124549114e+17
19340.0	3.635506434801663e+17
19341.0	3.633759906343597e+17
19342.0	3.63402403704559e+17
19343.0	3.63380848267537e+17
19344.0	3.631897084515671e+17
19345.0	3.631577401655296e+17
19346.0	3.631839734398976e+17
19347.0	3.6297812986210976e+17
19348.0	3.6307541974930765e+17
19349.0	3.6301335236881056e+17
19350.0	3.628976639574015e+17
19351.0	3.6288988471186765e+17
19352.0	3.626599521277266e+17
19353.0	3.6276818747064314e+17
19354.0	3.6270851266095776e+17
19355.0	3.626457701373269e+17
19356.0	3.625847722344447e+17
19357.0	3.625248092760746e+17
19358.0	3.6246344311330125e+17
19359.0	3.6236723004375014e+17
19360.0	3.622064993512106e+17
19361.0	3.6227933742475936e+17
19362.0	3.6221887597335885e+17
19363.0	3.621578277388287e+17
19364.0	3.6209757823959034e+17
19365.0	3.6203599334386336e+17
19366.0	3.6197098631550285e+17
19367.0	3.6191347849297914e+17
19368.0	3.618531654500352e+17
19369.0	3.617925944573952e+17
19370.0	3.617321852949845e+17
19371.0	3.616685878323882e+17
19372.0	3.6160928974110714e+17
19373.0	3.615466321521322e+17
19374.0	3.61485383569681e+17
19375.0	3.614268369578666e+17
19376.0	3.613660452749312e+17
19377.0	3.6130543555488416e+17
19378.0	3.612447488693589e+17
19379.0	3.611837906026496e+17
19380.0	3.6111867053779616e+17
19381.0	3.6105821978187085e+17
19382.0	3.609990216548352e+17
19383.0	3.60937103102225e+17
19384.0	3.608735428990293e+17
19385.0	3.608182609237333e+17
19386.0	3.607565661372415e+17
19387.0	3.6069496383515296e+17
19388.0	3.6063384010315085e+17
19389.0	3.6057430538321914e+17
19390.0	3.6051327895906976e+17
19391.0	3.6034993731228986e+17
19392.0	3.6039160723319456e+17
19393.0	3.603302027624447e+17
19394.0	3.6027029635727354e+17
19395.0	3.601572822340949e+17
19396.0	3.601375309769387e+17
19397.0	3.60086022197521e+17
19398.0	3.599864459253078e+17
19399.0	3.598881866645503e+17
19400.0	3.598713686938965e+17
19401.0	3.5984377115224736e+17
19402.0	3.597844562837504e+17
19403.0	3.5972363566011725e+17
19404.0	3.5965999261941754e+17
19405.0	3.5959834522856096e+17
19406.0	3.5954050906193914e+17
19407.0	3.594153543161171e+17
19408.0	3.594028482996906e+17
19409.0	3.593575140250965e+17
19410.0	3.592969784743253e+17
19411.0	3.592351464641876e+17
19412.0	3.591736110612479e+17
19413.0	3.5904777683817805e+17
19414.0	3.590528774613674e+17
19415.0	3.5899137547304954e+17
19416.0	3.5892624827787936e+17
19417.0	3.588686498583893e+17
19418.0	3.588077303889919e+17
19419.0	3.587460578323114e+17
19420.0	3.5868441274832205e+17
19421.0	3.5862280520335354e+17
19422.0	3.585589419616938e+17
19423.0	3.5849937620391245e+17
19424.0	3.584374285008895e+17
19425.0	3.583734947250176e+17
19426.0	3.5831259154350074e+17
19427.0	3.582497620579669e+17
19428.0	3.581838105422506e+17
19429.0	3.581230203273215e+17
19430.0	3.58056953188625e+17
19431.0	3.5797045650391034e+17
19432.0	3.5792626231104845e+17
19433.0	3.5785900734545914e+17
19434.0	3.57793266733329e+17
19435.0	3.577209985258837e+17
19436.0	3.5763954786850125e+17
19437.0	3.5757897352041805e+17
19438.0	3.5726738601629e+17
19439.0	3.5742297924567034e+17
19440.0	3.5733594394241696e+17
19441.0	3.5724076728538445e+17
19442.0	3.571336040764757e+17
19443.0	3.570053425397759e+17
19444.0	3.568458565069482e+17
19445.0	3.5663448259952634e+17
19446.0	3.563212591770282e+17
19447.0	3.5579603738514765e+17
19448.0	3.547286618155691e+17
19449.0	3.517956452865365e+17
19450.0	3.416869921882107e+17
19451.0	3.330903620539733e+17
19452.0	3.4513191666974726e+17
19453.0	3.52666752245214e+17
19454.0	3.547221597356031e+17
19455.0	3.554708434889386e+17
19456.0	3.5580169130693965e+17
19457.0	3.559549677426004e+17
19458.0	3.5326037977989594e+17
19459.0	3.5598958997449414e+17
19460.0	3.5606329172514125e+17
19461.0	3.560529840832512e+17
19462.0	3.56026762203409e+17
19463.0	3.559926999810048e+17
19464.0	3.5595082971217914e+17
19465.0	3.5590725382963194e+17
19466.0	3.55860685520896e+17
19467.0	3.5581113576106656e+17
19468.0	3.5576084151227725e+17
19469.0	3.5557790470635494e+17
19470.0	3.556549001740287e+17
19471.0	3.5559971718430714e+17
19472.0	3.555439940381354e+17
19473.0	3.554884543228586e+17
19474.0	3.553019432708776e+17
19475.0	3.55354636521745e+17
19476.0	3.553187433458346e+17
19477.0	3.5526046118488736e+17
19478.0	3.552051205592405e+17
19479.0	3.5502309510567226e+17
19480.0	3.550890727658837e+17
19481.0	3.5502622140006394e+17
19482.0	3.5496963702347085e+17
19483.0	3.549142746573482e+17
19484.0	3.548540687788714e+17
19485.0	3.5479683246762656e+17
19486.0	3.546061384362671e+17
19487.0	3.5467885620319565e+17
19488.0	3.5462244197553485e+17
19489.0	3.5456367054902605e+17
19490.0	3.544711228118356e+17
19491.0	3.5444358727598074e+17
19492.0	3.5438656179841696e+17
19493.0	3.543265115286186e+17
19494.0	3.542672985118037e+17
19495.0	3.5421071993733114e+17
19496.0	3.5413962599519565e+17
19497.0	3.5409310592095565e+17
19498.0	3.540329071727957e+17
19499.0	3.53804103205956e+17
19500.0	3.539157929077418e+17
19501.0	3.5386270665058976e+17
19502.0	3.538048604176383e+17
19503.0	3.5374616525755725e+17
19504.0	3.5368598049041056e+17
19505.0	3.5362432729743354e+17
19506.0	3.5356841988150605e+17
19507.0	3.5350894982376096e+17
19508.0	3.534495484826965e+17
19509.0	3.533901236535295e+17
19510.0	3.533117508463274e+17
19511.0	3.522324834462367e+17
19512.0	3.531888636111529e+17
19513.0	3.530926722820777e+17
19514.0	3.5305447853042336e+17
19515.0	3.5302605044667725e+17
19516.0	3.529623595909119e+17
19517.0	3.529139894790826e+17
19518.0	3.5282592517324794e+17
19519.0	3.527657043350869e+17
19520.0	3.52628189045282e+17
19521.0	3.526822592861525e+17
19522.0	3.526078745630036e+17
19523.0	3.525400837051734e+17
19524.0	3.524165076953773e+17
19525.0	3.5244447818055674e+17
19526.0	3.523849106052437e+17
19527.0	3.523275624458922e+17
19528.0	3.5226036983562234e+17
19529.0	3.521981502018901e+17
19530.0	3.521508074149205e+17
19531.0	3.5209094987339085e+17
19532.0	3.5203166660198394e+17
19533.0	3.519702317924352e+17
19534.0	3.5191506075647994e+17
19535.0	3.518569630050986e+17
19536.0	3.517963942843733e+17
19537.0	3.5173841250549754e+17
19538.0	3.5157269045138784e+17
19539.0	3.516092924646742e+17
19540.0	3.5156263513183565e+17
19541.0	3.51482242732305e+17
19542.0	3.5143552444224845e+17
19543.0	3.512722782158848e+17
19544.0	3.5131992917934074e+17
19545.0	3.5126138421029536e+17
19546.0	3.511890349479253e+17
19547.0	3.5115185331677856e+17
19548.0	3.510926664444586e+17
19549.0	3.510313594563242e+17
19550.0	3.5097152236202656e+17
19551.0	3.5091682147259725e+17
19552.0	3.5085567708364794e+17
19553.0	3.50798906724625e+17
19554.0	3.507372808994815e+17
19555.0	3.5066844066174285e+17
19556.0	3.5061344225634976e+17
19557.0	3.505633492642474e+17
19558.0	3.5050526213843616e+17
19559.0	3.504469071364096e+17
19560.0	3.503492579371689e+17
19561.0	3.5032944170325325e+17
19562.0	3.502345672458239e+17
19563.0	3.5021329583308794e+17
19564.0	3.5014872567644154e+17
19565.0	3.5009422069596154e+17
19566.0	3.50033252782353e+17
19567.0	3.499788598596948e+17
19568.0	3.4992022576168954e+17
19569.0	3.498621196916053e+17
19570.0	3.4980332869167776e+17
19571.0	3.497442079845034e+17
19572.0	3.496859262429866e+17
19573.0	3.496168450075306e+17
19574.0	3.495643796122282e+17
19575.0	3.4951160747349325e+17
19576.0	3.4944843482398714e+17
19577.0	3.493801860530175e+17
19578.0	3.493356246488405e+17
19579.0	3.492785044499114e+17
19580.0	3.4921803981783034e+17
19581.0	3.491570205589503e+17
19582.0	3.491031905468415e+17
19583.0	3.4904579478213965e+17
19584.0	3.4898485822095354e+17
19585.0	3.48927341695249e+17
19586.0	3.4886881140626765e+17
19587.0	3.4881235694824096e+17
19588.0	3.4874419104972794e+17
19589.0	3.4869608472466765e+17
19590.0	3.486340263619242e+17
19591.0	3.4857887423528954e+17
19592.0	3.485205569120938e+17
19593.0	3.484538421728597e+17
19594.0	3.483928896733183e+17
19595.0	3.4834603524314445e+17
19596.0	3.48285270298897e+17
19597.0	3.4823000733777914e+17
19598.0	3.4815142055116794e+17
19599.0	3.4811359271758496e+17
19600.0	3.480539254576469e+17
19601.0	3.4799614940938234e+17
19602.0	3.4793783449791136e+17
19603.0	3.4787176043861325e+17
19604.0	3.4782293996339194e+17
19605.0	3.477589703611733e+17
19606.0	3.477054900841131e+17
19607.0	3.476493941691733e+17
19608.0	3.47586572652817e+17
19609.0	3.4753179140751354e+17
19610.0	3.4742028426280966e+17
19611.0	3.473320662357333e+17
19612.0	3.473595284761258e+17
19613.0	3.472980579101354e+17
19614.0	3.4724226513851725e+17
19615.0	3.4718604129730554e+17
19616.0	3.47072900820719e+17
19617.0	3.469856202205867e+17
19618.0	3.469962797645823e+17
19619.0	3.4692758859939834e+17
19620.0	3.468539978579966e+17
19621.0	3.4671209826222074e+17
19622.0	3.4678031372342605e+17
19623.0	3.4671889747367245e+17
19624.0	3.466528959059285e+17
19625.0	3.466071684502869e+17
19626.0	3.4654747266908154e+17
19627.0	3.4649158007302816e+17
19628.0	3.464320015226197e+17
19629.0	3.4608631292887014e+17
19630.0	3.4631800477887136e+17
19631.0	3.4620617582619296e+17
19632.0	3.4620280489902074e+17
19633.0	3.4614502514578765e+17
19634.0	3.460872495519061e+17
19635.0	3.460170637464916e+17
19636.0	3.458295129265491e+17
19637.0	3.4577297657473696e+17
19638.0	3.4584700747339085e+17
19639.0	3.457970575769599e+17
19640.0	3.4573995128913914e+17
19641.0	3.456366921383937e+17
19642.0	3.45619625934848e+17
19643.0	3.4556163415954765e+17
19644.0	3.4550990545879034e+17
19645.0	3.454486370233002e+17
19646.0	3.452467764614482e+17
19647.0	3.453322513088511e+17
19648.0	3.452811128515242e+17
19649.0	3.452222280389973e+17
19650.0	3.451650000464554e+17
19651.0	3.4510807320494074e+17
19652.0	3.4505097736792736e+17
19653.0	3.449921033906858e+17
19654.0	3.449364642704042e+17
19655.0	3.4487688184026445e+17
