# Flux units: erg / (cm m2 s)
# Wavelength units: Angstrom
wave	flux
19000.0	3.939874758109865e+17
19001.0	3.9391136611041274e+17
19002.0	3.938429135312212e+17
19003.0	3.9377033962891936e+17
19004.0	3.9369796558520314e+17
19005.0	3.936255532335104e+17
19006.0	3.935533214466048e+17
19007.0	3.9347990560767994e+17
19008.0	3.934062540488704e+17
19009.0	3.93335708581888e+17
19010.0	3.932418808130218e+17
19011.0	3.931907824462506e+17
19012.0	3.931136523414186e+17
19013.0	3.930472467922943e+17
19014.0	3.929729983141204e+17
19015.0	3.9290130689338016e+17
19016.0	3.9282847986483194e+17
19017.0	3.9275759689618765e+17
19018.0	3.926856861133482e+17
19019.0	3.926138244737706e+17
19020.0	3.9254080954040314e+17
19021.0	3.924694763132244e+17
19022.0	3.9239769835001165e+17
19023.0	3.9232429124922016e+17
19024.0	3.922525574660096e+17
19025.0	3.9218147400963405e+17
19026.0	3.9210817491217056e+17
19027.0	3.920349366321151e+17
19028.0	3.9196534676739405e+17
19029.0	3.918926828972714e+17
19030.0	3.918217263185918e+17
19031.0	3.9174994513974605e+17
19032.0	3.9167776550202016e+17
19033.0	3.9160228767334394e+17
19034.0	3.9153338679295994e+17
19035.0	3.914608049214804e+17
19036.0	3.9116000761391744e+17
19037.0	3.913178335412223e+17
19038.0	3.9124547159108256e+17
19039.0	3.911743079535957e+17
19040.0	3.911026923798527e+17
19041.0	3.910305597183317e+17
19042.0	3.909552941214379e+17
19043.0	3.908871781351423e+17
19044.0	3.9081497948323834e+17
19045.0	3.9074353203118074e+17
19046.0	3.906691955425279e+17
19047.0	3.906000323084287e+17
19048.0	3.905188844797951e+17
19049.0	3.904538131387733e+17
19050.0	3.9038286641670816e+17
19051.0	3.902770516066303e+17
19052.0	3.902398681929044e+17
19053.0	3.901694728121001e+17
19054.0	3.900980340981759e+17
19055.0	3.9001651115895456e+17
19056.0	3.899537380169044e+17
19057.0	3.898830315585536e+17
19058.0	3.8981073678718285e+17
19059.0	3.897399201584468e+17
19060.0	3.896675717698901e+17
19061.0	3.895970460161366e+17
19062.0	3.895252063267498e+17
19063.0	3.894538464657406e+17
19064.0	3.8937712467640314e+17
19065.0	3.893040701767679e+17
19066.0	3.892371448135679e+17
19067.0	3.8916748015042554e+17
19068.0	3.890963890743978e+17
19069.0	3.890250442429781e+17
19070.0	3.8895243692605434e+17
19071.0	3.888819554222079e+17
19072.0	3.888108479184895e+17
19073.0	3.8873917544202234e+17
19074.0	3.886681683918847e+17
19075.0	3.885968153116672e+17
19076.0	3.8852454025352525e+17
19077.0	3.884536882528255e+17
19078.0	3.8838089470880416e+17
19079.0	3.8831148331171834e+17
19080.0	3.88239762460945e+17
19081.0	3.881671662589268e+17
19082.0	3.880956654693034e+17
19083.0	3.880230304699732e+17
19084.0	3.8794678186803194e+17
19085.0	3.878835614034602e+17
19086.0	3.877987521571498e+17
19087.0	3.877358111730347e+17
19088.0	3.8766795187814394e+17
19089.0	3.8758957319891616e+17
19090.0	3.8752710477305165e+17
19091.0	3.8745644675891194e+17
19092.0	3.8738245511195296e+17
19093.0	3.873149629584723e+17
19094.0	3.872438037250047e+17
19095.0	3.871728159686655e+17
19096.0	3.87101018501939e+17
19097.0	3.870308337451008e+17
19098.0	3.8695962215273805e+17
19099.0	3.8688854981126816e+17
19100.0	3.8681712514826234e+17
19101.0	3.867467776524287e+17
19102.0	3.8667119818178554e+17
19103.0	3.866047481031338e+17
19104.0	3.8653410372048205e+17
19105.0	3.864629518270463e+17
19106.0	3.863912539750399e+17
19107.0	3.8632062853666125e+17
19108.0	3.862505242405547e+17
19109.0	3.8616307915380045e+17
19110.0	3.861088672852651e+17
19111.0	3.8603797026570234e+17
19112.0	3.85967232070451e+17
19113.0	3.8589635637193376e+17
19114.0	3.8582552387474765e+17
19115.0	3.857526251236011e+17
19116.0	3.856833789121876e+17
19117.0	3.8561284504944634e+17
19118.0	3.855389488928085e+17
19119.0	3.8522267614139686e+17
19120.0	3.853989824517459e+17
19121.0	3.853295755984895e+17
19122.0	3.852600739539627e+17
19123.0	3.8518929178842445e+17
19124.0	3.851177851966804e+17
19125.0	3.8504805139742714e+17
19126.0	3.849773008988843e+17
19127.0	3.8483463004050765e+17
19128.0	3.848274331041791e+17
19129.0	3.84762505138449e+17
19130.0	3.8469488114401274e+17
19131.0	3.84624444379409e+17
19132.0	3.8455416532063565e+17
19133.0	3.8447416113889274e+17
19134.0	3.8440880381624314e+17
19135.0	3.843426770485248e+17
19136.0	3.8427248103697056e+17
19137.0	3.8419533611226445e+17
19138.0	3.841305805324287e+17
19139.0	3.8406119737698976e+17
19140.0	3.839908430304597e+17
19141.0	3.839204700192768e+17
19142.0	3.838491023289002e+17
19143.0	3.837770129386155e+17
19144.0	3.837082150283946e+17
19145.0	3.8363895238929056e+17
19146.0	3.8354474818164045e+17
19147.0	3.8349457619681274e+17
19148.0	3.8342801175347194e+17
19149.0	3.833576330799785e+17
19150.0	3.832873158530389e+17
19151.0	3.832173232652287e+17
19152.0	3.831469236202154e+17
19153.0	3.830761236288853e+17
19154.0	3.8300181027880954e+17
19155.0	3.8293672747335674e+17
19156.0	3.8286652531015674e+17
19157.0	3.827962667335679e+17
19158.0	3.8271507528417274e+17
19159.0	3.8265534210375674e+17
19160.0	3.8258535245195936e+17
19161.0	3.825151943988563e+17
19162.0	3.8241986569830394e+17
19163.0	3.8237579873266336e+17
19164.0	3.8230592861853e+17
19165.0	3.82234905490227e+17
19166.0	3.8216033293216416e+17
19167.0	3.8209346754751136e+17
19168.0	3.82023689638161e+17
19169.0	3.8195428355386016e+17
19170.0	3.8188594757631994e+17
19171.0	3.8181425070298445e+17
19172.0	3.8174592115671034e+17
19173.0	3.816761514961578e+17
19174.0	3.816037914334549e+17
19175.0	3.815363272420009e+17
19176.0	3.814663563247616e+17
19177.0	3.8139068031522125e+17
19178.0	3.813266588084906e+17
19179.0	3.8125449273234765e+17
19180.0	3.8118591865815034e+17
19181.0	3.8111169912067405e+17
19182.0	3.810466135889238e+17
19183.0	3.8097778233398605e+17
19184.0	3.809062677031595e+17
19185.0	3.808377531880789e+17
19186.0	3.8076855688888314e+17
19187.0	3.806962907086848e+17
19188.0	3.806289838735359e+17
19189.0	3.8055923784089594e+17
19190.0	3.8048946825024845e+17
19191.0	3.8041880695057056e+17
19192.0	3.8035061106278394e+17
19193.0	3.8028045461749754e+17
19194.0	3.802104947452587e+17
19195.0	3.801415444419924e+17
19196.0	3.800714193840811e+17
19197.0	3.800022153953279e+17
19198.0	3.7993300008195405e+17
19199.0	3.7970986087219194e+17
19200.0	3.7970091917530464e+17
19201.0	3.797244283890346e+17
19202.0	3.7965492793289376e+17
19203.0	3.795850636907861e+17
19204.0	3.795147844222976e+17
19205.0	3.79446086406417e+17
19206.0	3.793762908110848e+17
19207.0	3.7930416234386765e+17
19208.0	3.792276569806164e+17
19209.0	3.791681272938495e+17
19210.0	3.7909882383018656e+17
19211.0	3.790299707648682e+17
19212.0	3.789604899520511e+17
19213.0	3.788866397230421e+17
19214.0	3.7881665111982074e+17
19215.0	3.787356545657512e+17
19216.0	3.7850991656523085e+17
19217.0	3.784406542756521e+17
19218.0	3.7835425993195514e+17
19219.0	3.7829684340544845e+17
19220.0	3.7823221127796045e+17
19221.0	3.7815053461749766e+17
19222.0	3.7809483034569376e+17
19223.0	3.780246047642965e+17
19224.0	3.779543049437184e+17
19225.0	3.778811324443306e+17
19226.0	3.7781706438082554e+17
19227.0	3.777480338265429e+17
19228.0	3.7767981507979936e+17
19229.0	3.776107780243455e+17
19230.0	3.775409829882538e+17
19231.0	3.774718194046293e+17
19232.0	3.774029019567445e+17
19233.0	3.7733162178751136e+17
19234.0	3.7726415717662714e+17
19235.0	3.7719484798074874e+17
19236.0	3.771272237765972e+17
19237.0	3.770574336338602e+17
19238.0	3.769854159661738e+17
19239.0	3.769202838776489e+17
19240.0	3.768471123569322e+17
19241.0	3.767805049219755e+17
19242.0	3.7671264087354016e+17
19243.0	3.7663795730623136e+17
19244.0	3.765753481614678e+17
19245.0	3.7650624896040954e+17
19246.0	3.764370943945387e+17
19247.0	3.763685686946474e+17
19248.0	3.7630002768554656e+17
19249.0	3.762309800045227e+17
19250.0	3.7616139594192205e+17
19251.0	3.7609033087057914e+17
19252.0	3.7601214638762656e+17
19253.0	3.7595454020867405e+17
19254.0	3.7588618927144954e+17
19255.0	3.7581001994185376e+17
19256.0	3.757484392404308e+17
19257.0	3.7568017917979296e+17
19258.0	3.756114483085311e+17
19259.0	3.755397288558591e+17
19260.0	3.754692810462548e+17
19261.0	3.7540461906930336e+17
19262.0	3.7533403878959776e+17
19263.0	3.752654024998912e+17
19264.0	3.7517685186450765e+17
19265.0	3.751214123231914e+17
19266.0	3.750510585359018e+17
19267.0	3.74992582807825e+17
19268.0	3.7492356469664416e+17
19269.0	3.74854971887889e+17
19270.0	3.74786375094545e+17
19271.0	3.747036376946006e+17
19272.0	3.7464746659676166e+17
19273.0	3.7445978833988243e+17
19274.0	3.74449012683571e+17
19275.0	3.7444290479827616e+17
19276.0	3.743734184629589e+17
19277.0	3.7430495309114016e+17
19278.0	3.7423644549666125e+17
19279.0	3.7416673770209274e+17
19280.0	3.7409552324362234e+17
19281.0	3.7403021988768416e+17
19282.0	3.7396213298189645e+17
19283.0	3.738912228900864e+17
19284.0	3.738214489653248e+17
19285.0	3.7374865891655674e+17
19286.0	3.7368619098002765e+17
19287.0	3.7361896243855354e+17
19288.0	3.735033953823402e+17
19289.0	3.7331488770184486e+17
19290.0	3.734130653134847e+17
19291.0	3.733345838738091e+17
19292.0	3.7327571311220045e+17
19293.0	3.732068255137791e+17
19294.0	3.731380794731178e+17
19295.0	3.730698657595391e+17
19296.0	3.7300091119206394e+17
19297.0	3.7293161248194554e+17
19298.0	3.728626557474132e+17
19299.0	3.727951262646272e+17
19300.0	3.7272640832580256e+17
19301.0	3.7265759601513805e+17
19302.0	3.725889077160618e+17
19303.0	3.7251691870945274e+17
19304.0	3.7245007499537056e+17
19305.0	3.7238237774042445e+17
19306.0	3.723139741646848e+17
19307.0	3.7224346658624845e+17
19308.0	3.7217583748874234e+17
19309.0	3.7210253601450656e+17
19310.0	3.720310910790315e+17
19311.0	3.719690738903722e+17
19312.0	3.7190140802280096e+17
19313.0	3.7183236397684045e+17
19314.0	3.714803010196813e+17
19315.0	3.7144553778926995e+17
19316.0	3.716265400423765e+17
19317.0	3.7155750312673274e+17
19318.0	3.7148859770251936e+17
19319.0	3.7142035854349645e+17
19320.0	3.713512956231679e+17
19321.0	3.7128254601734816e+17
19322.0	3.7121000538985805e+17
19323.0	3.711419342127104e+17
19324.0	3.710755189467818e+17
19325.0	3.7100172610983245e+17
19326.0	3.709376927192406e+17
19327.0	3.7086796702897485e+17
19328.0	3.7079950466307405e+17
19329.0	3.707304733398358e+17
19330.0	3.7065951263675725e+17
19331.0	3.705903055022763e+17
19332.0	3.705228350193664e+17
19333.0	3.7045286682842445e+17
19334.0	3.7038385186297165e+17
19335.0	3.703146612260864e+17
19336.0	3.7024523088472736e+17
19337.0	3.701756838718121e+17
19338.0	3.7009806617914016e+17
19339.0	3.7003657390762656e+17
19340.0	3.699608606386858e+17
19341.0	3.6989669491780256e+17
19342.0	3.6981158473018016e+17
19343.0	3.69757746434321e+17
19344.0	3.696873841186132e+17
19345.0	3.695210427056125e+17
19346.0	3.695274392289279e+17
19347.0	3.694749775036416e+17
19348.0	3.6940757042462714e+17
19349.0	3.693359508662953e+17
19350.0	3.6926572157992954e+17
19351.0	3.691946259600725e+17
19352.0	3.690238975847082e+17
19353.0	3.6886994453790714e+17
19354.0	3.687990223525206e+17
19355.0	3.6872415053086714e+17
19356.0	3.686567846958421e+17
19357.0	3.6858540700904096e+17
19358.0	3.6851320605026976e+17
19359.0	3.684359903816363e+17
19360.0	3.6836906480872096e+17
19361.0	3.6829696549191674e+17
19362.0	3.6822678786539514e+17
19363.0	3.681543925006336e+17
19364.0	3.6808146823413754e+17
19365.0	3.6800904833269754e+17
19366.0	3.6793633273282554e+17
19367.0	3.678632239868586e+17
19368.0	3.6775506686771194e+17
19369.0	3.6765829980050765e+17
19370.0	3.675739573103274e+17
19371.0	3.6751108630118394e+17
19372.0	3.674387705582932e+17
19373.0	3.6736296620305056e+17
19374.0	3.6728856078800205e+17
19375.0	3.6721317222809594e+17
19376.0	3.6713742051136845e+17
19377.0	3.670606930597205e+17
19378.0	3.669841677735253e+17
19379.0	3.6672325731833165e+17
19380.0	3.6662374102466554e+17
19381.0	3.665450261719721e+17
19382.0	3.664629223216469e+17
19383.0	3.663823234575018e+17
19384.0	3.6630610512445434e+17
19385.0	3.662251675702613e+17
19386.0	3.66143635263761e+17
19387.0	3.66061130088448e+17
19388.0	3.6597779702743034e+17
19389.0	3.6589395722458445e+17
19390.0	3.657442605574827e+17
19391.0	3.652856716460028e+17
19392.0	3.654073993658367e+17
19393.0	3.6531873702215674e+17
19394.0	3.652281037051221e+17
19395.0	3.6513637637379405e+17
19396.0	3.650436891759957e+17
19397.0	3.6484608859395386e+17
19398.0	3.64601975836945e+17
19399.0	3.644723661111295e+17
19400.0	3.644005702522197e+17
19401.0	3.642988390165163e+17
19402.0	3.6408891466055686e+17
19403.0	3.639471173358933e+17
19404.0	3.6383597373248845e+17
19405.0	3.6372044833969485e+17
19406.0	3.6360273296097274e+17
19407.0	3.6348175581183994e+17
19408.0	3.6332431778775046e+17
19409.0	3.632258976754346e+17
19410.0	3.6309374843835725e+17
19411.0	3.6295535702835194e+17
19412.0	3.628115652422314e+17
19413.0	3.62662547563042e+17
19414.0	3.6250564438261754e+17
19415.0	3.6234467783038285e+17
19416.0	3.621693053818197e+17
19417.0	3.6199599674053965e+17
19418.0	3.618128626625195e+17
19419.0	3.616170474558805e+17
19420.0	3.6141217339146234e+17
19421.0	3.611954992818858e+17
19422.0	3.609648441589759e+17
19423.0	3.6072380310050125e+17
19424.0	3.604672883458047e+17
19425.0	3.6018267531946656e+17
19426.0	3.5980468051858765e+17
19427.0	3.5949238466641914e+17
19428.0	3.5916553982225056e+17
19429.0	3.588140026910037e+17
19430.0	3.584366056483499e+17
19431.0	3.578647196379819e+17
19432.0	3.57476021113105e+17
19433.0	3.569179152788137e+17
19434.0	3.5632773727955616e+17
19435.0	3.555805935348395e+17
19436.0	3.54661288920132e+17
19437.0	3.5351766307089043e+17
19438.0	3.514393443347116e+17
19439.0	3.4914335016878106e+17
19440.0	3.4685912819083936e+17
19441.0	3.452750148228436e+17
19442.0	3.434624893758123e+17
19443.0	3.4152406361047034e+17
19444.0	3.393549921244499e+17
19445.0	3.368777648788823e+17
19446.0	3.328692495668556e+17
19447.0	3.245570866369868e+17
19448.0	3.180932458960216e+17
19449.0	3.0574320881937043e+17
19450.0	2.6556069220188096e+17
19451.0	2.5320159151390637e+17
19452.0	2.883033695081833e+17
19453.0	3.1405622120065696e+17
19454.0	3.2103622106589824e+17
19455.0	3.2851335263027104e+17
19456.0	3.3474730381366566e+17
19457.0	3.375050031540903e+17
19458.0	3.3889207923507315e+17
19459.0	3.415831360132438e+17
19460.0	3.433213786587135e+17
19461.0	3.4489657941032954e+17
19462.0	3.4645256196587565e+17
19463.0	3.492088020380327e+17
19464.0	3.511536385174186e+17
19465.0	3.523949025209005e+17
19466.0	3.532772141083306e+17
19467.0	3.5393818210249376e+17
19468.0	3.544515296799402e+17
19469.0	3.549247654505131e+17
19470.0	3.552729019798869e+17
19471.0	3.55624195142451e+17
19472.0	3.5594662135726074e+17
19473.0	3.5617566663639034e+17
19474.0	3.563860237746176e+17
19475.0	3.5653650715333965e+17
19476.0	3.5676040406411936e+17
19477.0	3.569869287063552e+17
19478.0	3.5711945787746976e+17
19479.0	3.5723607686512634e+17
19480.0	3.57338197192431e+17
19481.0	3.574287384444927e+17
19482.0	3.575074525981354e+17
19483.0	3.575766154827093e+17
19484.0	3.5763409799959885e+17
19485.0	3.5768116843642874e+17
19486.0	3.577229546793642e+17
19487.0	3.577573991426731e+17
19488.0	3.5778442954451616e+17
19489.0	3.578039829703338e+17
19490.0	3.577555846168574e+17
19491.0	3.5782615692738554e+17
19492.0	3.5783171521904634e+17
19493.0	3.5783118170357754e+17
19494.0	3.578262470350165e+17
19495.0	3.578171941890731e+17
19496.0	3.5778803832367776e+17
19497.0	3.577889177294165e+17
19498.0	3.5776668190638074e+17
19499.0	3.5739740028272595e+17
19500.0	3.577265698897919e+17
19501.0	3.5779259557478394e+17
19502.0	3.5780179494174714e+17
19503.0	3.577707833764522e+17
19504.0	3.577372172703061e+17
19505.0	3.577025928014506e+17
19506.0	3.577749754434901e+17
19507.0	3.5786511844638714e+17
19508.0	3.578255189737472e+17
19509.0	3.577835719491584e+17
19510.0	3.577323154571263e+17
19511.0	3.5718526685675456e+17
19512.0	3.576150876662439e+17
19513.0	3.574963757208915e+17
19514.0	3.57547176431889e+17
19515.0	3.5770341900943366e+17
19516.0	3.5767614736520525e+17
19517.0	3.5762302888181754e+17
19518.0	3.5757554698376525e+17
19519.0	3.5752391230532256e+17
19520.0	3.574707417426602e+17
19521.0	3.574196002444629e+17
19522.0	3.573649640521727e+17
19523.0	3.573129758638079e+17
19524.0	3.572588745850879e+17
19525.0	3.572032998473727e+17
19526.0	3.571494569377791e+17
19527.0	3.570936976506879e+17
19528.0	3.5703818687610874e+17
19529.0	3.569820875707733e+17
19530.0	3.5693292110042445e+17
19531.0	3.5706282163131725e+17
19532.0	3.57005505138961e+17
19533.0	3.5694806903903565e+17
19534.0	3.568902191710208e+17
19535.0	3.5683134666178554e+17
19536.0	3.5677236160539296e+17
19537.0	3.5671533424039245e+17
19538.0	3.566556417447253e+17
19539.0	3.5657192826033504e+17
19540.0	3.565377413272916e+17
19541.0	3.564795013890048e+17
19542.0	3.5641985740745376e+17
19543.0	3.5636017924232525e+17
19544.0	3.5630074958970874e+17
19545.0	3.562274822990505e+17
19546.0	3.561382187717974e+17
19547.0	3.561208554018133e+17
19548.0	3.5606072760729594e+17
19549.0	3.559963763583658e+17
19550.0	3.5593980512392525e+17
19551.0	3.5587931619983354e+17
19552.0	3.5581855233911456e+17
19553.0	3.557570796410197e+17
19554.0	3.5569496710184954e+17
19555.0	3.556354195892906e+17
19556.0	3.555748901202602e+17
19557.0	3.555136597830314e+17
19558.0	3.554524481104554e+17
19559.0	3.5539092696814925e+17
19560.0	3.5532893494531405e+17
19561.0	3.5526748042253645e+17
19562.0	3.5520682526419616e+17
19563.0	3.551455991212714e+17
19564.0	3.55083958161681e+17
19565.0	3.550222923158869e+17
19566.0	3.5495939879731194e+17
19567.0	3.5489893881391776e+17
19568.0	3.548362654963029e+17
19569.0	3.547744651531605e+17
19570.0	3.5471340866983245e+17
19571.0	3.546515015816533e+17
19572.0	3.545882154063189e+17
19573.0	3.5452712264226125e+17
19574.0	3.5446181537163936e+17
19575.0	3.544034647037268e+17
19576.0	3.543413311930367e+17
19577.0	3.5427624726910285e+17
19578.0	3.542153958872405e+17
19579.0	3.541539294106965e+17
19580.0	3.540919796105216e+17
19581.0	3.540298901400234e+17
19582.0	3.5396845665867085e+17
19583.0	3.539061962702847e+17
19584.0	3.5384383619727354e+17
19585.0	3.537770664427519e+17
19586.0	3.5371380564295674e+17
19587.0	3.5365579128831994e+17
19588.0	3.535751289503744e+17
19589.0	3.535313901191168e+17
19590.0	3.534653875727018e+17
19591.0	3.534071579104597e+17
19592.0	3.533449286298282e+17
19593.0	3.532818478355797e+17
19594.0	3.5320991580159994e+17
19595.0	3.5315685009653754e+17
19596.0	3.5307681431770445e+17
19597.0	3.530322323614378e+17
19598.0	3.5295291345906336e+17
19599.0	3.5290763224241485e+17
19600.0	3.5284543036456954e+17
19601.0	3.5278037125693434e+17
19602.0	3.5271894210969594e+17
19603.0	3.526388210466815e+17
19604.0	3.525940534924629e+17
19605.0	3.525208846281387e+17
19606.0	3.524701534027776e+17
19607.0	3.524079055273983e+17
19608.0	3.5234490603274234e+17
19609.0	3.522806589423615e+17
19610.0	3.5222043852363085e+17
19611.0	3.5215747775638176e+17
19612.0	3.520955328495615e+17
19613.0	3.5203248595927034e+17
19614.0	3.5196896322519034e+17
19615.0	3.5190791932477434e+17
19616.0	3.5184363521966074e+17
19617.0	3.517825624134997e+17
19618.0	3.516989711231658e+17
19619.0	3.516269954334719e+17
19620.0	3.5156789230742176e+17
19621.0	3.515327031104853e+17
19622.0	3.514703929496917e+17
19623.0	3.514079948483242e+17
19624.0	3.5134514260869114e+17
19625.0	3.5128299333440845e+17
19626.0	3.5122013546741754e+17
19627.0	3.511580624595626e+17
19628.0	3.510916046913536e+17
19629.0	3.5102947859060045e+17
19630.0	3.509696050408106e+17
19631.0	3.507346320566953e+17
19632.0	3.508456222184788e+17
19633.0	3.5078146631925754e+17
19634.0	3.5072084583383034e+17
19635.0	3.5065703100142925e+17
19636.0	3.50595513389329e+17
19637.0	3.505201559721301e+17
19638.0	3.5047061711749114e+17
19639.0	3.5040847710562976e+17
19640.0	3.5034413120443725e+17
19641.0	3.502400447971329e+17
19642.0	3.502211997543082e+17
19643.0	3.5015838757027834e+17
19644.0	3.5009436637812045e+17
19645.0	3.500230878866089e+17
19646.0	3.4997203300078925e+17
19647.0	3.499097672646655e+17
19648.0	3.498472643406506e+17
19649.0	3.4978479032238074e+17
19650.0	3.497227139241301e+17
19651.0	3.4966019072764576e+17
19652.0	3.4959786794898765e+17
19653.0	3.4953570056929274e+17
