# Flux units: erg / (cm m2 s)
# Wavelength units: Angstrom
wave	flux
19000.0	5.813742249967615e+17
19001.0	5.81258761539857e+17
19002.0	5.8116056037021e+17
19003.0	5.810518740697087e+17
19004.0	5.809433145769983e+17
19005.0	5.808342348507817e+17
19006.0	5.807266906592595e+17
19007.0	5.806170419757055e+17
19008.0	5.805035418725033e+17
19009.0	5.803896967877972e+17
19010.0	5.802445517094911e+17
19011.0	5.801803093726548e+17
19012.0	5.800612258818729e+17
19013.0	5.79966585676322e+17
19014.0	5.798528179066196e+17
19015.0	5.797460237964628e+17
19016.0	5.796359365984255e+17
19017.0	5.795336360558591e+17
19018.0	5.794239789137919e+17
19019.0	5.793160194861738e+17
19020.0	5.792062047780864e+17
19021.0	5.790999069939028e+17
19022.0	5.789919638541652e+17
19023.0	5.788797026085545e+17
19024.0	5.787734677389312e+17
19025.0	5.786667059249151e+17
19026.0	5.785559012911786e+17
19027.0	5.7844360033949e+17
19028.0	5.783423475340627e+17
19029.0	5.782337867131561e+17
19030.0	5.781271785504768e+17
19031.0	5.780190602985471e+17
19032.0	5.779103719707988e+17
19033.0	5.77793430720785e+17
19034.0	5.776932963265193e+17
19035.0	5.775822540854611e+17
19036.0	5.768965422841855e+17
19037.0	5.773689584178516e+17
19038.0	5.772598949096106e+17
19039.0	5.771543298703359e+17
19040.0	5.770463206703103e+17
19041.0	5.769372870814378e+17
19042.0	5.768196358755668e+17
19043.0	5.767223770961236e+17
19044.0	5.766131989435732e+17
19045.0	5.765064614565203e+17
19046.0	5.763930692867413e+17
19047.0	5.762880000841045e+17
19048.0	5.761603900626259e+17
19049.0	5.760652293439487e+17
19050.0	5.759625667630421e+17
19051.0	5.757751521880745e+17
19052.0	5.757331963554474e+17
19053.0	5.7564345202114554e+17
19054.0	5.7553545428555085e+17
19055.0	5.75401398038255e+17
19056.0	5.7531700780291405e+17
19057.0	5.7521151560471885e+17
19058.0	5.7510214912791885e+17
19059.0	5.7499620513327776e+17
19060.0	5.748868497014782e+17
19061.0	5.747815760964266e+17
19062.0	5.7467337997025274e+17
19063.0	5.745659262358868e+17
19064.0	5.7444561479270394e+17
19065.0	5.743334625290921e+17
19066.0	5.74237213598242e+17
19067.0	5.741354352465237e+17
19068.0	5.7402817214327456e+17
19069.0	5.7392065591377914e+17
19070.0	5.738106895116971e+17
19071.0	5.737057264948563e+17
19072.0	5.7359768968232954e+17
19073.0	5.7349021490653856e+17
19074.0	5.733833171271679e+17
19075.0	5.732758776534356e+17
19076.0	5.7316638394941434e+17
19077.0	5.7305927498683725e+17
19078.0	5.729500799871658e+17
19079.0	5.7284602454780576e+17
19080.0	5.72737156494131e+17
19081.0	5.7262750012101965e+17
19082.0	5.725198416347135e+17
19083.0	5.7240675215387296e+17
19084.0	5.72287322563106e+17
19085.0	5.722024574626473e+17
19086.0	5.7205880283026765e+17
19087.0	5.719707359379455e+17
19088.0	5.718723144974334e+17
19089.0	5.7174862468218874e+17
19090.0	5.716636707323903e+17
19091.0	5.7155621504068256e+17
19092.0	5.7144354219403936e+17
19093.0	5.713450821659305e+17
19094.0	5.712379410470228e+17
19095.0	5.7113084830242125e+17
19096.0	5.710221904532821e+17
19097.0	5.7091649203514016e+17
19098.0	5.7080921516059296e+17
19099.0	5.7070211172051616e+17
19100.0	5.705939589354836e+17
19101.0	5.704882914852863e+17
19102.0	5.7037063692397216e+17
19103.0	5.702750468483753e+17
19104.0	5.7016813928229536e+17
19105.0	5.7005989834697363e+17
19106.0	5.699515501073749e+17
19107.0	5.6984561568972794e+17
19108.0	5.697400927333034e+17
19109.0	5.69592945783603e+17
19110.0	5.695254109181268e+17
19111.0	5.694198809012907e+17
19112.0	5.693130912650581e+17
19113.0	5.692064884151637e+17
19114.0	5.690998348141909e+17
19115.0	5.689878762575188e+17
19116.0	5.6888444535002445e+17
19117.0	5.687776933926228e+17
19118.0	5.6866264866706765e+17
19119.0	5.679268747717282e+17
19120.0	5.6845437784555514e+17
19121.0	5.6834990521275725e+17
19122.0	5.682469837733887e+17
19123.0	5.681403874945706e+17
19124.0	5.680314452017151e+17
19125.0	5.6792689616267936e+17
19126.0	5.6782024682591565e+17
19127.0	5.6752758590887245e+17
19128.0	5.675993967973716e+17
19129.0	5.6749377436603725e+17
19130.0	5.6739269709223245e+17
19131.0	5.6728820677345274e+17
19132.0	5.671817403083434e+17
19133.0	5.6706417676342605e+17
19134.0	5.669653846163455e+17
19135.0	5.6686245772438176e+17
19136.0	5.6675686024915616e+17
19137.0	5.666337181401087e+17
19138.0	5.665423390758228e+17
19139.0	5.6643787930555725e+17
19140.0	5.6633180123299834e+17
19141.0	5.662255218338474e+17
19142.0	5.6611682434853536e+17
19143.0	5.660076027150335e+17
19144.0	5.659030380172628e+17
19145.0	5.6580076159194445e+17
19146.0	5.6563520961686176e+17
19147.0	5.655765889056768e+17
19148.0	5.6548171668520954e+17
19149.0	5.6537493613663565e+17
19150.0	5.652693599824553e+17
19151.0	5.6516422206313805e+17
19152.0	5.650575646173866e+17
19153.0	5.649492504215551e+17
19154.0	5.648326997311488e+17
19155.0	5.647401408091476e+17
19156.0	5.6463387615996576e+17
19157.0	5.645270584918015e+17
19158.0	5.643931930154324e+17
19159.0	5.6431428613352096e+17
19160.0	5.642088653083988e+17
19161.0	5.641034624488789e+17
19162.0	5.6393445066233165e+17
19163.0	5.6389039544074234e+17
19164.0	5.6378694873470285e+17
19165.0	5.6367867480418976e+17
19166.0	5.6356106260534605e+17
19167.0	5.634635402838015e+17
19168.0	5.633620744776362e+17
19169.0	5.632555576808789e+17
19170.0	5.631521505411071e+17
19171.0	5.630424532036266e+17
19172.0	5.6294077935998285e+17
19173.0	5.628350500438015e+17
19174.0	5.627234067589803e+17
19175.0	5.6262356883210234e+17
19176.0	5.625182810363221e+17
19177.0	5.6239704020527776e+17
19178.0	5.6230515684584096e+17
19179.0	5.6219559253770234e+17
19180.0	5.6209421278467405e+17
19181.0	5.619772630761471e+17
19182.0	5.6188175485938336e+17
19183.0	5.617789678474581e+17
19184.0	5.6167200212036256e+17
19185.0	5.6156734521780896e+17
19186.0	5.61462218133777e+17
19187.0	5.6135018100381e+17
19188.0	5.612510226939902e+17
19189.0	5.611457975331498e+17
19190.0	5.6104001075500365e+17
19191.0	5.6093165419670176e+17
19192.0	5.6082968640225274e+17
19193.0	5.607239349261653e+17
19194.0	5.606176123256831e+17
19195.0	5.6051327593786003e+17
19196.0	5.604061341898069e+17
19197.0	5.6030143331696634e+17
19198.0	5.6019589379304096e+17
19199.0	5.5971572343985466e+17
19200.0	5.59723233341167e+17
19201.0	5.598018557793622e+17
19202.0	5.5950111474537805e+17
19203.0	5.5939507973434016e+17
19204.0	5.592882870222847e+17
19205.0	5.591845094555647e+17
19206.0	5.590788726936915e+17
19207.0	5.589629829556905e+17
19208.0	5.5884775521867085e+17
19209.0	5.587639153459198e+17
19210.0	5.5865915260709536e+17
19211.0	5.5855489891696634e+17
19212.0	5.5844976924644685e+17
19213.0	5.5833430229428896e+17
19214.0	5.5822493889331194e+17
19215.0	5.581328617570303e+17
19216.0	5.580290869166079e+17
19217.0	5.579240800692905e+17
19218.0	5.5773396499169254e+17
19219.0	5.576992702682452e+17
19220.0	5.576064910753792e+17
19221.0	5.57471082025233e+17
19222.0	5.5739727870252365e+17
19223.0	5.572913936378537e+17
19224.0	5.5718373319420576e+17
19225.0	5.5706776089832083e+17
19226.0	5.5697621559978656e+17
19227.0	5.568709978488832e+17
19228.0	5.5676837721101645e+17
19229.0	5.566632900427775e+17
19230.0	5.5655786306600954e+17
19231.0	5.564519510179839e+17
19232.0	5.5634709215969274e+17
19233.0	5.5623611045642234e+17
19234.0	5.561356889620479e+17
19235.0	5.560308749129045e+17
19236.0	5.55927934669073e+17
19237.0	5.558212489117694e+17
19238.0	5.557082150054571e+17
19239.0	5.556128770774357e+17
19240.0	5.555049891627007e+17
19241.0	5.553997383467007e+17
19242.0	5.5529577504221856e+17
19243.0	5.551769504798036e+17
19244.0	5.550877857284094e+17
19245.0	5.549821616892585e+17
19246.0	5.548757352797524e+17
19247.0	5.547724569051135e+17
19248.0	5.5466748347241805e+17
19249.0	5.54562033357073e+17
19250.0	5.544552656011264e+17
19251.0	5.5433867772122445e+17
19252.0	5.5422093368142496e+17
19253.0	5.541393038573568e+17
19254.0	5.54036301467921e+17
19255.0	5.539145226474836e+17
19256.0	5.538215614218239e+17
19257.0	5.537212766617598e+17
19258.0	5.5361601598914554e+17
19259.0	5.5350421898308256e+17
19260.0	5.533927790521002e+17
19261.0	5.5329894743845536e+17
19262.0	5.5318925303698765e+17
19263.0	5.530824478818303e+17
19264.0	5.5292717083306643e+17
19265.0	5.5285760284863136e+17
19266.0	5.527487508731221e+17
19267.0	5.526685000663039e+17
19268.0	5.5256311034893645e+17
19269.0	5.5245769036267514e+17
19270.0	5.523518784187049e+17
19271.0	5.5221111331225594e+17
19272.0	5.521375343149055e+17
19273.0	5.519302228705279e+17
19274.0	5.5185345151849786e+17
19275.0	5.5182449278539085e+17
19276.0	5.5171684450522445e+17
19277.0	5.51611726438946e+17
19278.0	5.515061954434389e+17
19279.0	5.513995938518356e+17
19280.0	5.5128704438763514e+17
19281.0	5.5118823811973114e+17
19282.0	5.510842980237311e+17
19283.0	5.509724381730132e+17
19284.0	5.508681239450964e+17
19285.0	5.5074280967591264e+17
19286.0	5.503396354894505e+17
19287.0	5.502370449107626e+17
19288.0	5.499551123942055e+17
19289.0	5.4966131663830976e+17
19290.0	5.4991833477939194e+17
19291.0	5.497865862381568e+17
19292.0	5.4970549048879776e+17
19293.0	5.49598263316753e+17
19294.0	5.49491385110801e+17
19295.0	5.493858136402602e+17
19296.0	5.4927836843431245e+17
19297.0	5.4917078628433914e+17
19298.0	5.4906253940708685e+17
19299.0	5.4895756597439136e+17
19300.0	5.488504293294079e+17
19301.0	5.4874325074138445e+17
19302.0	5.486345712915796e+17
19303.0	5.4852173402821965e+17
19304.0	5.484178311217151e+17
19305.0	5.483119159279615e+17
19306.0	5.4820518976552954e+17
19307.0	5.4809307175540045e+17
19308.0	5.4798703821236896e+17
19309.0	5.47867105375027e+17
19310.0	5.477536516188841e+17
19311.0	5.476608311121236e+17
19312.0	5.4755607026073594e+17
19313.0	5.474484767162368e+17
19314.0	5.4659838273126445e+17
19315.0	5.465009702305796e+17
19316.0	5.470580853702656e+17
19317.0	5.4676724855603206e+17
19318.0	5.466561322156032e+17
19319.0	5.465481244136788e+17
19320.0	5.464379348047189e+17
19321.0	5.4632775547180365e+17
19322.0	5.4620941877684896e+17
19323.0	5.4610187157940896e+17
19324.0	5.4599672562100896e+17
19325.0	5.4587294625737363e+17
19326.0	5.457746846198442e+17
19327.0	5.4566186182683296e+17
19328.0	5.455506263681706e+17
19329.0	5.4544011239970125e+17
19330.0	5.453240898420735e+17
19331.0	5.4521101189556896e+17
19332.0	5.4510236313408845e+17
19333.0	5.449891734093823e+17
19334.0	5.448764672180223e+17
19335.0	5.4476091190586016e+17
19336.0	5.446488720495955e+17
19337.0	5.445343247684949e+17
19338.0	5.4439886259049805e+17
19339.0	5.443049412187477e+17
19340.0	5.441767973322752e+17
19341.0	5.44068333469696e+17
19342.0	5.439186240798718e+17
19343.0	5.438409190058666e+17
19344.0	5.437232884219903e+17
19345.0	5.434077506524497e+17
19346.0	5.4338854213823123e+17
19347.0	5.4336256744270496e+17
19348.0	5.432522964642473e+17
19349.0	5.431296807403519e+17
19350.0	5.4301016474692256e+17
19351.0	5.4288896935417165e+17
19352.0	5.427624153186304e+17
19353.0	5.426493057750356e+17
19354.0	5.4252721224198816e+17
19355.0	5.4239434500997114e+17
19356.0	5.4228017808233805e+17
19357.0	5.421559179815593e+17
19358.0	5.420297598184106e+17
19359.0	5.418976625207978e+17
19360.0	5.417725283969706e+17
19361.0	5.416464893520553e+17
19362.0	5.415219315955028e+17
19363.0	5.413924572758014e+17
19364.0	5.41261935218961e+17
19365.0	5.4113071914461856e+17
19366.0	5.4099829553015456e+17
19367.0	5.4086488534548474e+17
19368.0	5.407304140019028e+17
19369.0	5.405886485539498e+17
19370.0	5.404462369734655e+17
19371.0	5.403141319862954e+17
19372.0	5.4017244553106765e+17
19373.0	5.399402678059007e+17
19374.0	5.397994366391635e+17
19375.0	5.396546313693865e+17
19376.0	5.395088546288979e+17
19377.0	5.393599649458857e+17
19378.0	5.392108177326079e+17
19379.0	5.3906018335894176e+17
19380.0	5.389068317753343e+17
19381.0	5.387510183449941e+17
19382.0	5.3858725789696e+17
19383.0	5.3842347486958925e+17
19384.0	5.382727770221225e+17
19385.0	5.3810940321901216e+17
19386.0	5.379435430324906e+17
19387.0	5.377746639956649e+17
19388.0	5.374700299485182e+17
19389.0	5.372878965615273e+17
19390.0	5.371088772355412e+17
19391.0	5.364160460925603e+17
19392.0	5.367258192106836e+17
19393.0	5.365533436280832e+17
19394.0	5.3636024702948685e+17
19395.0	5.3612906083778554e+17
19396.0	5.3577514469730976e+17
19397.0	5.3556982491818656e+17
19398.0	5.353567709822975e+17
19399.0	5.350689323963732e+17
19400.0	5.34864939135795e+17
19401.0	5.344511660829353e+17
19402.0	5.342176820417876e+17
19403.0	5.339751861889705e+17
19404.0	5.33516566728977e+17
19405.0	5.3316189952846496e+17
19406.0	5.328950709103276e+17
19407.0	5.3224665108534624e+17
19408.0	5.3187137062830086e+17
19409.0	5.312578031626924e+17
19410.0	5.308089080567124e+17
19411.0	5.3000402181816314e+17
19412.0	5.2923582126926566e+17
19413.0	5.283696650573141e+17
19414.0	5.273823324667899e+17
19415.0	5.266078372462592e+17
19416.0	5.2607837690047136e+17
19417.0	5.255475731191123e+17
19418.0	5.249877818037589e+17
19419.0	5.2439387611682125e+17
19420.0	5.237730237044051e+17
19421.0	5.231239836816724e+17
19422.0	5.224388157418153e+17
19423.0	5.2172602432552954e+17
19424.0	5.209750834774016e+17
19425.0	5.201875069916501e+17
19426.0	5.193633786145449e+17
19427.0	5.1850506686955514e+17
19428.0	5.1760044238875296e+17
19429.0	5.1668150211925325e+17
19430.0	5.1571837310948685e+17
19431.0	5.1465601071185926e+17
19432.0	5.1371050267224736e+17
19433.0	5.126183174449835e+17
19434.0	5.115514442132138e+17
19435.0	5.1042317371091616e+17
19436.0	5.091843380696405e+17
19437.0	5.0782966197343546e+17
19438.0	5.0527054786286886e+17
19439.0	5.0361087099753875e+17
19440.0	4.99424234464869e+17
19441.0	4.942569109367463e+17
19442.0	4.9097895645457075e+17
19443.0	4.8736376636921165e+17
19444.0	4.83562638173798e+17
19445.0	4.793013951092051e+17
19446.0	4.7301508698821805e+17
19447.0	4.609455512966464e+17
19448.0	4.504558303357619e+17
19449.0	4.318633754886138e+17
19450.0	3.840314965316939e+17
19451.0	3.6480084093173414e+17
19452.0	4.121463482570088e+17
19453.0	4.433933127822008e+17
19454.0	4.555444316012539e+17
19455.0	4.667235547217909e+17
19456.0	4.759279049375742e+17
19457.0	4.805753043593894e+17
19458.0	4.8257793065834e+17
19459.0	4.877683152388102e+17
19460.0	4.911253459828734e+17
19461.0	4.9486140647232794e+17
19462.0	4.999988978035375e+17
19463.0	5.029015118501202e+17
19464.0	5.046973584725332e+17
19465.0	5.0604009338525024e+17
19466.0	5.071126018741588e+17
19467.0	5.081223138028202e+17
19468.0	5.0898085882101754e+17
19469.0	5.098638910947327e+17
19470.0	5.107530992713727e+17
19471.0	5.115721155608575e+17
19472.0	5.1234742244911763e+17
19473.0	5.1308171792220154e+17
19474.0	5.138009440998741e+17
19475.0	5.144098138750974e+17
19476.0	5.1512521205131936e+17
19477.0	5.157401826514262e+17
19478.0	5.1631279483562656e+17
19479.0	5.168463475638271e+17
19480.0	5.173440333305172e+17
19481.0	5.178100687394132e+17
19482.0	5.1824612214483616e+17
19483.0	5.1865673961308154e+17
19484.0	5.190362798751743e+17
19485.0	5.193845537680041e+17
19486.0	5.1971250353165645e+17
19487.0	5.2010876277882886e+17
19488.0	5.2075281227885216e+17
19489.0	5.21551134990882e+17
19490.0	5.221260009144316e+17
19491.0	5.226742467788795e+17
19492.0	5.231522667823104e+17
19493.0	5.2351601912490675e+17
19494.0	5.238035798381908e+17
19495.0	5.240379993489403e+17
19496.0	5.242835678090581e+17
19497.0	5.2438909530931194e+17
19498.0	5.245615991335591e+17
19499.0	5.2397952005570534e+17
19500.0	5.2482773625077754e+17
19501.0	5.248647755202559e+17
19502.0	5.251208390377471e+17
19503.0	5.251405527558825e+17
19504.0	5.2515469140514125e+17
19505.0	5.251646783225855e+17
19506.0	5.2517033259390285e+17
19507.0	5.2532800186395296e+17
19508.0	5.2534638591781536e+17
19509.0	5.2533801240930976e+17
19510.0	5.253046370740906e+17
19511.0	5.240312857362427e+17
19512.0	5.2515014470970016e+17
19513.0	5.250134698186065e+17
19514.0	5.2506793949702803e+17
19515.0	5.252531081620138e+17
19516.0	5.2531779271830176e+17
19517.0	5.252798762101419e+17
19518.0	5.252507839583572e+17
19519.0	5.2521214400266234e+17
19520.0	5.251683219144703e+17
19521.0	5.2512968293744634e+17
19522.0	5.250822346637311e+17
19523.0	5.250389490270207e+17
19524.0	5.2499041911220896e+17
19525.0	5.249397159187796e+17
19526.0	5.2488946410236576e+17
19527.0	5.248358270631935e+17
19528.0	5.2478061527258445e+17
19529.0	5.2472496203147936e+17
19530.0	5.246679594128725e+17
19531.0	5.24608995328e+17
19532.0	5.246019082824362e+17
19533.0	5.2457622488132256e+17
19534.0	5.2451268872546976e+17
19535.0	5.244477075619839e+17
19536.0	5.243792235255123e+17
19537.0	5.2431696572361376e+17
19538.0	5.2423464516758176e+17
19539.0	5.2412591112192e+17
19540.0	5.241090203800915e+17
19541.0	5.2404131138109434e+17
19542.0	5.23970031002146e+17
19543.0	5.2389763976178336e+17
19544.0	5.2382584718841165e+17
19545.0	5.2369930524644685e+17
19546.0	5.235882360919381e+17
19547.0	5.2360441631866874e+17
19548.0	5.235286187442175e+17
19549.0	5.2344389611028474e+17
19550.0	5.2337642415936845e+17
19551.0	5.2329949726856525e+17
19552.0	5.232216463725908e+17
19553.0	5.231406927402324e+17
19554.0	5.2306070330845856e+17
19555.0	5.229838436663294e+17
19556.0	5.229056082924885e+17
19557.0	5.2282490862523725e+17
19558.0	5.2274438658676045e+17
19559.0	5.2266324407091194e+17
19560.0	5.225789607204181e+17
19561.0	5.224971381680809e+17
19562.0	5.224174445046442e+17
19563.0	5.223350896951294e+17
19564.0	5.222520673621332e+17
19565.0	5.221686983000062e+17
19566.0	5.2208188284818765e+17
19567.0	5.220008066722474e+17
19568.0	5.219143043951274e+17
19569.0	5.2183027633793683e+17
19570.0	5.2174711566281363e+17
19571.0	5.2166134431307085e+17
19572.0	5.2157369153836365e+17
19573.0	5.214882818774356e+17
19574.0	5.213962400432126e+17
19575.0	5.213185307749034e+17
19576.0	5.2123225736697165e+17
19577.0	5.211427765747711e+17
19578.0	5.2105425208388256e+17
19579.0	5.2096887374042445e+17
19580.0	5.2088152980630176e+17
19581.0	5.207953481138175e+17
19582.0	5.207094382122325e+17
19583.0	5.2062163954565114e+17
19584.0	5.205326531220821e+17
19585.0	5.204347739351722e+17
19586.0	5.2034316166758394e+17
19587.0	5.202662809141247e+17
19588.0	5.201312343916543e+17
19589.0	5.200890294872746e+17
19590.0	5.1999168486440954e+17
19591.0	5.199127245051221e+17
19592.0	5.198240703403349e+17
19593.0	5.197329877434366e+17
19594.0	5.1962294018157216e+17
19595.0	5.1955094935743136e+17
19596.0	5.194458992388778e+17
19597.0	5.193743200856745e+17
19598.0	5.192421615512235e+17
19599.0	5.1919629117467296e+17
19600.0	5.1925208611334816e+17
19601.0	5.1917364011554125e+17
19602.0	5.190840652311209e+17
19603.0	5.189529300369406e+17
19604.0	5.189066753922388e+17
19605.0	5.187930702916266e+17
19606.0	5.18731341181747e+17
19607.0	5.1864139552085325e+17
19608.0	5.185485246824447e+17
19609.0	5.1845419988855443e+17
19610.0	5.183680533583187e+17
19611.0	5.1827610666489165e+17
19612.0	5.1818629927621965e+17
19613.0	5.180940728227157e+17
19614.0	5.179998882583893e+17
19615.0	5.179123753637204e+17
19616.0	5.1781639291098445e+17
19617.0	5.1772822395726496e+17
19618.0	5.175763519143934e+17
19619.0	5.1747248955282746e+17
19620.0	5.173846911658665e+17
19621.0	5.173628314320894e+17
19622.0	5.172720352362494e+17
19623.0	5.171803590754303e+17
19624.0	5.17087676281651e+17
19625.0	5.169968448536575e+17
19626.0	5.169050424442879e+17
19627.0	5.168130928148479e+17
19628.0	5.1671202015477754e+17
19629.0	5.166182799070549e+17
19630.0	5.165043273083561e+17
19631.0	5.16032669155328e+17
19632.0	5.1635290797069645e+17
19633.0	5.1625742205364896e+17
19634.0	5.161693204185087e+17
19635.0	5.160735332106239e+17
19636.0	5.1598370275328006e+17
19637.0	5.1585780177087136e+17
19638.0	5.157998101353813e+17
19639.0	5.1570720437698554e+17
19640.0	5.156011390970538e+17
19641.0	5.1542192830109024e+17
19642.0	5.1543132109537274e+17
19643.0	5.1533872162843296e+17
19644.0	5.152410255228927e+17
19645.0	5.1512650228913485e+17
19646.0	5.150622900813823e+17
19647.0	5.149709448511487e+17
19648.0	5.148787049758719e+17
19649.0	5.147861085847551e+17
19650.0	5.146940570337279e+17
19651.0	5.146011454406655e+17
19652.0	5.145090678849534e+17
19653.0	5.1441680158556154e+17
19654.0	5.143238212059135e+17
19655.0	5.1423104012561056e+17
19656.0	5.1413916962870605e+17
