# Flux units: erg / (cm m2 s)
# Wavelength units: Angstrom
wave	flux
19000.0	8.401706249355261e+17
19001.0	8.400231251050493e+17
19002.0	8.398838666625024e+17
19003.0	8.397399525425152e+17
19004.0	8.395958130485928e+17
19005.0	8.394515459080191e+17
19006.0	8.393068975052115e+17
19007.0	8.391607127288488e+17
19008.0	8.390144669952681e+17
19009.0	8.388675573033641e+17
19010.0	8.387086105182207e+17
19011.0	8.385784639214932e+17
19012.0	8.384267573439145e+17
19013.0	8.382874538825043e+17
19014.0	8.381375200974164e+17
19015.0	8.379919697794388e+17
19016.0	8.378448668699305e+17
19017.0	8.376987578706602e+17
19018.0	8.375513029192361e+17
19019.0	8.374043988197375e+17
19020.0	8.372550955783506e+17
19021.0	8.371082682346154e+17
19022.0	8.369602209076562e+17
19023.0	8.368783079680681e+17
19024.0	8.369114598866943e+17
19025.0	8.367632355601066e+17
19026.0	8.366131619648851e+17
19027.0	8.36460542427136e+17
19028.0	8.363155449184255e+17
19029.0	8.361658732773375e+17
19030.0	8.360159713689597e+17
19031.0	8.358658459041791e+17
19032.0	8.357155165962237e+17
19033.0	8.355611041333245e+17
19034.0	8.354139801124863e+17
19035.0	8.352587268314451e+17
19036.0	8.348248887175846e+17
19037.0	8.349590113746943e+17
19038.0	8.348086169152168e+17
19039.0	8.34658544997717e+17
19040.0	8.345069790691327e+17
19041.0	8.343551972737024e+17
19042.0	8.34199734976512e+17
19043.0	8.34051131904273e+17
19044.0	8.33898750882611e+17
19045.0	8.337463535031636e+17
19046.0	8.335918247182333e+17
19047.0	8.33440011325713e+17
19048.0	8.332804485371219e+17
19049.0	8.33132005547486e+17
19050.0	8.329794952014505e+17
19051.0	8.327803391617704e+17
19052.0	8.326641321945769e+17
19053.0	8.325210423951357e+17
19054.0	8.323675427525972e+17
19055.0	8.322026875912191e+17
19056.0	8.320587380992681e+17
19057.0	8.31905078793557e+17
19058.0	8.317506438212264e+17
19059.0	8.315966344309416e+17
19060.0	8.314412954462889e+17
19061.0	8.312874425035433e+17
19062.0	8.311324097030824e+17
19063.0	8.309774477863594e+17
19064.0	8.308179595165697e+17
19065.0	8.306592112618152e+17
19066.0	8.305089858327892e+17
19067.0	8.303563812547241e+17
19068.0	8.302007999791101e+17
19069.0	8.300450953909587e+17
19070.0	8.298888786782889e+17
19071.0	8.297332621705215e+17
19072.0	8.295771687703891e+17
19073.0	8.294207644325204e+17
19074.0	8.292646187433983e+17
19075.0	8.291081484151466e+17
19076.0	8.290636184682496e+17
19077.0	8.289245466722303e+17
19078.0	8.28767040910131e+17
19079.0	8.286108699153747e+17
19080.0	8.284533441604264e+17
19081.0	8.282942698684415e+17
19082.0	8.281370143664809e+17
19083.0	8.279761274361174e+17
19084.0	8.278120452849663e+17
19085.0	8.276651930550271e+17
19086.0	8.274892262036819e+17
19087.0	8.273432251378345e+17
19088.0	8.271858066172586e+17
19089.0	8.27021432123119e+17
19090.0	8.26872612205363e+17
19091.0	8.267144423451305e+17
19092.0	8.265538109876905e+17
19093.0	8.26398545403358e+17
19094.0	8.262390692970492e+17
19095.0	8.260800885380434e+17
19096.0	8.259215955765928e+17
19097.0	8.257630464114688e+17
19098.0	8.256040109867004e+17
19099.0	8.254447314534399e+17
19100.0	8.252240208855039e+17
19101.0	8.250593892805289e+17
19102.0	8.248965524182358e+17
19103.0	8.247401559097343e+17
19104.0	8.245802799464445e+17
19105.0	8.244201560997888e+17
19106.0	8.242590444945404e+17
19107.0	8.24099097228083e+17
19108.0	8.239385900220415e+17
19109.0	8.237548105804458e+17
19110.0	8.236147563386195e+17
19111.0	8.234579726958591e+17
19112.0	8.23297653674257e+17
19113.0	8.231369591226367e+17
19114.0	8.229760481449298e+17
19115.0	8.228136642674688e+17
19116.0	8.226527907588778e+17
19117.0	8.224915515069779e+17
19118.0	8.223268080538966e+17
19119.0	8.220755702229672e+17
19120.0	8.220054676045821e+17
19121.0	8.218445555083944e+17
19122.0	8.216848302604288e+17
19123.0	8.215228904199506e+17
19124.0	8.2135890264064e+17
19125.0	8.211984341620054e+17
19126.0	8.210352851036841e+17
19127.0	8.208083522857642e+17
19128.0	8.207024416358397e+17
19129.0	8.205449863451986e+17
19130.0	8.203860794059433e+17
19131.0	8.202234817587881e+17
19132.0	8.200602478357161e+17
19133.0	8.198909535627944e+17
19134.0	8.197307241594879e+17
19135.0	8.195710798615891e+17
19136.0	8.194075983347712e+17
19137.0	8.192381114034857e+17
19138.0	8.190797444109651e+17
19139.0	8.189166708501161e+17
19140.0	8.187528790846122e+17
19141.0	8.185888536963752e+17
19142.0	8.183022602594982e+17
19143.0	8.18018228843315e+17
19144.0	8.178554111350098e+17
19145.0	8.176914316044969e+17
19146.0	8.175023083399849e+17
19147.0	8.173589671619241e+17
19148.0	8.171971777571497e+17
19149.0	8.17032244302097e+17
19150.0	8.16867019342916e+17
19151.0	8.167019930539347e+17
19152.0	8.165364392613203e+17
19153.0	8.1637008225949e+17
19154.0	8.162004907502246e+17
19155.0	8.160392080173737e+17
19156.0	8.158728736647849e+17
19157.0	8.157045183567187e+17
19158.0	8.155277228507135e+17
19159.0	8.153721371011752e+17
19160.0	8.152070546085204e+17
19161.0	8.150386986014036e+17
19162.0	8.148362374501715e+17
19163.0	8.147016523011411e+17
19164.0	8.145399578274472e+17
19165.0	8.143726417281025e+17
19166.0	8.142013522247679e+17
19167.0	8.140346083682985e+17
19168.0	8.138691546797394e+17
19169.0	8.137017611255807e+17
19170.0	8.135347047934634e+17
19171.0	8.133654594540883e+17
19172.0	8.13198221508608e+17
19173.0	8.130299888140288e+17
19174.0	8.128593716576255e+17
19175.0	8.12692616057105e+17
19176.0	8.125236033617919e+17
19177.0	8.123479091402068e+17
19178.0	8.121836955675305e+17
19179.0	8.120133369200639e+17
19180.0	8.11844977697314e+17
19181.0	8.115228125080232e+17
19182.0	8.112096091482794e+17
19183.0	8.110402603494057e+17
19184.0	8.108690681539242e+17
19185.0	8.106990609891328e+17
19186.0	8.105284775269718e+17
19187.0	8.103544821383165e+17
19188.0	8.101861389937321e+17
19189.0	8.100144882210131e+17
19190.0	8.098424758992893e+17
19191.0	8.096707566196051e+17
19192.0	8.09498831819025e+17
19193.0	8.093259860890964e+17
19194.0	8.091531093213184e+17
19195.0	8.089795631426217e+17
19196.0	8.088045463011327e+17
19197.0	8.08627693892403e+17
19198.0	8.084401699160063e+17
19199.0	8.08049549910562e+17
19200.0	8.07922610278673e+17
19201.0	8.079203173924863e+17
19202.0	8.077583709809322e+17
19203.0	8.07587139358993e+17
19204.0	8.072435864349353e+17
19205.0	8.070601918906367e+17
19206.0	8.068847774291284e+17
19207.0	8.067069755697833e+17
19208.0	8.065267863126015e+17
19209.0	8.063579584462847e+17
19210.0	8.061815481171967e+17
19211.0	8.059896933821097e+17
19212.0	8.057235533288787e+17
19213.0	8.055416428691455e+17
19214.0	8.053624381549225e+17
19215.0	8.051890509403475e+17
19216.0	8.050115398860799e+17
19217.0	8.048325083966121e+17
19218.0	8.046234846975314e+17
19219.0	8.044667161542656e+17
19220.0	8.042939413080748e+17
19221.0	8.041035794655913e+17
19222.0	8.039339823639209e+17
19223.0	8.037542361650518e+17
19224.0	8.035718282608639e+17
19225.0	8.033867678788264e+17
19226.0	8.032105893549395e+17
19227.0	8.030278794608637e+17
19228.0	8.028469412407977e+17
19229.0	8.026644558817961e+17
19230.0	8.024815186564436e+17
19231.0	8.022984967061501e+17
19232.0	8.02114374729728e+17
19233.0	8.019277895783763e+17
19234.0	8.017456835242666e+17
19235.0	8.01560776933376e+17
19236.0	8.013765809973928e+17
19237.0	8.01190426321442e+17
19238.0	8.010010481830568e+17
19239.0	8.008186145538047e+17
19240.0	8.006300241057106e+17
19241.0	8.004427733183145e+17
19242.0	8.002560085109418e+17
19243.0	8.00060911718673e+17
19244.0	7.998800083113298e+17
19245.0	7.996907460755455e+17
19246.0	7.995002922379948e+17
19247.0	7.992277575488854e+17
19248.0	7.989647244962473e+17
19249.0	7.987725965721599e+17
19250.0	7.9857979532247e+17
19251.0	7.983820266187433e+17
19252.0	7.981802267694419e+17
19253.0	7.979985091078825e+17
19254.0	7.978037513551871e+17
19255.0	7.976001717228884e+17
19256.0	7.974112271357267e+17
19257.0	7.972158732326227e+17
19258.0	7.970185559758163e+17
19259.0	7.968173391347711e+17
19260.0	7.966173375234047e+17
19261.0	7.964228258365437e+17
19262.0	7.962207969782442e+17
19263.0	7.960196561939113e+17
19264.0	7.958028425538217e+17
19265.0	7.956125542514685e+17
19266.0	7.954120983969791e+17
19267.0	7.952141264093183e+17
19268.0	7.948755125578409e+17
19269.0	7.945891980421802e+17
19270.0	7.943823727176361e+17
19271.0	7.941635712570711e+17
19272.0	7.939652098981885e+17
19273.0	7.937001301650089e+17
19274.0	7.935058421743616e+17
19275.0	7.933350231321258e+17
19276.0	7.9312247076509e+17
19277.0	7.929104358353577e+17
19278.0	7.926966778855424e+17
19279.0	7.92481875554031e+17
19280.0	7.922638178833747e+17
19281.0	7.920499451494399e+17
19282.0	7.915948340849318e+17
19283.0	7.913227726531242e+17
19284.0	7.91100165001489e+17
19285.0	7.908775753853608e+17
19286.0	7.906584301316777e+17
19287.0	7.904362315644927e+17
19288.0	7.901351129732436e+17
19289.0	7.89809708103543e+17
19290.0	7.897599466012671e+17
19291.0	7.895221385123156e+17
19292.0	7.892955659851092e+17
19293.0	7.887044691536553e+17
19294.0	7.884718057979903e+17
19295.0	7.882378739449855e+17
19296.0	7.880027915943935e+17
19297.0	7.877665377746944e+17
19298.0	7.875285301766826e+17
19299.0	7.872908016396969e+17
19300.0	7.870510703225514e+17
19301.0	7.868100594630655e+17
19302.0	7.861507334690139e+17
19303.0	7.858592131230378e+17
19304.0	7.856141360256339e+17
19305.0	7.853667352838144e+17
19306.0	7.851184361220777e+17
19307.0	7.848656192755027e+17
19308.0	7.846129672650751e+17
19309.0	7.843252164799145e+17
19310.0	7.835264255437484e+17
19311.0	7.832693025450664e+17
19312.0	7.830039532579496e+17
19313.0	7.8273484713274e+17
19314.0	7.823392803651583e+17
19315.0	7.820649738622298e+17
19316.0	7.812471726626132e+17
19317.0	7.809657442314924e+17
19318.0	7.806804960477183e+17
19319.0	7.803945555241642e+17
19320.0	7.801055669998931e+17
19321.0	7.795154815549441e+17
19322.0	7.791237616631807e+17
19323.0	7.78825368530671e+17
19324.0	7.785260916583084e+17
19325.0	7.782189719967059e+17
19326.0	7.779165705076736e+17
19327.0	7.776083670379178e+17
19328.0	7.772981051435689e+17
19329.0	7.769761239444138e+17
19330.0	7.76657661346884e+17
19331.0	7.763386065136296e+17
19332.0	7.760191251196586e+17
19333.0	7.756963662965416e+17
19334.0	7.753710581754538e+17
19335.0	7.750432143179773e+17
19336.0	7.747123857937747e+17
19337.0	7.743786528538624e+17
19338.0	7.740344902178131e+17
19339.0	7.737015687359145e+17
19340.0	7.733562304364543e+17
19341.0	7.730098495728296e+17
19342.0	7.726485118211411e+17
19343.0	7.723076027067049e+17
19344.0	7.719510993098068e+17
19345.0	7.715299658825725e+17
19346.0	7.711995531537064e+17
19347.0	7.708599557379411e+17
19348.0	7.704925999988736e+17
19349.0	7.701181484761088e+17
19350.0	7.697409762481494e+17
19351.0	7.693599456799402e+17
19352.0	7.689733854811476e+17
19353.0	7.685873724992168e+17
19354.0	7.681946545029119e+17
19355.0	7.677947860571476e+17
19356.0	7.673965416458922e+17
19357.0	7.669890957705215e+17
19358.0	7.665442478882815e+17
19359.0	7.661242919419903e+17
19360.0	7.65703607445094e+17
19361.0	7.652783278085459e+17
19362.0	7.648481739713194e+17
19363.0	7.644118549266432e+17
19364.0	7.639712192441004e+17
19365.0	7.635261310282409e+17
19366.0	7.630765800729257e+17
19367.0	7.626224058761215e+17
19368.0	7.621634423433897e+17
19369.0	7.616976064435539e+17
19370.0	7.612043515396093e+17
19371.0	7.606886073368575e+17
19372.0	7.602104344510463e+17
19373.0	7.597240329000276e+17
19374.0	7.592331761593e+17
19375.0	7.587354256605183e+17
19376.0	7.582268825184938e+17
19377.0	7.577049406723411e+17
19378.0	7.571749252104191e+17
19379.0	7.565608152115884e+17
19380.0	7.559794558763008e+17
19381.0	7.554228244796758e+17
19382.0	7.548536240122538e+17
19383.0	7.542764475165353e+17
19384.0	7.536925018335914e+17
19385.0	7.529504876527616e+17
19386.0	7.523159130854739e+17
19387.0	7.516907262093994e+17
19388.0	7.510518719141204e+17
19389.0	7.503428367067821e+17
19390.0	7.495007149752319e+17
19391.0	7.486271995772924e+17
19392.0	7.481039829423442e+17
19393.0	7.472493294693033e+17
19394.0	7.463401840181249e+17
19395.0	7.455623927037951e+17
19396.0	7.446945379385344e+17
19397.0	7.435857360672083e+17
19398.0	7.427483891313322e+17
19399.0	7.41725018102169e+17
19400.0	7.40579446445397e+17
19401.0	7.396848634778964e+17
19402.0	7.383799085487447e+17
19403.0	7.37321934511582e+17
19404.0	7.360979387372883e+17
19405.0	7.34800530060083e+17
19406.0	7.334998271765156e+17
19407.0	7.320430226440191e+17
19408.0	7.306136538928476e+17
19409.0	7.290738433851391e+17
19410.0	7.277266079143249e+17
19411.0	7.263379251702442e+17
19412.0	7.251152415140522e+17
19413.0	7.238533605490688e+17
19414.0	7.224969529742675e+17
19415.0	7.211052411038378e+17
19416.0	7.19681049801523e+17
19417.0	7.182191965853011e+17
19418.0	7.166826432342698e+17
19419.0	7.150790186281641e+17
19420.0	7.134873066842793e+17
19421.0	7.118333989442902e+17
19422.0	7.099609307764051e+17
19423.0	7.080972450616659e+17
19424.0	7.060874813855059e+17
19425.0	7.039162818144938e+17
19426.0	7.017151699353597e+17
19427.0	6.99268842057455e+17
19428.0	6.968344767539881e+17
19429.0	6.942147404103679e+17
19430.0	6.914966985288362e+17
19431.0	6.885670960933546e+17
19432.0	6.854363574872744e+17
19433.0	6.822001326948353e+17
19434.0	6.786213630093994e+17
19435.0	6.750080102389075e+17
19436.0	6.711232850908502e+17
19437.0	6.668768691006121e+17
19438.0	6.622851878617085e+17
19439.0	6.576627005784065e+17
19440.0	6.524979005532841e+17
19441.0	6.469254844339537e+17
19442.0	6.408816328791383e+17
19443.0	6.343335211958271e+17
19444.0	6.271862263425702e+17
19445.0	6.193951997078189e+17
19446.0	6.108530847252479e+17
19447.0	6.014578187392337e+17
19448.0	5.910553355266734e+17
19449.0	5.794075471686314e+17
19450.0	5.6598018189339226e+17
19451.0	5.5926425463903616e+17
19452.0	5.729402929982122e+17
19453.0	5.85166430509466e+17
19454.0	5.959182633140219e+17
19455.0	6.055595427059028e+17
19456.0	6.142710539528877e+17
19457.0	6.221899343680849e+17
19458.0	6.293232505847808e+17
19459.0	6.359868120935084e+17
19460.0	6.42032430568789e+17
19461.0	6.475717797740543e+17
19462.0	6.526877529975469e+17
19463.0	6.573787011088381e+17
19464.0	6.617208181140137e+17
19465.0	6.657993914799448e+17
19466.0	6.69636813477205e+17
19467.0	6.730868719965523e+17
19468.0	6.764142089557334e+17
19469.0	6.795496009323859e+17
19470.0	6.824481620929193e+17
19471.0	6.852827250950144e+17
19472.0	6.877258541869737e+17
19473.0	6.902083198386173e+17
19474.0	6.924035899610454e+17
19475.0	6.945888268888746e+17
19476.0	6.966284729537876e+17
19477.0	6.985268678623232e+17
19478.0	7.003763078332415e+17
19479.0	7.020124473131007e+17
19480.0	7.036071349059584e+17
19481.0	7.050888338210816e+17
19482.0	7.064269691901268e+17
19483.0	7.077356399930025e+17
19484.0	7.090545117626368e+17
19485.0	7.102604569302356e+17
19486.0	7.114229881154217e+17
19487.0	7.125419838231891e+17
19488.0	7.136555630067711e+17
19489.0	7.146657710516905e+17
19490.0	7.15598995023462e+17
19491.0	7.16587052809148e+17
19492.0	7.178245135575722e+17
19493.0	7.188075131524431e+17
19494.0	7.202261822341119e+17
19495.0	7.211473330416303e+17
19496.0	7.224387164613289e+17
19497.0	7.232319407172264e+17
19498.0	7.24388612739345e+17
19499.0	7.247949072782675e+17
19500.0	7.261170917092013e+17
19501.0	7.268292230119423e+17
19502.0	7.275402218526033e+17
19503.0	7.284279605548372e+17
19504.0	7.289862706517331e+17
19505.0	7.296596885285545e+17
19506.0	7.303930539147263e+17
19507.0	7.308913856042323e+17
19508.0	7.314000185043624e+17
19509.0	7.320982983977641e+17
19510.0	7.325170241546922e+17
19511.0	7.326721696421202e+17
19512.0	7.333422973670738e+17
19513.0	7.338142136096083e+17
19514.0	7.341992441457322e+17
19515.0	7.345917798296234e+17
19516.0	7.349354439027369e+17
19517.0	7.353632791287126e+17
19518.0	7.357129779664212e+17
19519.0	7.360047194920275e+17
19520.0	7.362853586949459e+17
19521.0	7.365570617933823e+17
19522.0	7.368176730548906e+17
19523.0	7.371573765865471e+17
19524.0	7.374182014779391e+17
19525.0	7.376528941776896e+17
19526.0	7.378782583259135e+17
19527.0	7.380893510751572e+17
19528.0	7.382929829964458e+17
19529.0	7.384904688642729e+17
19530.0	7.386820423013718e+17
19531.0	7.388762061406207e+17
19532.0	7.391093066825727e+17
19533.0	7.392837932242262e+17
19534.0	7.394530788289193e+17
19535.0	7.396173593706493e+17
19536.0	7.397753297218217e+17
19537.0	7.39931322458658e+17
19538.0	7.400777060450301e+17
19539.0	7.402104326979581e+17
19540.0	7.403666239651837e+17
19541.0	7.40502808262519e+17
19542.0	7.40633228747298e+17
19543.0	7.40759470027571e+17
19544.0	7.408871881222824e+17
19545.0	7.410115690889215e+17
19546.0	7.411090490479956e+17
19547.0	7.412418415514964e+17
19548.0	7.413428673751722e+17
19549.0	7.41435877045043e+17
19550.0	7.415323096864083e+17
19551.0	7.416210516519594e+17
19552.0	7.417057788297215e+17
19553.0	7.417860016046079e+17
19554.0	7.418628513202177e+17
19555.0	7.419376160473087e+17
19556.0	7.420076382748672e+17
19557.0	7.420740301925034e+17
19558.0	7.42137201304098e+17
19559.0	7.421969933445802e+17
19560.0	7.422524684675753e+17
19561.0	7.423068983700136e+17
19562.0	7.423570605681321e+17
19563.0	7.424041084955305e+17
19564.0	7.424476713757353e+17
19565.0	7.424874051360084e+17
19566.0	7.425236791547219e+17
19567.0	7.425583194920276e+17
19568.0	7.425884098483539e+17
19569.0	7.426178541420544e+17
19570.0	7.426447604624041e+17
19571.0	7.426689445396479e+17
19572.0	7.426894752382975e+17
19573.0	7.427091175833599e+17
19574.0	7.42722537538628e+17
19575.0	7.427479277578922e+17
19576.0	7.42760511508753e+17
19577.0	7.427693118575956e+17
19578.0	7.427749238363476e+17
19579.0	7.427795753194836e+17
19580.0	7.4280125595648e+17
19581.0	7.431355094095187e+17
19582.0	7.431302389869225e+17
19583.0	7.43122251354385e+17
19584.0	7.431120094232577e+17
19585.0	7.430956245144915e+17
19586.0	7.435460494229501e+17
19587.0	7.436646949584896e+17
19588.0	7.436266593320957e+17
19589.0	7.436160599064573e+17
19590.0	7.435871501068969e+17
19591.0	7.435607648589139e+17
19592.0	7.438732809120424e+17
19593.0	7.439939489409704e+17
19594.0	7.439453218581161e+17
19595.0	7.439095402506921e+17
19596.0	7.438440931699369e+17
19597.0	7.438177919478441e+17
19598.0	7.437617508734292e+17
19599.0	7.43721736094788e+17
19600.0	7.439848604434428e+17
19601.0	7.440249238760108e+17
19602.0	7.439700811142483e+17
19603.0	7.438993922719743e+17
19604.0	7.43855927398673e+17
19605.0	7.437887519850493e+17
19606.0	7.437407994860884e+17
19607.0	7.436802719044948e+17
19608.0	7.436183249704275e+17
19609.0	7.437152884708689e+17
19610.0	7.438159809871871e+17
19611.0	7.437486433938089e+17
19612.0	7.436806242260306e+17
19613.0	7.436114114991446e+17
19614.0	7.435393767047165e+17
19615.0	7.434698396183208e+17
19616.0	7.433956841837908e+17
19617.0	7.433243909423103e+17
19618.0	7.432302018341545e+17
19619.0	7.431501431963647e+17
19620.0	7.432052899053564e+17
19621.0	7.432720342843392e+17
19622.0	7.43193103914325e+17
19623.0	7.431131334967293e+17
19624.0	7.43032270950673e+17
19625.0	7.429505708021075e+17
19626.0	7.428679846767274e+17
19627.0	7.427841633288191e+17
19628.0	7.426943300053674e+17
19629.0	7.426092594539177e+17
19630.0	7.424897486334634e+17
19631.0	7.421907369809236e+17
19632.0	7.423488790189396e+17
19633.0	7.422641930851667e+17
19634.0	7.422311692326228e+17
19635.0	7.422689529211562e+17
19636.0	7.42179179017011e+17
19637.0	7.420692102381565e+17
19638.0	7.419933573687977e+17
19639.0	7.418992043316563e+17
19640.0	7.4180199476538e+17
19641.0	7.416897112899583e+17
19642.0	7.416150960198995e+17
19643.0	7.415187941010089e+17
19644.0	7.414193208688639e+17
19645.0	7.413149314930003e+17
19646.0	7.412267047277908e+17
19647.0	7.411282391072768e+17
19648.0	7.410291317582505e+17
19649.0	7.409293749911551e+17
19650.0	7.408292691181564e+17
19651.0	7.40728512708608e+17
19652.0	7.406272341082111e+17
19653.0	7.40525378231774e+17
19654.0	7.404231553537364e+17
19655.0	7.403201807166122e+17
19656.0	7.402829744439293e+17
19657.0	7.402413062706516e+17
19658.0	7.401362888676691e+17
19659.0	7.400307533283327e+17
19660.0	7.399248944081578e+17
19661.0	7.398185639084032e+17
19662.0	7.397117639262208e+17
19663.0	7.396028462399487e+17
19664.0	7.394961846697981e+17
19665.0	7.39389115413299e+17
19666.0	7.39280273224499e+17
