# Flux units: erg / (cm m2 s)
# Wavelength units: Angstrom
wave	flux
19000.0	7.934721029133651e+17
19001.0	7.933119522231636e+17
19002.0	7.931741067018239e+17
19003.0	7.930242558241449e+17
19004.0	7.928746897397078e+17
19005.0	7.927261818781693e+17
19006.0	7.925772147403434e+17
19007.0	7.923780422030675e+17
19008.0	7.922709160438442e+17
19009.0	7.92126279385088e+17
19010.0	7.919279777251327e+17
19011.0	7.918277333002922e+17
19012.0	7.916268209657174e+17
19013.0	7.91531821657839e+17
19014.0	7.913753320357888e+17
19015.0	7.912293579532969e+17
19016.0	7.910793218271913e+17
19017.0	7.909123050613416e+17
19018.0	7.907806907378348e+17
19019.0	7.906350510811816e+17
19020.0	7.904790590433961e+17
19021.0	7.903334231616169e+17
19022.0	7.901878570450943e+17
19023.0	7.900336653423955e+17
19024.0	7.898867776006826e+17
19025.0	7.897340936104618e+17
19026.0	7.895830126832298e+17
19027.0	7.894007806601897e+17
19028.0	7.892917965641044e+17
19029.0	7.891397155749888e+17
19030.0	7.889937712720554e+17
19031.0	7.888450595673428e+17
19032.0	7.886954439901183e+17
19033.0	7.885360049334952e+17
19034.0	7.883941843304445e+17
19035.0	7.882421515758249e+17
19036.0	7.850623648486719e+17
19037.0	7.879464215467348e+17
19038.0	7.87795876651554e+17
19039.0	7.876488897844563e+17
19040.0	7.875000849661952e+17
19041.0	7.873496343030441e+17
19042.0	7.871906692027732e+17
19043.0	7.870519705599999e+17
19044.0	7.869008595735892e+17
19045.0	7.867509825514152e+17
19046.0	7.865959982650708e+17
19047.0	7.864536199593981e+17
19048.0	7.862808627292841e+17
19049.0	7.861470146592767e+17
19050.0	7.860000982564863e+17
19051.0	7.853951827312631e+17
19052.0	7.85670480068608e+17
19053.0	7.855450436752726e+17
19054.0	7.854082080025257e+17
19055.0	7.852298550116355e+17
19056.0	7.851059990320467e+17
19057.0	7.849580878801577e+17
19058.0	7.847966046595752e+17
19059.0	7.846606894967464e+17
19060.0	7.845085214059176e+17
19061.0	7.843624663733591e+17
19062.0	7.842126585572008e+17
19063.0	7.840635797110781e+17
19064.0	7.838994753301162e+17
19065.0	7.837437276804434e+17
19066.0	7.836080304816128e+17
19067.0	7.83464673644817e+17
19068.0	7.833169487200255e+17
19069.0	7.831677918598484e+17
19070.0	7.830147512139773e+17
19071.0	7.828662309093375e+17
19072.0	7.82719556517888e+17
19073.0	7.825695310173523e+17
19074.0	7.824213958896297e+17
19075.0	7.822721324941312e+17
19076.0	7.82120308895471e+17
19077.0	7.819727262973951e+17
19078.0	7.818163822176938e+17
19079.0	7.816748554955433e+17
19080.0	7.81524233285359e+17
19081.0	7.813710902984701e+17
19082.0	7.812201217785855e+17
19083.0	7.810640048903508e+17
19084.0	7.808996432587433e+17
19085.0	7.807781896366762e+17
19086.0	7.80580981991014e+17
19087.0	7.803885558519123e+17
19088.0	7.80318985490705e+17
19089.0	7.801119405244415e+17
19090.0	7.800286774383956e+17
19091.0	7.798813515317245e+17
19092.0	7.797068326939305e+17
19093.0	7.79585327342114e+17
19094.0	7.794264624857088e+17
19095.0	7.792766096506879e+17
19096.0	7.791242263920641e+17
19097.0	7.789799454102868e+17
19098.0	7.788316036431871e+17
19099.0	7.786821885536938e+17
19100.0	7.785289556688896e+17
19101.0	7.783836367366826e+17
19102.0	7.782270376432979e+17
19103.0	7.78086784311842e+17
19104.0	7.779387147550717e+17
19105.0	7.777891453151913e+17
19106.0	7.776231000899583e+17
19107.0	7.774892516005204e+17
19108.0	7.773421692431016e+17
19109.0	7.768426407788538e+17
19110.0	7.770401632769364e+17
19111.0	7.768949960387241e+17
19112.0	7.76747560660719e+17
19113.0	7.765988655934121e+17
19114.0	7.764494675607552e+17
19115.0	7.762901894255956e+17
19116.0	7.761496478056445e+17
19117.0	7.760009046436522e+17
19118.0	7.758293725697363e+17
19119.0	7.754756881645565e+17
19120.0	7.755310138305194e+17
19121.0	7.753926830282068e+17
19122.0	7.75259777138688e+17
19123.0	7.751090689452714e+17
19124.0	7.749442462198442e+17
19125.0	7.748093081900372e+17
19126.0	7.746568543272957e+17
19127.0	7.743338101516966e+17
19128.0	7.740702052756133e+17
19129.0	7.74207970545937e+17
19130.0	7.740685887908521e+17
19131.0	7.739109223869097e+17
19132.0	7.737725460064936e+17
19133.0	7.735265990104407e+17
19134.0	7.733308283333293e+17
19135.0	7.733256048869377e+17
19136.0	7.731785681076224e+17
19137.0	7.730111942666922e+17
19138.0	7.728461637834068e+17
19139.0	7.727314283178666e+17
19140.0	7.725843722447526e+17
19141.0	7.724360595581609e+17
19142.0	7.722835011174399e+17
19143.0	7.721322602474153e+17
19144.0	7.719853193778515e+17
19145.0	7.718399906589354e+17
19146.0	7.716178480158036e+17
19147.0	7.715353752764416e+17
19148.0	7.713943089490602e+17
19149.0	7.712457595639123e+17
19150.0	7.710968322719743e+17
19151.0	7.709503399133181e+17
19152.0	7.707969034649597e+17
19153.0	7.706517251817471e+17
19154.0	7.704915721147731e+17
19155.0	7.703560510767101e+17
19156.0	7.702077407668905e+17
19157.0	7.700524033201492e+17
19158.0	7.696709337481212e+17
19159.0	7.697581185084072e+17
19160.0	7.696058250078888e+17
19161.0	7.694338913992703e+17
19162.0	7.68778049194121e+17
19163.0	7.69162422063377e+17
19164.0	7.690207744054612e+17
19165.0	7.688639488196607e+17
19166.0	7.687036004379306e+17
19167.0	7.685246838723923e+17
19168.0	7.684098466250751e+17
19169.0	7.682630800987476e+17
19170.0	7.681303025549311e+17
19171.0	7.679558604729002e+17
19172.0	7.678311801727658e+17
19173.0	7.676846792856915e+17
19174.0	7.675312485695488e+17
19175.0	7.673893326159871e+17
19176.0	7.67240042656563e+17
19177.0	7.670753612791807e+17
19178.0	7.669344712523775e+17
19179.0	7.66756293303774e+17
19180.0	7.665846211401044e+17
19181.0	7.664849907613696e+17
19182.0	7.663379762118653e+17
19183.0	7.661947214364671e+17
19184.0	7.660324248005289e+17
19185.0	7.659028216457897e+17
19186.0	7.657564169480874e+17
19187.0	7.655972372392617e+17
19188.0	7.654557433724927e+17
19189.0	7.65297592246818e+17
19190.0	7.65146273362739e+17
19191.0	7.650035269369853e+17
19192.0	7.648589534724096e+17
19193.0	7.646586051319126e+17
19194.0	7.645405304411476e+17
19195.0	7.64413337752917e+17
19196.0	7.642667848564735e+17
19197.0	7.641162840014847e+17
19198.0	7.639553808531455e+17
19199.0	7.606903432194723e+17
19200.0	7.616025254865591e+17
19201.0	7.635118473259689e+17
19202.0	7.633749746035369e+17
19203.0	7.632225565321897e+17
19204.0	7.630776043219625e+17
19205.0	7.629320668665174e+17
19206.0	7.627828512860842e+17
19207.0	7.626266991656957e+17
19208.0	7.624653101771433e+17
19209.0	7.623345758186153e+17
19210.0	7.621885033097897e+17
19211.0	7.620406581482834e+17
19212.0	7.618922814286505e+17
19213.0	7.617059902980093e+17
19214.0	7.615399735940438e+17
19215.0	7.614335066395987e+17
19216.0	7.612925255963987e+17
19217.0	7.611473083061587e+17
19218.0	7.609093174853628e+17
19219.0	7.60830763484228e+17
19220.0	7.606957665943551e+17
19221.0	7.605118342004735e+17
19222.0	7.604027562917888e+17
19223.0	7.602507208807764e+17
19224.0	7.600921482275498e+17
19225.0	7.599365103288319e+17
19226.0	7.598020437387945e+17
19227.0	7.596524589197993e+17
19228.0	7.595069274761897e+17
19229.0	7.593573432164352e+17
19230.0	7.591938042276521e+17
19231.0	7.59047218615637e+17
19232.0	7.589015816153769e+17
19233.0	7.587497106210816e+17
19234.0	7.586056510985556e+17
19235.0	7.584547229837993e+17
19236.0	7.583092083174058e+17
19237.0	7.581570389682857e+17
19238.0	7.579943305915049e+17
19239.0	7.578583943173459e+17
19240.0	7.576757246885887e+17
19241.0	7.575467972362237e+17
19242.0	7.574050286425428e+17
19243.0	7.572365725313706e+17
19244.0	7.571076217307136e+17
19245.0	7.569565352110761e+17
19246.0	7.568048010909011e+17
19247.0	7.566543936290816e+17
19248.0	7.565047966466045e+17
19249.0	7.563533713670141e+17
19250.0	7.562012280225791e+17
19251.0	7.560413745687209e+17
19252.0	7.558616682157396e+17
19253.0	7.557477267319466e+17
19254.0	7.55593838137617e+17
19255.0	7.554232826374824e+17
19256.0	7.552849788185257e+17
19257.0	7.551434204992854e+17
19258.0	7.549920181485568e+17
19259.0	7.548312866870612e+17
19260.0	7.546478243348479e+17
19261.0	7.545348187400874e+17
19262.0	7.543771721891839e+17
19263.0	7.542263451571539e+17
19264.0	7.54024163066948e+17
19265.0	7.5390652542266e+17
19266.0	7.537544138151254e+17
19267.0	7.536087266230271e+17
19268.0	7.534542894137344e+17
19269.0	7.533019290839721e+17
19270.0	7.53147938428245e+17
19271.0	7.529595530816169e+17
19272.0	7.528374434704041e+17
19273.0	7.518359497910944e+17
19274.0	7.521074771481934e+17
19275.0	7.523790428132692e+17
19276.0	7.52222519776597e+17
19277.0	7.520676527909544e+17
19278.0	7.519131946101417e+17
19279.0	7.517452995570344e+17
19280.0	7.515940399524521e+17
19281.0	7.514470459550377e+17
19282.0	7.512924787223208e+17
19283.0	7.510866879927636e+17
19284.0	7.508684790475433e+17
19285.0	7.507988256391165e+17
19286.0	7.506640434976084e+17
19287.0	7.505110618516136e+17
19288.0	7.496530009260027e+17
19289.0	7.481217093293356e+17
19290.0	7.500386934631081e+17
19291.0	7.498501642518527e+17
19292.0	7.497224590196735e+17
19293.0	7.495628594610175e+17
19294.0	7.494033479827455e+17
19295.0	7.492454739607551e+17
19296.0	7.490850380578812e+17
19297.0	7.48921703052083e+17
19298.0	7.487617507524607e+17
19299.0	7.486047662025386e+17
19300.0	7.484435252729172e+17
19301.0	7.482807214058153e+17
19302.0	7.481185006867796e+17
19303.0	7.479454670520319e+17
19304.0	7.477873135495849e+17
19305.0	7.47629031002385e+17
19306.0	7.474625611737769e+17
19307.0	7.472764354385238e+17
19308.0	7.471156087663274e+17
19309.0	7.468560016211965e+17
19310.0	7.466385076649981e+17
19311.0	7.466125931577344e+17
19312.0	7.464558239154173e+17
19313.0	7.462779174780927e+17
19314.0	7.451165535677083e+17
19315.0	7.45010710166462e+17
19316.0	7.457785528713215e+17
19317.0	7.456087790496424e+17
19318.0	7.454324688246099e+17
19319.0	7.452634292857513e+17
19320.0	7.450887231023785e+17
19321.0	7.449195374619305e+17
19322.0	7.44726107206451e+17
19323.0	7.445191216594944e+17
19324.0	7.443936431833088e+17
19325.0	7.441411336394067e+17
19326.0	7.440434018822825e+17
19327.0	7.438507878383616e+17
19328.0	7.436731287251625e+17
19329.0	7.43494095418163e+17
19330.0	7.43309440066082e+17
19331.0	7.43127958963268e+17
19332.0	7.42949323416098e+17
19333.0	7.427642047332351e+17
19334.0	7.425786751483903e+17
19335.0	7.423973969100799e+17
19336.0	7.422089539616768e+17
19337.0	7.420215229590185e+17
19338.0	7.418098653768361e+17
19339.0	7.416409611741864e+17
19340.0	7.414175382896639e+17
19341.0	7.412291295947433e+17
19342.0	7.409869419533651e+17
19343.0	7.408378264769875e+17
19344.0	7.406388129038333e+17
19345.0	7.402231115197092e+17
19346.0	7.401781538936148e+17
19347.0	7.40027889038131e+17
19348.0	7.398280777083562e+17
19349.0	7.395846075886249e+17
19350.0	7.393764509919914e+17
19351.0	7.391632339675816e+17
19352.0	7.389289432219645e+17
19353.0	7.387222946174292e+17
19354.0	7.385043373304489e+17
19355.0	7.38259077361391e+17
19356.0	7.380203263929002e+17
19357.0	7.377949061808125e+17
19358.0	7.375588914364415e+17
19359.0	7.37292189765905e+17
19360.0	7.370988707992916e+17
19361.0	7.36836793488725e+17
19362.0	7.366026612877994e+17
19363.0	7.363529518612479e+17
19364.0	7.361062600966143e+17
19365.0	7.358561057942186e+17
19366.0	7.355981366646099e+17
19367.0	7.353151570400595e+17
19368.0	7.35054386115379e+17
19369.0	7.347695692458664e+17
19370.0	7.344162308707668e+17
19371.0	7.342369870097064e+17
19372.0	7.339632509321215e+17
19373.0	7.336748430393344e+17
19374.0	7.333871610407594e+17
19375.0	7.330819866973523e+17
19376.0	7.327482420133887e+17
19377.0	7.32440028057873e+17
19378.0	7.321264906917203e+17
19379.0	7.318055203198291e+17
19380.0	7.314779091064148e+17
19381.0	7.311346292315476e+17
19382.0	7.307351196783956e+17
19383.0	7.303823283803475e+17
19384.0	7.300349636728147e+17
19385.0	7.296664456921087e+17
19386.0	7.292488304470696e+17
19387.0	7.288313351591251e+17
19388.0	7.28434410136098e+17
19389.0	7.280263007218345e+17
19390.0	7.275183098298365e+17
19391.0	7.24616004833549e+17
19392.0	7.266153994911743e+17
19393.0	7.260615401100627e+17
19394.0	7.25588905243443e+17
19395.0	7.2502147547136e+17
19396.0	7.244687576399871e+17
19397.0	7.238809631238826e+17
19398.0	7.232759969873919e+17
19399.0	7.225329635906897e+17
19400.0	7.219645048160253e+17
19401.0	7.212836697320105e+17
19402.0	7.206560645600595e+17
19403.0	7.200242903897428e+17
19404.0	7.193729011373395e+17
19405.0	7.186933181928787e+17
19406.0	7.179875482512041e+17
19407.0	7.172109346974377e+17
19408.0	7.16384096869854e+17
19409.0	7.156495029720404e+17
19410.0	7.147992104566781e+17
19411.0	7.139119153719977e+17
19412.0	7.130160913099433e+17
19413.0	7.119993152645802e+17
19414.0	7.110120201431721e+17
19415.0	7.098892969574399e+17
19416.0	7.087502576495274e+17
19417.0	7.075118703793491e+17
19418.0	7.062318352083625e+17
19419.0	7.048300086340266e+17
19420.0	7.033257059855018e+17
19421.0	7.016742646360749e+17
19422.0	6.99828039459362e+17
19423.0	6.979430610108415e+17
19424.0	6.962607468576767e+17
19425.0	6.945424425003689e+17
19426.0	6.927451348620627e+17
19427.0	6.908387330970964e+17
19428.0	6.888340955594751e+17
19429.0	6.866569091787432e+17
19430.0	6.84282417914402e+17
19431.0	6.814250874612402e+17
19432.0	6.791054353235965e+17
19433.0	6.761005219228332e+17
19434.0	6.728250278892884e+17
19435.0	6.690626483519487e+17
19436.0	6.650084305403901e+17
19437.0	6.614601620433577e+17
19438.0	6.557113238508884e+17
19439.0	6.531968642580483e+17
19440.0	6.484516357712553e+17
19441.0	6.431647259252051e+17
19442.0	6.37065276354287e+17
19443.0	6.308331194242388e+17
19444.0	6.242080606475601e+17
19445.0	6.167876033576963e+17
19446.0	6.084911961560403e+17
19447.0	5.995202356095653e+17
19448.0	5.894384808973656e+17
19449.0	5.771336028083539e+17
19450.0	5.526949851387161e+17
19451.0	5.421773732446214e+17
19452.0	5.667775055222106e+17
19453.0	5.836019249883823e+17
19454.0	5.941434156843002e+17
19455.0	6.033957604818943e+17
19456.0	6.117737948512259e+17
19457.0	6.194004307738619e+17
19458.0	6.255585291578036e+17
19459.0	6.322286776112472e+17
19460.0	6.382752545548966e+17
19461.0	6.436920350124714e+17
19462.0	6.484422682127018e+17
19463.0	6.52689097062263e+17
19464.0	6.565429038284799e+17
19465.0	6.600994342655318e+17
19466.0	6.635084136316924e+17
19467.0	6.672733324705791e+17
19468.0	6.704772541317121e+17
19469.0	6.732601322635263e+17
19470.0	6.759102977933311e+17
19471.0	6.78260332560384e+17
19472.0	6.804111044029097e+17
19473.0	6.823824094571177e+17
19474.0	6.84195515011345e+17
19475.0	6.858327195647997e+17
19476.0	6.874464646769321e+17
19477.0	6.8893766334109e+17
19478.0	6.903205782181203e+17
19479.0	6.918675132405076e+17
19480.0	6.934609310078291e+17
19481.0	6.949115933316435e+17
19482.0	6.962250803139927e+17
19483.0	6.974115694335318e+17
19484.0	6.984764213602985e+17
19485.0	6.994393108054015e+17
19486.0	7.00349912588834e+17
19487.0	7.011844704523604e+17
19488.0	7.019523601334271e+17
19489.0	7.026757541210794e+17
19490.0	7.032332893203112e+17
19491.0	7.039447445012479e+17
19492.0	7.045702678304084e+17
19493.0	7.051005749362687e+17
19494.0	7.055959995536723e+17
19495.0	7.060766866451114e+17
19496.0	7.065142093152253e+17
19497.0	7.06956957389073e+17
19498.0	7.072234142520664e+17
19499.0	7.038715515895767e+17
19500.0	7.080454058409983e+17
19501.0	7.084251837104128e+17
19502.0	7.087856693193385e+17
19503.0	7.091887363413332e+17
19504.0	7.094933756313599e+17
19505.0	7.098708241241428e+17
19506.0	7.101151655406249e+17
19507.0	7.104231102218239e+17
19508.0	7.106480075440127e+17
19509.0	7.108655494550867e+17
19510.0	7.110877705317033e+17
19511.0	7.084010301117761e+17
19512.0	7.109448810801812e+17
19513.0	7.105083892301802e+17
19514.0	7.109945908527094e+17
19515.0	7.117821323859286e+17
19516.0	7.120202859457194e+17
19517.0	7.121311155355645e+17
19518.0	7.122218760798207e+17
19519.0	7.122957226737663e+17
19520.0	7.123612544794623e+17
19521.0	7.124736038054569e+17
19522.0	7.125226375959892e+17
19523.0	7.125724999013714e+17
19524.0	7.126105682433364e+17
19525.0	7.126359060338003e+17
19526.0	7.126666150499668e+17
19527.0	7.127084347774292e+17
19528.0	7.127388489340244e+17
19529.0	7.127473882573481e+17
19530.0	7.127521531265024e+17
19531.0	7.127512141616467e+17
19532.0	7.127450903379965e+17
19533.0	7.127346097509716e+17
19534.0	7.127194026027689e+17
19535.0	7.126978957497683e+17
19536.0	7.126743975810387e+17
19537.0	7.126784555701587e+17
19538.0	7.126440432631808e+17
19539.0	7.125559224740524e+17
19540.0	7.125740069147987e+17
19541.0	7.125368062345216e+17
19542.0	7.125053054735699e+17
19543.0	7.124749946366633e+17
19544.0	7.124277362950143e+17
19545.0	7.123393904115708e+17
19546.0	7.122254143946752e+17
19547.0	7.122641009770493e+17
19548.0	7.122373150332246e+17
19549.0	7.121707905755817e+17
19550.0	7.121194834722815e+17
19551.0	7.120541005643775e+17
19552.0	7.119862438559743e+17
19553.0	7.119214626908842e+17
19554.0	7.118583937804969e+17
19555.0	7.118020596640425e+17
19556.0	7.117448109096959e+17
19557.0	7.116672494206975e+17
19558.0	7.115889568645119e+17
19559.0	7.115059592779091e+17
19560.0	7.114244276005545e+17
19561.0	7.11341528580096e+17
19562.0	7.112594069039785e+17
19563.0	7.111737513869311e+17
19564.0	7.110873987765587e+17
19565.0	7.110086898657961e+17
19566.0	7.109301350258003e+17
19567.0	7.108421539069951e+17
19568.0	7.107470468055037e+17
19569.0	7.106553520499369e+17
19570.0	7.105638489740628e+17
19571.0	7.104685562047145e+17
19572.0	7.103681582683476e+17
19573.0	7.102737871273983e+17
19574.0	7.101657545790803e+17
19575.0	7.100780157512361e+17
19576.0	7.099781901975552e+17
19577.0	7.098711082183338e+17
19578.0	7.09772336833058e+17
19579.0	7.096712975876093e+17
19580.0	7.095755259685545e+17
19581.0	7.094849727627261e+17
19582.0	7.093824670487892e+17
19583.0	7.092773705132713e+17
19584.0	7.091702270175913e+17
19585.0	7.09051477463313e+17
19586.0	7.089338139541504e+17
19587.0	7.088222268730025e+17
19588.0	7.086873744069972e+17
19589.0	7.08613875241233e+17
19590.0	7.085133964946089e+17
19591.0	7.084136014195369e+17
19592.0	7.083041924404564e+17
19593.0	7.081904185890132e+17
19594.0	7.080487530354003e+17
19595.0	7.079682422516393e+17
19596.0	7.071480311447557e+17
19597.0	7.077410131760468e+17
19598.0	7.076066747919016e+17
19599.0	7.07521626190643e+17
19600.0	7.074167079130451e+17
19601.0	7.072949854360916e+17
19602.0	7.071832129667071e+17
19603.0	7.069808900876968e+17
19604.0	7.069492407085738e+17
19605.0	7.068072835110228e+17
19606.0	7.067238754418687e+17
19607.0	7.066152410109268e+17
19608.0	7.065040585403049e+17
19609.0	7.063822376370175e+17
19610.0	7.062724046138025e+17
19611.0	7.061537350309204e+17
19612.0	7.060370908774399e+17
19613.0	7.059174167587497e+17
19614.0	7.057957493669887e+17
19615.0	7.056818947052884e+17
19616.0	7.055398706784938e+17
19617.0	7.054435314302975e+17
19618.0	7.052722647160147e+17
19619.0	7.051336919023612e+17
19620.0	7.050179303702525e+17
19621.0	7.049644542525439e+17
19622.0	7.048453295876777e+17
19623.0	7.047249699799037e+17
19624.0	7.046031759201619e+17
19625.0	7.044830612597417e+17
19626.0	7.043613652069033e+17
19627.0	7.042410109119145e+17
19628.0	7.040462333061805e+17
19629.0	7.039871365414911e+17
19630.0	7.03804895850223e+17
19631.0	7.005067200692209e+17
19632.0	7.036286729366185e+17
19633.0	7.035045903947092e+17
19634.0	7.033885899969875e+17
19635.0	7.032614293252778e+17
19636.0	7.031422604804093e+17
19637.0	7.029736106622977e+17
19638.0	7.028978948068691e+17
19639.0	7.027720626809513e+17
19640.0	7.026451038950739e+17
19641.0	7.024737498693633e+17
19642.0	7.024049031654057e+17
19643.0	7.022787059952297e+17
19644.0	7.021526682785107e+17
19645.0	7.020080892215295e+17
19646.0	7.019122885219668e+17
19647.0	7.017884881868116e+17
19648.0	7.016640230544723e+17
19649.0	7.015397049324884e+17
19650.0	7.014164825724244e+17
19651.0	7.012914554033492e+17
19652.0	7.011669686004394e+17
19653.0	7.01042223288593e+17
19654.0	7.009180156865194e+17
19655.0	7.007929051206996e+17
19656.0	7.006689537906004e+17
19657.0	7.005444848833876e+17
19658.0	7.004199852878505e+17
19659.0	7.002957320377684e+17
19660.0	7.001710253834239e+17
19661.0	7.000460758089728e+17
19662.0	6.999210532536319e+17
19663.0	6.997901318291456e+17
19664.0	6.996554323853311e+17
19665.0	6.995456517909161e+17
