# Flux units: erg / (cm m2 s)
# Wavelength units: Angstrom
wave	flux
19000.0	5.387185073859242e+17
19001.0	5.386036330190164e+17
19002.0	5.3852462134941005e+17
19003.0	5.384260648523092e+17
19004.0	5.383292980647252e+17
19005.0	5.382253351796734e+17
19006.0	5.38130137551121e+17
19007.0	5.3803750977262925e+17
19008.0	5.379367079247871e+17
19009.0	5.378155450378921e+17
19010.0	5.377080936103935e+17
19011.0	5.376350936367104e+17
19012.0	5.3746264210145254e+17
19013.0	5.374579456693588e+17
19014.0	5.3735768153128954e+17
19015.0	5.372609758407338e+17
19016.0	5.3716631165774496e+17
19017.0	5.370734826225664e+17
19018.0	5.3697522594829645e+17
19019.0	5.3688049954979834e+17
19020.0	5.3678356352204794e+17
19021.0	5.3668865334312954e+17
19022.0	5.365916958545236e+17
19023.0	5.364832937181183e+17
19024.0	5.3637548486601376e+17
19025.0	5.362889005902505e+17
19026.0	5.361793663412905e+17
19027.0	5.360397436234409e+17
19028.0	5.360019260309503e+17
19029.0	5.359074564636672e+17
19030.0	5.35814045119283e+17
19031.0	5.357168006004736e+17
19032.0	5.3561380659964576e+17
19033.0	5.354936876750164e+17
19034.0	5.3536558824816634e+17
19035.0	5.349576986853375e+17
19036.0	5.3065099383930835e+17
19037.0	5.34847350252066e+17
19038.0	5.3498483121848314e+17
19039.0	5.3492736261270176e+17
19040.0	5.3484125173405005e+17
19041.0	5.3475012516686496e+17
19042.0	5.340558371323895e+17
19043.0	5.345680631529471e+17
19044.0	5.3447080297540256e+17
19045.0	5.3436842260125005e+17
19046.0	5.342743823908864e+17
19047.0	5.3417579821137914e+17
19048.0	5.3397913400770554e+17
19049.0	5.3273157896765286e+17
19050.0	5.338285700284415e+17
19051.0	5.3315008326533094e+17
19052.0	5.333673194116435e+17
19053.0	5.3357214538137594e+17
19054.0	5.3350317159000723e+17
19055.0	5.332117205898582e+17
19056.0	5.332647745508691e+17
19057.0	5.332282446796115e+17
19058.0	5.325011808157685e+17
19059.0	5.3279662926725094e+17
19060.0	5.329418207625215e+17
19061.0	5.3284542307368954e+17
19062.0	5.327511922322089e+17
19063.0	5.3265658998510925e+17
19064.0	5.3255129750568954e+17
19065.0	5.3244795167266125e+17
19066.0	5.321359580900013e+17
19067.0	5.322721481195518e+17
19068.0	5.3218086713207456e+17
19069.0	5.320851334714709e+17
19070.0	5.319853509094057e+17
19071.0	5.318884295617194e+17
19072.0	5.315613357157031e+17
19073.0	5.317031740746409e+17
19074.0	5.316071802273792e+17
19075.0	5.315125925205332e+17
19076.0	5.314155022123007e+17
19077.0	5.3131919777682765e+17
19078.0	5.3122018382097056e+17
19079.0	5.311296893353983e+17
19080.0	5.3103357832724474e+17
19081.0	5.309320912699391e+17
19082.0	5.308410463518719e+17
19083.0	5.3073576638545914e+17
19084.0	5.306258370330623e+17
19085.0	5.3054684507668474e+17
19086.0	5.300700414214142e+17
19087.0	5.2977535591382976e+17
19088.0	5.2989699429498816e+17
19089.0	5.30113382772463e+17
19090.0	5.3005558225742496e+17
19091.0	5.299291561481559e+17
19092.0	5.293779999260685e+17
19093.0	5.2978967177243296e+17
19094.0	5.2970009038684154e+17
19095.0	5.296061642615466e+17
19096.0	5.2951155907843405e+17
19097.0	5.294177526306132e+17
19098.0	5.2906398720546106e+17
19099.0	5.289154033571159e+17
19100.0	5.291211698995199e+17
19101.0	5.2903126841862816e+17
19102.0	5.289312249009492e+17
19103.0	5.288457798680575e+17
19104.0	5.2875198048064845e+17
19105.0	5.280869397473979e+17
19106.0	5.285430631770793e+17
19107.0	5.2831272094924774e+17
19108.0	5.281199651378518e+17
19109.0	5.2811497852982605e+17
19110.0	5.2810786610872314e+17
19111.0	5.279084433812135e+17
19112.0	5.2779207430417024e+17
19113.0	5.278963886718975e+17
19114.0	5.2768828695074106e+17
19115.0	5.276730424033279e+17
19116.0	5.276090973727402e+17
19117.0	5.275100407747924e+17
19118.0	5.2737567589662726e+17
19119.0	5.2632035552569894e+17
19120.0	5.2717540284388685e+17
19121.0	5.271018336332457e+17
19122.0	5.270459043370324e+17
19123.0	5.269548846546942e+17
19124.0	5.2682818053297485e+17
19125.0	5.2676328682072723e+17
19126.0	5.2665569844920314e+17
19127.0	5.2642205803042125e+17
19128.0	5.2645531249978016e+17
19129.0	5.263783517749247e+17
19130.0	5.262947214076585e+17
19131.0	5.2620250739725645e+17
19132.0	5.261075624755198e+17
19133.0	5.2600838452237645e+17
19134.0	5.259153612909226e+17
19135.0	5.258246342311935e+17
19136.0	5.257308043651754e+17
19137.0	5.2562374936930976e+17
19138.0	5.255403424885417e+17
19139.0	5.254498068288851e+17
19140.0	5.2535588077349536e+17
19141.0	5.2526120330854394e+17
19142.0	5.251634224081578e+17
19143.0	5.2506899723059194e+17
19144.0	5.249738611184981e+17
19145.0	5.248846386954239e+17
19146.0	5.247172814918998e+17
19147.0	5.246900704553641e+17
19148.0	5.2439813550243866e+17
19149.0	5.242673614378325e+17
19150.0	5.244147297069738e+17
19151.0	5.243198199474857e+17
19152.0	5.2421906046211405e+17
19153.0	5.23697992289484e+17
19154.0	5.239883963913558e+17
19155.0	5.239341792799402e+17
19156.0	5.238350566916094e+17
19157.0	5.235770482753539e+17
19158.0	5.232723724249774e+17
19159.0	5.2352614990697805e+17
19160.0	5.2344338608291834e+17
19161.0	5.233187272436394e+17
19162.0	5.230260536038741e+17
19163.0	5.230738335771306e+17
19164.0	5.230660105710249e+17
19165.0	5.225219703351969e+17
19166.0	5.228807873800873e+17
19167.0	5.227859134119935e+17
19168.0	5.227085686986068e+17
19169.0	5.226214052593662e+17
19170.0	5.2252910631430816e+17
19171.0	5.224293178103125e+17
19172.0	5.2233910413339296e+17
19173.0	5.2225267903146656e+17
19174.0	5.221582623124138e+17
19175.0	5.220687186056532e+17
19176.0	5.2197505378549754e+17
19177.0	5.2186006030035616e+17
19178.0	5.217695321904469e+17
19179.0	5.2167538187960314e+17
19180.0	5.215948544584362e+17
19181.0	5.214937302084265e+17
19182.0	5.214057639094953e+17
19183.0	5.2132144015387296e+17
19184.0	5.2122931834825376e+17
19185.0	5.2113272890982394e+17
19186.0	5.2104128084923725e+17
19187.0	5.209383479454377e+17
19188.0	5.208511571034111e+17
19189.0	5.207542811940181e+17
19190.0	5.206572116475903e+17
19191.0	5.2055644342408525e+17
19192.0	5.204614377548457e+17
19193.0	5.203024741225814e+17
19194.0	5.2016073041510406e+17
19195.0	5.2013316153453216e+17
19196.0	5.1998913284014074e+17
19197.0	5.1978188200345594e+17
19198.0	5.193158478528511e+17
19199.0	5.1758893629439974e+17
19200.0	5.177001714734422e+17
19201.0	5.1908329578605216e+17
19202.0	5.1933241164868256e+17
19203.0	5.1933436465643514e+17
19204.0	5.1929788693435725e+17
19205.0	5.192318971805694e+17
19206.0	5.1915253773325645e+17
19207.0	5.190514018790057e+17
19208.0	5.18962567848482e+17
19209.0	5.1889238239259296e+17
19210.0	5.188008548499455e+17
19211.0	5.1871323528014496e+17
19212.0	5.186179121020927e+17
19213.0	5.18502400270882e+17
19214.0	5.184032129504596e+17
19215.0	5.1833312067802445e+17
19216.0	5.1825137432221005e+17
19217.0	5.1815424409818445e+17
19218.0	5.1800616580328083e+17
19219.0	5.179516758523903e+17
19220.0	5.1787966119062176e+17
19221.0	5.1777393131519994e+17
19222.0	5.176962965656917e+17
19223.0	5.176092307838292e+17
19224.0	5.1751330264733005e+17
19225.0	5.174180221113683e+17
19226.0	5.17333832433664e+17
19227.0	5.1724273942091085e+17
19228.0	5.1715361836018336e+17
19229.0	5.1705948321873914e+17
19230.0	5.169680840217941e+17
19231.0	5.168756450568873e+17
19232.0	5.167833754020522e+17
19233.0	5.166842744143871e+17
19234.0	5.1659824455570765e+17
19235.0	5.165037811400703e+17
19236.0	5.164157767428778e+17
19237.0	5.163208169313621e+17
19238.0	5.1621946493064525e+17
19239.0	5.1613895505565e+17
19240.0	5.160462607275349e+17
19241.0	5.1595287895299405e+17
19242.0	5.158602490773503e+17
19243.0	5.1575383462161056e+17
19244.0	5.1567939614146554e+17
19245.0	5.155867768913919e+17
19246.0	5.154945955266559e+17
19247.0	5.154022593221973e+17
19248.0	5.1530984167833594e+17
19249.0	5.1520229622852256e+17
19250.0	5.1503379230228474e+17
19251.0	5.1493455996299923e+17
19252.0	5.149100541826389e+17
19253.0	5.14848326750481e+17
19254.0	5.147593143222271e+17
19255.0	5.1464541855634765e+17
19256.0	5.1457353741325645e+17
19257.0	5.144828181828947e+17
19258.0	5.143902016591189e+17
19259.0	5.1428260797480954e+17
19260.0	5.140619352954195e+17
19261.0	5.1410754052205216e+17
19262.0	5.1400763632517114e+17
19263.0	5.139096438920532e+17
19264.0	5.137878309579434e+17
19265.0	5.13723080061747e+17
19266.0	5.136214444561749e+17
19267.0	5.1356406064523936e+17
19268.0	5.13472054951936e+17
19269.0	5.1338134438980256e+17
19270.0	5.132847750141268e+17
19271.0	5.131674789259947e+17
19272.0	5.131011351030442e+17
19273.0	5.129911170411177e+17
19274.0	5.1287675144328525e+17
19275.0	5.128320363877715e+17
19276.0	5.1273775367673165e+17
19277.0	5.1264699005665274e+17
19278.0	5.125425476927486e+17
19279.0	5.124575125831678e+17
19280.0	5.123635652766377e+17
19281.0	5.1227319319483725e+17
19282.0	5.1217992284897274e+17
19283.0	5.1207804201642656e+17
19284.0	5.119800602787839e+17
19285.0	5.118844491617621e+17
19286.0	5.117805864506708e+17
19287.0	5.116233633846613e+17
19288.0	5.098626031637834e+17
19289.0	5.085694036803559e+17
19290.0	5.1132812674553165e+17
19291.0	5.112982540036779e+17
19292.0	5.112573561143294e+17
19293.0	5.111740551397375e+17
19294.0	5.110817749991423e+17
19295.0	5.109985172957866e+17
19296.0	5.106290120458247e+17
19297.0	5.1076649685701984e+17
19298.0	5.1072374193957536e+17
19299.0	5.1032049036820506e+17
19300.0	5.1053954055099725e+17
19301.0	5.104527673917439e+17
19302.0	5.103595750599338e+17
19303.0	5.102590013822292e+17
19304.0	5.101749171912703e+17
19305.0	5.100820267794432e+17
19306.0	5.099871287640064e+17
19307.0	5.098824657797119e+17
19308.0	5.0978216892607136e+17
19309.0	5.0962397410973e+17
19310.0	5.095051973623807e+17
19311.0	5.0946579390354765e+17
19312.0	5.0936889303804576e+17
19313.0	5.091442673669462e+17
19314.0	4.976155275471525e+17
19315.0	4.9841226068788454e+17
19316.0	5.085050137739269e+17
19317.0	5.0891750329985696e+17
19318.0	5.088652918347094e+17
19319.0	5.0879033011514016e+17
19320.0	5.085951458716327e+17
19321.0	5.0836471856933536e+17
19322.0	5.085115749236735e+17
19323.0	5.084136603648e+17
19324.0	5.0832204103679994e+17
19325.0	5.082132581274966e+17
19326.0	5.081496424895828e+17
19327.0	5.0807024431486285e+17
19328.0	5.0748038829834285e+17
19329.0	5.0790003959835296e+17
19330.0	5.078077259732309e+17
19331.0	5.077144524816383e+17
19332.0	5.076288029764266e+17
19333.0	5.0753491082499405e+17
19334.0	5.0743587939287046e+17
19335.0	5.063255612107447e+17
19336.0	5.072562874045782e+17
19337.0	5.0717480836573856e+17
19338.0	5.0705992826661536e+17
19339.0	5.069891844090538e+17
19340.0	5.0687613050989216e+17
19341.0	5.06418068472901e+17
19342.0	5.0657255999843014e+17
19343.0	5.0662084643389434e+17
19344.0	5.06147135448679e+17
19345.0	5.0609617570365466e+17
19346.0	5.0622140461875194e+17
19347.0	5.057687804269909e+17
19348.0	5.061673199774378e+17
19349.0	5.060730158754474e+17
19350.0	5.057995256539819e+17
19351.0	5.058866910505643e+17
19352.0	5.052833731357346e+17
19353.0	5.057132622424746e+17
19354.0	5.0562330385885856e+17
19355.0	5.055195144781824e+17
19356.0	5.0543792554857805e+17
19357.0	5.05347305443601e+17
19358.0	5.052528174213802e+17
19359.0	5.050474770901669e+17
19360.0	5.046653604768425e+17
19361.0	5.0497551646501536e+17
19362.0	5.048867379391146e+17
19363.0	5.0479518404225696e+17
19364.0	5.047028194563413e+17
19365.0	5.0460915952954016e+17
19366.0	5.0451711252234234e+17
19367.0	5.044236350477651e+17
19368.0	5.0433277614708045e+17
19369.0	5.042319700350292e+17
19370.0	5.041415625812649e+17
19371.0	5.040474637205503e+17
19372.0	5.0395685787620685e+17
19373.0	5.0386129569273165e+17
19374.0	5.0377056366974285e+17
19375.0	5.036775103092053e+17
19376.0	5.035845650219007e+17
19377.0	5.034894933622784e+17
19378.0	5.033953050230783e+17
19379.0	5.0330035297102496e+17
19380.0	5.03202109788433e+17
19381.0	5.031075148114602e+17
19382.0	5.030034440628906e+17
19383.0	5.029082781712383e+17
19384.0	5.028145813345621e+17
19385.0	5.027219953593002e+17
19386.0	5.0262350904688634e+17
19387.0	5.025209905403221e+17
19388.0	5.0241395281100794e+17
19389.0	5.0228953528401914e+17
19390.0	5.020505169985534e+17
19391.0	4.980661150547934e+17
19392.0	5.0136188645102906e+17
19393.0	5.0185959025322656e+17
19394.0	5.0180678781064525e+17
19395.0	5.015725817899695e+17
19396.0	5.0159103099535366e+17
19397.0	5.015288395333632e+17
19398.0	5.012872017652395e+17
19399.0	5.0108965116532045e+17
19400.0	5.010849895459499e+17
19401.0	5.0111358092793165e+17
19402.0	5.010093649166335e+17
19403.0	5.009007146172415e+17
19404.0	5.0079252457280845e+17
19405.0	5.006783408679594e+17
19406.0	5.005641968691881e+17
19407.0	5.002698255149735e+17
19408.0	5.002631792208554e+17
19409.0	5.00197467759138e+17
19410.0	5.0009096906779296e+17
19411.0	4.9996545235353594e+17
19412.0	4.998355744019798e+17
19413.0	4.995229062354261e+17
19414.0	4.9956844295509325e+17
19415.0	4.994209136945834e+17
19416.0	4.9924265262885536e+17
19417.0	4.991022432692907e+17
19418.0	4.9897364339206816e+17
19419.0	4.988212339889493e+17
19420.0	4.986495458869247e+17
19421.0	4.9847394953243296e+17
19422.0	4.9827502382994765e+17
19423.0	4.980826949287935e+17
19424.0	4.978726985706153e+17
19425.0	4.976529005434196e+17
19426.0	4.9742658918154234e+17
19427.0	4.9718268572030285e+17
19428.0	4.969055710609408e+17
19429.0	4.965871108401834e+17
19430.0	4.9599123872372064e+17
19431.0	4.952680903824727e+17
19432.0	4.955013027026261e+17
19433.0	4.951317179706026e+17
19434.0	4.9465811820434765e+17
19435.0	4.939193859964927e+17
19436.0	4.931296081302868e+17
19437.0	4.924732788965374e+17
19438.0	4.8410034361248557e+17
19439.0	4.895896361063762e+17
19440.0	4.900559512753492e+17
19441.0	4.890240608458068e+17
19442.0	4.876442812809215e+17
19443.0	4.859680021020671e+17
19444.0	4.839560995405823e+17
19445.0	4.81364693413615e+17
19446.0	4.780997604278271e+17
19447.0	4.737740967684776e+17
19448.0	4.6770281173920454e+17
19449.0	4.581773361020927e+17
19450.0	4.38314267189793e+17
19451.0	4.212799273522527e+17
19452.0	4.5058278520695514e+17
19453.0	4.633743778119684e+17
19454.0	4.70560535757892e+17
19455.0	4.7544916190603936e+17
19456.0	4.7887703381551795e+17
19457.0	4.812373021949951e+17
19458.0	4.522670022459797e+17
19459.0	4.820704253968456e+17
19460.0	4.865913153126398e+17
19461.0	4.8788690002684576e+17
19462.0	4.888550658364757e+17
19463.0	4.8962642623419725e+17
19464.0	4.9029001734608205e+17
19465.0	4.908495574226261e+17
19466.0	4.912958986868051e+17
19467.0	4.916788573765632e+17
19468.0	4.9199504547293856e+17
19469.0	4.9187260346313325e+17
19470.0	4.924647872484692e+17
19471.0	4.9265413120327674e+17
19472.0	4.9280478333282976e+17
19473.0	4.929176519136596e+17
19474.0	4.926486368747514e+17
19475.0	4.930056620430676e+17
19476.0	4.9313323892954426e+17
19477.0	4.931879653692756e+17
19478.0	4.932299735607977e+17
19479.0	4.9289816979100954e+17
19480.0	4.932700077031423e+17
19481.0	4.93270476067089e+17
19482.0	4.932749987850921e+17
19483.0	4.9326619913530016e+17
19484.0	4.932438520933034e+17
19485.0	4.932168593702911e+17
19486.0	4.928103213520223e+17
19487.0	4.931498810889556e+17
19488.0	4.9311054012525216e+17
19489.0	4.930232505073662e+17
19490.0	4.928896695446185e+17
19491.0	4.929561763162793e+17
19492.0	4.929133996583594e+17
19493.0	4.928542536805034e+17
19494.0	4.9278843631261005e+17
19495.0	4.927096398807038e+17
19496.0	4.925724558011049e+17
19497.0	4.924471722202453e+17
19498.0	4.908728205705211e+17
19499.0	4.8615897519445235e+17
19500.0	4.921231783843156e+17
19501.0	4.922629550331221e+17
19502.0	4.9223455540073805e+17
19503.0	4.9218027880011085e+17
19504.0	4.9211312128218445e+17
19505.0	4.9203084840140794e+17
19506.0	4.9196424963467936e+17
19507.0	4.9187846989632845e+17
19508.0	4.9178311973492045e+17
19509.0	4.916425265949355e+17
19510.0	4.911521773649918e+17
19511.0	4.73148773018271e+17
19512.0	4.894711805728079e+17
19513.0	4.8928340731494234e+17
19514.0	4.896169231297183e+17
19515.0	4.911124403191807e+17
19516.0	4.911024819230035e+17
19517.0	4.9109303509210445e+17
19518.0	4.909274941620222e+17
19519.0	4.9084549307214483e+17
19520.0	4.9051365253229165e+17
19521.0	4.90810461126656e+17
19522.0	4.906721406702932e+17
19523.0	4.9055566379963757e+17
19524.0	4.902881917752667e+17
19525.0	4.904806788715861e+17
19526.0	4.9040957381454496e+17
19527.0	4.903270972304042e+17
19528.0	4.902172658150057e+17
19529.0	4.901185016998571e+17
19530.0	4.900824681545727e+17
19531.0	4.8999928517973325e+17
19532.0	4.899169730123093e+17
19533.0	4.8983407986387616e+17
19534.0	4.8975209310453754e+17
19535.0	4.896664802295807e+17
19536.0	4.895803132870655e+17
19537.0	4.894943124389887e+17
19538.0	4.8904796383477805e+17
19539.0	4.8928696918780576e+17
19540.0	4.892434030220627e+17
19541.0	4.8908207939474765e+17
19542.0	4.890452577397417e+17
19543.0	4.886242317565954e+17
19544.0	4.8888464833249274e+17
19545.0	4.8875926506700794e+17
19546.0	4.8866250729717754e+17
19547.0	4.8865653796372474e+17
19548.0	4.8857666359569056e+17
19549.0	4.8848175432553805e+17
19550.0	4.8840895043556685e+17
19551.0	4.883256428898987e+17
19552.0	4.882405565399039e+17
19553.0	4.881546752993962e+17
19554.0	4.8806761399145805e+17
19555.0	4.879437554253824e+17
19556.0	4.87871341605683e+17
19557.0	4.8781377688043514e+17
19558.0	4.877332049297407e+17
19559.0	4.8765044928457376e+17
19560.0	4.8743036716318694e+17
19561.0	4.874778204001621e+17
19562.0	4.8726389810353466e+17
19563.0	4.873123038669481e+17
19564.0	4.8722554126335994e+17
19565.0	4.871419431223296e+17
19566.0	4.8705443386272416e+17
19567.0	4.8697277041431885e+17
19568.0	4.8688585269138765e+17
19569.0	4.868013215973375e+17
19570.0	4.867144538565289e+17
19571.0	4.866310398454443e+17
19572.0	4.865446278856704e+17
19573.0	4.86416642613794e+17
19574.0	4.863523373623977e+17
19575.0	4.862944503048874e+17
19576.0	4.861854254541482e+17
19577.0	4.86054967709969e+17
19578.0	4.860359429761706e+17
19579.0	4.8595170394548896e+17
19580.0	4.858665702697642e+17
19581.0	4.8578277457701536e+17
19582.0	4.857000777919146e+17
19583.0	4.8561549014466554e+17
19584.0	4.855269492959914e+17
19585.0	4.854305634211155e+17
19586.0	4.853388338528256e+17
19587.0	4.852617841388202e+17
19588.0	4.851458907657557e+17
19589.0	4.8509754064677536e+17
19590.0	4.850027575552682e+17
19591.0	4.8493426121550496e+17
19592.0	4.848511243081045e+17
19593.0	4.8472985243921056e+17
19594.0	4.8462059955814374e+17
19595.0	4.845947054631594e+17
19596.0	4.8449355471912954e+17
19597.0	4.8442486285489485e+17
19598.0	4.8428286665031674e+17
19599.0	4.8425469448901965e+17
19600.0	4.841715968682665e+17
19601.0	4.8407954496771405e+17
19602.0	4.8398579968682656e+17
19603.0	4.838575726133247e+17
19604.0	4.8381058627229005e+17
19605.0	4.837156436574208e+17
19606.0	4.8366178362108576e+17
19607.0	4.835800918611285e+17
19608.0	4.834926291582975e+17
19609.0	4.8340593967540896e+17
19610.0	4.8315049635566957e+17
19611.0	4.829824700907522e+17
19612.0	4.831571148974762e+17
19613.0	4.8306975020154874e+17
19614.0	4.829822861705215e+17
19615.0	4.8289561926696954e+17
19616.0	4.826075719445166e+17
19617.0	4.824649385552557e+17
19618.0	4.8256160174353043e+17
19619.0	4.824335157384532e+17
19620.0	4.823195518850385e+17
19621.0	4.820133804856659e+17
19622.0	4.823042660237311e+17
19623.0	4.8219946406816416e+17
19624.0	4.8207501368579405e+17
19625.0	4.820426953850878e+17
19626.0	4.819479504617471e+17
19627.0	4.818393291030527e+17
19628.0	4.81686304325632e+17
19629.0	4.806411331218085e+17
19630.0	4.8073268184569146e+17
19631.0	4.796014098295467e+17
19632.0	4.811548230243668e+17
19633.0	4.8126792334049274e+17
19634.0	4.812527640772607e+17
19635.0	4.8114401374371814e+17
19636.0	4.806952309751802e+17
19637.0	4.805950206640124e+17
19638.0	4.809234859076264e+17
19639.0	4.8086820484109645e+17
19640.0	4.8076106595915085e+17
19641.0	4.805656506793986e+17
19642.0	4.8058932780509856e+17
19643.0	4.8050636545064954e+17
19644.0	4.804436329933482e+17
19645.0	4.8034759713314125e+17
19646.0	4.798409260488015e+17
19647.0	4.801962044293119e+17
19648.0	4.8011991346490016e+17
19649.0	4.8003547198914554e+17
19650.0	4.799522414788607e+17
19651.0	4.798680175476736e+17
19652.0	4.797840153553577e+17
19653.0	4.796979816518996e+17
19654.0	4.796163301572608e+17
19655.0	4.795314256303444e+17
