# Flux units: erg / (cm m2 s)
# Wavelength units: Angstrom
wave	flux
19000.0	8.454589222573395e+17
19001.0	8.45310187344145e+17
19002.0	8.451699253444604e+17
19003.0	8.450249422361939e+17
19004.0	8.448797213108905e+17
19005.0	8.447343907744425e+17
19006.0	8.445886869449385e+17
19007.0	8.444426637890902e+17
19008.0	8.442942939201535e+17
19009.0	8.441452571568809e+17
19010.0	8.439872013817172e+17
19011.0	8.438552565470548e+17
19012.0	8.437049616323923e+17
19013.0	8.435622730880339e+17
19014.0	8.434112960397311e+17
19015.0	8.432648186407596e+17
19016.0	8.431170179388756e+17
19017.0	8.429700753915903e+17
19018.0	8.428215775963817e+17
19019.0	8.426737285201917e+17
19020.0	8.425235809654098e+17
19021.0	8.42403155087633e+17
19022.0	8.422855181423956e+17
19023.0	8.421340019862186e+17
19024.0	8.419853123715068e+17
19025.0	8.418362386983594e+17
19026.0	8.416855556707668e+17
19027.0	8.415348256669693e+17
19028.0	8.413862480401748e+17
19029.0	8.412357877301247e+17
19030.0	8.410851298683561e+17
19031.0	8.409342722179072e+17
19032.0	8.40783194086878e+17
19033.0	8.406279627560275e+17
19034.0	8.40480278655795e+17
19035.0	8.4032481132544e+17
19036.0	8.400653990756348e+17
19037.0	8.400235793481727e+17
19038.0	8.398720982843391e+17
19039.0	8.39721343254528e+17
19040.0	8.395691121093289e+17
19041.0	8.394166657963348e+17
19042.0	8.392604592898047e+17
19043.0	8.39111299633425e+17
19044.0	8.389582992528723e+17
19045.0	8.388052481212416e+17
19046.0	8.386501805080573e+17
19047.0	8.384972942125736e+17
19048.0	8.383380917146964e+17
19049.0	8.381884697062056e+17
19050.0	8.38035557126417e+17
19051.0	8.378640159648425e+17
19052.0	8.377245138332328e+17
19053.0	8.37575521669393e+17
19054.0	8.374214288124586e+17
19055.0	8.37255740522496e+17
19056.0	8.371115452443306e+17
19057.0	8.369574048519508e+17
19058.0	8.368024559375698e+17
19059.0	8.366781711603028e+17
19060.0	8.365544823936339e+17
19061.0	8.363998908339539e+17
19062.0	8.362442522361855e+17
19063.0	8.360886060886697e+17
19064.0	8.35928773047091e+17
19065.0	8.357690121475412e+17
19066.0	8.356182828427945e+17
19067.0	8.354652452727466e+17
19068.0	8.353091009817256e+17
19069.0	8.35152828764433e+17
19070.0	8.349961113916755e+17
19071.0	8.34839910757171e+17
19072.0	8.3468327349562e+17
19073.0	8.345263828981076e+17
19074.0	8.34369702015795e+17
19075.0	8.34212759408913e+17
19076.0	8.340550014293331e+17
19077.0	8.338978972019369e+17
19078.0	8.337402875609085e+17
19079.0	8.33583811081011e+17
19080.0	8.334260796653569e+17
19081.0	8.332666558480383e+17
19082.0	8.331094555710804e+17
19083.0	8.329471803260925e+17
19084.0	8.327836555979433e+17
19085.0	8.326370288817494e+17
19086.0	8.324607390689961e+17
19087.0	8.32318772084736e+17
19088.0	8.321583542173693e+17
19089.0	8.319941821683028e+17
19090.0	8.318435577211561e+17
19091.0	8.316854683915603e+17
19092.0	8.315253318221824e+17
19093.0	8.313690946972328e+17
19094.0	8.312097716830207e+17
19095.0	8.310506825711612e+17
19096.0	8.30891546902528e+17
19097.0	8.307327300009983e+17
19098.0	8.305736048181245e+17
19099.0	8.304141487046655e+17
19100.0	8.302546108022783e+17
19101.0	8.300947268698111e+17
19102.0	8.299319664836607e+17
19103.0	8.297753654329344e+17
19104.0	8.296154222209706e+17
19105.0	8.294552957179219e+17
19106.0	8.292947845971967e+17
19107.0	8.291342214671017e+17
19108.0	8.289738575664467e+17
19109.0	8.288058540206761e+17
19110.0	8.286515181737298e+17
19111.0	8.28492769080115e+17
19112.0	8.283322715209725e+17
19113.0	8.281715017515008e+17
19114.0	8.280105495298047e+17
19115.0	8.278486120660992e+17
19116.0	8.276872243358377e+17
19117.0	8.275260685505875e+17
19118.0	8.27361534533086e+17
19119.0	8.271092681190056e+17
19120.0	8.270413279439528e+17
19121.0	8.268802389879466e+17
19122.0	8.26719393161762e+17
19123.0	8.265575126007808e+17
19124.0	8.263955053718186e+17
19125.0	8.262331481980928e+17
19126.0	8.260689828599122e+17
19127.0	8.258454156913322e+17
19128.0	8.257428881670144e+17
19129.0	8.255797198148947e+17
19130.0	8.254212405548372e+17
19131.0	8.252587744690175e+17
19132.0	8.25095669171268e+17
19133.0	8.24928672677888e+17
19134.0	8.247696559876776e+17
19135.0	8.246070045136212e+17
19136.0	8.244435309559807e+17
19137.0	8.242746818385236e+17
19138.0	8.241160760502953e+17
19139.0	8.239532664509783e+17
19140.0	8.237897355711828e+17
19141.0	8.236260054619476e+17
19142.0	8.234610272676521e+17
19143.0	8.232963408571052e+17
19144.0	8.231334919711402e+17
19145.0	8.229698107954518e+17
19146.0	8.227799441604608e+17
19147.0	8.226103712459436e+17
19148.0	8.224203835353769e+17
19149.0	8.222557327764137e+17
19150.0	8.22090775413828e+17
19151.0	8.219259902973267e+17
19152.0	8.217607647789055e+17
19153.0	8.215945804425897e+17
19154.0	8.214257829150719e+17
19155.0	8.212644554429779e+17
19156.0	8.210988380367528e+17
19157.0	8.20932225461999e+17
19158.0	8.207632077335209e+17
19159.0	8.206000226041853e+17
19160.0	8.204348043558911e+17
19161.0	8.202678767889066e+17
19162.0	8.2008933938845e+17
19163.0	8.199328746526038e+17
19164.0	8.197688909277864e+17
19165.0	8.196021041496063e+17
19166.0	8.194313730479443e+17
19167.0	8.192668669924691e+17
19168.0	8.190999760557396e+17
19169.0	8.189327230107647e+17
19170.0	8.187656542355455e+17
19171.0	8.185975297540093e+17
19172.0	8.184298309943296e+17
19173.0	8.182617211928575e+17
19174.0	8.18091419448115e+17
19175.0	8.179248493756415e+17
19176.0	8.177562411510441e+17
19177.0	8.175808347985234e+17
19178.0	8.174178711284392e+17
19179.0	8.17248486957602e+17
19180.0	8.170794030989311e+17
19181.0	8.169064583834281e+17
19182.0	8.1673945364125e+17
19183.0	8.165703232258045e+17
19184.0	8.163996484676264e+17
19185.0	8.162295897128957e+17
19186.0	8.160592314848594e+17
19187.0	8.158853996740607e+17
19188.0	8.15717428843861e+17
19189.0	8.1554643643706e+17
19190.0	8.153749514791592e+17
19191.0	8.152032397492221e+17
19192.0	8.150314374223187e+17
19193.0	8.148591895205204e+17
19194.0	8.146866944344061e+17
19195.0	8.144579575065258e+17
19196.0	8.142606417876308e+17
19197.0	8.14085670524245e+17
19198.0	8.139046275863891e+17
19199.0	8.136580733949267e+17
19200.0	8.134986434259626e+17
19201.0	8.133851779956735e+17
19202.0	8.13218463359522e+17
19203.0	8.130464996917247e+17
19204.0	8.128722283178666e+17
19205.0	8.126894236325203e+17
19206.0	8.124993305051136e+17
19207.0	8.123216881691305e+17
19208.0	8.121427869827071e+17
19209.0	8.119743038881791e+17
19210.0	8.117985780695037e+17
19211.0	8.116224718274557e+17
19212.0	8.114460099084285e+17
19213.0	8.112657668243455e+17
19214.0	8.110882403909631e+17
19215.0	8.109145949470719e+17
19216.0	8.107371733712896e+17
19217.0	8.105582535901183e+17
19218.0	8.103522040720042e+17
19219.0	8.101934289737043e+17
19220.0	8.100223496050004e+17
19221.0	8.098338975689386e+17
19222.0	8.096635905114111e+17
19223.0	8.094852148712787e+17
19224.0	8.092361779314685e+17
19225.0	8.090138419309225e+17
19226.0	8.088370845930838e+17
19227.0	8.086557493122387e+17
19228.0	8.084752805746003e+17
19229.0	8.082931343949821e+17
19230.0	8.08110544318191e+17
19231.0	8.07927791502404e+17
19232.0	8.0774398214144e+17
19233.0	8.075575456082602e+17
19234.0	8.073758230533459e+17
19235.0	8.071909732253696e+17
19236.0	8.070069765188266e+17
19237.0	8.068210097476947e+17
19238.0	8.066318785140054e+17
19239.0	8.064493616977236e+17
19240.0	8.062614552008019e+17
19241.0	8.060737161964204e+17
19242.0	8.05886731747328e+17
19243.0	8.056727871509842e+17
19244.0	8.053735323686228e+17
19245.0	8.051843972202492e+17
19246.0	8.049942629886633e+17
19247.0	8.048045112776019e+17
19248.0	8.04613928674918e+17
19249.0	8.044226376542889e+17
19250.0	8.042306422702079e+17
19251.0	8.040336941121535e+17
19252.0	8.03831977030451e+17
19253.0	8.036518677446653e+17
19254.0	8.034583454941183e+17
19255.0	8.032550438043647e+17
19256.0	8.030672139233962e+17
19257.0	8.028723773177855e+17
19258.0	8.02626769920546e+17
19259.0	8.023035181268991e+17
19260.0	8.021073443771735e+17
19261.0	8.01911138750737e+17
19262.0	8.017099965683028e+17
19263.0	8.015093521099433e+17
19264.0	8.012937218228224e+17
19265.0	8.010878177072468e+17
19266.0	8.008535470942889e+17
19267.0	8.006565474861052e+17
19268.0	8.004536357268136e+17
19269.0	8.002499000664061e+17
19270.0	8.000290478708051e+17
19271.0	7.996201537022634e+17
19272.0	7.994240107107668e+17
19273.0	7.991779974447101e+17
19274.0	7.989783057924096e+17
19275.0	7.988046205026303e+17
19276.0	7.985956653105148e+17
19277.0	7.98387144089054e+17
19278.0	7.981767877197824e+17
19279.0	7.979652976301395e+17
19280.0	7.977477136362154e+17
19281.0	7.974156522662569e+17
19282.0	7.972020669819561e+17
19283.0	7.96986783563776e+17
19284.0	7.967697232986111e+17
19285.0	7.965512877211645e+17
19286.0	7.963360398147583e+17
19287.0	7.961190343551657e+17
19288.0	7.958668210689366e+17
19289.0	7.956106215161852e+17
19290.0	7.954575127827795e+17
19291.0	7.952239031921322e+17
19292.0	7.950115924170067e+17
19293.0	7.947726582972416e+17
19294.0	7.944717860514473e+17
19295.0	7.942447601199785e+17
19296.0	7.940161421705215e+17
19297.0	7.937861476504915e+17
19298.0	7.935541632128338e+17
19299.0	7.933223500425897e+17
19300.0	7.93088253493248e+17
19301.0	7.9285270347776e+17
19302.0	7.926153360703485e+17
19303.0	7.923746480324607e+17
19304.0	7.921367870952787e+17
19305.0	7.918959289084586e+17
19306.0	7.916540984819711e+17
19307.0	7.914073204544851e+17
19308.0	7.911618599976957e+17
19309.0	7.909128863918762e+17
19310.0	7.906494992001706e+17
19311.0	7.902742920036352e+17
19312.0	7.90022021115631e+17
19313.0	7.897668971222356e+17
19314.0	7.894572260655103e+17
19315.0	7.892016564972204e+17
19316.0	7.889882205301416e+17
19317.0	7.887250514422442e+17
19318.0	7.884584488970922e+17
19319.0	7.881911879860224e+17
19320.0	7.879206836196691e+17
19321.0	7.876477176162986e+17
19322.0	7.873651876211368e+17
19323.0	7.869550074789885e+17
19324.0	7.866096054261075e+17
19325.0	7.863254853702995e+17
19326.0	7.860391416343209e+17
19327.0	7.857464275894271e+17
19328.0	7.854516060465834e+17
19329.0	7.8515380696733e+17
19330.0	7.848520753086463e+17
19331.0	7.845481233252351e+17
19332.0	7.842440413183999e+17
19333.0	7.836895518130177e+17
19334.0	7.833639955289428e+17
19335.0	7.830503642103807e+17
19336.0	7.827336890854057e+17
19337.0	7.824140554381994e+17
19338.0	7.820835694488233e+17
19339.0	7.817664293153449e+17
19340.0	7.814356003717119e+17
19341.0	7.807758608192854e+17
19342.0	7.80428460180548e+17
19343.0	7.801021775828308e+17
19344.0	7.797607795523583e+17
19345.0	7.793562631187114e+17
19346.0	7.790372122001405e+17
19347.0	7.786419471428269e+17
19348.0	7.779595744269651e+17
19349.0	7.776019416438102e+17
19350.0	7.772420091237715e+17
19351.0	7.768756488328531e+17
19352.0	7.764952202870781e+17
19353.0	7.759900070029993e+17
19354.0	7.752059945571668e+17
19355.0	7.74807138336768e+17
19356.0	7.744095567653545e+17
19357.0	7.740035400291667e+17
19358.0	7.735927507342675e+17
19359.0	7.726316241551356e+17
19360.0	7.721939366488745e+17
19361.0	7.717703438215846e+17
19362.0	7.713416686163282e+17
19363.0	7.708575161909243e+17
19364.0	7.698221396656127e+17
19365.0	7.69376982802978e+17
19366.0	7.689256284367528e+17
19367.0	7.684624434768552e+17
19368.0	7.677762199704915e+17
19369.0	7.671092642578432e+17
19370.0	7.66631077810449e+17
19371.0	7.661488961486847e+17
19372.0	7.656592830190932e+17
19373.0	7.651567461203969e+17
19374.0	7.646459662958591e+17
19375.0	7.641263331344384e+17
19376.0	7.635984799760381e+17
19377.0	7.629916064098986e+17
19378.0	7.623925749339476e+17
19379.0	7.61827666917239e+17
19380.0	7.612535455525548e+17
19381.0	7.606699547077289e+17
19382.0	7.600736272995667e+17
19383.0	7.594700489184595e+17
19384.0	7.587841728402772e+17
19385.0	7.58073351139055e+17
19386.0	7.574390185831081e+17
19387.0	7.567939922296832e+17
19388.0	7.561381796642815e+17
19389.0	7.554690055842472e+17
19390.0	7.546233439999315e+17
19391.0	7.537979910957736e+17
19392.0	7.53153161035776e+17
19393.0	7.524080464254291e+17
19394.0	7.51639554302498e+17
19395.0	7.505874638951764e+17
19396.0	7.497606336173395e+17
19397.0	7.489307577155583e+17
19398.0	7.48077447258658e+17
19399.0	7.470277385169576e+17
19400.0	7.459618471717545e+17
19401.0	7.450398618375508e+17
19402.0	7.440841274556415e+17
19403.0	7.429556345853268e+17
19404.0	7.416814850015232e+17
19405.0	7.406260755016361e+17
19406.0	7.395412465942527e+17
19407.0	7.383024976352596e+17
19408.0	7.368287145601706e+17
19409.0	7.356834957841748e+17
19410.0	7.344967125740202e+17
19411.0	7.332802391441407e+17
19412.0	7.316074283750738e+17
19413.0	7.303036963651583e+17
19414.0	7.289428782000808e+17
19415.0	7.275156899277481e+17
19416.0	7.259464920290648e+17
19417.0	7.240908575604735e+17
19418.0	7.225203218186239e+17
19419.0	7.208860639734441e+17
19420.0	7.191912387007827e+17
19421.0	7.174191221921108e+17
19422.0	7.15536337015057e+17
19423.0	7.13641168155443e+17
19424.0	7.116763707736063e+17
19425.0	7.095847289705812e+17
19426.0	7.073825383164585e+17
19427.0	7.049996731241812e+17
19428.0	7.025562762259113e+17
19429.0	7.000022545596412e+17
19430.0	6.973333792183636e+17
19431.0	6.945363621576703e+17
19432.0	6.915873170959016e+17
19433.0	6.88425471643921e+17
19434.0	6.850415333212159e+17
19435.0	6.815170690372946e+17
19436.0	6.7775890442595e+17
19437.0	6.737579888781994e+17
19438.0	6.69437611230276e+17
19439.0	6.649217138644311e+17
19440.0	6.600359147470847e+17
19441.0	6.547870577240744e+17
19442.0	6.491098346160129e+17
19443.0	6.429934758483284e+17
19444.0	6.36337439340407e+17
19445.0	6.291007561094488e+17
19446.0	6.211782979529385e+17
19447.0	6.124519374716923e+17
19448.0	6.027510225567747e+17
19449.0	5.918180168608425e+17
19450.0	5.791367046714701e+17
19451.0	5.7255254021898266e+17
19452.0	5.857217963447636e+17
19453.0	5.97194529483435e+17
19454.0	6.072349347894609e+17
19455.0	6.161838662920874e+17
19456.0	6.242500767383555e+17
19457.0	6.315787333664764e+17
19458.0	6.382276523502249e+17
19459.0	6.443917609620822e+17
19460.0	6.500276185158994e+17
19461.0	6.552385154798932e+17
19462.0	6.60032655912687e+17
19463.0	6.645108980056061e+17
19464.0	6.686547212500991e+17
19465.0	6.725246654611456e+17
19466.0	6.76142789112627e+17
19467.0	6.795051104818516e+17
19468.0	6.826796371323562e+17
19469.0	6.85712670405427e+17
19470.0	6.884757134639104e+17
19471.0	6.91080327593984e+17
19472.0	6.935335077063336e+17
19473.0	6.958684148771498e+17
19474.0	6.98093176688913e+17
19475.0	7.002210857298601e+17
19476.0	7.022422746901161e+17
19477.0	7.041172374203052e+17
19478.0	7.058614704756052e+17
19479.0	7.075100841650858e+17
19480.0	7.091165581017088e+17
19481.0	7.106733375051091e+17
19482.0	7.121180027431594e+17
19483.0	7.135016425357311e+17
19484.0	7.14824127558451e+17
19485.0	7.162731727683587e+17
19486.0	7.177034052665344e+17
19487.0	7.188927267296595e+17
19488.0	7.1999701413178e+17
19489.0	7.210401867497472e+17
19490.0	7.222720030834682e+17
19491.0	7.233935683616765e+17
19492.0	7.243115484151807e+17
19493.0	7.251995974959101e+17
19494.0	7.262023626085713e+17
19495.0	7.273330175027881e+17
19496.0	7.281352581141844e+17
19497.0	7.289241531493033e+17
19498.0	7.297704392654845e+17
19499.0	7.306616802115581e+17
19500.0	7.314532966509225e+17
19501.0	7.321049273554259e+17
19502.0	7.327739751869098e+17
19503.0	7.336514894342825e+17
19504.0	7.342250349210284e+17
19505.0	7.347756065270441e+17
19506.0	7.353039014854655e+17
19507.0	7.359947349513555e+17
19508.0	7.365704842652329e+17
19509.0	7.370378740148905e+17
19510.0	7.37474860093713e+17
19511.0	7.377859672801276e+17
19512.0	7.384518211491156e+17
19513.0	7.388412129225386e+17
19514.0	7.39226615353617e+17
19515.0	7.396012066865151e+17
19516.0	7.399611338937684e+17
19517.0	7.403200592216061e+17
19518.0	7.407807404616361e+17
19519.0	7.410964153849172e+17
19520.0	7.414014637593939e+17
19521.0	7.416975876336298e+17
19522.0	7.419827773767679e+17
19523.0	7.422598068218536e+17
19524.0	7.425268964655103e+17
19525.0	7.428803313096019e+17
19526.0	7.431261514978646e+17
19527.0	7.433565339910141e+17
19528.0	7.435784242768553e+17
19529.0	7.437921784517972e+17
19530.0	7.439955280964266e+17
19531.0	7.441895831633919e+17
19532.0	7.44376106099234e+17
19533.0	7.446591972922708e+17
19534.0	7.450953113752915e+17
19535.0	7.452960980205568e+17
19536.0	7.454549343556948e+17
19537.0	7.456101853997738e+17
19538.0	7.461701722395986e+17
19539.0	7.46494208647714e+17
19540.0	7.466465256363347e+17
19541.0	7.467796967456765e+17
19542.0	7.469057738888531e+17
19543.0	7.474492572609193e+17
19544.0	7.476742764975444e+17
19545.0	7.477702490237612e+17
19546.0	7.478670348255232e+17
19547.0	7.479961965996714e+17
19548.0	7.483281280860155e+17
19549.0	7.486552478668114e+17
19550.0	7.487543391376723e+17
19551.0	7.48830926429662e+17
19552.0	7.488973106577408e+17
19553.0	7.48959255774276e+17
19554.0	7.492132986159101e+17
19555.0	7.494540287366484e+17
19556.0	7.495066652945066e+17
19557.0	7.495558939803647e+17
19558.0	7.496020876678484e+17
19559.0	7.496451356273322e+17
19560.0	7.496838331148968e+17
19561.0	7.499364568836778e+17
19562.0	7.500606774880938e+17
19563.0	7.5009092499101e+17
19564.0	7.501180791947263e+17
19565.0	7.501422579591849e+17
19566.0	7.501628655534079e+17
19567.0	7.501817505469782e+17
19568.0	7.501960884955816e+17
19569.0	7.503758260262228e+17
19570.0	7.504590572355583e+17
19571.0	7.504664838100308e+17
19572.0	7.504700302338729e+17
19573.0	7.504729680642047e+17
19574.0	7.504691434181972e+17
19575.0	7.504701809491968e+17
19576.0	7.5046363098426e+17
19577.0	7.504515237063338e+17
19578.0	7.504357735355731e+17
19579.0	7.505753376030719e+17
19580.0	7.505757482254333e+17
19581.0	7.505572983209983e+17
19582.0	7.50536715612979e+17
19583.0	7.50509493461538e+17
19584.0	7.504799205425152e+17
19585.0	7.504437554358952e+17
19586.0	7.504088097532586e+17
19587.0	7.503779276521471e+17
19588.0	7.50325430624802e+17
19589.0	7.502999675644585e+17
19590.0	7.50256868294656e+17
19591.0	7.502511855719764e+17
19592.0	7.502934536705364e+17
19593.0	7.50245058392883e+17
19594.0	7.501869541403305e+17
19595.0	7.501446638119593e+17
19596.0	7.500862084961619e+17
19597.0	7.500384834682879e+17
19598.0	7.49973534810658e+17
19599.0	7.499265675537066e+17
19600.0	7.49868185498419e+17
19601.0	7.498056591911594e+17
19602.0	7.497440970145792e+17
19603.0	7.496703520626003e+17
19604.0	7.496176510522708e+17
19605.0	7.495434018051412e+17
19606.0	7.49488736182818e+17
19607.0	7.494211090426538e+17
19608.0	7.493515546198016e+17
19609.0	7.493392310555987e+17
19610.0	7.492878097274196e+17
19611.0	7.49215283360563e+17
19612.0	7.491419894360744e+17
19613.0	7.490673867489279e+17
19614.0	7.489898825820842e+17
19615.0	7.489150011135315e+17
19616.0	7.488365307188564e+17
19617.0	7.487582761910271e+17
19618.0	7.486581601118889e+17
19619.0	7.485724426589523e+17
19620.0	7.485373029198505e+17
19621.0	7.485435148238845e+17
19622.0	7.484610199945215e+17
19623.0	7.483772391915519e+17
19624.0	7.482925322862591e+17
19625.0	7.482069440178858e+17
19626.0	7.481204869693439e+17
19627.0	7.480329150747987e+17
19628.0	7.479427236975955e+17
19629.0	7.478505245070675e+17
19630.0	7.478289578153299e+17
19631.0	7.477664140318036e+17
19632.0	7.477621877112832e+17
19633.0	7.476732582603432e+17
19634.0	7.475828539523071e+17
19635.0	7.474883733400233e+17
19636.0	7.473968966882644e+17
19637.0	7.472845888858793e+17
19638.0	7.472351541198847e+17
19639.0	7.47154961683797e+17
19640.0	7.470553656983551e+17
19641.0	7.469417333347668e+17
19642.0	7.46924549830519e+17
19643.0	7.469136973485396e+17
19644.0	7.468122487390208e+17
19645.0	7.467069497584296e+17
19646.0	7.466167002202111e+17
19647.0	7.465167067545599e+17
19648.0	7.464156475162621e+17
19649.0	7.463139041869821e+17
19650.0	7.462120097229484e+17
19651.0	7.461095242814803e+17
19652.0	7.460064884075177e+17
19653.0	7.459028674281471e+17
19654.0	7.457988551202131e+17
19655.0	7.456940902143315e+17
19656.0	7.455889527144445e+17
19657.0	7.455715357272745e+17
19658.0	7.454925341939028e+17
19659.0	7.453860071211008e+17
19660.0	7.452791189187242e+17
19661.0	7.45171706707968e+17
19662.0	7.450637948157951e+17
19663.0	7.449539954868223e+17
19664.0	7.448719255404544e+17
19665.0	7.447989106769919e+17
19666.0	7.446888290713599e+17
