# Flux units: erg / (cm m2 s)
# Wavelength units: Angstrom
wave	flux
19000.0	5.807419949055999e+17
19001.0	5.806262727999485e+17
19002.0	5.80531736752947e+17
19003.0	5.804262894338048e+17
19004.0	5.803211074043904e+17
19005.0	5.802150046553428e+17
19006.0	5.801097608997545e+17
19007.0	5.800053365014525e+17
19008.0	5.798956743961257e+17
19009.0	5.797762049594708e+17
19010.0	5.796594984506707e+17
19011.0	5.79578360898082e+17
19012.0	5.794591766041939e+17
19013.0	5.793743012276906e+17
19014.0	5.792650447115604e+17
19015.0	5.7916096249856e+17
19016.0	5.790578436472831e+17
19017.0	5.789552281124863e+17
19018.0	5.788497619189759e+17
19019.0	5.787452643999744e+17
19020.0	5.786397222895615e+17
19021.0	5.785365155676159e+17
19022.0	5.784311296950272e+17
19023.0	5.783221032364714e+17
19024.0	5.782171263784275e+17
19025.0	5.781141444711763e+17
19026.0	5.780061651206143e+17
19027.0	5.778955194509993e+17
19028.0	5.778000977068032e+17
19029.0	5.776952726825641e+17
19030.0	5.775927287305556e+17
19031.0	5.774877861958995e+17
19032.0	5.773809419638099e+17
19033.0	5.772643782710612e+17
19034.0	5.771557044136618e+17
19035.0	5.769683589748051e+17
19036.0	5.760826703085568e+17
19037.0	5.767819536192852e+17
19038.0	5.767386066758314e+17
19039.0	5.766458684473343e+17
19040.0	5.765451244109823e+17
19041.0	5.764413174142292e+17
19042.0	5.7626761947163283e+17
19043.0	5.7623494395603616e+17
19044.0	5.7612960205373434e+17
19045.0	5.760244451202387e+17
19046.0	5.7591679711969274e+17
19047.0	5.7581073197957114e+17
19048.0	5.756891709833215e+17
19049.0	5.754677656289277e+17
19050.0	5.7548372495564794e+17
19051.0	5.752759431200767e+17
19052.0	5.7522500427666765e+17
19053.0	5.751819259084799e+17
19054.0	5.7508516820855456e+17
19055.0	5.749404911446698e+17
19056.0	5.748713496510463e+17
19057.0	5.7477561606034765e+17
19058.0	5.746053329802579e+17
19059.0	5.745429921311402e+17
19060.0	5.744634974175231e+17
19061.0	5.743604498694143e+17
19062.0	5.742561394163711e+17
19063.0	5.74151562834739e+17
19064.0	5.7404022237866656e+17
19065.0	5.7392890534079136e+17
19066.0	5.7381115193371296e+17
19067.0	5.7373566173184e+17
19068.0	5.7363316496575136e+17
19069.0	5.735293404927316e+17
19070.0	5.7342312974035616e+17
19071.0	5.733203886560596e+17
19072.0	5.731935049482239e+17
19073.0	5.7311401289099936e+17
19074.0	5.7301041539973114e+17
19075.0	5.729065530381652e+17
19076.0	5.7280186328023034e+17
19077.0	5.7269709879377914e+17
19078.0	5.7259194927022074e+17
19079.0	5.72491323023906e+17
19080.0	5.723866556355924e+17
19081.0	5.7227929697211706e+17
19082.0	5.7217834315066016e+17
19083.0	5.720670201708543e+17
19084.0	5.719512069789013e+17
19085.0	5.7186602283171834e+17
19086.0	5.716916278657022e+17
19087.0	5.71595616891699e+17
19088.0	5.7150954306273274e+17
19089.0	5.714306010185728e+17
19090.0	5.713446200934398e+17
19091.0	5.7123970873644365e+17
19092.0	5.7108603083598515e+17
19093.0	5.710406576242687e+17
19094.0	5.7093828067546445e+17
19095.0	5.708353277089108e+17
19096.0	5.7073147338642765e+17
19097.0	5.7062865477741216e+17
19098.0	5.7049838242146976e+17
19099.0	5.703891119942315e+17
19100.0	5.7031590251506336e+17
19101.0	5.7021326978362016e+17
19102.0	5.701044542286505e+17
19103.0	5.7000876369947296e+17
19104.0	5.699058915431764e+17
19105.0	5.6974176975585286e+17
19106.0	5.696965548092074e+17
19107.0	5.695770281902079e+17
19108.0	5.694614645593428e+17
19109.0	5.693609824572756e+17
19110.0	5.6927154137115296e+17
19111.0	5.691624122220543e+17
19112.0	5.690589757920596e+17
19113.0	5.689773678482773e+17
19114.0	5.688621662557526e+17
19115.0	5.6876416354658976e+17
19116.0	5.686652813617834e+17
19117.0	5.6855953435962016e+17
19118.0	5.684260317604522e+17
19119.0	5.6772479586140077e+17
19120.0	5.682322732307797e+17
19121.0	5.6814460409828685e+17
19122.0	5.680504730812415e+17
19123.0	5.6794886403959456e+17
19124.0	5.67838712668706e+17
19125.0	5.677404734707028e+17
19126.0	5.6762352243397965e+17
19127.0	5.674255175909375e+17
19128.0	5.674135241883647e+17
19129.0	5.6732222446632954e+17
19130.0	5.6722910651351034e+17
19131.0	5.6712865873483085e+17
19132.0	5.670262400527017e+17
19133.0	5.66920058171119e+17
19134.0	5.6682047630650016e+17
19135.0	5.667187645743103e+17
19136.0	5.6661550143897594e+17
19137.0	5.665056704430078e+17
19138.0	5.664091200815103e+17
19139.0	5.6630940295058765e+17
19140.0	5.662075554627582e+17
19141.0	5.6610524240718496e+17
19142.0	5.6600027372803405e+17
19143.0	5.658970503686826e+17
19144.0	5.657935845785599e+17
19145.0	5.6569549665512096e+17
19146.0	5.6553192355266554e+17
19147.0	5.654859088221524e+17
19148.0	5.653672003720533e+17
19149.0	5.6526095997992954e+17
19150.0	5.6518422462900896e+17
19151.0	5.6508145446420474e+17
19152.0	5.6497799035180365e+17
19153.0	5.648294286633641e+17
19154.0	5.647640249237502e+17
19155.0	5.6466942225722016e+17
19156.0	5.6456707145291085e+17
19157.0	5.6444586865022285e+17
19158.0	5.643196858804906e+17
19159.0	5.642549546975232e+17
19160.0	5.641540312148649e+17
19161.0	5.6404532792743245e+17
19162.0	5.6391052096962554e+17
19163.0	5.638309712407211e+17
19164.0	5.637464351834111e+17
19165.0	5.6359888138622266e+17
19166.0	5.635382549588649e+17
19167.0	5.6344210172805114e+17
19168.0	5.6334396165543245e+17
19169.0	5.632436511003989e+17
19170.0	5.631424329678848e+17
19171.0	5.630400244918953e+17
19172.0	5.629383691730943e+17
19173.0	5.628376914067455e+17
19174.0	5.6273318214369274e+17
19175.0	5.626342648665428e+17
19176.0	5.6253289252345165e+17
19177.0	5.6241646682330445e+17
19178.0	5.6232771101655034e+17
19179.0	5.622253923685717e+17
19180.0	5.621246140787371e+17
19181.0	5.620153278529535e+17
19182.0	5.619195349128532e+17
19183.0	5.6182208186722976e+17
19184.0	5.61720597815842e+17
19185.0	5.616182793076735e+17
19186.0	5.615172801178281e+17
19187.0	5.6140926525549216e+17
19188.0	5.6131326204095136e+17
19189.0	5.612115107424937e+17
19190.0	5.611088727681706e+17
19191.0	5.610032849398441e+17
19192.0	5.6090329252276896e+17
19193.0	5.607925410168831e+17
19194.0	5.6068167612497914e+17
19195.0	5.6058361623347194e+17
19196.0	5.604670542184447e+17
19197.0	5.603354881294336e+17
19198.0	5.601486371291135e+17
19199.0	5.597767925759998e+17
19200.0	5.5970818627556685e+17
19201.0	5.598552034814634e+17
19202.0	5.598333981338281e+17
19203.0	5.5975875944557216e+17
19204.0	5.5967191512296096e+17
19205.0	5.595781344002046e+17
19206.0	5.5948147890148685e+17
19207.0	5.59369342226705e+17
19208.0	5.592699680500393e+17
19209.0	5.591835487502335e+17
19210.0	5.5908391047222605e+17
19211.0	5.589847584538623e+17
19212.0	5.588829961104041e+17
19213.0	5.587717189883219e+17
19214.0	5.586729516575402e+17
19215.0	5.5857871627223034e+17
19216.0	5.584789098026323e+17
19217.0	5.5837139098664954e+17
19218.0	5.582350036150953e+17
19219.0	5.581539783300436e+17
19220.0	5.580717731872766e+17
19221.0	5.579612225885524e+17
19222.0	5.5787076396427936e+17
19223.0	5.577739457964713e+17
19224.0	5.5767022254598816e+17
19225.0	5.575684532120234e+17
19226.0	5.574725981263189e+17
19227.0	5.573729743885653e+17
19228.0	5.5727507283203405e+17
19229.0	5.571744412729344e+17
19230.0	5.570733509967871e+17
19231.0	5.569719845257215e+17
19232.0	5.5687191807918086e+17
19233.0	5.5676589362380794e+17
19234.0	5.5667056023961594e+17
19235.0	5.5656771066265594e+17
19236.0	5.564703846345385e+17
19237.0	5.563689418970453e+17
19238.0	5.5626140882042874e+17
19239.0	5.561691301478399e+17
19240.0	5.560689645060096e+17
19241.0	5.559666293604352e+17
19242.0	5.5586664540187296e+17
19243.0	5.557523085350227e+17
19244.0	5.556675447270058e+17
19245.0	5.555664669638655e+17
19246.0	5.554659384448341e+17
19247.0	5.5536531003146234e+17
19248.0	5.552660675559423e+17
19249.0	5.5516342454845434e+17
19250.0	5.550536568864768e+17
19251.0	5.549469525344255e+17
19252.0	5.5483548429189114e+17
19253.0	5.5476234304006816e+17
19254.0	5.5466431320773965e+17
19255.0	5.545448322367487e+17
19256.0	5.544623865506474e+17
19257.0	5.543635223314431e+17
19258.0	5.5426298961810765e+17
19259.0	5.541535046522196e+17
19260.0	5.540360986034175e+17
19261.0	5.539590849604266e+17
19262.0	5.538537857701205e+17
19263.0	5.537475539064147e+17
19264.0	5.536223151347028e+17
19265.0	5.535407104764586e+17
19266.0	5.5343770039746554e+17
19267.0	5.5336049409611085e+17
19268.0	5.532604124801706e+17
19269.0	5.5316024704805536e+17
19270.0	5.5305585732266656e+17
19271.0	5.5293910691348474e+17
19272.0	5.528564202646185e+17
19273.0	5.527399180883284e+17
19274.0	5.526212708750676e+17
19275.0	5.5256086989154976e+17
19276.0	5.524592414162943e+17
19277.0	5.523597831438335e+17
19278.0	5.522582968554836e+17
19279.0	5.5215666670250656e+17
19280.0	5.5205474833093965e+17
19281.0	5.519573636524713e+17
19282.0	5.518585109676031e+17
19283.0	5.5175621769516365e+17
19284.0	5.5165208074649594e+17
19285.0	5.5154815959476896e+17
19286.0	5.514455337839273e+17
19287.0	5.513310761211221e+17
19288.0	5.508873081323517e+17
19289.0	5.5058563449487315e+17
19290.0	5.510252766866089e+17
19291.0	5.509258365195605e+17
19292.0	5.508560594490708e+17
19293.0	5.507583819382783e+17
19294.0	5.5065805006219936e+17
19295.0	5.5056054346929485e+17
19296.0	5.504305667418794e+17
19297.0	5.503539444973567e+17
19298.0	5.5025837147859616e+17
19299.0	5.501277282063701e+17
19300.0	5.500603866284031e+17
19301.0	5.4996125977586336e+17
19302.0	5.498597086855166e+17
19303.0	5.497546450752853e+17
19304.0	5.496594145913513e+17
19305.0	5.495585448656894e+17
19306.0	5.494585043539283e+17
19307.0	5.4935353616411296e+17
19308.0	5.492521348803242e+17
19309.0	5.491416787233449e+17
19310.0	5.4903513382475085e+17
19311.0	5.489426333433855e+17
19312.0	5.4884226350885536e+17
19313.0	5.487150907435689e+17
19314.0	5.465281370172071e+17
19315.0	5.465883892427456e+17
19316.0	5.483755603667626e+17
19317.0	5.483429637040809e+17
19318.0	5.4825106734230176e+17
19319.0	5.481558574803625e+17
19320.0	5.480448091575637e+17
19321.0	5.4792922867957754e+17
19322.0	5.478517883360598e+17
19323.0	5.477516403103062e+17
19324.0	5.47651727794722e+17
19325.0	5.4754995230911136e+17
19326.0	5.474536562622462e+17
19327.0	5.473548669113683e+17
19328.0	5.4720289168861856e+17
19329.0	5.47156401393937e+17
19330.0	5.4705446428781216e+17
19331.0	5.4695092880233805e+17
19332.0	5.4685541897775776e+17
19333.0	5.467531122835456e+17
19334.0	5.466530236770985e+17
19335.0	5.464450665895254e+17
19336.0	5.464508845785087e+17
19337.0	5.463508939090603e+17
19338.0	5.46230214205986e+17
19339.0	5.461475042787326e+17
19340.0	5.460319547686911e+17
19341.0	5.4589421627200845e+17
19342.0	5.458094350576299e+17
19343.0	5.457359611275947e+17
19344.0	5.4558692303612576e+17
19345.0	5.4538630234548896e+17
19346.0	5.453344645928276e+17
19347.0	5.452711127766355e+17
19348.0	5.4523086088000845e+17
19349.0	5.451280082971305e+17
19350.0	5.450080603602943e+17
19351.0	5.4492412157187405e+17
19352.0	5.447659222117032e+17
19353.0	5.4472413079579296e+17
19354.0	5.446220531804841e+17
19355.0	5.445096644979371e+17
19356.0	5.4441576179083936e+17
19357.0	5.4431162015853216e+17
19358.0	5.442073824766634e+17
19359.0	5.4408965884914336e+17
19360.0	5.4395474297924256e+17
19361.0	5.4389456569193805e+17
19362.0	5.437923307203243e+17
19363.0	5.436881275715583e+17
19364.0	5.4358339174618445e+17
19365.0	5.434783727353855e+17
19366.0	5.4337307060906656e+17
19367.0	5.4326743154032634e+17
19368.0	5.4316138408618643e+17
19369.0	5.4305180817380685e+17
19370.0	5.429458715891027e+17
19371.0	5.4283622017925114e+17
19372.0	5.4273416507337376e+17
19373.0	5.426248837409449e+17
19374.0	5.425156664415573e+17
19375.0	5.424073276391423e+17
19376.0	5.422983400478036e+17
19377.0	5.4218771667790496e+17
19378.0	5.4207756999065594e+17
19379.0	5.4196694634113683e+17
19380.0	5.4185515667510605e+17
19381.0	5.417424933355519e+17
19382.0	5.416217152061439e+17
19383.0	5.415087149940735e+17
19384.0	5.413957204443135e+17
19385.0	5.412813615573673e+17
19386.0	5.411645925534378e+17
19387.0	5.4104644676922016e+17
19388.0	5.409258032769705e+17
19389.0	5.4079934815709856e+17
19390.0	5.406405270612649e+17
19391.0	5.397939060998138e+17
19392.0	5.402768937669972e+17
19393.0	5.402969865104042e+17
19394.0	5.401841986699262e+17
19395.0	5.4004524997672954e+17
19396.0	5.399231240077311e+17
19397.0	5.39796246241826e+17
19398.0	5.396434443916628e+17
19399.0	5.394657996789077e+17
19400.0	5.3935285560060576e+17
19401.0	5.3923644059593376e+17
19402.0	5.39096438083857e+17
19403.0	5.3894979060585805e+17
19404.0	5.387979442181462e+17
19405.0	5.3864364940547405e+17
19406.0	5.3848921247580154e+17
19407.0	5.3830980252030285e+17
19408.0	5.3812086184782496e+17
19409.0	5.3798776420870816e+17
19410.0	5.378271427078825e+17
19411.0	5.376505394408105e+17
19412.0	5.3746572114001914e+17
19413.0	5.3725542502891514e+17
19414.0	5.370693705269247e+17
19415.0	5.368561190393172e+17
19416.0	5.366245039800319e+17
19417.0	5.364116330556073e+17
19418.0	5.3617946169180154e+17
19419.0	5.359276190422357e+17
19420.0	5.356747605322409e+17
19421.0	5.3540898748061e+17
19422.0	5.3510523186053114e+17
19423.0	5.347988514450089e+17
19424.0	5.344767483314175e+17
19425.0	5.341167907853652e+17
19426.0	5.3374057884330656e+17
19427.0	5.3334069187269965e+17
19428.0	5.328803781935103e+17
19429.0	5.324165746436778e+17
19430.0	5.3186955826954234e+17
19431.0	5.3125850340174496e+17
19432.0	5.3076961518769485e+17
19433.0	5.3013721445826554e+17
19434.0	5.294078669357055e+17
19435.0	5.285660250341375e+17
19436.0	5.276560247138986e+17
19437.0	5.266733206077438e+17
19438.0	5.242204793951575e+17
19439.0	5.2409313920723616e+17
19440.0	5.230184480724309e+17
19441.0	5.2142348016025574e+17
19442.0	5.1959601288970234e+17
19443.0	5.1745910524914336e+17
19444.0	5.1486887974884685e+17
19445.0	5.1174620846708064e+17
19446.0	5.079613060065962e+17
19447.0	5.030382839791614e+17
19448.0	4.96448108739516e+17
19449.0	4.865527038782121e+17
19450.0	4.673257338830832e+17
19451.0	4.510985516395197e+17
19452.0	4.7900951635995283e+17
19453.0	4.918769993034415e+17
19454.0	4.995855548066472e+17
19455.0	5.0500044929542816e+17
19456.0	5.0908421807581875e+17
19457.0	5.12228703023923e+17
19458.0	5.086475255982841e+17
19459.0	5.1647527993562586e+17
19460.0	5.1885603804938214e+17
19461.0	5.2042989127598074e+17
19462.0	5.217614775189503e+17
19463.0	5.2288225664477856e+17
19464.0	5.238477248877909e+17
19465.0	5.2466917750865914e+17
19466.0	5.2539075130818554e+17
19467.0	5.2604130924953594e+17
19468.0	5.2660061213818874e+17
19469.0	5.2704914835155616e+17
19470.0	5.275116989928788e+17
19471.0	5.2789401490554874e+17
19472.0	5.282230204454228e+17
19473.0	5.284962562124458e+17
19474.0	5.2871854355906554e+17
19475.0	5.289308778222932e+17
19476.0	5.2917328657339725e+17
19477.0	5.293618645783891e+17
19478.0	5.295104691885396e+17
19479.0	5.295936822225577e+17
19480.0	5.297439072321535e+17
19481.0	5.298297765888e+17
19482.0	5.298989783405909e+17
19483.0	5.299584813935275e+17
19484.0	5.3001217890058234e+17
19485.0	5.300452690930345e+17
19486.0	5.300341490144598e+17
19487.0	5.300935092513451e+17
19488.0	5.301090606120959e+17
19489.0	5.3007621620585805e+17
19490.0	5.300195856220159e+17
19491.0	5.3008723261521914e+17
19492.0	5.3007991565189114e+17
19493.0	5.300589753095508e+17
19494.0	5.3003027382708896e+17
19495.0	5.299917662715903e+17
19496.0	5.2991734939211085e+17
19497.0	5.298753780405588e+17
19498.0	5.294961684993364e+17
19499.0	5.28628420059682e+17
19500.0	5.297176830454441e+17
19501.0	5.297233356390399e+17
19502.0	5.2969069710322336e+17
19503.0	5.2964292440009376e+17
19504.0	5.2958610689010336e+17
19505.0	5.295250304139264e+17
19506.0	5.294658489242964e+17
19507.0	5.294030670441129e+17
19508.0	5.293339103810901e+17
19509.0	5.2924995013181434e+17
19510.0	5.290853120256681e+17
19511.0	5.258639505883116e+17
19512.0	5.286307574054911e+17
19513.0	5.28554594297446e+17
19514.0	5.285651683475453e+17
19515.0	5.2879172989965645e+17
19516.0	5.2875414865619616e+17
19517.0	5.2868982592853325e+17
19518.0	5.286103512077653e+17
19519.0	5.285354354857301e+17
19520.0	5.284307511803903e+17
19521.0	5.2839471714577056e+17
19522.0	5.2830585606198605e+17
19523.0	5.282245434671104e+17
19524.0	5.28124153499921e+17
19525.0	5.280715305735508e+17
19526.0	5.27991167848721e+17
19527.0	5.2790786323906554e+17
19528.0	5.2782123485320525e+17
19529.0	5.2773555976273914e+17
19530.0	5.276599150706687e+17
19531.0	5.275756108185598e+17
19532.0	5.2749078157940045e+17
19533.0	5.274055546503167e+17
19534.0	5.273197608610473e+17
19535.0	5.272318207765161e+17
19536.0	5.271436017008639e+17
19537.0	5.2705832702661965e+17
19538.0	5.269175652057088e+17
19539.0	5.2685610704786765e+17
19540.0	5.2679766019058336e+17
19541.0	5.267053575405568e+17
19542.0	5.266228113309696e+17
19543.0	5.264981777973247e+17
19544.0	5.2644378746115405e+17
19545.0	5.263129471265451e+17
19546.0	5.262140489334782e+17
19547.0	5.261812765294592e+17
19548.0	5.260976561586175e+17
19549.0	5.2600123456225274e+17
19550.0	5.2592260751032314e+17
19551.0	5.2583378871910394e+17
19552.0	5.2574439992197114e+17
19553.0	5.2565318758126925e+17
19554.0	5.2556327938949114e+17
19555.0	5.254699952024235e+17
19556.0	5.253832920880468e+17
19557.0	5.2529613375187616e+17
19558.0	5.2520667001651194e+17
19559.0	5.2511706318547616e+17
19560.0	5.25010144923921e+17
19561.0	5.2493429492066976e+17
19562.0	5.248316761003347e+17
19563.0	5.247565936547156e+17
19564.0	5.2466619424003405e+17
19565.0	5.245756469062313e+17
19566.0	5.24483096023313e+17
19567.0	5.2439420404148896e+17
19568.0	5.24301567594769e+17
19569.0	5.242114003348138e+17
19570.0	5.241220035685034e+17
19571.0	5.2403116011683834e+17
19572.0	5.239372760743935e+17
19573.0	5.2384393938862074e+17
19574.0	5.2374788954740045e+17
19575.0	5.2366819064108365e+17
19576.0	5.2357388632937805e+17
19577.0	5.234759724695551e+17
19578.0	5.233924434646357e+17
19579.0	5.233007024319147e+17
19580.0	5.2320985912005965e+17
19581.0	5.231205336569172e+17
19582.0	5.23030242664994e+17
19583.0	5.2293899816796154e+17
19584.0	5.228469827578538e+17
19585.0	5.227444597773651e+17
19586.0	5.226499756698283e+17
19587.0	5.2256742994957645e+17
19588.0	5.224517039292415e+17
19589.0	5.2238316159194445e+17
19590.0	5.222878904232619e+17
19591.0	5.222067156811775e+17
19592.0	5.22116588896256e+17
19593.0	5.220195691222356e+17
19594.0	5.219055638850217e+17
19595.0	5.218403270787072e+17
19596.0	5.2174530826731514e+17
19597.0	5.2165687409377274e+17
19598.0	5.2152732679318176e+17
19599.0	5.2147338755440634e+17
19600.0	5.2138419728766285e+17
19601.0	5.212867715050154e+17
19602.0	5.211896851813717e+17
19603.0	5.2108106557030394e+17
19604.0	5.2100768272657056e+17
19605.0	5.209019400585216e+17
19606.0	5.208342770570581e+17
19607.0	5.2074465177108474e+17
19608.0	5.206519781348693e+17
19609.0	5.2055810241112723e+17
19610.0	5.204513426942635e+17
19611.0	5.203505860050943e+17
19612.0	5.202875698730325e+17
19613.0	5.2019492077349536e+17
19614.0	5.201002264614228e+17
19615.0	5.2001064982937594e+17
19616.0	5.198943110212266e+17
19617.0	5.197944304522581e+17
19618.0	5.196819181076479e+17
19619.0	5.195735649746943e+17
19620.0	5.194964364776787e+17
19621.0	5.1941642796182176e+17
19622.0	5.1936937814698656e+17
19623.0	5.192765325443071e+17
19624.0	5.1917990703486285e+17
19625.0	5.190946777290068e+17
19626.0	5.190002931662847e+17
19627.0	5.1890280439917216e+17
19628.0	5.187959152880297e+17
19629.0	5.185798002791763e+17
19630.0	5.1844229659361274e+17
19631.0	5.1817906696792723e+17
19632.0	5.183765538843306e+17
19633.0	5.1833496903789216e+17
19634.0	5.182635164128596e+17
19635.0	5.181702013277524e+17
19636.0	5.180448736367956e+17
19637.0	5.179244146939221e+17
19638.0	5.179053331273044e+17
19639.0	5.1781661353137485e+17
19640.0	5.177037269150378e+17
19641.0	5.175448876438869e+17
19642.0	5.175396054073342e+17
19643.0	5.1744955083434656e+17
19644.0	5.1735438242611194e+17
19645.0	5.172558499763541e+17
19646.0	5.171332485829972e+17
19647.0	5.1709022446114125e+17
19648.0	5.1699980260693325e+17
19649.0	5.1690870812617376e+17
19650.0	5.168182441891156e+17
19651.0	5.1672656180674554e+17
19652.0	5.1663539406547616e+17
19653.0	5.165445808128e+17
19654.0	5.164531950376276e+17
19655.0	5.163619181046442e+17
19656.0	5.1627148317818874e+17
