# Flux units: erg / (cm m2 s)
# Wavelength units: Angstrom
wave	flux
7000.0	70898.41749999998
7010.0	72435.97499999999
7020.0	73720.0425
7030.0	75296.54499999998
7040.0	76774.08749999998
7050.0	78193.47249999997
7060.0	79731.45249999998
7070.0	81172.93749999999
7080.0	82733.56249999997
7090.0	84146.07499999998
7100.0	85509.40749999999
7110.0	87355.46999999999
7120.0	88995.10499999998
7130.0	90417.25999999998
7140.0	92186.48499999999
7150.0	93916.86249999999
7160.0	95418.53
7170.0	96781.3875
7180.0	98857.90999999999
7190.0	100682.70499999997
7200.0	102115.32499999998
7210.0	104222.54999999999
7220.0	106078.77499999998
7230.0	107999.29999999996
7240.0	109807.39999999995
7250.0	111768.19999999998
7260.0	113561.12499999997
7270.0	115533.02499999998
7280.0	117434.19999999997
7290.0	119445.32499999998
7300.0	121270.49999999996
7310.0	123268.74999999999
7320.0	125351.09999999998
7330.0	127397.37499999997
7340.0	128509.575
7350.0	130322.49999999996
7360.0	132810.67499999996
7370.0	134993.12499999997
7380.0	136770.22499999995
7390.0	138456.675
7400.0	139985.32499999998
7410.0	142490.25
7420.0	143666.775
7430.0	146282.925
7440.0	148223.425
7450.0	149055.59999999998
7460.0	151317.32499999995
7470.0	153427.69999999998
7480.0	154839.44999999998
7490.0	156638.99999999997
7500.0	158088.64999999997
7510.0	158655.57499999998
7520.0	159341.94999999995
7530.0	159772.57499999995
7540.0	159340.24999999997
7550.0	158440.59999999998
7560.0	156532.57499999998
7570.0	153315.64999999997
7580.0	148345.59999999998
7590.0	141349.875
7600.0	131417.975
7610.0	117688.19999999997
7620.0	99289.53499999999
7630.0	76057.37749999999
7640.0	49981.352499999986
7650.0	26902.177499999998
7660.0	12242.770999999995
7670.0	9635.138500000001
7680.0	18345.142499999994
7690.0	19831.044999999995
7700.0	10316.251499999998
7710.0	20684.802499999994
7720.0	50076.117499999986
7730.0	86470.84999999998
7740.0	119920.29999999997
7750.0	147552.74999999997
7760.0	169779.04999999996
7770.0	187628.37499999994
7780.0	201501.27499999997
7790.0	207296.09999999995
7800.0	113697.51749999996
7810.0	203024.82749999993
7820.0	241675.34999999995
7830.0	252968.54999999993
7840.0	261450.55
7850.0	269049.0999999999
7860.0	275984.14999999997
7870.0	282184.49999999994
7880.0	288804.62499999994
7890.0	294940.64999999997
7900.0	300764.575
7910.0	306172.94999999995
7920.0	311421.14999999997
7930.0	314971.5249999999
7940.0	307929.24999999994
7950.0	180033.13499999995
7960.0	320549.7249999999
7970.0	337110.8999999999
7980.0	344635.95
7990.0	350671.44999999995
8000.0	356381.8999999999
8010.0	362143.9749999999
8020.0	367740.44999999995
8030.0	373884.49999999994
8040.0	379683.8999999999
8050.0	384983.4499999999
8060.0	390901.22499999986
8070.0	396845.3999999999
8080.0	402834.4999999999
8090.0	408621.57499999995
8100.0	414462.0999999999
8110.0	419628.3
8120.0	425744.4499999999
8130.0	432266.8749999999
8140.0	437004.7499999999
8150.0	443689.05
8160.0	450669.3749999999
8170.0	457076.3999999999
8180.0	463188.0749999999
8190.0	470237.2499999999
8200.0	476224.77499999985
8210.0	483174.24999999994
8220.0	489756.72499999986
8230.0	492509.1749999999
8240.0	501685.02499999985
8250.0	509687.72499999986
8260.0	516448.84999999986
8270.0	522796.79999999993
8280.0	530023.5499999998
8290.0	536345.2749999998
8300.0	543566.075
8310.0	550661.1499999999
8320.0	557762.0499999998
8330.0	565243.1749999999
8340.0	572741.6749999999
8350.0	580454.1249999999
8360.0	587185.9749999999
8370.0	595221.3999999999
8380.0	602510.2749999999
8390.0	610242.6249999999
8400.0	617593.9499999998
8410.0	625711.3499999999
8420.0	633757.8499999999
8430.0	641901.3249999998
8440.0	649969.0999999999
8450.0	657912.9249999998
8460.0	665849.3999999998
8470.0	673869.5499999999
8480.0	682704.9749999999
8490.0	690725.5499999999
8500.0	699424.3249999998
8510.0	708276.5499999998
8520.0	716688.1749999998
8530.0	724300.5249999998
8540.0	732019.9249999997
8550.0	741678.6249999999
8560.0	751174.1749999998
8570.0	760383.8999999997
8580.0	769128.8499999999
8590.0	776610.7249999997
8600.0	785746.6
8610.0	792705.3499999997
8620.0	794522.6499999997
8630.0	801109.8749999998
8640.0	811995.1249999998
8650.0	824819.7749999999
8660.0	838423.0999999999
8670.0	848110.4749999999
8680.0	856698.85
8690.0	868627.1499999998
8700.0	877164.3999999998
8710.0	887534.2999999999
8720.0	898791.1499999997
8730.0	910780.8249999998
8740.0	920359.0249999999
8750.0	931059.3999999999
8760.0	943121.8249999997
8770.0	952703.8999999997
8780.0	965456.0749999997
8790.0	975360.6499999996
8800.0	985442.7749999999
8810.0	997114.4499999998
8820.0	1009320.9999999999
8830.0	1020827.2499999998
8840.0	1033251.9999999997
8850.0	1043824.4999999998
8860.0	1055366.4999999998
8870.0	1067582.7499999998
8880.0	1080321.75
8890.0	1091077.75
8900.0	1103070.7499999995
8910.0	1112250.5
8920.0	1123116.9999999998
8930.0	1135087.4999999998
8940.0	1147628.4999999998
8950.0	1161989.7499999995
8960.0	1174908.9999999998
8970.0	1174302.2499999995
8980.0	1199594.2499999998
8990.0	1201060.7499999998
9000.0	1224487.2499999998
9010.0	1233910.7499999998
9020.0	1252574.9999999998
9030.0	1264742.7499999998
9040.0	1279314.7499999998
9050.0	1292421.9999999995
9060.0	1305725.0
9070.0	1319401.2499999995
9080.0	1331682.7499999998
9090.0	1344630.9999999998
9100.0	1359021.4999999995
9110.0	1368942.2499999995
9120.0	1386764.4999999995
9130.0	1400315.7499999998
9140.0	1414745.2499999998
9150.0	1427844.7499999998
9160.0	1437531.9999999995
9170.0	1454372.25
9180.0	1471139.2499999995
9190.0	1485532.4999999993
9200.0	1496380.9999999995
9210.0	1514964.9999999995
9220.0	1528302.7499999998
9230.0	1548200.2499999998
9240.0	1560905.2499999995
9250.0	1572634.2499999995
9260.0	1576953.4999999998
9270.0	1591243.7499999995
9280.0	1555653.2499999998
9290.0	1549661.9999999993
9300.0	1601242.2499999998
9310.0	1577630.2499999995
9320.0	1643621.2499999995
9330.0	1626827.4999999998
9340.0	1593648.4999999998
9350.0	1616946.2499999998
9360.0	1681448.9999999995
9370.0	1664064.7499999998
9380.0	1743835.9999999995
9390.0	1779774.4999999998
9400.0	1807413.75
9410.0	1821508.4999999995
9420.0	1834679.4999999993
9430.0	1855379.7499999993
9440.0	1859804.749999999
9450.0	1874930.9999999995
9460.0	1879355.9999999995
9470.0	1873295.2499999993
9480.0	1920663.7499999995
9490.0	1949271.499999999
9500.0	1892373.9999999998
9510.0	1976658.9999999995
9520.0	1982446.2499999993
9530.0	2018646.7499999995
9540.0	2050383.2499999993
9550.0	2053286.9999999993
9560.0	1998490.7499999995
9570.0	2087563.4999999998
9580.0	2117568.9999999995
9590.0	2115418.2499999995
9600.0	2116464.999999999
9610.0	2172786.9999999995
9620.0	2130839.9999999995
9630.0	2224525.25
9640.0	2215414.75
9650.0	2242160.7499999995
9660.0	2286421.7499999995
9670.0	2267929.4999999995
9680.0	2327863.999999999
9690.0	2341714.9999999995
9700.0	2359802.25
9710.0	2390294.9999999995
9720.0	2397328.749999999
9730.0	2406839.4999999995
9740.0	2448540.4999999995
9750.0	2460379.7499999995
9760.0	2486912.25
9770.0	2518028.2499999995
9780.0	2537232.999999999
9790.0	2540803.499999999
9800.0	2571244.2499999995
9810.0	2610540.2499999995
9820.0	2628484.9999999995
9830.0	2651280.9999999995
9840.0	2677331.999999999
9850.0	2690768.4999999986
9860.0	2719901.2499999995
9870.0	2743013.2499999995
9880.0	2762510.249999999
9890.0	2790812.9999999995
9900.0	2814821.2499999995
9910.0	2843811.4999999995
9920.0	2863373.2499999995
9930.0	2885199.249999999
9940.0	2905707.7499999995
9950.0	2939689.9999999995
9960.0	2959567.7499999995
9970.0	2984352.4999999995
9980.0	3009897.4999999995
9990.0	3030055.999999999
10000.0	3052112.4999999986
10010.0	3077173.499999999
10020.0	3101891.2499999995
10030.0	3124651.249999999
10040.0	3152109.7499999995
10050.0	3178343.2499999995
10060.0	3200562.499999999
10070.0	3228318.4999999995
10080.0	3250697.499999999
10090.0	3276623.4999999995
10100.0	3305040.4999999995
10110.0	3328137.9999999995
10120.0	3356037.749999999
10130.0	3382022.2499999986
10140.0	3408795.9999999995
10150.0	3432624.499999999
10160.0	3462391.4999999995
10170.0	3486589.9999999986
10180.0	3512578.999999999
10190.0	3541607.499999999
10200.0	3567599.4999999995
10210.0	3592743.7499999986
10220.0	3620769.4999999986
10230.0	3647549.499999999
10240.0	3674319.2499999986
10250.0	3701699.999999999
10260.0	3729075.999999999
10270.0	3755140.9999999995
10280.0	3784435.499999999
10290.0	3810665.7499999995
10300.0	3840397.749999999
10310.0	3867239.9999999995
10320.0	3895839.9999999986
10330.0	3921270.749999999
10340.0	3953675.7499999986
10350.0	3981083.4999999986
10360.0	4010523.5
10370.0	4039952.4999999995
10380.0	4068187.999999999
10390.0	4096389.9999999995
10400.0	4126687.9999999986
10410.0	4153375.999999998
10420.0	4184091.999999999
10430.0	4213097.999999999
10440.0	4242299.999999999
10450.0	4271705.999999999
10460.0	4301315.999999999
10470.0	4331129.999999999
10480.0	4361404.249999999
10490.0	4393149.749999999
10500.0	4420288.749999999
10510.0	4454005.249999998
10520.0	4483333.999999999
10530.0	4512335.999999999
10540.0	4545706.0
10550.0	4575106.0
10560.0	4607083.749999999
10570.0	4638486.249999998
10580.0	4669017.499999999
10590.0	4698678.499999998
10600.0	4727708.0
10610.0	4764047.249999998
10620.0	4802039.749999998
10630.0	4837000.499999999
10640.0	4872764.499999998
10650.0	4902316.0
10660.0	4938571.999999998
10670.0	4967939.249999999
10680.0	4998635.75
10690.0	5035305.999999999
10700.0	5064668.999999998
10710.0	5098015.999999998
10720.0	5133057.749999999
10730.0	5166862.249999999
10740.0	5199666.249999999
10750.0	5231814.249999999
10760.0	5269575.499999999
10770.0	5299383.999999999
10780.0	5335814.249999998
10790.0	5372803.999999999
10800.0	5405063.999999999
10810.0	5440019.499999999
10820.0	5474902.249999999
10830.0	5510940.25
10840.0	5543393.749999998
10850.0	5579575.999999999
10860.0	5612748.749999999
10870.0	5642247.749999998
10880.0	5685593.499999999
10890.0	5714793.999999999
10900.0	5733570.999999999
10910.0	5780648.999999999
10920.0	5807321.249999998
10930.0	5827755.749999999
10940.0	5860852.25
10950.0	5901690.749999999
10960.0	5900201.499999999
10970.0	5959785.499999999
10980.0	5951367.749999999
10990.0	5977759.249999999
11000.0	6041293.749999999
11010.0	5962743.499999999
11020.0	6060041.999999998
11030.0	6034562.999999998
11040.0	6094473.499999998
11050.0	6157168.499999998
11060.0	6049033.75
11070.0	6170601.249999998
11080.0	6095162.999999999
11090.0	6313284.249999998
11100.0	6243521.749999999
11110.0	6056676.999999999
11120.0	6367717.499999998
11130.0	6221236.749999999
11140.0	6349687.749999999
11150.0	5851421.499999999
11160.0	6330697.749999999
11170.0	6192383.749999999
11180.0	6521644.749999998
11190.0	6303030.999999999
11200.0	5826280.749999999
11210.0	6638269.749999999
11220.0	6162299.499999998
11230.0	6508973.749999998
11240.0	6268365.999999999
11250.0	6405946.249999998
11260.0	6676598.749999998
11270.0	6768952.249999997
11280.0	6996980.999999999
11290.0	7063514.749999998
11300.0	6950953.249999999
11310.0	7007666.249999999
11320.0	7168871.499999998
11330.0	7010309.249999998
11340.0	6605930.249999998
11350.0	6091607.249999998
11360.0	7106121.749999998
11370.0	7309562.499999998
11380.0	7426061.999999998
11390.0	7478290.499999997
11400.0	7522957.749999998
11410.0	7564146.999999998
11420.0	7521845.249999998
11430.0	7534615.999999997
11440.0	7287533.749999998
11450.0	7606426.999999999
11460.0	7730514.75
11470.0	7721275.499999998
11480.0	7453942.499999997
11490.0	7872174.499999997
11500.0	7108113.249999998
11510.0	7972533.749999999
11520.0	7849130.499999997
11530.0	7766708.749999998
11540.0	7760301.499999998
11550.0	7954165.499999996
11560.0	7912907.999999998
11570.0	8027404.249999996
11580.0	7927369.499999997
11590.0	8139596.499999997
11600.0	7888787.499999999
11610.0	8238429.999999997
11620.0	8301025.499999998
11630.0	8552199.999999996
11640.0	7988764.0
11650.0	8468231.999999998
11660.0	8311995.249999999
11670.0	8648045.25
11680.0	8666369.999999998
11690.0	8538167.249999998
11700.0	8560782.999999998
11710.0	8828579.249999996
11720.0	8927110.499999998
11730.0	8461661.499999998
11740.0	8830442.499999996
11750.0	8966014.0
11760.0	9094501.749999998
11770.0	9146527.749999998
11780.0	9058936.749999998
11790.0	9302800.999999998
11800.0	9282906.499999996
11810.0	9378330.0
11820.0	9345461.5
11830.0	9518208.499999998
11840.0	9529348.249999998
11850.0	9531238.0
11860.0	9615650.499999998
11870.0	9696572.999999998
11880.0	9777485.249999998
11890.0	9766861.249999998
11900.0	9820892.749999996
11910.0	9928390.999999998
11920.0	9997215.5
11930.0	10067067.5
11940.0	10012128.999999998
11950.0	10135669.999999998
11960.0	10210029.999999998
11970.0	10276682.499999998
11980.0	10272874.999999998
11990.0	10278652.5
12000.0	10412432.499999996
12010.0	10485162.499999998
12020.0	10501609.999999998
12030.0	10565897.499999996
12040.0	10598762.5
12050.0	10699804.999999996
12060.0	10744262.499999998
12070.0	10751697.499999998
12080.0	10838685.0
12090.0	10878755.0
12100.0	10949699.999999996
12110.0	11005912.499999996
12120.0	11026214.999999996
12130.0	11075292.499999998
12140.0	11135994.999999996
12150.0	11181614.999999996
12160.0	11262969.999999998
12170.0	11296712.5
12180.0	11359292.499999996
12190.0	11418954.999999998
12200.0	11449237.499999996
12210.0	11525909.999999996
12220.0	11569119.999999998
12230.0	11605232.499999996
12240.0	11684279.999999998
12250.0	11732799.999999998
12260.0	11797819.999999998
12270.0	11836562.499999996
12280.0	11895297.499999998
12290.0	11939349.999999994
12300.0	12016424.999999998
12310.0	12058022.499999998
12320.0	12110242.499999996
12330.0	12152822.499999996
12340.0	12228582.499999998
12350.0	12301994.999999998
12360.0	12336739.999999998
12370.0	12388019.999999998
12380.0	12457299.999999996
12390.0	12503319.999999996
12400.0	12564679.999999998
12410.0	12612519.999999996
12420.0	12665590.0
12430.0	12728409.999999998
12440.0	12776897.499999998
12450.0	12846242.499999998
12460.0	12901064.999999998
12470.0	12953174.999999998
12480.0	13000969.999999998
12490.0	13056489.999999998
12500.0	13115959.999999998
12510.0	13176519.999999998
12520.0	13212999.999999998
12530.0	13280807.499999998
12540.0	13316802.499999998
12550.0	13389869.999999996
12560.0	13464799.999999994
12570.0	13514499.999999998
12580.0	13570619.999999996
12590.0	13603472.499999996
12600.0	13676514.999999998
12610.0	13739632.499999996
12620.0	13791119.999999998
12630.0	13849257.499999998
12640.0	13899544.999999998
12650.0	13963702.499999996
12660.0	13995094.999999996
12670.0	14055642.499999996
12680.0	14136777.499999998
12690.0	14190599.999999996
12700.0	14253642.499999996
12710.0	14285722.499999996
12720.0	14336752.499999996
12730.0	14392162.499999994
12740.0	14429527.499999996
12750.0	14540369.999999996
12760.0	14560522.5
12770.0	14642039.999999996
12780.0	14715529.999999994
12790.0	14724879.999999998
12800.0	14751152.499999996
12810.0	14839764.999999996
12820.0	14918592.499999996
12830.0	14892042.499999994
12840.0	15040157.499999996
12850.0	15039632.499999996
12860.0	15107957.499999994
12870.0	15184529.999999996
12880.0	15226574.999999998
12890.0	15293309.999999994
12900.0	15354304.999999996
12910.0	15403937.499999998
12920.0	15390499.999999998
12930.0	15501792.499999996
12940.0	15582402.499999998
12950.0	15518049.999999996
12960.0	15574467.499999998
12970.0	15650974.999999994
12980.0	15866324.999999996
12990.0	15814474.999999996
13000.0	15901244.999999996
13010.0	15895757.499999994
13020.0	16073149.999999996
13030.0	15989332.499999998
13040.0	16123262.499999996
13050.0	16253657.499999996
13060.0	16327729.999999994
13070.0	16202457.499999996
13080.0	16452289.999999994
13090.0	16459844.999999994
13100.0	16482702.499999996
13110.0	16629414.999999994
13120.0	16604769.999999994
13130.0	16675682.499999994
13140.0	16695212.499999996
13150.0	16537957.499999996
13160.0	16829282.499999996
13170.0	16930835.0
13180.0	16990319.999999996
13190.0	16819627.5
13200.0	17073029.999999996
13210.0	17181379.999999996
13220.0	17229722.499999996
13230.0	16727184.999999996
13240.0	17115474.99999999
13250.0	17258602.499999996
13260.0	17309662.499999996
13270.0	17315047.499999996
13280.0	17400787.499999996
13290.0	17253452.499999996
13300.0	17283572.499999996
13310.0	17265317.499999996
13320.0	15378899.999999996
13330.0	16744124.999999993
13340.0	17103534.999999996
13350.0	15680162.499999996
13360.0	14980002.499999996
13370.0	12604053.249999996
13380.0	12414279.749999998
13390.0	13504054.499999998
13400.0	12647228.249999996
13410.0	14091203.249999994
13420.0	11636358.499999998
13430.0	12372606.499999998
13440.0	12711859.499999998
13450.0	9682436.999999996
13460.0	14002915.674999995
13470.0	10624126.724999996
13480.0	8064100.749999998
13490.0	11466378.75
13500.0	10620662.424999999
13510.0	10737335.524999999
13520.0	7527859.449999998
13530.0	12130658.499999998
13540.0	9391848.499999998
13550.0	7004401.299999998
13560.0	10960081.499999996
13570.0	9914443.499999998
13580.0	10241629.249999998
13590.0	8697458.999999998
13600.0	11975357.249999998
13610.0	10196354.499999998
13620.0	7105967.5
13630.0	11463773.499999998
13640.0	12423910.499999996
13650.0	9946795.749999998
13660.0	14035431.249999996
13670.0	13855299.499999996
13680.0	10956238.399999997
13690.0	12582559.299999997
13700.0	12735166.499999996
13710.0	12791846.5
13720.0	14824137.499999994
13730.0	15045992.499999996
13740.0	12240838.499999996
13750.0	14958119.999999998
13760.0	15560474.999999998
13770.0	14928197.499999996
13780.0	17066494.999999993
13790.0	15871442.499999994
13800.0	16845041.5
13810.0	10979895.999999996
13820.0	15309917.749999996
13830.0	9569376.749999998
13840.0	16628005.0
13850.0	12235426.499999998
13860.0	11181628.999999998
13870.0	16332945.999999996
13880.0	11506825.499999998
13890.0	13909475.499999996
13900.0	14264833.499999998
13910.0	13127723.249999996
13920.0	12106099.25
13930.0	12950141.499999994
13940.0	14377417.499999996
13950.0	9856237.85
13960.0	11659857.499999998
13970.0	12142861.249999996
13980.0	14612922.499999998
13990.0	16458423.249999993
14000.0	11864367.499999998
14010.0	10228745.749999998
14020.0	16981139.999999993
14030.0	17338197.5
14040.0	12672159.749999996
14050.0	10325361.549999997
14060.0	18423020.0
14070.0	14446632.499999996
14080.0	14175482.499999996
14090.0	11823983.499999998
14100.0	13978733.499999996
14110.0	17230507.499999996
14120.0	12144012.749999996
14130.0	17513861.249999996
14140.0	11648737.999999998
14150.0	13431995.499999998
14160.0	16620639.999999993
14170.0	15963841.0
14180.0	11474766.499999998
14190.0	10512474.0
14200.0	13144803.099999996
14210.0	15323078.999999998
14220.0	15624327.499999994
14230.0	12155384.999999996
14240.0	11084224.299999997
14250.0	16255730.499999996
14260.0	12261349.749999996
14270.0	17540164.749999993
14280.0	14199442.499999994
14290.0	9720435.499999998
14300.0	19381234.999999993
14310.0	17651896.499999996
14320.0	15455057.499999996
14330.0	17430794.999999996
14340.0	10403478.999999996
14350.0	17880561.499999996
14360.0	19065977.499999996
14370.0	17745014.999999996
14380.0	16391905.5
14390.0	15292333.749999993
14400.0	14811268.749999994
14410.0	17527902.499999996
14420.0	16884659.999999993
14430.0	20597317.499999996
14440.0	18988662.499999996
14450.0	13684285.749999996
14460.0	17666724.749999996
14470.0	18666499.999999996
14480.0	20334069.999999996
14490.0	21044874.999999996
14500.0	17273150.749999996
14510.0	13006453.749999998
14520.0	22832789.999999996
14530.0	22387997.499999996
14540.0	20117449.999999996
14550.0	20412384.999999996
14560.0	18454322.499999996
14570.0	17613209.999999996
14580.0	23413937.499999996
14590.0	23953889.999999996
14600.0	23811694.999999996
14610.0	23171917.499999993
14620.0	19743467.499999996
14630.0	17078424.999999996
14640.0	23622064.999999996
14650.0	21868977.5
14660.0	22399434.999999996
14670.0	23570492.499999993
14680.0	21258432.499999993
14690.0	19896857.499999993
14700.0	21787882.499999993
14710.0	22544142.499999996
14720.0	24153942.499999996
14730.0	23517765.0
14740.0	22327944.999999996
14750.0	22596079.999999993
14760.0	22237894.99999999
14770.0	23461949.999999996
14780.0	24720204.999999993
14790.0	24534219.999999996
