# Flux units: erg / (cm m2 s)
# Wavelength units: Angstrom
wave	flux
7000.0	60582.167499999974
7010.0	61900.877499999995
7020.0	62792.63749999999
7030.0	64502.64249999999
7040.0	65815.85749999998
7050.0	67088.89249999997
7060.0	68398.9675
7070.0	69635.94749999998
7080.0	70964.20999999998
7090.0	72204.77999999998
7100.0	73386.86249999999
7110.0	74935.40749999999
7120.0	76327.94249999998
7130.0	77607.09999999999
7140.0	79069.58999999998
7150.0	80547.33249999997
7160.0	81837.62749999999
7170.0	83083.83999999997
7180.0	84818.22249999999
7190.0	86399.20499999999
7200.0	87688.89749999998
7210.0	89447.80749999998
7220.0	91030.65749999999
7230.0	92674.48999999998
7240.0	94253.23999999998
7250.0	95951.86499999998
7260.0	97526.48749999997
7270.0	99232.44749999997
7280.0	100881.69999999998
7290.0	102643.12499999999
7300.0	104265.65
7310.0	106009.44999999997
7320.0	107837.57499999998
7330.0	109668.47499999998
7340.0	110472.94999999998
7350.0	111721.82499999997
7360.0	114119.47499999996
7370.0	116183.19999999995
7380.0	117598.34999999999
7390.0	118979.32499999995
7400.0	120705.99999999997
7410.0	122796.92499999997
7420.0	123518.69999999995
7430.0	126302.375
7440.0	128302.79999999996
7450.0	128675.74999999997
7460.0	131173.675
7470.0	133565.62499999997
7480.0	135146.12499999994
7490.0	137397.19999999998
7500.0	139394.29999999996
7510.0	140385.07499999998
7520.0	141832.89999999997
7530.0	143353.89999999997
7540.0	144172.675
7550.0	144860.47499999998
7560.0	144998.8
7570.0	144312.84999999998
7580.0	142431.02499999997
7590.0	139404.17499999996
7600.0	134249.64999999994
7610.0	126020.34999999998
7620.0	113272.04999999997
7630.0	93988.7425
7640.0	66821.90999999999
7650.0	35763.737499999996
7660.0	13801.013499999995
7670.0	9790.067499999997
7680.0	22884.427499999998
7690.0	24943.494999999995
7700.0	10548.954999999998
7710.0	26065.739999999994
7720.0	67391.61999999998
7730.0	107541.87249999997
7740.0	136755.9
7750.0	157602.62499999997
7760.0	173021.55
7770.0	184860.77499999994
7780.0	193976.25
7790.0	198393.99999999994
7800.0	122651.41499999996
7810.0	196812.04499999995
7820.0	220761.47499999998
7830.0	227951.09999999995
7840.0	233672.52499999997
7850.0	238941.1749999999
7860.0	243900.74999999997
7870.0	248334.625
7880.0	253192.625
7890.0	257792.34999999992
7900.0	262146.12499999994
7910.0	266477.475
7920.0	270485.8
7930.0	273627.8249999999
7940.0	272005.4749999999
7950.0	181152.10499999995
7960.0	281818.99999999994
7970.0	291350.7249999999
7980.0	296661.3249999999
7990.0	301345.4749999999
8000.0	306121.54999999993
8010.0	310414.8749999999
8020.0	315035.52499999997
8030.0	320316.5499999999
8040.0	325092.69999999995
8050.0	329257.57499999995
8060.0	334219.62499999994
8070.0	339325.37499999994
8080.0	344325.8249999999
8090.0	349235.6
8100.0	354133.8499999999
8110.0	358467.9749999999
8120.0	363679.3499999999
8130.0	369198.37499999994
8140.0	373293.3749999999
8150.0	378681.5249999999
8160.0	384683.02499999985
8170.0	390066.3249999998
8180.0	394938.8999999999
8190.0	400926.7999999999
8200.0	406007.4499999999
8210.0	411797.14999999997
8220.0	417374.34999999986
8230.0	420089.59999999986
8240.0	427522.175
8250.0	434154.0249999999
8260.0	439814.57499999984
8270.0	445070.9749999998
8280.0	451385.72499999986
8290.0	456753.325
8300.0	462857.1499999999
8310.0	468723.3499999999
8320.0	474872.3249999999
8330.0	481169.2499999999
8340.0	487495.8249999999
8350.0	493896.0249999999
8360.0	499756.1749999999
8370.0	506426.0999999998
8380.0	512576.49999999994
8390.0	519074.9499999999
8400.0	525339.8749999999
8410.0	532247.7499999999
8420.0	539083.1499999999
8430.0	545824.6499999998
8440.0	552618.325
8450.0	559343.3999999999
8460.0	566034.6749999998
8470.0	572797.85
8480.0	580357.2499999998
8490.0	587114.6499999998
8500.0	594542.8749999999
8510.0	602005.55
8520.0	609137.2499999998
8530.0	615174.6499999999
8540.0	621248.875
8550.0	629840.6749999999
8560.0	638029.5499999998
8570.0	645944.9249999999
8580.0	653219.3749999998
8590.0	658818.725
8600.0	666500.1249999999
8610.0	673781.3249999997
8620.0	678455.3499999997
8630.0	684001.3249999998
8640.0	692342.7749999998
8650.0	702413.4249999998
8660.0	712907.575
8670.0	721127.7
8680.0	727597.8999999998
8690.0	738198.3249999997
8700.0	745590.6499999999
8710.0	754748.8249999998
8720.0	764282.8499999999
8730.0	774620.0999999999
8740.0	782778.2749999997
8750.0	791654.6249999999
8760.0	801858.1749999998
8770.0	810126.6749999999
8780.0	820828.7999999999
8790.0	829669.6499999998
8800.0	839181.8999999998
8810.0	848696.3999999998
8820.0	858283.1749999998
8830.0	868196.1749999998
8840.0	877859.825
8850.0	887698.3499999997
8860.0	897610.2499999998
8870.0	907949.1249999997
8880.0	918052.075
8890.0	927715.1999999997
8900.0	937751.7249999999
8910.0	945625.3749999999
8920.0	955110.0499999996
8930.0	965685.9249999999
8940.0	976618.1249999999
8950.0	988727.9999999997
8960.0	998919.2249999999
8970.0	998468.4749999997
8980.0	1020498.7499999999
8990.0	1021749.4999999997
9000.0	1042205.9999999999
9010.0	1049808.9999999998
9020.0	1065126.9999999998
9030.0	1075542.7499999998
9040.0	1087809.4999999998
9050.0	1098067.5000000002
9060.0	1110772.7499999998
9070.0	1121960.7499999998
9080.0	1132928.4999999998
9090.0	1144992.7499999998
9100.0	1156181.4999999998
9110.0	1165219.4999999998
9120.0	1180260.9999999995
9130.0	1191861.4999999995
9140.0	1204074.7499999998
9150.0	1214811.4999999998
9160.0	1224157.2499999998
9170.0	1237803.2499999998
9180.0	1252140.7499999998
9190.0	1263735.7499999998
9200.0	1273694.9999999998
9210.0	1289446.7499999995
9220.0	1301982.7499999998
9230.0	1317732.7499999998
9240.0	1329231.7499999998
9250.0	1339687.2499999995
9260.0	1342903.9999999998
9270.0	1356791.4999999995
9280.0	1335649.4999999995
9290.0	1327575.7499999998
9300.0	1380199.4999999995
9310.0	1352270.25
9320.0	1415980.9999999995
9330.0	1395789.9999999995
9340.0	1364241.9999999998
9350.0	1374452.4999999995
9360.0	1433499.4999999998
9370.0	1413819.7499999998
9380.0	1493940.9999999995
9390.0	1519282.4999999998
9400.0	1541462.7499999993
9410.0	1554551.2499999995
9420.0	1566525.7499999998
9430.0	1586367.9999999998
9440.0	1594648.7499999995
9450.0	1604667.4999999998
9460.0	1612985.4999999995
9470.0	1592584.2499999995
9480.0	1648816.2499999998
9490.0	1666891.4999999995
9500.0	1616640.9999999998
9510.0	1689169.9999999995
9520.0	1696517.2499999995
9530.0	1725308.2499999995
9540.0	1752896.4999999998
9550.0	1759100.9999999993
9560.0	1705055.9999999998
9570.0	1792295.4999999993
9580.0	1810215.9999999993
9590.0	1818712.2499999998
9600.0	1806396.4999999998
9610.0	1862795.7499999998
9620.0	1817053.9999999993
9630.0	1901116.4999999995
9640.0	1899318.2499999995
9650.0	1915487.7499999995
9660.0	1952788.9999999995
9670.0	1945766.9999999993
9680.0	1988273.5
9690.0	2002646.25
9700.0	2018784.2499999998
9710.0	2041044.7499999998
9720.0	2050098.2499999993
9730.0	2059571.2499999998
9740.0	2088965.4999999995
9750.0	2101013.749999999
9760.0	2127066.7499999995
9770.0	2149354.2499999995
9780.0	2167497.499999999
9790.0	2172014.9999999995
9800.0	2195831.9999999995
9810.0	2228467.25
9820.0	2248169.7499999995
9830.0	2263882.999999999
9840.0	2284294.9999999995
9850.0	2299594.749999999
9860.0	2320348.9999999995
9870.0	2341148.2499999995
9880.0	2355765.999999999
9890.0	2379627.7499999995
9900.0	2402435.0
9910.0	2426195.2499999995
9920.0	2444709.4999999995
9930.0	2463772.499999999
9940.0	2480000.4999999995
9950.0	2509008.7499999995
9960.0	2525974.7499999995
9970.0	2546979.2499999995
9980.0	2569074.7499999995
9990.0	2587179.499999999
10000.0	2606158.9999999995
10010.0	2626645.499999999
10020.0	2649579.999999999
10030.0	2669325.999999999
10040.0	2690461.7499999995
10050.0	2716288.2499999995
10060.0	2734175.9999999995
10070.0	2757885.9999999995
10080.0	2776042.4999999995
10090.0	2800117.4999999995
10100.0	2822449.2499999995
10110.0	2844304.749999999
10120.0	2864193.9999999995
10130.0	2888193.0
10140.0	2910724.999999999
10150.0	2933431.999999999
10160.0	2955466.999999999
10170.0	2978524.999999999
10180.0	2999169.2499999995
10190.0	3025531.7499999995
10200.0	3047902.999999999
10210.0	3071681.999999999
10220.0	3093153.9999999995
10230.0	3116208.249999999
10240.0	3140518.9999999995
10250.0	3163562.749999999
10260.0	3187141.9999999995
10270.0	3210897.499999999
10280.0	3235945.2499999995
10290.0	3258375.499999999
10300.0	3283797.7499999995
10310.0	3306749.9999999995
10320.0	3331394.4999999995
10330.0	3355837.2499999986
10340.0	3380655.499999999
10350.0	3404089.249999998
10360.0	3430649.4999999995
10370.0	3454627.9999999995
10380.0	3480173.999999999
10390.0	3504297.9999999986
10400.0	3528791.9999999995
10410.0	3554679.499999999
10420.0	3580973.2499999995
10430.0	3605795.5
10440.0	3630789.4999999995
10450.0	3655959.2499999995
10460.0	3682993.5
10470.0	3708521.7499999995
10480.0	3732513.249999999
10490.0	3760111.4999999986
10500.0	3784435.499999999
10510.0	3810665.7499999995
10520.0	3838847.2499999986
10530.0	3865457.499999999
10540.0	3892249.749999999
10550.0	3917429.499999999
10560.0	3946397.4999999995
10570.0	3971925.7499999995
10580.0	4001299.4999999986
10590.0	4025090.999999998
10600.0	4048097.749999999
10610.0	4082969.999999999
10620.0	4115535.749999999
10630.0	4147402.0
10640.0	4178072.4999999986
10650.0	4201714.999999999
10660.0	4234244.999999999
10670.0	4257716.249999998
10680.0	4287967.499999999
10690.0	4317187.5
10700.0	4343109.749999999
10710.0	4372968.999999999
10720.0	4399479.999999999
10730.0	4432013.999999999
10740.0	4462478.749999999
10750.0	4491869.249999999
10760.0	4520910.999999999
10770.0	4547795.749999998
10780.0	4577209.999999999
10790.0	4611063.749999999
10800.0	4640617.499999999
10810.0	4669017.499999999
10820.0	4698946.0
10830.0	4729068.499999999
10840.0	4759935.999999998
10850.0	4788786.499999999
10860.0	4820874.499999999
10870.0	4840359.249999998
10880.0	4881749.749999999
10890.0	4909085.999999999
10900.0	4927488.25
10910.0	4965653.749999999
10920.0	4988855.999999999
10930.0	5010442.499999999
10940.0	5041251.499999999
10950.0	5076941.999999999
10960.0	5080356.75
10970.0	5128095.249999998
10980.0	5120329.0
10990.0	5144026.249999998
11000.0	5211083.749999999
11010.0	5137628.749999999
11020.0	5227604.999999998
11030.0	5196922.5
11040.0	5280864.5
11050.0	5321573.499999999
11060.0	5270322.749999999
11070.0	5338447.749999999
11080.0	5315219.5
11090.0	5482246.249999999
11100.0	5434375.249999998
11110.0	5336197.499999998
11120.0	5544631.749999999
11130.0	5447565.999999999
11140.0	5554554.749999997
11150.0	5060303.999999998
11160.0	5511199.999999997
11170.0	5432927.499999999
11180.0	5694495.249999998
11190.0	5510698.749999998
11200.0	5039008.249999998
11210.0	5770146.499999998
11220.0	5364825.249999997
11230.0	5686386.25
11240.0	5454871.499999999
11250.0	5524691.499999998
11260.0	5812620.749999999
11270.0	5836409.999999999
11280.0	6083964.499999998
11290.0	6133771.499999998
11300.0	6082165.749999998
11310.0	6064191.75
11320.0	6242888.0
11330.0	6160212.249999998
11340.0	5920818.499999998
11350.0	5389623.0
11360.0	6212397.249999999
11370.0	6355613.999999999
11380.0	6431795.999999998
11390.0	6482628.499999997
11400.0	6531226.25
11410.0	6566926.499999999
11420.0	6508468.249999999
11430.0	6540765.999999998
11440.0	6355541.999999999
11450.0	6631531.999999998
11460.0	6691574.499999998
11470.0	6747104.5
11480.0	6431187.499999999
11490.0	6830513.749999998
11500.0	6125179.499999999
11510.0	6945725.999999998
11520.0	6870880.999999998
11530.0	6818774.499999997
11540.0	6823564.749999999
11550.0	6914355.0
11560.0	6964976.749999997
11570.0	6983677.75
11580.0	6922972.499999998
11590.0	7136664.249999998
11600.0	6859602.499999998
11610.0	7201799.749999998
11620.0	7289793.499999998
11630.0	7424075.249999998
11640.0	6883479.999999998
11650.0	7365691.999999997
11660.0	7251540.999999999
11670.0	7545459.499999999
11680.0	7576471.749999998
11690.0	7470962.499999998
11700.0	7432640.499999998
11710.0	7671840.999999997
11720.0	7774502.749999997
11730.0	7283034.249999999
11740.0	7688187.749999998
11750.0	7790235.999999999
11760.0	7930499.749999997
11770.0	7962279.749999997
11780.0	7888089.749999998
11790.0	8089253.999999999
11800.0	8041373.999999997
11810.0	8138659.749999998
11820.0	8112245.249999998
11830.0	8269019.249999997
11840.0	8279056.75
11850.0	8250444.749999998
11860.0	8334166.249999998
11870.0	8388662.999999998
11880.0	8479641.499999998
11890.0	8470783.249999996
11900.0	8521742.749999998
11910.0	8612456.249999998
11920.0	8659685.999999998
11930.0	8723714.499999998
11940.0	8683458.999999998
11950.0	8790753.749999998
11960.0	8844052.999999998
11970.0	8897163.999999996
11980.0	8884889.5
11990.0	8903716.749999996
12000.0	9023519.999999998
12010.0	9081350.999999998
12020.0	9096163.249999996
12030.0	9144965.499999998
12040.0	9183394.999999998
12050.0	9272048.249999998
12060.0	9310018.499999998
12070.0	9317020.499999998
12080.0	9388601.75
12090.0	9418959.249999996
12100.0	9488041.999999996
12110.0	9529069.0
12120.0	9549957.999999998
12130.0	9597414.999999998
12140.0	9641178.499999998
12150.0	9680666.249999998
12160.0	9755542.999999996
12170.0	9793803.999999998
12180.0	9844090.249999996
12190.0	9899223.999999994
12200.0	9926060.249999996
12210.0	9987936.249999998
12220.0	10025412.499999998
12230.0	10065914.999999998
12240.0	10120479.999999996
12250.0	10171859.999999998
12260.0	10223519.999999996
12270.0	10266572.499999998
12280.0	10317527.499999996
12290.0	10341462.5
12300.0	10417219.999999996
12310.0	10445462.499999996
12320.0	10498487.499999998
12330.0	10531162.499999998
12340.0	10596794.999999998
12350.0	10660449.999999998
12360.0	10695479.999999996
12370.0	10735599.999999996
12380.0	10799425.0
12390.0	10839925.0
12400.0	10893090.0
12410.0	10934559.999999998
12420.0	10980612.499999998
12430.0	11039532.499999996
12440.0	11077694.999999998
12450.0	11137159.999999998
12460.0	11179564.999999994
12470.0	11229874.999999996
12480.0	11276549.999999996
12490.0	11319489.999999996
12500.0	11371059.999999996
12510.0	11428799.999999996
12520.0	11470939.999999996
12530.0	11518619.999999996
12540.0	11551167.499999996
12550.0	11619212.499999996
12560.0	11673499.999999998
12570.0	11727399.999999998
12580.0	11765937.499999996
12590.0	11814084.999999996
12600.0	11868622.499999996
12610.0	11922714.999999996
12620.0	11968109.999999996
12630.0	12016429.999999996
12640.0	12072599.999999998
12650.0	12123439.999999996
12660.0	12161199.999999996
12670.0	12213104.999999998
12680.0	12257482.499999994
12690.0	12319684.999999996
12700.0	12368054.999999998
12710.0	12401592.499999996
12720.0	12448024.999999996
12730.0	12511254.999999996
12740.0	12538669.999999998
12750.0	12622669.999999994
12760.0	12647439.999999998
12770.0	12717459.999999996
12780.0	12781322.499999998
12790.0	12801197.499999998
12800.0	12835902.499999996
12810.0	12907029.999999998
12820.0	12963667.499999998
12830.0	12945849.999999998
12840.0	13076070.0
12850.0	13068939.999999996
12860.0	13157659.999999994
12870.0	13213019.999999998
12880.0	13267819.999999996
12890.0	13309132.499999996
12900.0	13359947.499999998
12910.0	13392319.999999996
12920.0	13409934.999999998
12930.0	13489044.999999996
12940.0	13563149.999999996
12950.0	13497547.499999998
12960.0	13548882.499999996
12970.0	13643282.499999994
12980.0	13801474.999999998
12990.0	13742777.499999998
13000.0	13867714.999999998
13010.0	13881260.0
13020.0	13993489.999999994
13030.0	13919669.999999994
13040.0	14056514.999999996
13050.0	14162815.0
13060.0	14222502.499999994
13070.0	14174334.999999994
13080.0	14323584.999999998
13090.0	14336769.999999998
13100.0	14369047.499999998
13110.0	14482732.499999994
13120.0	14480444.999999996
13130.0	14553179.999999998
13140.0	14554557.499999996
13150.0	14480689.999999996
13160.0	14659364.999999998
13170.0	14772424.999999996
13180.0	14825259.999999998
13190.0	14671404.999999996
13200.0	14909359.999999996
13210.0	14984969.999999998
13220.0	15034089.999999998
13230.0	14549744.999999996
13240.0	15019422.499999996
13250.0	15112714.999999996
13260.0	15125584.999999994
13270.0	15156159.999999996
13280.0	15210457.499999996
13290.0	15112294.999999996
13300.0	15248319.999999996
13310.0	15232392.499999996
13320.0	13973347.499999996
13330.0	14932289.999999996
13340.0	15177957.499999996
13350.0	13896294.999999998
13360.0	13772162.749999996
13370.0	11646937.249999998
13380.0	11749144.999999996
13390.0	12693118.999999996
13400.0	12581654.499999996
13410.0	13251992.499999998
13420.0	11491231.999999998
13430.0	12743728.5
13440.0	12168496.499999998
13450.0	9527548.499999996
13460.0	13703143.949999997
13470.0	10542186.149999999
13480.0	9458055.0
13490.0	11650162.499999996
13500.0	10554581.7
13510.0	11122557.099999998
13520.0	7868067.949999998
13530.0	12598138.249999996
13540.0	10049089.499999998
13550.0	7942210.599999999
13560.0	11192205.399999997
13570.0	10581345.499999998
13580.0	10492441.749999998
13590.0	8725897.999999998
13600.0	12586184.25
13610.0	11199207.749999996
13620.0	8068666.999999999
13630.0	10619932.999999996
13640.0	11921584.749999996
13650.0	10412128.749999998
13660.0	13218080.249999996
13670.0	13223781.249999998
13680.0	11053322.774999997
13690.0	12129753.174999997
13700.0	12227001.0
13710.0	12780153.999999998
13720.0	14209552.499999994
13730.0	14806927.499999994
13740.0	11416546.5
13750.0	13833892.499999996
13760.0	14335234.999999996
13770.0	14310042.499999998
13780.0	15821594.999999996
13790.0	15345657.499999998
13800.0	15940851.499999998
13810.0	11061270.499999996
13820.0	15103875.499999996
13830.0	10538965.499999996
13840.0	15678807.499999996
13850.0	13289847.499999996
13860.0	11650401.749999998
13870.0	15429907.749999998
13880.0	12610912.999999998
13890.0	13240294.999999996
13900.0	13667613.499999996
13910.0	13156352.249999998
13920.0	13111334.249999996
13930.0	12688931.999999998
13940.0	14148489.999999996
13950.0	9989417.9
13960.0	12235244.749999996
13970.0	12147849.25
13980.0	14562963.999999994
13990.0	15950269.749999996
14000.0	12199647.749999996
14010.0	11379278.499999998
14020.0	16148639.999999994
14030.0	16266997.499999998
14040.0	11929972.249999996
14050.0	10894701.15
14060.0	16892854.499999996
14070.0	14959157.499999998
14080.0	13387447.499999996
14090.0	12947152.249999994
14100.0	14027449.249999996
14110.0	16889104.999999996
14120.0	12427766.499999996
14130.0	16746291.499999994
14140.0	13306311.749999998
14150.0	13419862.749999996
14160.0	15009584.999999998
14170.0	16126365.499999994
14180.0	10883196.999999996
14190.0	11383079.749999996
14200.0	12881471.749999996
14210.0	14802783.499999994
14220.0	14738454.999999996
14230.0	12420471.999999996
14240.0	11636244.699999997
14250.0	15457065.499999996
14260.0	11786707.749999996
14270.0	16665844.249999994
14280.0	13660964.249999998
14290.0	10229364.749999998
14300.0	17566887.499999993
14310.0	16141649.499999996
14320.0	15677237.499999994
14330.0	16883687.499999996
14340.0	12018122.999999998
14350.0	17426381.499999996
14360.0	17533244.999999996
14370.0	16797032.499999993
14380.0	15379385.999999994
14390.0	14783535.749999994
14400.0	14723284.749999994
14410.0	16896749.999999996
14420.0	15773127.499999994
14430.0	19278959.999999996
14440.0	17950322.49999999
14450.0	14211354.999999996
14460.0	16678887.499999996
14470.0	17688214.999999996
14480.0	18784262.5
14490.0	19495412.499999996
14500.0	16792236.25
14510.0	12543472.249999998
14520.0	20610297.499999996
14530.0	20384214.999999996
14540.0	18716072.499999993
14550.0	18467338.499999996
14560.0	17524244.999999993
14570.0	17327309.999999996
14580.0	21425014.999999993
14590.0	21519967.499999993
14600.0	21574514.999999996
14610.0	21351177.499999996
14620.0	18604767.5
14630.0	16243447.499999994
14640.0	21503004.999999996
14650.0	19646507.499999993
14660.0	20075507.499999996
14670.0	21316092.499999996
14680.0	19625974.999999996
14690.0	18659569.999999996
14700.0	20409254.999999993
14710.0	21105784.999999993
14720.0	22036747.499999996
14730.0	20868512.499999996
14740.0	20583472.499999993
14750.0	20588669.999999996
14760.0	20238767.499999993
14770.0	21669067.499999996
14780.0	22393499.999999993
14790.0	21863009.999999993
14800.0	20882887.5
14810.0	22678462.499999996
14820.0	20903369.999999996
