# Flux units: erg / (cm m2 s)
# Wavelength units: Angstrom
wave	flux
7000.0	98160294999.99997
7010.0	100995819999.99997
7020.0	103644974999.99997
7030.0	106454799999.99997
7040.0	109345624999.99997
7050.0	112252599999.99998
7060.0	115285849999.99997
7070.0	118214849999.99995
7080.0	121432249999.99997
7090.0	124493949999.99995
7100.0	127647599999.99997
7110.0	131228749999.99997
7120.0	134710149999.99997
7130.0	138083624999.99997
7140.0	141492975000.0
7150.0	145418624999.99997
7160.0	148835424999.99997
7170.0	150946599999.99994
7180.0	156026449999.99994
7190.0	160650749999.99997
7200.0	164912599999.99994
7210.0	168927699999.99997
7220.0	173178724999.99997
7230.0	177637499999.99994
7240.0	181842474999.99997
7250.0	186972324999.99997
7260.0	191317274999.99997
7270.0	196214349999.99994
7280.0	200815649999.99997
7290.0	206026049999.99997
7300.0	210639974999.99997
7310.0	215352349999.99994
7320.0	221293124999.99994
7330.0	227314349999.99997
7340.0	232379324999.99994
7350.0	237044974999.99997
7360.0	243679349999.99994
7370.0	248810399999.99994
7380.0	255811074999.99994
7390.0	262207399999.9999
7400.0	268470624999.99994
7410.0	274029124999.99997
7420.0	280946899999.99994
7430.0	288018824999.9999
7440.0	294493049999.9999
7450.0	301425424999.9999
7460.0	308897849999.99994
7470.0	316103650000.0
7480.0	323202024999.9999
7490.0	331107799999.99994
7500.0	338941624999.99994
7510.0	346573524999.99994
7520.0	354541949999.99994
7530.0	362665174999.9999
7540.0	370871649999.99994
7550.0	379277374999.99994
7560.0	387761274999.9999
7570.0	396261324999.9999
7580.0	404705399999.9998
7590.0	413278724999.99994
7600.0	421584924999.9999
7610.0	429554624999.99994
7620.0	436592874999.9999
7630.0	441673199999.9999
7640.0	441426249999.99994
7650.0	425399299999.9998
7660.0	357305749999.99994
7670.0	317316974999.99994
7680.0	425100074999.9998
7690.0	439456524999.99994
7700.0	341755149999.99994
7710.0	451522549999.9999
7720.0	519922824999.99994
7730.0	548039874999.9998
7740.0	566714649999.9999
7750.0	582570300000.0
7760.0	597260374999.9999
7770.0	611466724999.9998
7780.0	625550249999.9999
7790.0	639032399999.9998
7800.0	610115824999.9998
7810.0	665018974999.9999
7820.0	682377199999.9998
7830.0	697254424999.9999
7840.0	712276424999.9999
7850.0	727459474999.9999
7860.0	742729399999.9999
7870.0	758067299999.9998
7880.0	773677824999.9998
7890.0	789652149999.9998
7900.0	805649749999.9998
7910.0	823269599999.9999
7920.0	840432149999.9999
7930.0	857393299999.9998
7940.0	874134424999.9999
7950.0	824662524999.9998
7960.0	910167199999.9999
7970.0	929411074999.9998
7980.0	947656575000.0
7990.0	967201624999.9999
8000.0	986090399999.9999
8010.0	1006382249999.9999
8020.0	1026527999999.9999
8030.0	1046327499999.9996
8040.0	1068125749999.9996
8050.0	1088886999999.9996
8060.0	1110522250000.0
8070.0	1131883999999.9995
8080.0	1154933999999.9995
8090.0	1175864249999.9995
8100.0	1197235999999.9998
8110.0	1209864749999.9998
8120.0	1240541999999.9998
8130.0	1269464249999.9998
8140.0	1283398249999.9998
8150.0	1302610249999.9998
8160.0	1343533749999.9998
8170.0	1370383999999.9998
8180.0	1380907499999.9995
8190.0	1421054999999.9998
8200.0	1446608499999.9998
8210.0	1477975999999.9995
8220.0	1506326999999.9995
8230.0	1504610749999.9995
8240.0	1551131749999.9998
8250.0	1592005999999.9998
8260.0	1619829249999.9995
8270.0	1640618249999.9995
8280.0	1682613749999.9998
8290.0	1709425999999.9995
8300.0	1743220499999.9998
8310.0	1768750999999.9995
8320.0	1804120999999.9995
8330.0	1841493249999.9998
8340.0	1875928750000.0
8350.0	1911091999999.9995
8360.0	1942614249999.9993
8370.0	1979097999999.9993
8380.0	2013737499999.9995
8390.0	2047899499999.9993
8400.0	2082744499999.9995
8410.0	2126206749999.9995
8420.0	2165487499999.9998
8430.0	2202391749999.9995
8440.0	2240552749999.9995
8450.0	2278973250000.0
8460.0	2317808999999.9995
8470.0	2352661249999.999
8480.0	2402449249999.9995
8490.0	2442214249999.9995
8500.0	2489433749999.9995
8510.0	2532929499999.9995
8520.0	2575137749999.9995
8530.0	2620941249999.9995
8540.0	2663162249999.9995
8550.0	2711987999999.9995
8560.0	2758456249999.999
8570.0	2805708249999.999
8580.0	2853665499999.9995
8590.0	2901187249999.999
8600.0	2950940749999.9995
8610.0	2998915499999.999
8620.0	3039490999999.999
8630.0	3085500999999.999
8640.0	3138648999999.999
8650.0	3192222249999.999
8660.0	3255541749999.9995
8670.0	3311561999999.999
8680.0	3364550249999.999
8690.0	3422501249999.999
8700.0	3472990999999.9995
8710.0	3531897249999.999
8720.0	3589440999999.999
8730.0	3653449749999.999
8740.0	3705870249999.9985
8750.0	3772773249999.9995
8760.0	3835144999999.999
8770.0	3892962749999.9985
8780.0	3961686749999.9985
8790.0	4021909999999.999
8800.0	4089494499999.999
8810.0	4151752999999.9985
8820.0	4217894249999.9985
8830.0	4288023499999.9985
8840.0	4347065499999.9985
8850.0	4424069999999.998
8860.0	4489017499999.999
8870.0	4566114749999.999
8880.0	4634296749999.999
8890.0	4706302499999.999
8900.0	4780187499999.999
8910.0	4807175499999.998
8920.0	4863579249999.999
8930.0	4952681999999.999
8940.0	5048791499999.999
8950.0	5150565999999.998
8960.0	5218752749999.999
8970.0	5039853249999.998
8980.0	5376290749999.999
8990.0	5195198999999.999
9000.0	5549858999999.999
9010.0	5516478999999.999
9020.0	5733367249999.998
9030.0	5812183999999.999
9040.0	5901487249999.998
9050.0	5982226499999.999
9060.0	6078674999999.998
9070.0	6168026749999.999
9080.0	6251960999999.998
9090.0	6330293749999.998
9100.0	6425005499999.998
9110.0	6518201999999.998
9120.0	6642467999999.997
9130.0	6735918499999.998
9140.0	6829031249999.998
9150.0	6874787249999.998
9160.0	6926500999999.997
9170.0	7072014749999.999
9180.0	7229416999999.998
9190.0	7280725249999.997
9200.0	7330459999999.998
9210.0	7476350499999.999
9220.0	7607446749999.997
9230.0	7779048499999.998
9240.0	7883410249999.998
9250.0	7928577249999.999
9260.0	7859153499999.998
9270.0	7986882749999.997
9280.0	7756981249999.998
9290.0	7317508499999.996
9300.0	8254355249999.998
9310.0	7386056499999.999
9320.0	8625675499999.998
9330.0	7981613249999.998
9340.0	7113476999999.999
9350.0	7124289249999.998
9360.0	7679506999999.999
9370.0	7247952249999.998
9380.0	9124247999999.996
9390.0	9429545499999.998
9400.0	9670868499999.998
9410.0	9780411249999.998
9420.0	9829161249999.998
9430.0	10144112500000.0
9440.0	10258857749999.996
9450.0	10294999249999.998
9460.0	10192437999999.998
9470.0	9003107499999.998
9480.0	10602514999999.998
9490.0	10762245249999.998
9500.0	8955603249999.998
9510.0	10932629999999.996
9520.0	10862346499999.996
9530.0	11090837999999.998
9540.0	11687739999999.996
9550.0	11646784749999.998
9560.0	10045791749999.998
9570.0	11991789999999.996
9580.0	12116279999999.996
9590.0	12383962499999.996
9600.0	11370523499999.996
9610.0	12802084999999.996
9620.0	11183469499999.998
9630.0	13129649999999.998
9640.0	12878114999999.996
9650.0	13045922499999.996
9660.0	13583489999999.994
9670.0	13484682499999.996
9680.0	14081302499999.994
9690.0	14160157499999.998
9700.0	14361604999999.998
9710.0	14513132499999.998
9720.0	14464192499999.998
9730.0	14651287499999.994
9740.0	14938532499999.996
9750.0	14863627499999.994
9760.0	15444902499999.994
9770.0	15647574999999.996
9780.0	15885662499999.996
9790.0	15890224999999.994
9800.0	15923724999999.992
9810.0	16480157499999.992
9820.0	16778854999999.996
9830.0	16929812499999.996
9840.0	17162309999999.994
9850.0	17272347499999.998
9860.0	17405879999999.996
9870.0	17785112500000.0
9880.0	17804814999999.996
9890.0	18093184999999.996
9900.0	18421589999999.992
9910.0	18759707499999.996
9920.0	18896114999999.996
9930.0	19127919999999.996
9940.0	19236892500000.0
9950.0	19677132499999.996
9960.0	19834385000000.0
9970.0	20141237499999.992
9980.0	20382377499999.996
9990.0	20575242499999.992
10000.0	20769929999999.992
10010.0	21018177499999.996
10020.0	21293697499999.996
10030.0	21523109999999.992
10040.0	21716187499999.996
10050.0	22044117499999.996
10060.0	22268707499999.992
10070.0	22533862499999.996
10080.0	22719764999999.996
10090.0	23010109999999.996
10100.0	23302379999999.99
10110.0	23538922499999.996
10120.0	23770720000000.0
10130.0	24064552499999.996
10140.0	24329729999999.996
10150.0	24599429999999.996
10160.0	24873224999999.992
10170.0	25144579999999.996
10180.0	25388767499999.992
10190.0	25690332499999.992
10200.0	25970174999999.996
10210.0	26250492499999.992
10220.0	26533174999999.992
10230.0	26816344999999.996
10240.0	27099739999999.992
10250.0	27381042499999.992
10260.0	27676272499999.992
10270.0	27979634999999.99
10280.0	28276112499999.992
10290.0	28572277499999.99
10300.0	28872019999999.992
10310.0	29166174999999.996
10320.0	29454622500000.0
10330.0	29776384999999.992
10340.0	30094504999999.996
10350.0	30402324999999.992
10360.0	30722719999999.984
10370.0	31041254999999.992
10380.0	31354132499999.996
10390.0	31673404999999.996
10400.0	32003282499999.99
10410.0	32328589999999.992
10420.0	32657435000000.0
10430.0	32984277499999.996
10440.0	33319184999999.996
10450.0	33653049999999.992
10460.0	33993564999999.99
10470.0	34335989999999.992
10480.0	34681639999999.992
10490.0	35024889999999.992
10500.0	35358189999999.984
10510.0	35727024999999.99
10520.0	36076282499999.99
10530.0	36428782499999.99
10540.0	36802897499999.984
10550.0	37162219999999.99
10560.0	37528557499999.99
10570.0	37901742499999.984
10580.0	38264772500000.0
10590.0	38621977499999.99
10600.0	38820675000000.0
10610.0	39389727500000.0
10620.0	39778847499999.984
10630.0	40281509999999.99
10640.0	40695059999999.984
10650.0	41065957499999.984
10660.0	41479097499999.99
10670.0	41723402499999.99
10680.0	42150814999999.99
10690.0	42655969999999.984
10700.0	42938947499999.984
10710.0	43435757499999.99
10720.0	43837187499999.984
10730.0	44296547499999.99
10740.0	44646214999999.984
10750.0	45112184999999.984
10760.0	45566842499999.99
10770.0	45906004999999.99
10780.0	46171642499999.99
10790.0	46817814999999.99
10800.0	47159467499999.984
10810.0	47690922499999.984
10820.0	48127307499999.99
10830.0	48587672499999.984
10840.0	49003239999999.98
10850.0	49458589999999.99
10860.0	49879749999999.99
10870.0	50115017499999.984
10880.0	50820264999999.99
10890.0	51261769999999.984
10900.0	51307524999999.984
10910.0	52020177499999.99
10920.0	52300004999999.984
10930.0	52493137499999.99
10940.0	52872669999999.99
10950.0	53688425000000.0
10960.0	53461819999999.99
10970.0	54095957500000.0
10980.0	53190474999999.99
10990.0	53730437499999.984
11000.0	55800184999999.984
11010.0	51839327499999.99
11020.0	55560799999999.98
11030.0	52752964999999.984
11040.0	56676137499999.99
11050.0	56867534999999.984
11060.0	56640852499999.98
11070.0	57008017499999.98
11080.0	57052337499999.984
11090.0	60454192499999.984
11100.0	59851507499999.99
11110.0	58354722499999.984
11120.0	61025962499999.98
11130.0	59150112499999.984
11140.0	61190202499999.984
11150.0	49508486499999.984
11160.0	55671782499999.98
11170.0	53161942499999.984
11180.0	62835597499999.98
11190.0	54785287499999.99
11200.0	43616423499999.984
11210.0	63705502999999.984
11220.0	54044338249999.984
11230.0	61678842249999.984
11240.0	53495222499999.984
11250.0	55851945249999.98
11260.0	60104495749999.984
11270.0	57718519999999.984
11280.0	68891859999999.98
11290.0	70341309999999.98
11300.0	68885844999999.984
11310.0	65299347499999.97
11320.0	72508319999999.98
11330.0	71396009999999.98
11340.0	66733187499999.984
11350.0	47815056999999.99
11360.0	68087007499999.984
11370.0	73596832499999.97
11380.0	73835039999999.98
11390.0	75534832499999.97
11400.0	77219819999999.98
11410.0	77020267499999.98
11420.0	70057859999999.984
11430.0	74316594999999.98
11440.0	68642789999999.99
11450.0	76968129999999.98
11460.0	76937239999999.98
11470.0	80642749999999.98
11480.0	66092452499999.98
11490.0	79894449999999.98
11500.0	56256659999999.984
11510.0	84555447499999.98
11520.0	83609249999999.98
11530.0	81817037499999.98
11540.0	78770699999999.98
11550.0	79421719999999.98
11560.0	84837299999999.98
11570.0	79566847499999.97
11580.0	80401299999999.97
11590.0	88335322499999.97
11600.0	77234857499999.98
11610.0	88291092499999.98
11620.0	91531422499999.98
11630.0	91655202499999.98
11640.0	70431544999999.98
11650.0	89609374999999.98
11660.0	83198964999999.97
11670.0	94978412499999.97
11680.0	95516807499999.97
11690.0	92722192499999.98
11700.0	87013204999999.98
11710.0	95426049999999.98
11720.0	99558687499999.97
11730.0	79038567499999.98
11740.0	94688069999999.98
11750.0	98326229999999.98
11760.0	101962942499999.98
11770.0	102741594999999.98
11780.0	99954212499999.97
11790.0	105194042499999.97
11800.0	102031669999999.98
11810.0	104390264999999.97
11820.0	100722409999999.97
11830.0	108404049999999.98
11840.0	108853024999999.97
11850.0	104403214999999.98
11860.0	108126644999999.98
11870.0	110249699999999.98
11880.0	111690774999999.97
11890.0	112315849999999.97
11900.0	112769924999999.95
11910.0	115172749999999.97
11920.0	115805274999999.98
11930.0	116923874999999.97
11940.0	116100849999999.97
11950.0	118564474999999.95
11960.0	119133350000000.0
11970.0	120105424999999.97
11980.0	117784924999999.97
11990.0	117509824999999.95
12000.0	123055449999999.97
12010.0	124043999999999.98
12020.0	123168574999999.95
12030.0	124859374999999.97
12040.0	124826074999999.95
12050.0	127578724999999.95
12060.0	128337399999999.97
12070.0	128959399999999.98
12080.0	130025749999999.95
12090.0	130528574999999.95
12100.0	131910474999999.95
12110.0	132725824999999.95
12120.0	132029649999999.97
12130.0	133885924999999.95
12140.0	133552699999999.98
12150.0	134611199999999.97
12160.0	137335674999999.97
12170.0	138341874999999.95
12180.0	139013149999999.98
12190.0	140475799999999.98
12200.0	140275099999999.97
12210.0	142070099999999.94
12220.0	142497875000000.0
12230.0	143595024999999.97
12240.0	144356900000000.0
12250.0	146033349999999.94
12260.0	146885549999999.97
12270.0	147987774999999.97
12280.0	148654299999999.97
12290.0	148282149999999.97
12300.0	150930949999999.97
12310.0	151103050000000.0
12320.0	152679449999999.97
12330.0	153349425000000.0
12340.0	155024874999999.97
12350.0	156153524999999.97
12360.0	156964399999999.97
12370.0	157627549999999.97
12380.0	159138849999999.94
12390.0	159919824999999.97
12400.0	161176774999999.94
12410.0	161957399999999.97
12420.0	163174250000000.0
12430.0	164267149999999.94
12440.0	165205949999999.94
12450.0	166409049999999.97
12460.0	167282424999999.97
12470.0	168326174999999.97
12480.0	169570849999999.97
12490.0	170384100000000.0
12500.0	171485449999999.94
12510.0	172664000000000.0
12520.0	173790224999999.94
12530.0	174904474999999.94
12540.0	174136024999999.94
12550.0	176818275000000.0
12560.0	177982524999999.94
12570.0	179236674999999.94
12580.0	180384999999999.97
12590.0	181322349999999.97
12600.0	182537249999999.97
12610.0	183738599999999.94
12620.0	184757199999999.94
12630.0	185866599999999.97
12640.0	186907025000000.0
12650.0	188018624999999.97
12660.0	189060674999999.97
12670.0	190141349999999.97
12680.0	191569574999999.94
12690.0	192841474999999.97
12700.0	193755649999999.97
12710.0	193991674999999.94
12720.0	194731624999999.94
12730.0	196759024999999.97
12740.0	197644149999999.97
12750.0	199698949999999.97
12760.0	199717599999999.97
12770.0	201918549999999.97
12780.0	203166199999999.97
12790.0	204268049999999.97
12800.0	204469874999999.94
12810.0	205934649999999.97
12820.0	207412074999999.97
12830.0	205721749999999.97
12840.0	209896449999999.9
12850.0	208002800000000.0
12860.0	212422999999999.94
12870.0	213307599999999.97
12880.0	214783599999999.94
12890.0	215530324999999.94
12900.0	216025724999999.97
12910.0	216518149999999.97
12920.0	216824074999999.94
12930.0	219065524999999.97
12940.0	221270450000000.0
12950.0	212573574999999.97
12960.0	215476749999999.94
12970.0	222403550000000.0
12980.0	227248824999999.94
12990.0	220851624999999.9
13000.0	229577949999999.97
13010.0	229762349999999.97
13020.0	231822274999999.94
13030.0	226018399999999.97
13040.0	232860224999999.94
13050.0	235844449999999.9
13060.0	237615974999999.97
13070.0	235871849999999.94
13080.0	239846174999999.94
13090.0	238306974999999.97
13100.0	241556999999999.97
13110.0	243838474999999.9
13120.0	241120674999999.97
13130.0	245015399999999.94
13140.0	241591349999999.94
13150.0	243567924999999.94
13160.0	245087649999999.97
13170.0	250930449999999.94
13180.0	252332474999999.97
13190.0	238833149999999.94
13200.0	253666249999999.94
13210.0	254895474999999.9
13220.0	257819724999999.88
13230.0	221471429999999.94
13240.0	255850299999999.94
13250.0	259790699999999.94
13260.0	257805449999999.88
13270.0	260258774999999.9
13280.0	260357124999999.94
13290.0	251840499999999.9
13300.0	265699899999999.9
13310.0	262112049999999.94
13320.0	235762475000000.0
13330.0	255890274999999.9
13340.0	261157999999999.94
13350.0	217035974999999.9
13360.0	233562427499999.97
13370.0	167137767499999.97
13380.0	172106274999999.97
13390.0	203600297499999.94
13400.0	224585792499999.97
13410.0	219783360000000.0
13420.0	168866974999999.97
13430.0	227662349999999.94
13440.0	194797668249999.9
13450.0	165675254749999.97
13460.0	247806337749999.94
13470.0	183324814249999.97
13480.0	170956364999999.97
13490.0	192584464999999.94
13500.0	185498210449999.97
13510.0	171985594349999.94
13520.0	111083643999999.98
13530.0	209775425000000.0
13540.0	131628729999999.95
13550.0	125788859059999.97
13560.0	196772172199999.94
13570.0	176280284999999.94
13580.0	166789387749999.97
13590.0	122421960849999.97
13600.0	220019099999999.97
13610.0	184855719999999.94
13620.0	110833060999999.97
13630.0	112978096999999.98
13640.0	209304448999999.97
13650.0	149269922499999.97
13660.0	193888417499999.97
13670.0	184676459999999.94
13680.0	141641248199999.97
13690.0	194083498399999.94
13700.0	167340766999999.97
13710.0	196953489999999.94
13720.0	218965684999999.97
13730.0	269570274999999.9
13740.0	123710561499999.97
13750.0	175956282499999.94
13760.0	207122709999999.97
13770.0	214479374999999.94
13780.0	280616749999999.97
13790.0	277598624999999.9
13800.0	295652384249999.9
13810.0	144077254749999.97
13820.0	281390317499999.9
13830.0	163390527499999.97
13840.0	266327279999999.97
13850.0	232099619999999.97
13860.0	190499235174999.94
13870.0	257539470024999.94
13880.0	209946634999999.9
13890.0	227630712000000.0
13900.0	257875010199999.97
13910.0	181449889999999.94
13920.0	227788724999999.97
13930.0	230856342999999.97
13940.0	243292254999999.94
13950.0	177056335779999.97
13960.0	182866601249999.94
13970.0	193279958749999.97
13980.0	242518384999999.94
13990.0	303535872499999.94
14000.0	179227562500000.0
14010.0	175133122499999.94
14020.0	280363427499999.88
14030.0	274100149999999.97
14040.0	151349686749999.94
14050.0	169678410949999.97
14060.0	285325247499999.94
14070.0	245164549999999.9
14080.0	170608587499999.97
14090.0	233441434999999.97
14100.0	224349107499999.94
14110.0	340795299999999.9
14120.0	205424549999999.97
14130.0	296503984999999.94
14140.0	269492122324999.9
14150.0	234533891274999.88
14160.0	210473594999999.94
14170.0	310877077749999.9
14180.0	138916734249999.98
14190.0	191200911999999.97
14200.0	214183781199999.97
14210.0	243964004999999.94
14220.0	214356454999999.97
14230.0	190357884999999.94
14240.0	191981357999999.97
14250.0	257148072249999.88
14260.0	157946189749999.94
14270.0	267313476999999.97
14280.0	189784249749999.97
14290.0	174632084749999.97
14300.0	315310767499999.94
14310.0	282411635999999.94
14320.0	292855774999999.94
14330.0	269742724999999.88
14340.0	219307357499999.94
14350.0	329851622499999.94
14360.0	283692225000000.0
14370.0	305178274999999.94
14380.0	238510677999999.97
14390.0	243726844999999.94
14400.0	253706559999999.97
14410.0	275204074999999.9
14420.0	243869974999999.94
14430.0	370492649999999.94
14440.0	330456777499999.94
14450.0	268378489999999.94
14460.0	248097847499999.94
14470.0	335431924999999.9
14480.0	336128299999999.94
14490.0	399103424999999.9
14500.0	319265436999999.94
14510.0	173536593999999.94
14520.0	405830874999999.94
14530.0	393954699999999.9
14540.0	324509324999999.94
14550.0	330270274999999.94
14560.0	326043339999999.94
14570.0	361805274999999.94
14580.0	443930349999999.9
14590.0	429593649999999.9
