# Flux units: erg / (cm m2 s)
# Wavelength units: Angstrom
wave	flux
7000.0	7769.692499999999
7010.0	7957.10075
7020.0	8075.893999999999
7030.0	8314.053
7040.0	8492.134499999998
7050.0	8672.830749999997
7060.0	8847.871249999998
7070.0	9023.002499999997
7080.0	9209.975999999999
7090.0	9391.663499999999
7100.0	9575.996
7110.0	9774.230999999998
7120.0	9969.773749999997
7130.0	10162.204999999998
7140.0	10360.6725
7150.0	10571.024999999996
7160.0	10761.299999999997
7170.0	10952.827499999996
7180.0	11194.189999999997
7190.0	11422.614999999996
7200.0	11644.7475
7210.0	11867.024999999998
7220.0	12094.659999999994
7230.0	12330.442499999996
7240.0	12565.509999999997
7250.0	12814.874999999998
7260.0	13055.622499999998
7270.0	13304.514999999998
7280.0	13549.777499999998
7290.0	13813.587499999998
7300.0	14066.069999999998
7310.0	14322.557499999997
7320.0	14600.804999999995
7330.0	14883.119999999997
7340.0	14927.969999999996
7350.0	14998.179999999997
7360.0	15439.819999999996
7370.0	15788.004999999997
7380.0	15952.324999999997
7390.0	16109.7575
7400.0	16499.429999999997
7410.0	16759.587499999994
7420.0	16751.919999999995
7430.0	17327.632499999992
7440.0	17698.997499999994
7450.0	17615.354999999996
7460.0	18154.612499999996
7470.0	18652.534999999996
7480.0	18962.107499999995
7490.0	19471.862499999996
7500.0	19937.022499999992
7510.0	20157.984999999997
7520.0	20555.772499999995
7530.0	21044.109999999997
7540.0	21436.574999999993
7550.0	21871.93499999999
7560.0	22312.979999999996
7570.0	22721.49499999999
7580.0	23065.989999999994
7590.0	23501.652499999993
7600.0	23914.592499999995
7610.0	24312.247499999998
7620.0	24689.882499999992
7630.0	25007.47249999999
7640.0	25179.267499999994
7650.0	24754.092499999995
7660.0	19706.607749999992
7670.0	14409.793249999999
7680.0	24707.559999999998
7690.0	25415.709999999995
7700.0	15934.61
7710.0	25628.09249999999
7720.0	28684.22749999999
7730.0	29593.187499999993
7740.0	30240.052499999994
7750.0	30820.972499999993
7760.0	31374.987499999996
7770.0	31921.687499999996
7780.0	32467.077499999992
7790.0	33002.1525
7800.0	31814.199999999993
7810.0	34060.2025
7820.0	34682.1075
7830.0	35253.929999999986
7840.0	35821.982499999984
7850.0	36401.48249999999
7860.0	36982.26999999999
7870.0	37470.60749999999
7880.0	38144.5825
7890.0	38783.232499999984
7900.0	39405.31749999999
7910.0	39922.289999999986
7920.0	40561.075
7930.0	41081.74749999999
7940.0	41705.69749999999
7950.0	39503.844999999994
7960.0	43092.22749999999
7970.0	43683.59249999999
7980.0	44429.06249999999
7990.0	45076.99749999999
8000.0	45707.35499999999
8010.0	46388.594999999994
8020.0	47138.76249999998
8030.0	48018.46000000001
8040.0	48800.054999999986
8050.0	49384.64499999998
8060.0	50202.01999999999
8070.0	51058.9275
8080.0	51886.03999999998
8090.0	52696.46249999999
8100.0	53503.924999999996
8110.0	54218.892499999994
8120.0	55125.54249999999
8130.0	56017.87999999999
8140.0	56804.52749999999
8150.0	57566.752499999995
8160.0	58593.47499999999
8170.0	59476.01999999999
8180.0	60201.007499999985
8190.0	61208.525
8200.0	62112.97249999999
8210.0	63045.87249999999
8220.0	63978.53999999998
8230.0	64678.57749999999
8240.0	65746.95249999998
8250.0	66804.25
8260.0	67749.43249999998
8270.0	68601.35499999998
8280.0	69736.36499999999
8290.0	70707.63499999998
8300.0	71743.37249999998
8310.0	72688.76749999999
8320.0	73760.10499999998
8330.0	74850.33999999998
8340.0	75909.49249999998
8350.0	76987.69
8360.0	78046.53499999999
8370.0	79142.84499999999
8380.0	80242.76249999997
8390.0	81344.44999999998
8400.0	82447.52249999999
8410.0	83665.93499999998
8420.0	84836.68249999998
8430.0	85980.73999999998
8440.0	87151.17249999997
8450.0	88335.43999999997
8460.0	89526.65499999997
8470.0	90683.5725
8480.0	92019.27249999999
8490.0	93248.27249999999
8500.0	94559.16749999997
8510.0	95843.17499999997
8520.0	97119.36499999998
8530.0	98090.89249999999
8540.0	99077.33249999997
8550.0	100699.27999999998
8560.0	102191.32499999997
8570.0	103615.07499999997
8580.0	104876.84999999998
8590.0	105751.77499999998
8600.0	107165.65
8610.0	108791.44999999997
8620.0	110346.17499999997
8630.0	111598.72499999996
8640.0	112747.775
8650.0	114294.04999999997
8660.0	116002.72499999996
8670.0	117435.07499999997
8680.0	118493.44999999998
8690.0	120458.69999999997
8700.0	121961.74999999996
8710.0	123783.37499999997
8720.0	125487.79999999997
8730.0	127245.17499999997
8740.0	128809.74999999999
8750.0	130346.42499999997
8760.0	132182.64999999997
8770.0	133879.37499999994
8780.0	135668.94999999995
8790.0	137437.69999999995
8800.0	139245.32499999998
8810.0	140963.92499999996
8820.0	142653.12499999997
8830.0	144490.05
8840.0	146119.09999999998
8850.0	148177.89999999997
8860.0	149970.37499999997
8870.0	151892.97499999998
8880.0	153739.57499999995
8890.0	155634.19999999995
8900.0	157528.82499999995
8910.0	159003.82499999998
8920.0	160724.07499999995
8930.0	162866.82499999995
8940.0	165036.87499999994
8950.0	167209.47499999995
8960.0	169181.19999999995
8970.0	169383.54999999996
8980.0	173231.29999999996
8990.0	173486.39999999994
9000.0	177433.09999999998
9010.0	178804.37499999997
9020.0	181788.34999999995
9030.0	183884.57499999995
9040.0	186029.89999999994
9050.0	188174.67499999996
9060.0	190431.79999999996
9070.0	192672.59999999995
9080.0	194845.82499999995
9090.0	197005.79999999996
9100.0	199325.05
9110.0	201742.65
9120.0	204170.47499999998
9130.0	206468.89999999997
9140.0	208809.59999999998
9150.0	210800.69999999995
9160.0	213061.52499999997
9170.0	215582.92499999993
9180.0	218446.82499999998
9190.0	220582.17499999996
9200.0	222739.97499999995
9210.0	225388.84999999995
9220.0	228270.4
9230.0	231170.29999999993
9240.0	233750.57499999995
9250.0	235751.29999999996
9260.0	237162.92499999993
9270.0	239487.09999999995
9280.0	239331.17499999993
9290.0	237441.84999999992
9300.0	247648.07499999998
9310.0	241469.84999999992
9320.0	254437.9749999999
9330.0	253269.9749999999
9340.0	248655.69999999995
9350.0	241709.12499999994
9360.0	254012.52499999994
9370.0	250309.27499999994
9380.0	269272.75
9390.0	273466.52499999997
9400.0	277002.42499999993
9410.0	280209.89999999997
9420.0	282590.25
9430.0	286776.62499999994
9440.0	290045.8499999999
9450.0	292752.27499999997
9460.0	294339.82499999995
9470.0	285501.5749999999
9480.0	301122.225
9490.0	304078.17499999993
9500.0	291969.67499999993
9510.0	310025.94999999995
9520.0	312425.4249999999
9530.0	315562.89999999997
9540.0	321461.425
9550.0	322707.3999999999
9560.0	311192.925
9570.0	330938.7249999999
9580.0	333918.67499999993
9590.0	338484.42499999993
9600.0	332360.67499999993
9610.0	345531.6249999999
9620.0	331946.32499999995
9630.0	352290.5249999999
9640.0	353672.82499999984
9650.0	356958.92499999993
9660.0	362740.225
9670.0	365596.3999999999
9680.0	370872.47499999986
9690.0	374213.77499999997
9700.0	378223.17499999993
9710.0	381471.1499999999
9720.0	384343.47499999986
9730.0	387747.6249999999
9740.0	391810.9999999999
9750.0	394987.55
9760.0	400858.37499999994
9770.0	405053.64999999997
9780.0	409340.44999999984
9790.0	412537.7499999998
9800.0	415654.8249999999
9810.0	421096.32499999995
9820.0	425776.975
9830.0	429851.0499999998
9840.0	433677.77499999985
9850.0	437483.1749999999
9860.0	440782.0999999999
9870.0	446491.1999999999
9880.0	448832.3749999998
9890.0	453873.29999999993
9900.0	459168.0249999999
9910.0	464367.7499999999
9920.0	468244.57499999984
9930.0	472695.29999999993
9940.0	475932.07499999995
9950.0	482069.2749999999
9960.0	486172.275
9970.0	491268.64999999985
9980.0	495743.0999999999
9990.0	500076.8999999998
10000.0	504085.2749999999
10010.0	508603.7249999999
10020.0	513454.6
10030.0	518109.19999999984
10040.0	522536.99999999994
10050.0	528012.0249999999
10060.0	532692.4249999999
10070.0	537562.8499999999
10080.0	542024.725
10090.0	547122.3499999999
10100.0	552381.4249999999
10110.0	557158.3999999999
10120.0	561946.4249999999
10130.0	567324.5999999999
10140.0	572376.1749999999
10150.0	577539.6249999998
10160.0	582698.5749999998
10170.0	587924.45
10180.0	592831.7249999999
10190.0	598317.35
10200.0	603617.0249999999
10210.0	608921.8499999999
10220.0	614276.4249999998
10230.0	619614.2749999998
10240.0	625077.8249999998
10250.0	630411.0499999999
10260.0	635948.0249999998
10270.0	641540.3249999998
10280.0	647081.6999999998
10290.0	652651.6249999998
10300.0	658292.6499999999
10310.0	663856.2499999999
10320.0	669409.1999999998
10330.0	675217.7499999999
10340.0	681081.3249999998
10350.0	686789.7999999998
10360.0	692657.8499999999
10370.0	698528.0749999998
10380.0	704431.7999999997
10390.0	710335.9499999998
10400.0	716302.5749999998
10410.0	722310.3999999999
10420.0	728352.0499999998
10430.0	734385.0749999998
10440.0	740489.4249999998
10450.0	746627.3499999997
10460.0	752733.2499999998
10470.0	758959.9499999998
10480.0	765070.4249999998
10490.0	771344.7999999997
10500.0	777026.6999999998
10510.0	783797.9249999998
10520.0	790366.4249999998
10530.0	796725.8499999999
10540.0	803421.8999999998
10550.0	809499.3499999999
10560.0	816274.0999999997
10570.0	822751.875
10580.0	829580.6749999997
10590.0	835730.45
10600.0	841630.0499999998
10610.0	849745.5749999996
10620.0	857484.8499999997
10630.0	865932.3499999997
10640.0	872993.6749999998
10650.0	879537.0999999999
10660.0	886841.7249999996
10670.0	893134.0999999999
10680.0	900287.5999999996
10690.0	907870.35
10700.0	914489.2249999997
10710.0	921990.1249999998
10720.0	929039.0999999999
10730.0	936696.05
10740.0	943460.6499999998
10750.0	951308.0499999997
10760.0	958596.9749999997
10770.0	965397.3499999997
10780.0	972145.5499999998
10790.0	980705.3499999999
10800.0	987862.1749999999
10810.0	995814.5499999998
10820.0	1003661.4749999996
10830.0	1010708.4999999995
10840.0	1018594.2499999998
10850.0	1026541.2499999999
10860.0	1033656.2499999997
10870.0	1040523.9999999998
10880.0	1049062.5
10890.0	1057674.0
10900.0	1063288.4999999998
10910.0	1072448.7499999995
10920.0	1079074.9999999998
10930.0	1085993.2499999998
10940.0	1093799.75
10950.0	1103067.9999999998
10960.0	1108304.7499999998
10970.0	1114705.4999999998
10980.0	1115681.9999999995
10990.0	1123778.9999999998
11000.0	1143230.9999999995
11010.0	1118231.6499999997
11020.0	1155287.7499999998
11030.0	1142973.75
11040.0	1173819.2499999998
11050.0	1177921.4999999995
11060.0	1188588.4999999995
11070.0	1195437.4999999998
11080.0	1204566.2499999998
11090.0	1222436.5
11100.0	1229925.4999999998
11110.0	1231708.7499999995
11120.0	1244667.2499999998
11130.0	1253103.9999999998
11140.0	1256966.4999999998
11150.0	1128451.2999999996
11160.0	1242074.9999999995
11170.0	1244021.9999999998
11180.0	1290955.2499999995
11190.0	1268049.7499999995
11200.0	1131745.8249999995
11210.0	1304864.8749999998
11220.0	1202709.5749999995
11230.0	1323251.7249999996
11240.0	1278736.4999999998
11250.0	1244306.5749999997
11260.0	1321334.4749999996
11270.0	1304346.7249999999
11280.0	1382168.6749999998
11290.0	1399460.2499999995
11300.0	1404728.9999999998
11310.0	1380129.0
11320.0	1428163.9999999998
11330.0	1438165.9999999995
11340.0	1436839.9999999998
11350.0	1258190.9499999997
11360.0	1429170.7499999998
11370.0	1470360.7499999998
11380.0	1470773.7499999998
11390.0	1488890.7499999995
11400.0	1506374.7499999995
11410.0	1508046.4999999995
11420.0	1479033.4999999998
11430.0	1515273.9999999998
11440.0	1481598.2499999998
11450.0	1541766.4999999995
11460.0	1542223.2499999995
11470.0	1570774.7499999995
11480.0	1482297.2499999995
11490.0	1581953.4999999995
11500.0	1428876.9999999995
11510.0	1623501.4999999998
11520.0	1634655.9999999995
11530.0	1641572.2499999995
11540.0	1629211.2499999995
11550.0	1628124.7499999995
11560.0	1671592.2499999995
11570.0	1648326.7499999995
11580.0	1663124.7499999995
11590.0	1708746.5
11600.0	1625052.2499999993
11610.0	1715567.7499999995
11620.0	1741614.9999999998
11630.0	1742725.7499999998
11640.0	1590445.2499999998
11650.0	1759176.7499999998
11660.0	1704488.4999999998
11670.0	1793516.4999999998
11680.0	1806454.2499999993
11690.0	1805363.4999999993
11700.0	1779554.2499999998
11710.0	1826916.9999999995
11720.0	1853582.4999999998
11730.0	1692889.25
11740.0	1852498.9999999998
11750.0	1872934.2499999995
11760.0	1895343.4999999995
11770.0	1907373.4999999993
11780.0	1899987.2499999998
11790.0	1932880.7499999995
11800.0	1929315.7499999995
11810.0	1944186.75
11820.0	1943415.2499999995
11830.0	1982221.4999999995
11840.0	1992746.2499999993
11850.0	1967726.75
11860.0	1996971.4999999995
11870.0	2019923.9999999998
11880.0	2039163.4999999995
11890.0	2053766.4999999998
11900.0	2064817.2499999998
11910.0	2081496.2499999995
11920.0	2091465.7499999998
11930.0	2106450.249999999
11940.0	2113505.9999999995
11950.0	2132063.9999999995
11960.0	2142276.4999999995
11970.0	2156009.2499999995
11980.0	2148066.4999999995
11990.0	2165321.749999999
12000.0	2194951.4999999995
12010.0	2209910.25
12020.0	2213537.2499999995
12030.0	2228966.9999999995
12040.0	2239893.75
12050.0	2261520.7499999995
12060.0	2274052.4999999995
12070.0	2283366.999999999
12080.0	2298404.75
12090.0	2311132.249999999
12100.0	2324617.0
12110.0	2338035.249999999
12120.0	2345595.249999999
12130.0	2362266.25
12140.0	2372382.2499999995
12150.0	2386875.25
12160.0	2406719.2499999995
12170.0	2420754.4999999995
12180.0	2431232.4999999995
12190.0	2447797.4999999995
12200.0	2454727.9999999995
12210.0	2474146.7499999995
12220.0	2485283.249999999
12230.0	2500494.4999999995
12240.0	2514210.999999999
12250.0	2531486.5
12260.0	2544491.999999999
12270.0	2557559.2499999995
12280.0	2571585.25
12290.0	2580983.4999999995
12300.0	2599862.7499999995
12310.0	2610520.9999999995
12320.0	2628610.249999999
12330.0	2641354.7499999995
12340.0	2658282.4999999995
12350.0	2674244.999999999
12360.0	2687816.9999999995
12370.0	2700076.7499999995
12380.0	2717850.9999999995
12390.0	2731653.7499999995
12400.0	2746315.2499999995
12410.0	2760581.9999999995
12420.0	2774760.2499999995
12430.0	2789815.75
12440.0	2806727.9999999995
12450.0	2819846.75
12460.0	2835308.749999999
12470.0	2849546.5
12480.0	2865667.4999999995
12490.0	2881216.5
12500.0	2894679.999999999
12510.0	2910889.9999999995
12520.0	2925498.9999999995
12530.0	2941546.999999999
12540.0	2947488.4999999986
12550.0	2971331.4999999995
12560.0	2986759.999999999
12570.0	3003317.9999999995
12580.0	3018565.999999999
12590.0	3033897.9999999986
12600.0	3048071.999999999
12610.0	3066196.999999999
12620.0	3081598.999999999
12630.0	3095999.9999999995
12640.0	3113335.7499999995
12650.0	3127522.75
12660.0	3144679.499999999
12670.0	3158276.249999999
12680.0	3175051.749999999
12690.0	3193200.249999999
12700.0	3208488.7499999995
12710.0	3220355.25
12720.0	3235211.999999999
12730.0	3255753.9999999995
12740.0	3270591.749999999
12750.0	3288521.999999999
12760.0	3300856.749999999
12770.0	3321813.249999999
12780.0	3338881.9999999986
12790.0	3354289.999999999
12800.0	3368414.4999999995
12810.0	3383766.7499999986
12820.0	3403892.7499999986
12830.0	3409228.7499999986
12840.0	3436971.749999999
12850.0	3438906.999999999
12860.0	3472164.7499999995
12870.0	3486389.749999999
12880.0	3505907.9999999986
12890.0	3520062.249999999
12900.0	3530649.749999999
12910.0	3545100.9999999995
12920.0	3561443.4999999995
12930.0	3585521.4999999995
12940.0	3601133.5
12950.0	3570268.499999999
12960.0	3598071.999999999
12970.0	3652832.9999999995
12980.0	3676209.25
12990.0	3650319.499999999
13000.0	3711722.5
13010.0	3729068.999999999
13020.0	3744129.25
13030.0	3739980.499999999
13040.0	3777260.999999999
13050.0	3798613.2499999995
13060.0	3819226.7499999995
13070.0	3826726.499999999
13080.0	3848586.4999999995
13090.0	3857469.9999999995
13100.0	3881306.9999999995
13110.0	3905039.2499999995
13120.0	3911832.75
13130.0	3933731.999999999
13140.0	3939313.9999999995
13150.0	3967595.999999999
13160.0	3970695.999999999
13170.0	4009143.499999999
13180.0	4028824.4999999986
13190.0	4005391.249999999
13200.0	4062936.7499999986
13210.0	4080384.249999998
13220.0	4103228.749999999
13230.0	3918514.2499999986
13240.0	4127364.7499999995
13250.0	4153607.499999999
13260.0	4148975.749999999
13270.0	4177417.2499999995
13280.0	4176620.2499999995
13290.0	4199486.999999998
13300.0	4250856.249999999
13310.0	4246513.749999999
13320.0	4205307.749999999
13330.0	4250196.249999998
13340.0	4282130.249999999
13350.0	3940747.2499999995
13360.0	4243298.749999999
13370.0	3587598.2499999986
13380.0	3982727.999999999
13390.0	3990551.499999999
13400.0	4340319.499999999
13410.0	4290495.249999999
13420.0	3663758.249999999
13430.0	4402276.749999999
13440.0	3768943.7499999995
13450.0	3210218.1999999993
13460.0	4404919.499999999
13470.0	3733784.25
13480.0	4192361.7499999986
13490.0	4193461.4999999986
13500.0	3761679.874999999
13510.0	4190785.3749999986
13520.0	2961929.2999999993
13530.0	4509573.249999999
13540.0	3555370.7499999986
13550.0	3181209.7599999993
13560.0	3843176.0499999984
13570.0	4263535.249999999
13580.0	3892177.7499999986
13590.0	2996301.7999999993
13600.0	4659874.499999999
13610.0	4655319.5
13620.0	3771124.0
13630.0	3351744.249999999
13640.0	3878629.75
13650.0	4271746.749999999
13660.0	4629546.999999999
13670.0	4385851.25
13680.0	4042872.6499999985
13690.0	3843429.2999999993
13700.0	4062118.499999999
13710.0	4595821.749999999
13720.0	4565751.75
13730.0	5040443.499999999
13740.0	3783095.749999999
13750.0	4246520.749999999
13760.0	4421827.999999999
13770.0	4786808.5
13780.0	5016253.249999999
13790.0	5126422.499999999
13800.0	5148420.5
13810.0	4344446.25
13820.0	5206493.999999999
13830.0	4365251.749999999
13840.0	4876482.499999998
13850.0	5040338.249999999
13860.0	4307631.85
13870.0	4854528.549999999
13880.0	4952102.499999999
13890.0	4096516.549999999
13900.0	4371104.6499999985
13910.0	4563209.749999999
13920.0	5285463.249999999
13930.0	4723622.499999999
13940.0	5152890.499999999
13950.0	3606408.049999999
13960.0	4757139.549999998
13970.0	4257233.099999999
13980.0	5157275.499999998
13990.0	5541449.249999998
14000.0	4668635.25
14010.0	5152960.249999999
14020.0	5356761.499999999
14030.0	5283120.749999999
14040.0	3983604.749999999
14050.0	4041186.799999999
14060.0	5479194.249999999
14070.0	5263982.749999998
14080.0	4612379.999999998
14090.0	5442881.249999998
14100.0	5272779.499999999
14110.0	5842184.499999998
14120.0	4678662.249999999
14130.0	5418843.749999999
14140.0	5701526.199999997
14150.0	4787124.3999999985
14160.0	4601034.749999998
14170.0	5743663.499999998
14180.0	3781428.499999999
14190.0	4728740.499999999
14200.0	4442499.399999999
14210.0	5132103.5
14220.0	5197031.999999999
14230.0	4826349.249999998
14240.0	4578081.099999999
14250.0	5297375.499999998
14260.0	4451507.249999998
14270.0	5515070.499999999
14280.0	4702383.5
14290.0	4558570.35
14300.0	5559208.499999998
14310.0	5114412.499999998
14320.0	6141633.749999999
14330.0	5631420.999999999
14340.0	5906159.249999999
14350.0	6122275.999999998
14360.0	5916393.249999998
14370.0	6180675.499999999
14380.0	5119892.249999999
14390.0	5193953.249999999
14400.0	5972423.499999998
14410.0	5813178.999999998
14420.0	5461759.999999999
14430.0	6425450.499999997
14440.0	6076975.749999998
14450.0	5665270.25
14460.0	6000123.499999998
14470.0	6422095.749999998
14480.0	6286597.749999998
14490.0	6646565.999999999
14500.0	6461484.499999998
14510.0	4874187.499999999
14520.0	6689471.499999999
14530.0	6581512.499999999
14540.0	6234869.499999999
14550.0	5870917.999999999
14560.0	5889622.5
14570.0	6638997.499999998
14580.0	6873186.249999998
14590.0	6762696.499999998
14600.0	6909440.999999998
14610.0	6894013.999999998
14620.0	6360632.499999999
14630.0	6166857.499999998
14640.0	7028847.749999998
14650.0	6349044.499999998
14660.0	6419359.249999998
14670.0	6819731.249999999
14680.0	6553581.999999998
14690.0	6427727.749999998
14700.0	7132378.249999998
14710.0	7039553.999999999
14720.0	7160459.749999998
14730.0	6584866.499999999
14740.0	6929053.749999997
14750.0	6921131.499999996
14760.0	6615832.749999999
14770.0	7232005.999999998
14780.0	7297086.499999998
14790.0	7072561.999999998
14800.0	7292776.499999998
14810.0	7447848.999999997
14820.0	7320172.999999998
14830.0	6630800.249999999
14840.0	7562817.499999997
14850.0	7409928.999999998
14860.0	7287025.749999998
14870.0	7559063.249999998
