# Flux units: erg / (cm m2 s)
# Wavelength units: Angstrom
wave	flux
7000.0	47540.01999999999
7010.0	48628.95499999999
7020.0	49313.28749999999
7030.0	50733.86999999999
7040.0	51804.367499999986
7050.0	52811.98749999999
7060.0	53897.95749999998
7070.0	54883.625
7080.0	55968.68999999999
7090.0	56969.71749999999
7100.0	57917.73999999999
7110.0	59197.367499999986
7120.0	60328.40249999998
7130.0	61378.29499999998
7140.0	62522.029999999984
7150.0	63756.09499999998
7160.0	64608.287499999984
7170.0	65612.72249999997
7180.0	67169.97499999999
7190.0	68539.065
7200.0	69588.53999999998
7210.0	71007.92249999999
7220.0	72258.34749999999
7230.0	73636.84
7240.0	74932.48499999997
7250.0	76387.34
7260.0	77671.84499999999
7270.0	79077.25499999999
7280.0	80338.17249999999
7290.0	81901.19749999997
7300.0	83204.87249999998
7310.0	84589.74499999997
7320.0	86159.96749999998
7330.0	87759.77999999998
7340.0	88312.59999999999
7350.0	89138.27249999999
7360.0	91257.73499999999
7370.0	92895.62499999999
7380.0	94167.66249999998
7390.0	95358.54999999997
7400.0	96962.35249999996
7410.0	98499.19999999998
7420.0	99092.56999999999
7430.0	101653.87499999999
7440.0	103365.04999999997
7450.0	103589.57499999998
7460.0	105977.19999999998
7470.0	108145.37499999997
7480.0	109580.825
7490.0	111803.07499999998
7500.0	113780.37499999997
7510.0	114801.22499999995
7520.0	116384.3
7530.0	118177.32499999997
7540.0	119447.29999999997
7550.0	120726.99999999999
7560.0	121722.64999999995
7570.0	122220.07499999997
7580.0	121959.19999999997
7590.0	121208.29999999996
7600.0	119149.94999999998
7610.0	115108.07499999998
7620.0	107860.82499999998
7630.0	95178.3425
7640.0	73669.49749999998
7650.0	42257.07249999998
7660.0	15570.979999999998
7670.0	10604.344499999997
7680.0	26735.889999999992
7690.0	29286.527499999997
7700.0	11433.874499999996
7710.0	30512.647499999995
7720.0	75833.94999999998
7730.0	109846.71749999997
7740.0	130654.87499999997
7750.0	144372.525
7760.0	154168.82499999995
7770.0	161701.27499999997
7780.0	167644.32499999995
7790.0	171011.84999999998
7800.0	115940.66999999997
7810.0	171651.26499999998
7820.0	185939.94999999995
7830.0	190743.525
7840.0	194774.72499999995
7850.0	198656.92499999993
7860.0	202351.67499999993
7870.0	205609.72499999995
7880.0	209376.97499999995
7890.0	213025.40000000002
7900.0	216501.94999999995
7910.0	219815.72499999998
7920.0	223170.57499999995
7930.0	225840.49999999997
7940.0	226410.89999999997
7950.0	163619.38999999998
7960.0	234171.64999999997
7970.0	240130.17499999996
7980.0	244250.99999999994
7990.0	248041.29999999993
8000.0	251555.54999999996
8010.0	255271.97499999995
8020.0	259216.27499999994
8030.0	263526.7999999999
8040.0	267612.92499999993
8050.0	270865.69999999995
8060.0	275064.725
8070.0	279303.27499999997
8080.0	283602.17499999993
8090.0	287581.0249999999
8100.0	291573.2749999999
8110.0	294547.04999999993
8120.0	299567.9999999999
8130.0	304558.17499999993
8140.0	307715.82499999995
8150.0	311437.39999999997
8160.0	317626.0749999999
8170.0	322226.54999999993
8180.0	325199.6499999999
8190.0	330967.3999999999
8200.0	335330.19999999995
8210.0	340340.425
8220.0	345097.17499999993
8230.0	346252.29999999993
8240.0	353072.3499999999
8250.0	359237.4749999999
8260.0	363891.0999999999
8270.0	367484.6499999999
8280.0	373920.2999999999
8290.0	378402.975
8300.0	383673.8499999999
8310.0	388091.3249999999
8320.0	393680.9999999999
8330.0	399273.67499999993
8340.0	404613.8749999998
8350.0	410051.44999999995
8360.0	415014.47499999986
8370.0	420568.39999999985
8380.0	425856.54999999993
8390.0	431169.4749999999
8400.0	436373.04999999993
8410.0	442785.9999999999
8420.0	448694.3249999999
8430.0	454206.5
8440.0	459896.74999999994
8450.0	465530.85
8460.0	471221.7499999999
8470.0	476470.2999999999
8480.0	483568.69999999984
8490.0	489320.3749999999
8500.0	495933.37499999994
8510.0	502346.1999999999
8520.0	508411.7499999999
8530.0	513453.05
8540.0	518180.4999999998
8550.0	525979.1499999999
8560.0	533148.8999999998
8570.0	539930.3999999999
8580.0	546074.35
8590.0	550616.3999999999
8600.0	557237.3249999998
8610.0	564107.525
8620.0	567062.2999999999
8630.0	571077.6499999999
8640.0	577483.2999999999
8650.0	585199.95
8660.0	596650.2
8670.0	604479.325
8680.0	609371.5
8690.0	619148.6249999999
8700.0	623899.8999999999
8710.0	632471.9999999998
8720.0	640712.3249999998
8730.0	650888.4999999999
8740.0	656178.0499999999
8750.0	665549.3999999999
8760.0	674585.5749999998
8770.0	680615.2499999998
8780.0	691225.8249999998
8790.0	698094.0249999999
8800.0	707524.4249999998
8810.0	715307.6999999997
8820.0	722583.8249999998
8830.0	732231.5999999999
8840.0	737323.8499999997
8850.0	748963.2749999998
8860.0	756684.3749999999
8870.0	767060.5249999998
8880.0	775496.0249999997
8890.0	783496.8499999999
8900.0	792584.8499999999
8910.0	795060.2499999999
8920.0	803663.2249999999
8930.0	814114.6749999998
8940.0	824707.8499999999
8950.0	835708.9249999999
8960.0	845226.3999999998
8970.0	833961.5749999998
8980.0	863858.4749999999
8990.0	854366.3499999997
9000.0	882537.3499999997
9010.0	885308.2
9020.0	903854.8749999997
9030.0	912834.2249999997
9040.0	922821.9749999996
9050.0	931918.1499999998
9060.0	942820.5749999997
9070.0	952486.0999999997
9080.0	961946.5999999999
9090.0	971209.35
9100.0	982052.2499999997
9110.0	991971.7499999995
9120.0	1004530.5749999998
9130.0	1014497.4999999998
9140.0	1024368.0
9150.0	1031054.4999999997
9160.0	1039150.4999999999
9170.0	1052396.75
9180.0	1068084.4999999998
9190.0	1074837.9999999998
9200.0	1082285.2499999998
9210.0	1095557.9999999998
9220.0	1109125.25
9230.0	1125128.4999999995
9240.0	1135542.7499999998
9250.0	1140496.4999999998
9260.0	1137620.7499999998
9270.0	1146761.9999999998
9280.0	1118022.4999999998
9290.0	1088307.8499999999
9300.0	1177718.0
9310.0	1111720.3999999997
9320.0	1214765.0
9330.0	1178009.1249999998
9340.0	1109800.1249999998
9350.0	1089349.2999999998
9360.0	1165721.9
9370.0	1121274.95
9380.0	1271562.8499999996
9390.0	1294842.7499999998
9400.0	1316464.7499999998
9410.0	1329961.2499999998
9420.0	1336900.4999999995
9430.0	1361786.7499999998
9440.0	1374292.9999999995
9450.0	1379826.9999999998
9460.0	1381709.7499999998
9470.0	1295955.65
9480.0	1414557.4999999995
9490.0	1427402.7499999998
9500.0	1307988.2499999995
9510.0	1442582.7499999995
9520.0	1445702.4999999998
9530.0	1468094.9999999995
9540.0	1507676.9999999995
9550.0	1507400.9999999995
9560.0	1390850.7499999998
9570.0	1543554.4999999998
9580.0	1553694.2499999995
9590.0	1574449.2499999998
9600.0	1502110.9999999998
9610.0	1609059.9999999998
9620.0	1484810.0999999996
9630.0	1638644.4999999995
9640.0	1627383.9999999995
9650.0	1637113.9999999995
9660.0	1681127.7499999998
9670.0	1675828.9999999995
9680.0	1719013.9999999995
9690.0	1729292.25
9700.0	1744386.4999999995
9710.0	1759273.2499999995
9720.0	1765011.2499999995
9730.0	1772689.75
9740.0	1796317.2499999995
9750.0	1806986.7499999998
9760.0	1838871.2499999995
9770.0	1857762.7499999993
9780.0	1874638.7499999995
9790.0	1878368.2499999998
9800.0	1892772.4999999995
9810.0	1926374.7499999995
9820.0	1947958.4999999995
9830.0	1962936.75
9840.0	1978015.9999999995
9850.0	1990621.9999999998
9860.0	2001207.4999999995
9870.0	2031826.75
9880.0	2030700.2499999998
9890.0	2056640.9999999995
9900.0	2083311.7499999995
9910.0	2109372.499999999
9920.0	2122785.499999999
9930.0	2140677.4999999995
9940.0	2147885.9999999995
9950.0	2183123.499999999
9960.0	2195651.9999999995
9970.0	2220372.2499999995
9980.0	2239762.75
9990.0	2252176.999999999
10000.0	2265828.0
10010.0	2286536.2499999995
10020.0	2307821.499999999
10030.0	2324884.4999999995
10040.0	2341959.7499999995
10050.0	2370289.9999999995
10060.0	2385619.9999999995
10070.0	2407701.9999999995
10080.0	2421053.9999999995
10090.0	2442465.4999999995
10100.0	2467042.499999999
10110.0	2482990.749999999
10120.0	2502961.999999999
10130.0	2525815.25
10140.0	2545514.0
10150.0	2564491.9999999995
10160.0	2585985.499999999
10170.0	2607356.9999999995
10180.0	2624382.9999999995
10190.0	2649575.4999999995
10200.0	2669172.9999999995
10210.0	2689217.4999999995
10220.0	2710194.9999999995
10230.0	2730398.999999999
10240.0	2753918.5
10250.0	2772056.0
10260.0	2795125.9999999995
10270.0	2815956.75
10280.0	2839073.249999999
10290.0	2860231.9999999995
10300.0	2881383.9999999995
10310.0	2902695.9999999995
10320.0	2922984.9999999995
10330.0	2946972.999999999
10340.0	2969111.499999999
10350.0	2990889.4999999995
10360.0	3015618.9999999995
10370.0	3036693.999999999
10380.0	3057741.9999999995
10390.0	3080537.9999999995
10400.0	3104569.2499999995
10410.0	3128790.75
10420.0	3150657.999999999
10430.0	3172681.4999999995
10440.0	3197431.2499999995
10450.0	3221075.4999999995
10460.0	3243405.2499999995
10470.0	3267390.999999999
10480.0	3289855.499999999
10490.0	3313031.499999999
10500.0	3334272.999999999
10510.0	3358741.4999999995
10520.0	3384158.9999999986
10530.0	3410168.2499999995
10540.0	3434005.249999999
10550.0	3457813.249999999
10560.0	3481773.499999999
10570.0	3507525.4999999995
10580.0	3533259.2499999995
10590.0	3553045.9999999986
10600.0	3571712.9999999995
10610.0	3607043.2499999995
10620.0	3634556.9999999995
10630.0	3667134.749999999
10640.0	3694887.999999999
10650.0	3718785.999999999
10660.0	3744775.9999999995
10670.0	3762961.249999998
10680.0	3792296.499999999
10690.0	3820990.749999999
10700.0	3843955.499999999
10710.0	3872368.249999999
10720.0	3897865.749999999
10730.0	3928271.999999999
10740.0	3950031.9999999995
10750.0	3979483.999999998
10760.0	4008443.999999999
10770.0	4029039.999999998
10780.0	4049992.999999998
10790.0	4086961.2499999995
10800.0	4112935.7499999995
10810.0	4144059.25
10820.0	4170384.749999999
10830.0	4199531.999999999
10840.0	4222809.999999998
10850.0	4252078.0
10860.0	4276870.249999999
10870.0	4296400.5
10880.0	4335119.749999999
10890.0	4360645.999999999
10900.0	4365938.499999999
10910.0	4411144.999999999
10920.0	4426403.749999999
10930.0	4435457.999999999
10940.0	4463734.249999998
10950.0	4505932.499999999
10960.0	4495735.999999998
10970.0	4521370.499999999
10980.0	4472890.749999999
10990.0	4499213.249999998
11000.0	4633409.749999998
11010.0	4411318.749999999
11020.0	4624482.499999999
11030.0	4470834.999999998
11040.0	4694982.249999998
11050.0	4704505.749999998
11060.0	4698518.499999999
11070.0	4724456.999999998
11080.0	4730205.499999999
11090.0	4921002.999999999
11100.0	4881955.999999999
11110.0	4803747.999999999
11120.0	4959634.999999999
11130.0	4893545.499999998
11140.0	4946323.999999999
11150.0	4184892.249999999
11160.0	4776122.499999999
11170.0	4675730.249999998
11180.0	5070045.25
11190.0	4766151.5
11200.0	3978754.4999999995
11210.0	5108823.249999998
11220.0	4495210.249999999
11230.0	5069779.75
11240.0	4648458.999999999
11250.0	4635511.499999998
11260.0	5039367.499999999
11270.0	4927612.499999998
11280.0	5424593.999999999
11290.0	5488064.249999999
11300.0	5447005.999999999
11310.0	5223829.249999999
11320.0	5596212.999999998
11330.0	5569606.499999998
11340.0	5378370.499999999
11350.0	4274040.249999999
11360.0	5403128.75
11370.0	5661714.499999999
11380.0	5649135.499999998
11390.0	5744686.249999999
11400.0	5850982.999999999
11410.0	5819338.249999998
11420.0	5620870.999999999
11430.0	5752869.499999998
11440.0	5382427.249999998
11450.0	5871135.999999998
11460.0	5855159.999999998
11470.0	6057057.75
11480.0	5363156.749999999
11490.0	6051250.749999999
11500.0	4906453.249999999
11510.0	6254393.999999999
11520.0	6244126.249999999
11530.0	6181093.999999999
11540.0	6074995.999999999
11550.0	6069563.999999999
11560.0	6328098.999999999
11570.0	6110992.749999998
11580.0	6123726.749999999
11590.0	6488122.249999999
11600.0	5892814.249999998
11610.0	6469256.499999999
11620.0	6617690.499999998
11630.0	6629868.499999998
11640.0	5573521.749999998
11650.0	6564255.249999997
11660.0	6230177.499999999
11670.0	6798590.999999997
11680.0	6842161.499999999
11690.0	6698691.499999998
11700.0	6457092.499999999
11710.0	6834450.999999997
11720.0	7020115.499999997
11730.0	5941922.499999998
11740.0	6841591.999999998
11750.0	6963948.999999998
11760.0	7140653.499999997
11770.0	7168969.749999998
11780.0	6969001.249999998
11790.0	7284035.499999999
11800.0	7143101.999999997
11810.0	7250350.249999997
11820.0	7176413.499999997
11830.0	7461273.249999997
11840.0	7464759.249999997
11850.0	7237670.499999998
11860.0	7397770.749999999
11870.0	7498995.249999998
11880.0	7626661.749999999
11890.0	7624689.999999997
11900.0	7662771.75
11910.0	7782172.499999997
11920.0	7801503.249999998
11930.0	7883179.249999997
11940.0	7823436.249999997
11950.0	7940162.999999997
11960.0	7978700.749999997
11970.0	8029786.499999996
11980.0	7898137.499999999
11990.0	7952690.749999999
12000.0	8163489.249999999
12010.0	8213927.749999998
12020.0	8190706.749999997
12030.0	8251364.5
12040.0	8268623.999999999
12050.0	8385934.249999999
12060.0	8420268.499999998
12070.0	8426606.499999998
12080.0	8488930.75
12090.0	8520736.749999998
12100.0	8580333.5
12110.0	8627877.999999996
12120.0	8611283.749999998
12130.0	8667002.249999998
12140.0	8698623.999999996
12150.0	8738688.999999998
12160.0	8841039.749999996
12170.0	8884878.749999998
12180.0	8897241.499999998
12190.0	8973795.0
12200.0	8965204.249999998
12210.0	9050595.749999996
12220.0	9067813.999999998
12230.0	9121269.249999998
12240.0	9162826.749999998
12250.0	9234217.999999998
12260.0	9273133.5
12270.0	9315380.999999998
12280.0	9349247.499999996
12290.0	9354431.249999998
12300.0	9446085.749999998
12310.0	9456643.249999998
12320.0	9528575.499999998
12330.0	9564845.249999996
12340.0	9633304.499999998
12350.0	9686698.499999996
12360.0	9722469.249999998
12370.0	9746084.749999998
12380.0	9812973.999999998
12390.0	9850893.249999998
12400.0	9906628.749999996
12410.0	9940327.999999998
12420.0	9991377.499999998
12430.0	10035804.999999998
12440.0	10079759.999999996
12450.0	10133877.499999998
12460.0	10173029.999999998
12470.0	10217059.999999998
12480.0	10265997.499999996
12490.0	10303917.499999998
12500.0	10342515.0
12510.0	10395040.0
12520.0	10446619.999999998
12530.0	10495439.999999998
12540.0	10458472.499999998
12550.0	10581607.499999998
12560.0	10640864.999999996
12570.0	10681334.999999996
12580.0	10730019.999999998
12590.0	10770279.999999998
12600.0	10819344.999999998
12610.0	10873675.0
12620.0	10914419.999999996
12630.0	10959779.999999998
12640.0	11005299.999999998
12650.0	11051597.499999996
12660.0	11086002.499999998
12670.0	11125664.999999996
12680.0	11196999.999999996
12690.0	11255754.999999998
12700.0	11292192.499999996
12710.0	11309467.499999998
12720.0	11336767.499999998
12730.0	11415077.499999998
12740.0	11436177.499999998
12750.0	11533857.499999998
12760.0	11523592.499999998
12770.0	11619877.499999998
12780.0	11668809.999999998
12790.0	11711199.999999998
12800.0	11728774.999999996
12810.0	11778177.499999998
12820.0	11843487.499999998
12830.0	11776412.499999996
12840.0	11951647.499999996
12850.0	11877399.999999996
12860.0	12050399.999999996
12870.0	12078279.999999994
12880.0	12145099.999999998
12890.0	12174607.499999996
12900.0	12177207.499999996
12910.0	12191604.999999996
12920.0	12226839.999999994
12930.0	12340020.0
12940.0	12399207.499999998
12950.0	12110427.499999998
12960.0	12190002.499999998
12970.0	12478919.999999996
12980.0	12633602.499999998
12990.0	12355322.499999994
13000.0	12727019.999999996
13010.0	12741645.0
13020.0	12818944.999999996
13030.0	12659667.499999998
13040.0	12876899.999999998
13050.0	12972569.999999998
13060.0	13048199.999999998
13070.0	12992307.499999998
13080.0	13114587.499999996
13090.0	13086914.999999998
13100.0	13182259.999999998
13110.0	13287712.499999998
13120.0	13205657.5
13130.0	13318389.999999998
13140.0	13252239.999999998
13150.0	13306927.499999996
13160.0	13322764.999999998
13170.0	13532494.999999998
13180.0	13588412.499999994
13190.0	13277154.999999998
13200.0	13675202.499999998
13210.0	13721124.999999994
13220.0	13783439.999999994
13230.0	12637385.999999998
13240.0	13772567.499999998
13250.0	13855269.999999996
13260.0	13765257.499999996
13270.0	13853244.999999998
13280.0	13768207.499999996
13290.0	13753257.499999996
13300.0	14106052.499999996
13310.0	13972924.999999998
13320.0	12959634.999999998
13330.0	13593042.499999998
13340.0	13886426.999999994
13350.0	11151172.999999998
13360.0	12670441.499999996
13370.0	9379957.499999996
13380.0	10076697.999999996
13390.0	11180186.0
13400.0	12430186.499999998
13410.0	12330267.499999998
13420.0	9912583.999999998
13430.0	12680269.999999996
13440.0	10717065.749999996
13450.0	8938284.549999999
13460.0	13311586.299999997
13470.0	10065549.099999998
13480.0	10284144.499999998
13490.0	11055096.499999998
13500.0	10468613.869999997
13510.0	10820737.909999998
13520.0	6810345.449999997
13530.0	12612299.249999998
13540.0	8270831.5
13550.0	7860876.379999997
13560.0	10785486.2
13570.0	10673752.999999998
13580.0	9817592.249999996
13590.0	7413707.55
13600.0	12742499.999999996
13610.0	11690647.999999998
13620.0	7543996.499999998
13630.0	7583710.249999999
13640.0	11296694.799999999
13650.0	9781292.249999998
13660.0	11829413.499999998
13670.0	11238606.999999998
13680.0	9709715.237499997
13690.0	10859964.912499996
13700.0	10392275.749999998
13710.0	11690422.499999998
13720.0	12323467.999999998
13730.0	14610642.499999996
13740.0	8783341.999999998
13750.0	10754353.999999998
13760.0	11733409.499999996
13770.0	12890607.499999998
13780.0	14529417.499999996
13790.0	14856822.499999998
13800.0	15193390.499999996
13810.0	9604016.499999998
13820.0	14973773.249999994
13830.0	10249815.749999996
13840.0	14031893.499999996
13850.0	13579383.499999996
13860.0	11221994.074999997
13870.0	13736638.724999998
13880.0	12473893.75
13890.0	11865694.109999998
13900.0	12912047.199999996
13910.0	11063694.499999998
13920.0	13447505.249999998
13930.0	12203191.249999996
13940.0	13258008.5
13950.0	9547300.239999998
13960.0	11416703.899999999
13970.0	10987947.799999999
13980.0	13349587.499999996
13990.0	15394818.249999994
14000.0	10793719.749999998
14010.0	11458811.249999998
14020.0	14637278.249999994
14030.0	14205256.999999998
14040.0	8826414.499999998
14050.0	9751084.289999997
14060.0	15076925.75
14070.0	13567295.999999996
14080.0	9998078.749999998
14090.0	13420942.749999998
14100.0	12591139.999999998
14110.0	16628652.499999998
14120.0	11301320.749999996
14130.0	15148217.749999994
14140.0	14482594.124999996
14150.0	12653383.124999996
14160.0	11407642.749999998
14170.0	15628898.0
14180.0	7808605.999999998
14190.0	10662440.499999996
14200.0	11380275.299999997
14210.0	13077919.499999996
14220.0	11986478.999999998
14230.0	11000734.999999996
14240.0	10617634.299999999
14250.0	13064042.249999996
14260.0	8960734.499999998
14270.0	13881660.249999996
14280.0	11369607.674999997
14290.0	9556247.174999997
14300.0	15122442.749999994
14310.0	13693017.999999994
14320.0	15407852.499999994
14330.0	14313877.5
14340.0	12970348.999999996
14350.0	16398804.499999998
14360.0	14754422.499999998
14370.0	15313692.499999994
14380.0	12652775.999999996
14390.0	12652437.499999996
14400.0	13780197.499999996
14410.0	14259898.499999998
14420.0	12821056.999999996
14430.0	17739859.999999996
14440.0	15955292.999999993
14450.0	13646689.999999996
14460.0	14389520.5
14470.0	16112292.499999996
14480.0	16450507.499999994
14490.0	18196917.5
14500.0	16074589.249999998
14510.0	9634359.749999998
14520.0	18662239.999999996
14530.0	18095432.499999996
14540.0	15694284.999999994
14550.0	15495808.999999996
14560.0	15461127.999999996
14570.0	16633004.999999994
14580.0	19808372.499999996
14590.0	19133632.499999993
14600.0	19784027.499999993
14610.0	19593042.499999996
14620.0	16170762.749999996
14630.0	13208924.249999998
14640.0	19814389.999999996
14650.0	16389685.999999994
14660.0	16525729.999999994
14670.0	18785689.999999996
14680.0	16698155.499999996
14690.0	15709540.999999994
14700.0	19393957.499999993
14710.0	19264749.999999993
14720.0	20316514.249999996
14730.0	17325159.75
14740.0	17893482.5
14750.0	17907872.499999996
14760.0	17040659.999999993
14770.0	19839967.499999996
14780.0	20278359.999999996
14790.0	18893444.999999996
14800.0	19250997.499999993
14810.0	21036777.499999993
14820.0	19073932.499999996
14830.0	17337557.999999996
