# Flux units: erg / (cm m2 s)
# Wavelength units: Angstrom
wave	flux
7000.0	211801.72499999995
7010.0	215876.59999999995
7020.0	217247.99999999997
7030.0	225206.19999999995
7040.0	230076.62499999997
7050.0	234664.64999999994
7060.0	238884.64999999997
7070.0	242608.92499999993
7080.0	246866.94999999998
7090.0	250598.07499999992
7100.0	253856.7499999999
7110.0	259075.34999999998
7120.0	263369.1499999999
7130.0	267104.25
7140.0	271727.1999999999
7150.0	276265.79999999993
7160.0	280065.92499999993
7170.0	283887.725
7180.0	289204.12499999994
7190.0	293920.74999999994
7200.0	297414.07499999995
7210.0	302973.49999999994
7220.0	307676.3
7230.0	312663.17499999993
7240.0	317332.725
7250.0	322327.14999999997
7260.0	326916.27499999985
7270.0	331892.1249999999
7280.0	336610.32499999995
7290.0	341781.29999999993
7300.0	346424.6499999999
7310.0	351491.4999999999
7320.0	356652.94999999995
7330.0	361750.2249999999
7340.0	361917.0249999999
7350.0	364179.57499999995
7360.0	371750.2749999999
7370.0	378138.3999999999
7380.0	380762.8249999999
7390.0	383201.6499999999
7400.0	387328.9999999999
7410.0	393190.69999999984
7420.0	392428.0249999999
7430.0	401459.1249999999
7440.0	406742.7749999999
7450.0	403921.55
7460.0	411190.17499999993
7470.0	417954.125
7480.0	420873.225
7490.0	426681.8499999999
7500.0	431178.19999999995
7510.0	430824.85
7520.0	432756.29999999993
7530.0	434718.0999999999
7540.0	433172.825
7550.0	430937.24999999994
7560.0	426124.82499999995
7570.0	417493.0999999999
7580.0	403513.42499999993
7590.0	384987.02499999997
7600.0	358320.7499999999
7610.0	321226.375
7620.0	271092.54999999993
7630.0	206319.4
7640.0	131180.88249999998
7650.0	61715.11249999999
7660.0	19666.05825
7670.0	12559.505749999997
7680.0	35749.99749999999
7690.0	39497.612499999996
7700.0	13588.052499999996
7710.0	41688.30749999999
7720.0	127765.80999999997
7730.0	231104.84999999992
7740.0	321934.32499999995
7750.0	394834.5999999999
7760.0	452379.6499999999
7770.0	497910.3249999999
7780.0	532881.9249999998
7790.0	546870.0749999998
7800.0	295246.70999999996
7810.0	533349.0499999998
7820.0	632361.1249999999
7830.0	660154.5499999998
7840.0	680749.5249999998
7850.0	699047.35
7860.0	715583.2749999999
7870.0	729821.1749999998
7880.0	745427.325
7890.0	759824.2249999999
7900.0	773035.1249999999
7910.0	785972.9249999998
7920.0	796862.85
7930.0	803223.7499999998
7940.0	785495.2
7950.0	457546.18
7960.0	815544.6499999998
7970.0	853983.0999999999
7980.0	870879.8999999997
7990.0	884661.85
8000.0	898713.9249999998
8010.0	910173.8499999997
8020.0	923360.3999999998
8030.0	938407.4499999998
8040.0	951711.0999999999
8050.0	961972.9249999998
8060.0	975745.8999999999
8070.0	990417.8749999998
8080.0	1004135.0749999997
8090.0	1018011.4999999998
8100.0	1030933.7499999998
8110.0	1043107.7499999999
8120.0	1057021.9999999998
8130.0	1071402.5
8140.0	1082441.5
8150.0	1097072.4999999998
8160.0	1112888.9999999998
8170.0	1126620.2499999995
8180.0	1140386.2499999995
8190.0	1155390.4999999998
8200.0	1168501.7499999995
8210.0	1183048.7499999998
8220.0	1197848.9999999998
8230.0	1205128.2499999995
8240.0	1225129.5
8250.0	1241658.75
8260.0	1255820.9999999995
8270.0	1269056.4999999998
8280.0	1285294.9999999995
8290.0	1298984.7499999995
8300.0	1314628.7499999998
8310.0	1329921.9999999998
8320.0	1345867.7499999998
8330.0	1360744.9999999995
8340.0	1377216.9999999998
8350.0	1393086.2499999998
8360.0	1408164.9999999998
8370.0	1425452.9999999998
8380.0	1440881.2499999998
8390.0	1457400.7499999995
8400.0	1472403.2499999998
8410.0	1489972.7499999998
8420.0	1506701.2499999995
8430.0	1524062.9999999998
8440.0	1540909.7499999993
8450.0	1558038.0
8460.0	1574718.9999999995
8470.0	1590945.2499999998
8480.0	1610656.9999999995
8490.0	1625556.9999999998
8500.0	1643626.9999999998
8510.0	1663422.9999999998
8520.0	1680354.9999999995
8530.0	1692002.2499999998
8540.0	1704525.2499999995
8550.0	1726649.4999999998
8560.0	1749755.7499999995
8570.0	1768694.7499999998
8580.0	1785571.7499999993
8590.0	1794027.5
8600.0	1812080.9999999995
8610.0	1826742.7499999998
8620.0	1832226.2499999995
8630.0	1843266.7499999995
8640.0	1863084.7499999998
8650.0	1890620.9999999995
8660.0	1918349.4999999995
8670.0	1938331.2499999998
8680.0	1950870.2499999995
8690.0	1979163.2499999995
8700.0	1996666.9999999995
8710.0	2019537.7499999998
8720.0	2044330.7499999995
8730.0	2069804.25
8740.0	2089434.7499999993
8750.0	2109009.249999999
8760.0	2136986.749999999
8770.0	2154655.749999999
8780.0	2183745.4999999995
8790.0	2203957.249999999
8800.0	2227672.249999999
8810.0	2250879.999999999
8820.0	2272100.5
8830.0	2296961.4999999995
8840.0	2320754.499999999
8850.0	2344113.499999999
8860.0	2368251.249999999
8870.0	2393321.0
8880.0	2417420.2499999995
8890.0	2439101.4999999995
8900.0	2461660.7499999995
8910.0	2480859.2499999995
8920.0	2502798.4999999995
8930.0	2527135.7499999995
8940.0	2551390.9999999995
8950.0	2580041.249999999
8960.0	2605119.499999999
8970.0	2606560.4999999995
8980.0	2655266.4999999995
8990.0	2662472.999999999
9000.0	2704127.9999999995
9010.0	2723203.4999999995
9020.0	2758053.9999999995
9030.0	2782285.499999999
9040.0	2809159.0
9050.0	2835328.0
9060.0	2861880.5
9070.0	2886536.5
9080.0	2912069.499999999
9090.0	2939013.499999999
9100.0	2966209.4999999986
9110.0	2986795.749999999
9120.0	3019969.7499999995
9130.0	3046496.999999999
9140.0	3072749.749999999
9150.0	3097810.2499999995
9160.0	3119144.999999999
9170.0	3152283.2499999986
9180.0	3181840.9999999995
9190.0	3206860.7499999995
9200.0	3231745.7499999995
9210.0	3267397.499999999
9220.0	3293103.4999999995
9230.0	3328325.999999999
9240.0	3354104.9999999995
9250.0	3376386.4999999995
9260.0	3385039.249999999
9270.0	3413386.749999999
9280.0	3354328.499999999
9290.0	3346543.4999999995
9300.0	3453280.4999999986
9310.0	3409316.2499999986
9320.0	3535178.499999999
9330.0	3503277.7499999986
9340.0	3445956.2499999995
9350.0	3480730.249999999
9360.0	3600666.2499999995
9370.0	3567430.7499999995
9380.0	3713691.7499999995
9390.0	3770594.749999999
9400.0	3818836.0
9410.0	3847715.999999999
9420.0	3877109.7499999995
9430.0	3914067.4999999986
9440.0	3931102.7499999995
9450.0	3956334.7499999986
9460.0	3974355.749999999
9470.0	3949859.2499999986
9480.0	4049685.249999998
9490.0	4093237.999999998
9500.0	4004386.25
9510.0	4140580.4999999986
9520.0	4160740.4999999995
9530.0	4221412.75
9540.0	4274697.999999999
9550.0	4289849.749999998
9560.0	4196244.0
9570.0	4356938.999999999
9580.0	4403316.75
9590.0	4411037.25
9600.0	4398572.999999999
9610.0	4506486.25
9620.0	4428593.249999998
9630.0	4592594.5
9640.0	4587939.249999999
9650.0	4630833.749999999
9660.0	4705760.249999999
9670.0	4682553.249999999
9680.0	4776703.999999998
9690.0	4807888.999999998
9700.0	4842720.499999999
9710.0	4891604.499999998
9720.0	4909214.499999999
9730.0	4925821.0
9740.0	4994935.749999998
9750.0	5016699.749999999
9760.0	5067643.999999999
9770.0	5122500.499999999
9780.0	5154751.249999999
9790.0	5165424.999999999
9800.0	5218425.249999999
9810.0	5283892.749999998
9820.0	5322045.749999998
9830.0	5360776.249999998
9840.0	5401657.749999999
9850.0	5428453.249999999
9860.0	5477131.999999999
9870.0	5523672.749999998
9880.0	5550476.749999999
9890.0	5603773.249999997
9900.0	5645162.999999999
9910.0	5700340.249999999
9920.0	5731290.249999999
9930.0	5775641.749999999
9940.0	5811015.499999998
9950.0	5870848.499999998
9960.0	5902722.499999999
9970.0	5946003.999999999
9980.0	5989299.999999999
9990.0	6025614.249999999
10000.0	6061789.749999998
10010.0	6101005.249999998
10020.0	6148948.249999998
10030.0	6188360.749999998
10040.0	6234505.999999999
10050.0	6283846.749999999
10060.0	6324134.499999999
10070.0	6373476.749999999
10080.0	6412117.999999998
10090.0	6462507.999999999
10100.0	6510301.999999999
10110.0	6549401.999999997
10120.0	6592132.999999999
10130.0	6640500.499999999
10140.0	6686532.499999999
10150.0	6732499.999999998
10160.0	6779941.249999998
10170.0	6823404.749999999
10180.0	6867531.0
10190.0	6918328.499999999
10200.0	6963070.999999997
10210.0	7008108.749999998
10220.0	7053431.749999998
10230.0	7099062.749999999
10240.0	7147868.249999999
10250.0	7194917.749999998
10260.0	7241038.749999998
10270.0	7290811.499999998
10280.0	7338397.999999999
10290.0	7385859.999999998
10300.0	7434053.249999997
10310.0	7484724.749999998
10320.0	7526641.999999998
10330.0	7578813.999999999
10340.0	7627833.999999997
10350.0	7677601.249999999
10360.0	7723262.999999998
10370.0	7776349.749999998
10380.0	7823504.0
10390.0	7874550.749999997
10400.0	7920921.249999998
10410.0	7972621.999999999
10420.0	8020946.999999998
10430.0	8072369.25
10440.0	8124109.749999999
10450.0	8170067.75
10460.0	8222449.249999999
10470.0	8275146.999999998
10480.0	8321962.499999998
10490.0	8374819.499999999
10500.0	8418326.0
10510.0	8472293.499999996
10520.0	8530530.499999996
10530.0	8578301.999999998
10540.0	8634274.499999998
10550.0	8681121.499999998
10560.0	8734252.249999998
10570.0	8785689.749999998
10580.0	8835392.0
10590.0	8887419.999999998
10600.0	8937697.999999996
10610.0	8999137.499999998
10620.0	9061517.499999996
10630.0	9124325.749999996
10640.0	9182819.249999998
10650.0	9234239.999999998
10660.0	9294492.499999998
10670.0	9340092.499999998
10680.0	9394023.749999998
10690.0	9453668.499999996
10700.0	9501687.999999998
10710.0	9562598.749999998
10720.0	9616143.999999998
10730.0	9673891.999999998
10740.0	9727481.999999998
10750.0	9785909.999999998
10760.0	9845224.499999998
10770.0	9894648.499999998
10780.0	9949487.999999996
10790.0	10013862.5
10800.0	10064704.999999998
10810.0	10129782.499999996
10820.0	10180654.999999998
10830.0	10238232.499999998
10840.0	10298567.499999998
10850.0	10352017.499999998
10860.0	10407602.499999996
10870.0	10457479.999999998
10880.0	10525087.499999996
10890.0	10577924.999999996
10900.0	10616367.499999998
10910.0	10680719.999999996
10920.0	10724479.999999998
10930.0	10762225.0
10940.0	10817675.0
10950.0	10879949.999999998
10960.0	10880294.999999998
10970.0	10975012.499999998
10980.0	10961442.499999998
10990.0	11012539.999999998
11000.0	11125707.499999998
11010.0	11000002.499999998
11020.0	11150824.999999998
11030.0	11107367.499999996
11040.0	11242149.999999998
11050.0	11328422.499999996
11060.0	11194932.499999996
11070.0	11350752.499999996
11080.0	11278119.999999998
11090.0	11602762.499999998
11100.0	11507307.499999996
11110.0	11285657.499999998
11120.0	11713909.999999998
11130.0	11532327.499999996
11140.0	11708579.999999998
11150.0	10879588.499999996
11160.0	11688454.999999998
11170.0	11538472.499999998
11180.0	11995182.499999998
11190.0	11693509.999999996
11200.0	10921869.249999998
11210.0	12148085.249999996
11220.0	11461071.249999998
11230.0	12004223.75
11240.0	11629777.999999996
11250.0	11770602.499999996
11260.0	12259204.999999996
11270.0	12353684.999999998
11280.0	12723195.0
11290.0	12814377.5
11300.0	12696452.499999998
11310.0	12701000.0
11320.0	12996059.999999996
11330.0	12823199.999999996
11340.0	12342363.249999996
11350.0	11501307.749999994
11360.0	12933827.499999998
11370.0	13191012.499999996
11380.0	13352822.499999996
11390.0	13445392.499999996
11400.0	13532152.499999998
11410.0	13575514.999999994
11420.0	13534342.499999996
11430.0	13553152.499999998
11440.0	13203242.499999998
11450.0	13715702.499999994
11460.0	13839877.499999998
11470.0	13909814.999999998
11480.0	13453862.499999996
11490.0	14091337.499999996
11500.0	12966747.499999998
11510.0	14261492.499999998
11520.0	14125719.999999998
11530.0	14023404.999999996
11540.0	14041364.999999998
11550.0	14255079.999999996
11560.0	14281924.999999998
11570.0	14370164.999999996
11580.0	14243134.999999996
11590.0	14589814.999999998
11600.0	14173279.999999998
11610.0	14708464.999999996
11620.0	14849862.499999996
11630.0	15137787.499999994
11640.0	14263922.499999996
11650.0	15037524.999999998
11660.0	14828602.499999994
11670.0	15328824.999999996
11680.0	15361827.499999998
11690.0	15156489.999999996
11700.0	15160454.999999996
11710.0	15578767.499999994
11720.0	15746077.499999996
11730.0	14959604.999999998
11740.0	15599869.999999996
11750.0	15770934.999999996
11760.0	15996332.499999996
11770.0	16046109.999999998
11780.0	15864197.499999996
11790.0	16292322.499999994
11800.0	16228087.499999996
11810.0	16397019.999999996
11820.0	16356359.999999994
11830.0	16613217.499999996
11840.0	16626734.999999993
11850.0	16601262.499999996
11860.0	16739824.999999996
11870.0	16829424.999999996
11880.0	16997212.499999996
11890.0	16981449.999999996
11900.0	17065409.999999993
11910.0	17222824.999999996
11920.0	17318169.999999993
11930.0	17439194.999999993
11940.0	17355687.499999996
11950.0	17540889.999999996
11960.0	17637074.999999996
11970.0	17730727.499999993
11980.0	17720364.999999993
11990.0	17753452.499999993
12000.0	17980455.0
12010.0	18069632.5
12020.0	18100047.499999993
12030.0	18177295.0
12040.0	18254794.999999996
12050.0	18382360.0
12060.0	18456579.999999996
12070.0	18470424.999999996
12080.0	18579162.499999993
12090.0	18646704.999999996
12100.0	18765107.499999996
12110.0	18837602.499999993
12120.0	18871242.499999996
12130.0	18949709.999999996
12140.0	19049262.499999996
12150.0	19112967.499999996
12160.0	19240887.5
12170.0	19309699.999999996
12180.0	19363167.499999996
12190.0	19480499.999999993
12200.0	19524314.999999996
12210.0	19635937.499999993
12220.0	19703814.999999996
12230.0	19770932.5
12240.0	19851819.999999996
12250.0	19934239.999999993
12260.0	20035539.999999996
12270.0	20092077.499999996
12280.0	20173242.499999993
12290.0	20238549.999999996
12300.0	20359904.999999996
12310.0	20420960.0
12320.0	20490442.499999996
12330.0	20580250.0
12340.0	20672844.999999993
12350.0	20767067.49999999
12360.0	20834157.499999993
12370.0	20923102.499999996
12380.0	21009972.499999993
12390.0	21086302.499999996
12400.0	21162904.999999996
12410.0	21222679.999999993
12420.0	21312029.999999996
12430.0	21396857.499999996
12440.0	21479592.499999993
12450.0	21577439.999999993
12460.0	21658329.999999996
12470.0	21745789.999999993
12480.0	21816022.5
12490.0	21907892.5
12500.0	21969765.0
12510.0	22069900.0
12520.0	22119447.5
12530.0	22193572.499999993
12540.0	22265202.499999996
12550.0	22375637.499999996
12560.0	22480159.999999996
12570.0	22552819.999999993
12580.0	22625599.999999996
12590.0	22701260.0
12600.0	22802095.0
12610.0	22887624.999999996
12620.0	22972082.499999993
12630.0	23055557.499999996
12640.0	23121977.499999993
12650.0	23227399.999999993
12660.0	23279602.499999996
12670.0	23368227.499999996
12680.0	23463907.499999996
12690.0	23570864.999999993
12700.0	23634722.499999996
12710.0	23694717.499999993
12720.0	23752032.499999996
12730.0	23861647.499999996
12740.0	23924980.0
12750.0	24063039.999999993
12760.0	24097787.499999996
12770.0	24200572.499999996
12780.0	24322039.999999996
12790.0	24357104.999999996
12800.0	24390767.499999993
12810.0	24503362.499999993
12820.0	24620804.999999993
12830.0	24578452.49999999
12840.0	24778587.499999996
12850.0	24797539.999999996
12860.0	24913120.0
12870.0	25036659.999999996
12880.0	25085664.999999996
12890.0	25172482.499999993
12900.0	25246619.999999993
12910.0	25296132.499999996
12920.0	25317879.999999996
12930.0	25467100.0
12940.0	25589174.999999996
12950.0	25492299.999999993
12960.0	25563044.999999996
12970.0	25709284.999999993
12980.0	25973235.0
12990.0	25897357.499999996
13000.0	26063249.999999996
13010.0	26075269.999999996
13020.0	26286102.499999993
13030.0	26171799.999999993
13040.0	26390829.999999996
13050.0	26555290.0
13060.0	26665577.49999999
13070.0	26540199.99999999
13080.0	26833392.499999993
13090.0	26855109.999999993
13100.0	26893779.999999996
13110.0	27078542.499999996
13120.0	27064739.999999996
13130.0	27186704.999999993
13140.0	27201189.999999993
13150.0	27049302.499999996
13160.0	27359767.499999993
13170.0	27532852.5
13180.0	27607454.999999993
13190.0	27399285.0
13200.0	27767079.999999993
13210.0	27875834.999999993
13220.0	27948082.499999993
13230.0	27296574.999999993
13240.0	27872707.499999996
13250.0	28028342.499999996
13260.0	28074074.999999993
13270.0	28090784.999999993
13280.0	28170337.49999999
13290.0	28069005.0
13300.0	28159739.999999996
13310.0	28122617.5
13320.0	25663042.499999996
13330.0	27481334.999999993
13340.0	27902619.999999993
13350.0	25477112.5
13360.0	25118114.999999993
13370.0	21452499.999999996
13380.0	21590232.499999996
13390.0	23136609.999999993
13400.0	22560857.499999993
13410.0	24189142.499999996
13420.0	20887061.499999993
13430.0	22617404.999999996
13440.0	22306649.25
13450.0	17300926.749999993
13460.0	24602259.999999996
13470.0	19023849.999999996
13480.0	16588408.249999996
13490.0	20983754.749999993
13500.0	18994422.224999994
13510.0	20099038.174999997
13520.0	14635055.499999998
13530.0	22660104.999999993
13540.0	18299487.499999996
13550.0	14324807.899999999
13560.0	20008723.999999996
13570.0	19073127.499999996
13580.0	19233194.749999996
13590.0	16562112.249999996
13600.0	22490374.999999993
13610.0	20120312.499999996
13620.0	14939796.499999996
13630.0	20309474.499999996
13640.0	22005788.249999993
13650.0	19273890.249999996
13660.0	24468489.999999996
13670.0	24288994.999999996
13680.0	20787213.999999996
13690.0	21933510.499999993
13700.0	22753274.999999993
13710.0	23228734.999999996
13720.0	25837444.999999996
13730.0	26553397.499999993
13740.0	21859639.999999993
13750.0	25535167.499999996
13760.0	26394237.499999993
13770.0	26088352.49999999
13780.0	28458122.49999999
13790.0	27566687.499999993
13800.0	28580554.99999999
13810.0	20502654.999999996
13820.0	26948017.499999996
13830.0	18987897.499999996
13840.0	28296474.999999993
13850.0	23571232.499999993
13860.0	21011048.5
13870.0	27834237.999999993
13880.0	22248052.499999993
13890.0	23696592.899999995
13900.0	24444546.49999999
13910.0	23772694.999999993
13920.0	23232309.999999996
13930.0	22730318.499999996
13940.0	25253534.999999993
13950.0	18095501.999999993
13960.0	21924608.249999996
13970.0	21914311.749999996
13980.0	25733814.999999996
13990.0	28188214.999999993
14000.0	22220179.999999993
14010.0	20382834.999999996
14020.0	28773002.499999993
14030.0	29035034.999999993
14040.0	22287744.999999993
14050.0	19468454.099999994
14060.0	30419894.999999993
14070.0	26290364.999999993
14080.0	24389829.999999996
14090.0	22664949.999999996
14100.0	25012212.499999996
14110.0	29415317.49999999
14120.0	22135327.499999996
14130.0	29582739.999999993
14140.0	22678426.249999993
14150.0	23895913.749999993
14160.0	27652622.499999993
14170.0	27931105.99999999
14180.0	20105506.999999996
14190.0	20102791.499999993
14200.0	22960821.999999993
14210.0	26472134.999999993
14220.0	26595999.999999996
14230.0	22508952.499999993
14240.0	20243253.999999996
14250.0	27621377.499999996
14260.0	21832457.499999993
14270.0	29439924.999999993
14280.0	24613243.499999993
14290.0	18123596.499999993
14300.0	31371624.99999999
14310.0	29031002.499999993
14320.0	27408619.999999996
14330.0	29679902.499999993
14340.0	20521277.499999996
14350.0	30300939.999999993
14360.0	31084432.499999996
14370.0	29541269.999999996
14380.0	27555724.999999996
14390.0	26164847.749999993
14400.0	25877825.74999999
14410.0	29631422.5
14420.0	28221054.999999985
14430.0	33571864.99999999
14440.0	31356479.999999996
14450.0	24519137.499999993
14460.0	29828292.49999999
14470.0	30793152.499999996
14480.0	32837062.49999999
14490.0	33885752.49999999
14500.0	29303097.5
14510.0	22840984.999999993
14520.0	36078209.999999985
14530.0	35541107.5
14540.0	32618789.999999993
14550.0	32607704.999999996
14560.0	30637744.999999996
14570.0	29622764.999999993
14580.0	37078692.499999985
14590.0	37514732.49999999
14600.0	37382819.99999999
14610.0	36882062.49999999
14620.0	32249434.999999993
14630.0	28511009.999999996
14640.0	37173427.49999999
14650.0	34684449.99999999
14660.0	35411137.49999999
14670.0	37196897.49999999
14680.0	34003074.99999999
14690.0	32327874.999999996
14700.0	35303859.999999985
14710.0	36453382.499999985
14720.0	38147732.49999999
14730.0	36978349.999999985
14740.0	35594222.49999999
14750.0	35486764.99999999
14760.0	35611869.99999999
14770.0	37367699.99999999
14780.0	38645864.99999999
14790.0	38226654.99999999
14800.0	36093812.49999999
14810.0	39075127.5
14820.0	35800504.99999999
