# Flux units: erg / (cm m2 s)
# Wavelength units: Angstrom
wave	flux
7000.0	81.88359999999999
7010.0	84.60230999999999
7020.0	87.02487999999998
7030.0	89.65617749999997
7040.0	92.39303249999999
7050.0	95.10858999999998
7060.0	97.95848499999997
7070.0	100.65278499999997
7080.0	103.74849999999999
7090.0	106.58904999999996
7100.0	109.53462499999996
7110.0	113.06575
7120.0	116.42224999999996
7130.0	119.59647499999997
7140.0	122.77967499999998
7150.0	126.67699999999999
7160.0	129.90922499999996
7170.0	131.53574999999995
7180.0	136.77377499999997
7190.0	141.46309999999997
7200.0	145.70837499999996
7210.0	149.490025
7220.0	153.64297499999995
7230.0	158.04129999999992
7240.0	162.11872499999998
7250.0	167.38917499999997
7260.0	171.72332499999996
7270.0	176.57767499999994
7280.0	180.87487499999995
7290.0	186.38142499999998
7300.0	190.90437499999993
7310.0	195.21237499999992
7320.0	201.64189999999996
7330.0	207.82654999999997
7340.0	212.85362499999994
7350.0	217.36462499999993
7360.0	224.44764999999992
7370.0	229.21009999999998
7380.0	236.81194999999994
7390.0	243.69522499999997
7400.0	250.1705749999999
7410.0	255.44527499999992
7420.0	263.0734499999999
7430.0	270.3440749999999
7440.0	277.00474999999994
7450.0	284.56457499999993
7460.0	292.38304999999997
7470.0	299.76899999999995
7480.0	307.27347499999996
7490.0	315.57109999999994
7500.0	323.85104999999993
7510.0	332.0936249999999
7520.0	340.5899749999999
7530.0	349.3083499999999
7540.0	358.25192499999986
7550.0	367.41512499999993
7560.0	376.7622499999999
7570.0	386.24884999999983
7580.0	395.9129999999999
7590.0	405.8909249999999
7600.0	416.02027499999986
7610.0	426.4093249999999
7620.0	436.9502499999999
7630.0	447.81269999999984
7640.0	458.86932499999995
7650.0	470.0823249999999
7660.0	481.54639999999995
7670.0	493.13209999999987
7680.0	505.51167499999985
7690.0	517.8284499999999
7700.0	530.0243749999998
7710.0	543.1393749999997
7720.0	556.2765999999999
7730.0	569.6798249999998
7740.0	583.2952749999998
7750.0	597.243025
7760.0	611.4108249999999
7770.0	625.9949499999998
7780.0	640.8007999999998
7790.0	655.8708499999999
7800.0	671.2865749999999
7810.0	687.1126749999999
7820.0	703.0934499999997
7830.0	719.5281249999997
7840.0	736.3307249999998
7850.0	753.3735999999998
7860.0	770.6459749999998
7870.0	788.1779249999998
7880.0	805.5849999999999
7890.0	823.5386749999997
7900.0	841.8704249999998
7910.0	862.7651499999997
7920.0	882.8099749999998
7930.0	902.4980249999999
7940.0	922.8610249999997
7950.0	943.7336250000001
7960.0	964.511925
7970.0	986.48825
7980.0	1007.1981249999998
7990.0	1030.5107499999997
8000.0	1052.238
8010.0	1076.6107499999996
8020.0	1100.3587499999999
8030.0	1122.6557499999997
8040.0	1149.6574999999996
8050.0	1174.2364999999998
8060.0	1200.1464999999996
8070.0	1225.7647499999996
8080.0	1253.2492499999998
8090.0	1277.9017499999998
8100.0	1303.4105
8110.0	1312.2717499999994
8120.0	1355.8429999999998
8130.0	1391.7759999999998
8140.0	1408.8484999999996
8150.0	1422.01075
8160.0	1482.2307499999997
8170.0	1515.0559999999996
8180.0	1511.6799999999996
8190.0	1572.0989999999995
8200.0	1606.4902499999996
8210.0	1645.0124999999998
8220.0	1680.128
8230.0	1675.4002499999995
8240.0	1732.6629999999998
8250.0	1786.0709999999992
8260.0	1819.1557499999997
8270.0	1839.4157499999992
8280.0	1899.4784999999997
8290.0	1934.2314999999994
8300.0	1976.1844999999994
8310.0	2002.2517499999994
8320.0	2047.4589999999994
8330.0	2099.2984999999994
8340.0	2141.7067499999994
8350.0	2186.0547499999993
8360.0	2226.3094999999994
8370.0	2270.5267499999995
8380.0	2316.2784999999994
8390.0	2356.7619999999997
8400.0	2402.4534999999996
8410.0	2460.48525
8420.0	2510.1097499999996
8430.0	2556.6914999999995
8440.0	2603.9727499999995
8450.0	2654.1807499999995
8460.0	2704.3252499999994
8470.0	2746.2629999999995
8480.0	2813.305749999999
8490.0	2866.398999999999
8500.0	2927.5705
8510.0	2983.9022499999996
8520.0	3038.1137499999995
8530.0	3099.534999999999
8540.0	3154.581999999999
8550.0	3218.854749999999
8560.0	3279.276999999999
8570.0	3340.9737499999997
8580.0	3405.1009999999987
8590.0	3468.356499999999
8600.0	3534.551749999999
8610.0	3599.557499999999
8620.0	3664.383749999998
8630.0	3733.069249999999
8640.0	3800.2784999999994
8650.0	3869.469999999999
8660.0	3945.910999999999
8670.0	4018.2717499999994
8680.0	4091.814249999999
8690.0	4167.433749999999
8700.0	4241.058249999999
8710.0	4319.823499999999
8720.0	4396.670249999999
8730.0	4477.819499999999
8740.0	4554.2959999999985
8750.0	4640.5689999999995
8760.0	4723.790999999998
8770.0	4807.968749999999
8780.0	4895.710249999998
8790.0	4982.143749999998
8800.0	5071.348749999998
8810.0	5155.782249999999
8820.0	5250.957999999999
8830.0	5344.235999999999
8840.0	5430.623249999999
8850.0	5533.290749999999
8860.0	5622.7609999999995
8870.0	5728.001749999999
8880.0	5821.433249999998
8890.0	5926.0062499999985
8900.0	6026.201999999999
8910.0	6051.361999999999
8920.0	6109.393249999999
8930.0	6243.8492499999975
8940.0	6395.856249999998
8950.0	6548.708999999999
8960.0	6639.290999999997
8970.0	6257.322249999999
8980.0	6849.151499999997
8990.0	6412.1675
9000.0	7106.437999999999
9010.0	6944.099749999998
9020.0	7370.660999999998
9030.0	7481.562999999998
9040.0	7604.160749999999
9050.0	7722.125499999998
9060.0	7854.650999999997
9070.0	7988.271249999998
9080.0	8110.884499999998
9090.0	8207.525499999998
9100.0	8335.918749999997
9110.0	8520.149
9120.0	8683.736249999998
9130.0	8815.615499999996
9140.0	8944.60225
9150.0	8970.411499999998
9160.0	9045.283749999999
9170.0	9271.661499999998
9180.0	9528.155249999998
9190.0	9573.327499999998
9200.0	9599.166999999998
9210.0	9831.851249999998
9220.0	10073.644499999999
9230.0	10337.864999999998
9240.0	10500.714999999997
9250.0	10539.429999999998
9260.0	10371.9515
9270.0	10570.428999999996
9280.0	10378.367999999999
9290.0	9562.490499999998
9300.0	11080.468499999999
9310.0	9594.191999999997
9320.0	11679.534999999998
9330.0	10542.250499999998
9340.0	9083.474499999997
9350.0	9209.882749999997
9360.0	9413.908749999997
9370.0	9136.630949999997
9380.0	12404.805349999999
9390.0	12752.684999999996
9400.0	13132.977499999997
9410.0	13274.792499999998
9420.0	13272.839999999997
9430.0	13903.072499999997
9440.0	14166.987499999996
9450.0	14282.607499999998
9460.0	13825.902499999998
9470.0	11276.0795
9480.0	14474.989999999998
9490.0	14741.307999999997
9500.0	11160.108499999997
9510.0	15129.945
9520.0	14932.6075
9530.0	15019.322499999995
9540.0	16277.302499999996
9550.0	16199.327249999997
9560.0	13523.47075
9570.0	16620.722499999996
9580.0	16806.43
9590.0	17490.309999999994
9600.0	15174.510999999999
9610.0	18081.694999999996
9620.0	14968.610499999999
9630.0	18466.4475
9640.0	17849.969999999998
9650.0	18310.292499999996
9660.0	19058.524999999994
9670.0	19144.55749999999
9680.0	20027.72749999999
9690.0	20107.6275
9700.0	20514.029999999995
9710.0	20614.12749999999
9720.0	20310.572499999995
9730.0	20877.407499999998
9740.0	21263.684999999994
9750.0	20789.672499999993
9760.0	22172.257499999992
9770.0	22506.732499999995
9780.0	22899.307499999995
9790.0	22941.832499999997
9800.0	22726.977499999997
9810.0	23736.9125
9820.0	24332.744999999988
9830.0	24603.512499999997
9840.0	24935.797499999997
9850.0	25064.437499999993
9860.0	25172.0925
9870.0	25964.242499999997
9880.0	25910.894999999993
9890.0	26381.672499999993
9900.0	26969.347499999993
9910.0	27552.647499999995
9920.0	27723.462499999994
9930.0	28115.797499999993
9940.0	28247.16
9950.0	29025.59999999999
9960.0	29291.724999999995
9970.0	29819.99749999999
9980.0	30192.972499999996
9990.0	30525.764999999992
10000.0	30847.012499999997
10010.0	31280.749999999993
10020.0	31749.329999999987
10030.0	32146.45999999999
10040.0	32438.169999999987
10050.0	33005.22749999999
10060.0	33396.39749999999
10070.0	33838.11499999999
10080.0	34130.12499999999
10090.0	34635.00499999999
10100.0	35138.06749999999
10110.0	35542.38249999999
10120.0	35924.52999999999
10130.0	36419.90249999999
10140.0	36878.50749999999
10150.0	37355.59749999999
10160.0	37814.27
10170.0	38286.2275
10180.0	38695.89999999999
10190.0	39212.32249999999
10200.0	39701.597499999996
10210.0	40184.20499999999
10220.0	40674.97999999999
10230.0	41169.71999999999
10240.0	41652.02749999999
10250.0	42141.02749999999
10260.0	42652.67249999999
10270.0	43190.18249999998
10280.0	43703.664999999986
10290.0	44220.91999999999
10300.0	44748.41249999999
10310.0	45264.717499999984
10320.0	45760.70999999999
10330.0	46333.969999999994
10340.0	46901.08749999999
10350.0	47446.56749999998
10360.0	48006.51749999999
10370.0	48566.84999999999
10380.0	49119.37249999999
10390.0	49686.4225
10400.0	50273.314999999995
10410.0	50844.64249999999
10420.0	51440.19749999999
10430.0	52026.854999999996
10440.0	52620.789999999986
10450.0	53220.95749999998
10460.0	53831.29999999999
10470.0	54446.52999999999
10480.0	55070.93499999998
10490.0	55687.40999999999
10500.0	56281.86499999998
10510.0	56958.04499999998
10520.0	57570.41749999999
10530.0	58214.78749999999
10540.0	58903.69749999998
10550.0	59561.38249999999
10560.0	60219.872499999976
10570.0	60900.36749999998
10580.0	61565.459999999985
10590.0	62220.02749999999
10600.0	62492.87249999999
10610.0	63625.159999999974
10620.0	64246.40249999998
10630.0	65162.07999999998
10640.0	65921.13999999998
10650.0	66595.16249999999
10660.0	67366.61249999997
10670.0	67731.26499999998
10680.0	68566.04749999999
10690.0	69549.84499999999
10700.0	69954.90749999999
10710.0	70998.70999999999
10720.0	71715.72499999998
10730.0	72606.40999999997
10740.0	73208.43499999998
10750.0	74158.37999999998
10760.0	74951.34
10770.0	75592.80999999997
10780.0	75857.04999999997
10790.0	77276.79999999999
10800.0	77882.4775
10810.0	78956.27749999998
10820.0	79788.34249999998
10830.0	80631.81999999999
10840.0	81426.01749999999
10850.0	82316.13499999998
10860.0	83113.58749999997
10870.0	83478.26999999997
10880.0	84892.69749999998
10890.0	85761.89499999997
10900.0	85776.83499999998
10910.0	87210.73999999999
10920.0	87698.34999999999
10930.0	88212.73
10940.0	88758.16499999998
10950.0	90413.92999999998
10960.0	90293.87749999999
10970.0	91196.47499999999
10980.0	89261.69499999998
10990.0	90450.96249999998
11000.0	94731.11749999998
11010.0	85522.59999999998
11020.0	94726.71499999997
11030.0	87996.64499999996
11040.0	96938.63249999999
11050.0	96595.27249999999
11060.0	98162.87499999997
11070.0	98441.78749999998
11080.0	99876.85999999999
11090.0	104156.15
11100.0	104805.05749999997
11110.0	103704.15249999998
11120.0	105728.77499999997
11130.0	105396.72999999998
11140.0	106821.06749999996
11150.0	84024.68399999998
11160.0	91841.38999999997
11170.0	88406.52749999998
11180.0	109679.72499999999
11190.0	91828.32999999997
11200.0	72787.23574999999
11210.0	110717.88724999996
11220.0	94743.88379999998
11230.0	111789.15839999997
11240.0	92296.01999999999
11250.0	95555.89524999999
11260.0	102024.69574999998
11270.0	95330.62374999997
11280.0	120972.22124999996
11290.0	124455.77499999997
11300.0	121515.42499999996
11310.0	112003.36999999997
11320.0	128520.57499999998
11330.0	128494.47499999998
11340.0	124365.87999999995
11350.0	81630.60099999998
11360.0	118170.09499999996
11370.0	130732.32499999997
11380.0	130706.72499999998
11390.0	134454.19999999995
11400.0	138543.075
11410.0	137419.22499999995
11420.0	118314.43499999998
11430.0	130474.69999999997
11440.0	121164.30499999995
11450.0	137437.54999999996
11460.0	135278.92499999996
11470.0	145740.03725
11480.0	113223.68574999998
11490.0	141832.37499999997
11500.0	95675.301
11510.0	153840.75
11520.0	155291.47499999995
11530.0	153754.72499999995
11540.0	140511.5
11550.0	141682.53
11560.0	157232.26499999996
11570.0	140435.45999999996
11580.0	145934.395
11590.0	164661.29999999993
11600.0	138853.53749999998
11610.0	162934.0875
11620.0	169861.55
11630.0	166400.22999999995
11640.0	120823.76499999998
11650.0	165119.59999999995
11660.0	147402.54499999995
11670.0	175372.72499999998
11680.0	175969.57499999995
11690.0	173049.84999999998
11700.0	157695.29499999995
11710.0	175657.94999999995
11720.0	184744.17499999996
11730.0	139894.54999999996
11740.0	172587.15
11750.0	182979.17499999996
11760.0	189347.62499999994
11770.0	191514.82499999995
11780.0	185076.29999999993
11790.0	196131.77499999997
11800.0	189846.44999999995
11810.0	193393.425
11820.0	179946.04999999996
11830.0	202975.67499999996
11840.0	204746.94999999998
11850.0	192305.54999999996
11860.0	201904.34999999998
11870.0	208033.29999999996
11880.0	209995.49999999997
11890.0	212944.0249999999
11900.0	214079.89999999994
11910.0	217877.59999999995
11920.0	219144.27499999997
11930.0	221234.87499999994
11940.0	220726.69999999995
11950.0	225281.32499999998
11960.0	226219.97499999998
11970.0	228150.57499999995
11980.0	221293.52499999997
11990.0	219122.29999999993
12000.0	234781.34999999995
12010.0	236750.59999999995
12020.0	233190.37499999994
12030.0	238720.44999999998
12040.0	237129.39999999997
12050.0	244407.44999999995
12060.0	246289.07499999998
12070.0	248019.77499999994
12080.0	249951.79999999993
12090.0	250917.09999999998
12100.0	254070.39999999997
12110.0	255840.59999999995
12120.0	252518.52499999994
12130.0	258314.44999999992
12140.0	255370.97499999998
12150.0	259767.14999999994
12160.0	265826.7749999999
12170.0	268759.99999999994
12180.0	270198.9499999999
12190.0	273246.3499999999
12200.0	272272.7749999999
12210.0	276805.8749999999
12220.0	277572.89999999997
12230.0	280854.74999999994
12240.0	281426.07499999995
12250.0	285545.7249999999
12260.0	287629.5749999999
12270.0	290341.0249999999
12280.0	291699.74999999994
12290.0	289679.32499999995
12300.0	296777.05
12310.0	296669.34999999986
12320.0	301052.625
12330.0	301955.5249999999
12340.0	306254.99999999994
12350.0	308801.67499999993
12360.0	310722.87499999994
12370.0	312223.675
12380.0	315773.8249999999
12390.0	317494.925
12400.0	320292.99999999994
12410.0	322263.5749999999
12420.0	325092.37499999994
12430.0	327360.5999999999
12440.0	330068.3749999999
12450.0	332555.17499999993
12460.0	334509.57499999984
12470.0	336998.7499999998
12480.0	339807.9499999999
12490.0	342081.74999999994
12500.0	344529.6
12510.0	347171.29999999993
12520.0	349853.3249999999
12530.0	352469.12499999994
12540.0	349481.1499999999
12550.0	357254.22499999986
12560.0	359674.975
12570.0	362526.7249999999
12580.0	365368.44999999995
12590.0	367693.52499999985
12600.0	370272.6999999999
12610.0	373289.54999999993
12620.0	375851.6249999999
12630.0	378526.32499999984
12640.0	380983.8749999999
12650.0	383642.1249999999
12660.0	386268.3499999999
12670.0	388869.2249999999
12680.0	391935.07499999995
12690.0	394960.4749999999
12700.0	397247.59999999986
12710.0	397498.39999999985
12720.0	399151.2249999999
12730.0	404805.62499999994
12740.0	407009.0499999999
12750.0	411564.9249999999
12760.0	412150.0749999999
12770.0	417225.3499999999
12780.0	419966.22499999986
12790.0	422886.12499999994
12800.0	423795.62499999994
12810.0	427164.4999999999
12820.0	431276.4499999999
12830.0	427376.77499999985
12840.0	437129.7499999999
12850.0	430561.75
12860.0	443519.9249999999
12870.0	445136.84999999986
12880.0	449345.8749999999
12890.0	450295.52499999997
12900.0	451756.52499999985
12910.0	453367.3749999999
12920.0	454283.42499999993
12930.0	459898.0999999999
12940.0	464550.14999999985
12950.0	435563.6249999998
12960.0	447046.3749999999
12970.0	470834.72499999986
12980.0	479375.3999999999
12990.0	461026.09999999986
13000.0	486305.7499999999
13010.0	487531.24999999994
13020.0	491224.8749999999
13030.0	476078.675
13040.0	494615.07499999995
13050.0	501161.95
13060.0	505526.47499999986
13070.0	501674.2499999998
13080.0	510543.5749999999
13090.0	505881.6499999999
13100.0	515989.77499999985
13110.0	520871.8749999999
13120.0	514186.725
13130.0	524903.1249999999
13140.0	514142.9749999999
13150.0	526125.15
13160.0	522978.92499999976
13170.0	540233.9999999998
13180.0	543421.7249999999
13190.0	504024.89999999985
13200.0	545923.2999999998
13210.0	549101.8999999998
13220.0	558226.9499999998
13230.0	458631.08999999997
13240.0	552368.2999999999
13250.0	564777.2249999999
13260.0	556491.8249999997
13270.0	567436.6499999999
13280.0	567451.6499999999
13290.0	547871.2499999999
13300.0	585081.1499999998
13310.0	571225.6249999999
13320.0	524693.5499999999
13330.0	571844.1749999999
13340.0	572749.4749999999
13350.0	484894.7999999999
13360.0	552835.5474999999
13370.0	399194.2174999999
13380.0	419275.6999999999
13390.0	473526.4749999999
13400.0	566297.8499999997
13410.0	528740.0525
13420.0	380328.1724999999
13430.0	572056.6999999998
13440.0	463837.7824999999
13450.0	387831.0934999999
13460.0	598679.9789999998
13470.0	475150.50299999985
13480.0	475833.08999999985
13490.0	486060.44499999983
13500.0	476607.3268749999
13510.0	435600.5681249999
13520.0	297993.5019999999
13530.0	538721.4249999999
13540.0	327693.75499999995
13550.0	333960.5805399999
13560.0	484918.5149999999
13570.0	488256.5299999999
13580.0	405921.6164999999
13590.0	321890.7347
13600.0	592120.9499999998
13610.0	537610.6249999998
13620.0	335594.74349999987
13630.0	233630.48049999995
13640.0	525862.9420999999
13650.0	428971.62249999994
13660.0	523964.62499999994
13670.0	450734.0249999999
13680.0	408784.96735
13690.0	439520.3374499999
13700.0	426243.95999999985
13710.0	493911.09999999986
13720.0	524835.3099999999
13730.0	702961.8749999999
13740.0	289302.2419999999
13750.0	382670.8649999999
13760.0	480139.12999999983
13770.0	514680.19999999984
13780.0	679851.6749999998
13790.0	722388.9999999999
13800.0	732114.8249999998
13810.0	381423.535
13820.0	739749.1499999999
13830.0	483552.7699999999
13840.0	632874.6749999998
13850.0	642466.2699999998
13860.0	488596.58877499984
13870.0	606708.9748249999
13880.0	556181.0249999998
13890.0	530072.5822
13900.0	632808.8849999999
13910.0	455264.5949999999
13920.0	663569.6499999998
13930.0	620521.1549999999
13940.0	653216.6749999997
13950.0	479571.99553999986
13960.0	455969.6728999999
13970.0	490604.23529999994
13980.0	586293.6999999998
13990.0	803584.6499999998
14000.0	470299.815
14010.0	564601.9699999999
14020.0	691860.7999999998
14030.0	669418.6749999998
14040.0	376972.1799999999
14050.0	433352.5768999999
14060.0	705667.4674999999
14070.0	613849.5499999998
14080.0	421671.57499999995
14090.0	689583.7749999999
14100.0	577044.8499999999
14110.0	891489.2749999998
14120.0	549691.9625
14130.0	720296.0525
14140.0	813345.2848749999
14150.0	612924.7966249998
14160.0	509313.62149999995
14170.0	804713.0524999998
14180.0	339889.17749999993
14190.0	556790.2199999997
14200.0	538961.7747999998
14210.0	633596.0749999998
14220.0	563027.1499999998
14230.0	558059.37
14240.0	470996.43399999983
14250.0	674700.7524999998
14260.0	459398.2574999999
14270.0	652321.1699999999
14280.0	415274.45324999985
14290.0	508511.36874999997
14300.0	780478.0949999997
14310.0	695698.9029999998
14320.0	839256.1999999997
14330.0	614165.3999999999
14340.0	688767.8749999999
14350.0	818209.4499999998
14360.0	702557.2499999998
14370.0	857516.5499999997
14380.0	577730.9749999999
14390.0	598506.945
14400.0	751093.8099999998
14410.0	674046.0999999997
14420.0	659790.8849999999
14430.0	926446.3249999998
14440.0	813964.6250000001
14450.0	738347.3099999997
14460.0	675100.9799999999
14470.0	931188.6749999997
14480.0	843304.5999999997
14490.0	1059491.4
14500.0	914542.2287499998
14510.0	491775.1512499998
14520.0	1044293.7999999996
14530.0	980212.1249999995
14540.0	786449.0999999997
14550.0	799850.5249999999
14560.0	823363.9099999998
14570.0	1008397.7999999999
14580.0	1108973.9999999998
14590.0	1063268.4999999998
14600.0	1102430.5999999999
14610.0	1085531.2499999998
14620.0	893075.2749999998
14630.0	620913.6999999998
14640.0	1141902.8749999998
14650.0	854843.1999999998
14660.0	784013.8749999999
14670.0	980987.6250000001
14680.0	923194.8999999999
14690.0	854943.35
14700.0	1118117.9999999998
14710.0	1064505.4999999995
14720.0	1137437.2774999996
14730.0	858322.2924999996
14740.0	1008417.7999999999
14750.0	993715.3999999998
14760.0	834428.6999999998
14770.0	1147859.0249999997
14780.0	1197453.0249999997
14790.0	1047797.3499999996
14800.0	1111210.7
14810.0	1216726.15
14820.0	1156837.0499999998
14830.0	864757.3499999999
