# Flux units: erg / (cm m2 s)
# Wavelength units: Angstrom
wave	flux
7000.0	35366.30499999999
7010.0	36100.482499999984
7020.0	36093.83999999999
7030.0	37742.5825
7040.0	38508.27
7050.0	39303.24249999999
7060.0	39836.99749999999
7070.0	40417.95249999999
7080.0	41161.884999999995
7090.0	41771.11249999999
7100.0	42414.13499999999
7110.0	43121.67749999999
7120.0	43843.2325
7130.0	44426.95499999999
7140.0	45103.01749999999
7150.0	45878.874999999985
7160.0	46503.6775
7170.0	47162.42749999998
7180.0	48066.15999999998
7190.0	48853.22499999999
7200.0	49621.92999999999
7210.0	50316.39249999999
7220.0	51155.36999999998
7230.0	51965.914999999986
7240.0	52750.29749999998
7250.0	53612.31749999999
7260.0	54400.145
7270.0	55221.297499999986
7280.0	56020.83499999999
7290.0	56914.362499999996
7300.0	57744.204999999994
7310.0	58568.23249999999
7320.0	59477.364999999976
7330.0	60397.17499999998
7340.0	58126.09
7350.0	55904.57999999997
7360.0	58696.912499999984
7370.0	60617.995
7380.0	59731.39749999998
7390.0	58547.25
7400.0	60395.68499999999
7410.0	60700.89249999999
7420.0	57899.41749999999
7430.0	61775.04999999999
7440.0	63346.44499999998
7450.0	59640.57999999998
7460.0	62748.79749999999
7470.0	65542.94749999998
7480.0	66171.29
7490.0	69224.96499999998
7500.0	71912.63999999998
7510.0	71073.66749999998
7520.0	72632.20499999999
7530.0	75550.91749999997
7540.0	76949.45749999999
7550.0	78915.80249999998
7560.0	81110.26499999998
7570.0	82718.63249999998
7580.0	83130.92499999997
7590.0	85087.95
7600.0	86707.41999999998
7610.0	88156.58999999998
7620.0	89400.27999999998
7630.0	90187.39249999997
7640.0	90161.71499999998
7650.0	86754.18749999999
7660.0	59671.57249999997
7670.0	34868.75749999999
7680.0	83298.64249999999
7690.0	86048.18
7700.0	39198.4075
7710.0	85060.51499999997
7720.0	100217.12249999997
7730.0	103920.79999999999
7740.0	106163.94999999997
7750.0	108009.72499999998
7760.0	109692.62499999996
7770.0	111293.37499999997
7780.0	112915.52499999998
7790.0	114419.59999999998
7800.0	107049.11999999998
7810.0	117347.07499999998
7820.0	119251.29999999999
7830.0	120876.22499999996
7840.0	122382.67499999997
7850.0	123953.59999999998
7860.0	125515.64999999997
7870.0	125933.09999999996
7880.0	128404.42499999999
7890.0	130445.275
7900.0	132218.69999999995
7910.0	132493.97499999998
7920.0	134226.82499999998
7930.0	134133.99999999997
7940.0	135721.625
7950.0	124777.49999999999
7960.0	140104.47499999995
7970.0	140717.69999999995
7980.0	143207.64999999997
7990.0	144511.05
8000.0	145762.14999999997
8010.0	147090.37499999997
8020.0	149271.74999999997
8030.0	152986.19999999995
8040.0	155314.42499999996
8050.0	155286.87499999997
8060.0	157947.37499999997
8070.0	161221.62499999994
8080.0	163685.74999999994
8090.0	166358.32499999992
8100.0	168855.475
8110.0	170927.54999999996
8120.0	173226.92499999993
8130.0	175844.92499999996
8140.0	178090.89999999997
8150.0	180160.52499999994
8160.0	182976.8
8170.0	185368.175
8180.0	187252.22499999998
8190.0	189832.02499999997
8200.0	192218.64999999997
8210.0	194605.57499999995
8220.0	197036.97499999995
8230.0	198787.09999999995
8240.0	201522.62499999994
8250.0	204224.69999999992
8260.0	206637.79999999996
8270.0	208750.09999999992
8280.0	211630.32499999995
8290.0	214082.09999999995
8300.0	216670.875
8310.0	219012.3
8320.0	221707.0249999999
8330.0	224434.84999999995
8340.0	227058.55
8350.0	229741.82499999995
8360.0	232333.74999999994
8370.0	235033.94999999992
8380.0	237731.67499999996
8390.0	240416.3749999999
8400.0	243117.6
8410.0	246130.2999999999
8420.0	248991.77499999994
8430.0	251766.2499999999
8440.0	254584.6499999999
8450.0	257428.12499999997
8460.0	260298.47499999998
8470.0	263065.99999999994
8480.0	266330.04999999993
8490.0	269277.42499999993
8500.0	272447.1999999999
8510.0	275524.37499999994
8520.0	278563.975
8530.0	278062.32499999995
8540.0	277741.8499999999
8550.0	283427.25
8560.0	288187.1749999999
8570.0	292120.44999999995
8580.0	294262.64999999997
8590.0	292127.37499999994
8600.0	294897.6499999999
8610.0	300312.5999999999
8620.0	305422.2249999999
8630.0	307003.7999999999
8640.0	307686.9749999999
8650.0	311902.3499999999
8660.0	316145.54999999993
8670.0	318740.29999999993
8680.0	318122.5749999999
8690.0	325550.725
8700.0	328856.5749999999
8710.0	334439.725
8720.0	339265.74999999994
8730.0	344528.37499999994
8740.0	348390.37499999994
8750.0	350375.17499999993
8760.0	356164.3999999999
8770.0	360205.3749999999
8780.0	365023.8749999999
8790.0	369913.99999999994
8800.0	374663.32499999995
8810.0	378678.8499999999
8820.0	381576.175
8830.0	386556.19999999995
8840.0	390305.7999999998
8850.0	395715.19999999984
8860.0	399857.29999999993
8870.0	404288.9749999999
8880.0	408704.52499999997
8890.0	412995.37499999994
8900.0	417296.24999999994
8910.0	420398.7999999999
8920.0	424253.59999999986
8930.0	429053.4249999998
8940.0	433950.0749999999
8950.0	438640.175
8960.0	443206.8999999999
8970.0	443836.24999999994
8980.0	452254.3499999998
8990.0	453030.5499999999
9000.0	461308.8499999999
9010.0	464616.64999999985
9020.0	471006.6249999999
9030.0	475443.8749999999
9040.0	480224.92499999993
9050.0	484881.02499999997
9060.0	489710.1749999999
9070.0	494626.1249999999
9080.0	499298.35
9090.0	503987.79999999993
9100.0	509060.0499999998
9110.0	514222.8999999998
9120.0	519501.8249999999
9130.0	524413.6
9140.0	529434.325
9150.0	533688.5999999999
9160.0	538589.0749999998
9170.0	543820.9499999998
9180.0	549964.825
9190.0	554526.1499999998
9200.0	559150.8249999998
9210.0	564590.5499999999
9220.0	570833.0749999998
9230.0	576934.9249999998
9240.0	582316.7749999999
9250.0	586344.6749999998
9260.0	589367.325
9270.0	593758.8250000001
9280.0	592137.5499999999
9290.0	588692.6749999998
9300.0	610997.7749999999
9310.0	599590.7749999999
9320.0	625494.9249999998
9330.0	623762.8249999998
9340.0	614216.95
9350.0	601410.6749999999
9360.0	626865.2
9370.0	619462.0249999999
9380.0	656677.8249999998
9390.0	664741.8999999998
9400.0	672088.3249999998
9410.0	678913.8499999997
9420.0	683833.0749999997
9430.0	692281.5499999999
9440.0	698990.3749999999
9450.0	704481.4249999998
9460.0	708251.3749999998
9470.0	691162.8
9480.0	721915.875
9490.0	727744.9499999998
9500.0	705655.1749999999
9510.0	739587.7499999999
9520.0	744536.1999999998
9530.0	751454.6249999998
9540.0	762668.0249999998
9550.0	765316.075
9560.0	743957.7499999999
9570.0	781768.7999999998
9580.0	787933.7499999999
9590.0	796842.8249999998
9600.0	784633.3999999997
9610.0	810634.2249999999
9620.0	783978.3749999998
9630.0	824325.7499999999
9640.0	827278.6249999997
9650.0	833353.85
9660.0	845251.1499999997
9670.0	850876.0999999996
9680.0	861051.3999999998
9690.0	867858.3999999998
9700.0	875699.3749999997
9710.0	882349.225
9720.0	888370.1249999998
9730.0	894468.5499999997
9740.0	902318.0499999998
9750.0	909741.625
9760.0	920297.0499999997
9770.0	928712.1499999998
9780.0	936967.1749999998
9790.0	943446.6249999998
9800.0	949879.4999999998
9810.0	959885.5999999997
9820.0	969090.8749999998
9830.0	977090.3249999998
9840.0	984230.0499999999
9850.0	991837.3999999999
9860.0	997826.5999999999
9870.0	1009257.9999999997
9880.0	1013242.8999999998
9890.0	1023013.9499999997
9900.0	1033418.9999999998
9910.0	1042503.4999999995
9920.0	1049610.2499999998
9930.0	1058647.7499999995
9940.0	1064946.9999999998
9950.0	1077153.2499999995
9960.0	1085063.9999999998
9970.0	1094969.9999999998
9980.0	1103510.4999999998
9990.0	1111289.4999999995
10000.0	1118990.4999999998
10010.0	1127720.7499999995
10020.0	1137108.4999999998
10030.0	1146040.4999999998
10040.0	1153986.4999999998
10050.0	1164666.4999999995
10060.0	1173212.7499999995
10070.0	1182028.2499999998
10080.0	1191244.7499999998
10090.0	1200539.0
10100.0	1210605.9999999998
10110.0	1219487.4999999998
10120.0	1229283.7499999998
10130.0	1239300.7499999998
10140.0	1249109.9999999995
10150.0	1257264.7499999995
10160.0	1267654.4999999995
10170.0	1276956.7499999998
10180.0	1286550.4999999995
10190.0	1297184.4999999995
10200.0	1307302.9999999998
10210.0	1316591.9999999993
10220.0	1326706.7499999998
10230.0	1336600.25
10240.0	1347024.9999999998
10250.0	1355815.9999999995
10260.0	1365841.9999999998
10270.0	1376657.7499999998
10280.0	1387322.2499999995
10290.0	1397659.9999999998
10300.0	1407995.9999999998
10310.0	1417756.0
10320.0	1427585.9999999998
10330.0	1438226.9999999995
10340.0	1450026.9999999995
10350.0	1460835.9999999995
10360.0	1471046.9999999995
10370.0	1481840.4999999998
10380.0	1492798.4999999995
10390.0	1503144.7499999995
10400.0	1514873.25
10410.0	1525462.0
10420.0	1536741.9999999995
10430.0	1546771.4999999998
10440.0	1558838.4999999998
10450.0	1569640.7499999993
10460.0	1580522.2499999995
10470.0	1591482.9999999998
10480.0	1602512.7499999998
10490.0	1612876.2499999998
10500.0	1621999.9999999998
10510.0	1635129.4999999998
10520.0	1648257.7499999998
10530.0	1659403.7499999995
10540.0	1670420.4999999998
10550.0	1681031.4999999993
10560.0	1693757.4999999995
10570.0	1705207.0
10580.0	1718605.4999999998
10590.0	1728130.4999999998
10600.0	1738910.5
10610.0	1753784.4999999995
10620.0	1768588.7499999995
10630.0	1782282.75
10640.0	1796183.4999999998
10650.0	1807289.5
10660.0	1820648.9999999993
10670.0	1832212.9999999998
10680.0	1844280.4999999998
10690.0	1857808.7499999995
10700.0	1869822.9999999998
10710.0	1882679.7499999995
10720.0	1894201.5
10730.0	1908866.4999999995
10740.0	1921325.9999999995
10750.0	1934643.999999999
10760.0	1948053.9999999995
10770.0	1959749.9999999998
10780.0	1971631.9999999995
10790.0	1987010.7499999995
10800.0	1998944.75
10810.0	2012798.7499999995
10820.0	2026635.7499999995
10830.0	2039864.0
10840.0	2053055.9999999995
10850.0	2066453.2499999995
10860.0	2079580.7499999998
10870.0	2092310.9999999998
10880.0	2106570.999999999
10890.0	2120195.499999999
10900.0	2130349.7499999995
10910.0	2147708.749999999
10920.0	2157872.4999999995
10930.0	2167959.249999999
10940.0	2182516.7499999995
10950.0	2197741.5
10960.0	2207277.9999999995
10970.0	2219016.9999999995
10980.0	2218897.7499999995
10990.0	2232100.2499999995
11000.0	2268197.999999999
11010.0	2224788.9999999995
11020.0	2287370.9999999995
11030.0	2268195.999999999
11040.0	2320968.9999999995
11050.0	2326545.749999999
11060.0	2346376.7499999995
11070.0	2359101.4999999995
11080.0	2372703.9999999995
11090.0	2403257.9999999995
11100.0	2414928.4999999995
11110.0	2418279.7499999995
11120.0	2440348.9999999995
11130.0	2455734.7499999995
11140.0	2460200.9999999995
11150.0	2249528.4999999995
11160.0	2446437.7499999995
11170.0	2449243.7499999995
11180.0	2519323.4999999995
11190.0	2487747.2499999995
11200.0	2279596.9999999995
11210.0	2547224.7499999995
11220.0	2386235.249999999
11230.0	2575107.75
11240.0	2512569.7499999995
11250.0	2455417.2499999995
11260.0	2583144.2499999995
11270.0	2562716.7499999995
11280.0	2676599.7499999995
11290.0	2701047.749999999
11300.0	2711495.999999999
11310.0	2672828.499999999
11320.0	2750130.4999999995
11330.0	2765883.0
11340.0	2765702.5
11350.0	2491384.499999999
11360.0	2754182.2499999995
11370.0	2822732.7499999995
11380.0	2818813.0
11390.0	2846179.7499999995
11400.0	2878445.749999999
11410.0	2880077.4999999995
11420.0	2848895.499999999
11430.0	2897785.999999999
11440.0	2837371.5
11450.0	2937081.249999999
11460.0	2941166.9999999995
11470.0	2989124.2499999995
11480.0	2859461.9999999995
11490.0	3008677.999999999
11500.0	2787454.4999999995
11510.0	3070804.249999999
11520.0	3090661.749999999
11530.0	3103535.749999999
11540.0	3087051.4999999986
11550.0	3088554.7499999986
11560.0	3152429.9999999995
11570.0	3119556.749999999
11580.0	3140596.9999999995
11590.0	3212748.249999999
11600.0	3087416.749999999
11610.0	3223089.249999999
11620.0	3265519.249999999
11630.0	3267212.249999999
11640.0	3037638.499999999
11650.0	3295184.749999999
11660.0	3213080.9999999995
11670.0	3350457.9999999986
11680.0	3369972.499999999
11690.0	3370759.749999999
11700.0	3332302.499999999
11710.0	3406460.499999999
11720.0	3447328.499999999
11730.0	3196197.9999999995
11740.0	3448896.7499999995
11750.0	3477636.7499999986
11760.0	3515275.249999999
11770.0	3529140.499999999
11780.0	3486028.4999999995
11790.0	3574407.0
11800.0	3567913.4999999986
11810.0	3590480.25
11820.0	3595203.999999999
11830.0	3655547.9999999986
11840.0	3668193.9999999986
11850.0	3627345.2499999995
11860.0	3673360.749999999
11870.0	3708200.2499999995
11880.0	3744785.749999999
11890.0	3764881.7499999995
11900.0	3782083.9999999986
11910.0	3811978.2499999986
11920.0	3825173.749999999
11930.0	3850800.2499999995
11940.0	3862131.749999999
11950.0	3890454.9999999986
11960.0	3906841.25
11970.0	3929174.9999999986
11980.0	3916232.999999999
11990.0	3946757.999999999
12000.0	3992324.499999999
12010.0	4014214.999999999
12020.0	4022365.2499999995
12030.0	4045100.499999999
12040.0	4062577.499999999
12050.0	4096149.249999999
12060.0	4113399.9999999986
12070.0	4132157.4999999986
12080.0	4151706.499999999
12090.0	4173015.2499999995
12100.0	4195435.249999999
12110.0	4219160.999999999
12120.0	4228650.0
12130.0	4251854.25
12140.0	4271010.25
12150.0	4291935.999999999
12160.0	4323651.999999999
12170.0	4344607.999999998
12180.0	4359143.999999999
12190.0	4387335.999999999
12200.0	4397461.999999999
12210.0	4428183.499999999
12220.0	4446060.499999999
12230.0	4469159.999999999
12240.0	4491342.0
12250.0	4516742.499999998
12260.0	4537075.499999999
12270.0	4558538.749999999
12280.0	4579053.249999998
12290.0	4594157.999999999
12300.0	4623283.749999998
12310.0	4640097.249999999
12320.0	4667944.999999999
12330.0	4688412.749999998
12340.0	4714115.249999999
12350.0	4738057.249999999
12360.0	4759927.249999998
12370.0	4779429.499999998
12380.0	4804243.249999998
12390.0	4824202.749999997
12400.0	4850101.999999999
12410.0	4871076.999999999
12420.0	4893283.249999999
12430.0	4915593.749999999
12440.0	4938846.749999998
12450.0	4963357.249999998
12460.0	4984539.749999999
12470.0	5006982.249999999
12480.0	5032697.999999998
12490.0	5055925.999999998
12500.0	5074875.0
12510.0	5098007.25
12520.0	5121537.499999999
12530.0	5145181.0
12540.0	5157357.249999999
12550.0	5192187.999999998
12560.0	5214355.999999999
12570.0	5238722.499999999
12580.0	5264719.499999999
12590.0	5286891.999999999
12600.0	5308845.999999998
12610.0	5335811.999999998
12620.0	5357973.999999998
12630.0	5380229.999999999
12640.0	5407547.999999999
12650.0	5430009.999999998
12660.0	5452569.999999999
12670.0	5475835.249999998
12680.0	5500164.0
12690.0	5525863.749999999
12700.0	5550096.249999999
12710.0	5567734.75
12720.0	5588582.0
12730.0	5619221.749999997
12740.0	5641910.249999998
12750.0	5670552.999999998
12760.0	5685925.749999998
12770.0	5719729.249999999
12780.0	5743815.999999998
12790.0	5767667.999999998
12800.0	5789291.749999998
12810.0	5812997.749999998
12820.0	5842521.499999999
12830.0	5851003.499999999
12840.0	5890481.499999998
12850.0	5891357.999999999
12860.0	5942925.999999998
12870.0	5962125.999999998
12880.0	5992739.749999998
12890.0	6011055.499999998
12900.0	6031550.749999999
12910.0	6047889.999999999
12920.0	6073670.249999999
12930.0	6111555.749999998
12940.0	6137041.999999999
12950.0	6095576.249999999
12960.0	6131200.749999998
12970.0	6206587.749999998
12980.0	6243103.499999999
12990.0	6201940.999999999
13000.0	6299780.749999998
13010.0	6318664.499999998
13020.0	6346736.249999998
13030.0	6342113.249999999
13040.0	6394427.999999998
13050.0	6421338.249999999
13060.0	6450601.999999998
13070.0	6465485.999999999
13080.0	6499824.499999999
13090.0	6511823.499999998
13100.0	6543385.999999997
13110.0	6579992.499999998
13120.0	6590654.249999997
13130.0	6622600.999999998
13140.0	6634523.999999999
13150.0	6672707.499999999
13160.0	6675203.499999998
13170.0	6730951.749999999
13180.0	6760487.249999999
13190.0	6736477.999999999
13200.0	6811347.249999998
13210.0	6839915.0
13220.0	6866345.749999997
13230.0	6638942.999999999
13240.0	6905384.999999999
13250.0	6937855.499999998
13260.0	6929612.499999998
13270.0	6974786.249999999
13280.0	6964243.249999998
13290.0	7013173.249999997
13300.0	7081112.249999997
13310.0	7076687.749999997
13320.0	7025540.499999999
13330.0	7058069.499999999
13340.0	7124529.999999998
13350.0	6550808.749999998
13360.0	7056568.499999998
13370.0	6073672.499999998
13380.0	6705664.25
13390.0	6684397.249999998
13400.0	7211790.999999998
13410.0	7148810.749999998
13420.0	6297905.249999999
13430.0	7291373.249999998
13440.0	6363237.249999997
13450.0	5498625.249999999
13460.0	7280282.999999999
13470.0	6246351.499999999
13480.0	7010752.499999998
13490.0	7002247.25
13500.0	6249772.175
13510.0	7014445.524999999
13520.0	5187635.999999999
13530.0	7484034.249999999
13540.0	6123792.249999998
13550.0	5432136.999999998
13560.0	6466374.749999998
13570.0	7155618.749999998
13580.0	6680438.749999999
13590.0	5221244.249999998
13600.0	7678816.749999999
13610.0	7684950.749999998
13620.0	6475825.499999997
13630.0	5902882.749999999
13640.0	6466435.499999997
13650.0	7187800.749999999
13660.0	7641182.999999999
13670.0	7303888.749999997
13680.0	6880439.499999997
13690.0	6391060.499999998
13700.0	6837801.749999998
13710.0	7601423.749999999
13720.0	7576035.999999998
13730.0	8206574.749999999
13740.0	6518108.499999998
13750.0	7161059.749999998
13760.0	7404339.499999998
13770.0	7909850.250000001
13780.0	8170357.499999999
13790.0	8317282.499999999
13800.0	8359130.499999997
13810.0	7356777.249999998
13820.0	8438433.25
13830.0	7289662.749999999
13840.0	8003721.999999997
13850.0	8272277.749999999
13860.0	7181331.499999998
13870.0	7976783.500000001
13880.0	8113344.999999998
13890.0	6718915.099999999
13900.0	7136025.749999998
13910.0	7609317.499999998
13920.0	8566935.749999996
13930.0	7776896.499999998
13940.0	8384947.499999998
13950.0	5982264.649999999
13960.0	7895897.499999998
13970.0	7090262.749999998
13980.0	8425244.249999998
13990.0	8911532.749999998
14000.0	7766520.499999998
14010.0	8412536.999999996
14020.0	8681733.999999998
14030.0	8558052.249999998
14040.0	6796367.249999999
14050.0	6676885.849999999
14060.0	8858366.499999998
14070.0	8552506.999999996
14080.0	7646138.249999999
14090.0	8790260.0
14100.0	8566528.249999996
14110.0	9308675.749999998
14120.0	7807216.499999999
14130.0	8812561.499999998
14140.0	9111129.999999998
14150.0	7755239.999999999
14160.0	7706919.999999998
14170.0	9192018.249999998
14180.0	6544243.749999997
14190.0	7894044.999999999
14200.0	7219430.35
14210.0	8375879.999999997
14220.0	8499250.249999998
14230.0	8026165.749999997
14240.0	7567805.499999998
14250.0	8589675.499999998
14260.0	7458788.249999999
14270.0	8885108.499999996
14280.0	7880375.999999997
14290.0	7479040.249999998
14300.0	8977476.249999998
14310.0	8328929.999999997
14320.0	9751267.749999996
14330.0	9098660.999999998
14340.0	9492986.249999998
14350.0	9753515.749999996
14360.0	9472742.249999996
14370.0	9783003.999999996
14380.0	8321846.499999997
14390.0	8434963.749999998
14400.0	9537153.249999998
14410.0	9322969.5
14420.0	8837960.999999998
14430.0	10126830.249999998
14440.0	9658435.499999996
14450.0	9074728.499999998
14460.0	9634518.999999996
14470.0	10111470.749999998
14480.0	9973130.999999996
14490.0	10398047.499999998
14500.0	10205846.249999996
14510.0	8114074.249999998
14520.0	10461469.999999996
14530.0	10325557.499999996
14540.0	9874492.249999998
14550.0	9363558.999999996
14560.0	9442290.75
14570.0	10391448.499999998
14580.0	10722824.999999998
14590.0	10558717.999999998
14600.0	10771117.499999998
14610.0	10747912.499999998
14620.0	10030292.749999998
14630.0	9845106.749999998
14640.0	10926232.499999996
14650.0	10120490.0
14660.0	10170485.499999998
14670.0	10694598.499999998
14680.0	10279872.499999998
14690.0	10149940.5
14700.0	11098807.499999998
14710.0	10950034.999999998
14720.0	11142453.999999998
14730.0	10444587.249999998
14740.0	10795024.749999998
14750.0	10808282.499999998
14760.0	10515581.999999996
14770.0	11204920.499999998
14780.0	11263727.499999998
14790.0	10995003.999999996
14800.0	11311604.999999998
14810.0	11506567.499999998
14820.0	11323014.999999994
14830.0	10479110.499999998
14840.0	11660667.499999996
14850.0	11439294.999999998
14860.0	11289217.499999996
14870.0	11647097.5
14880.0	11181399.999999994
14890.0	11581214.999999998
14900.0	10920446.999999998
