# Flux units: erg / (cm m2 s)
# Wavelength units: Angstrom
wave	flux
7000.0	14830147499.999994
7010.0	15267587499.999994
7020.0	15702814999.999998
7030.0	16153807499.999994
7040.0	16615487499.999994
7050.0	17090507499.999996
7060.0	17577427499.999996
7070.0	18069514999.999996
7080.0	18583304999.999996
7090.0	19097984999.999996
7100.0	19631197499.999996
7110.0	20187962499.999992
7120.0	20751617499.999992
7130.0	21321424999.999992
7140.0	21906089999.999992
7150.0	22518864999.999996
7160.0	23116265000.0
7170.0	23623814999.999992
7180.0	24349799999.999996
7190.0	25045152499.999996
7200.0	25752164999.999992
7210.0	26441562500.0
7220.0	27168104999.999992
7230.0	27894229999.999992
7240.0	28620269999.999985
7250.0	29417537499.999992
7260.0	30164042499.999996
7270.0	30988647499.999992
7280.0	31809894999.99999
7290.0	32645517499.999992
7300.0	33471434999.999985
7310.0	34332772499.99999
7320.0	35277100000.0
7330.0	36236062499.99999
7340.0	37166539999.99999
7350.0	38068414999.99999
7360.0	39109487499.999985
7370.0	40086992499.999985
7380.0	41164139999.99999
7390.0	42224859999.99999
7400.0	43303869999.999985
7410.0	44379567499.99999
7420.0	45520282499.999985
7430.0	46692929999.99999
7440.0	47857649999.99999
7450.0	49065719999.999985
7460.0	50309677499.99999
7470.0	51580137499.999985
7480.0	52851719999.99999
7490.0	54186957499.999985
7500.0	55540387499.999985
7510.0	56902569999.999985
7520.0	58311449999.999985
7530.0	59745727499.999985
7540.0	61209459999.99999
7550.0	62708469999.999985
7560.0	64240492499.99998
7570.0	65797799999.99998
7580.0	67389720000.0
7590.0	69015814999.99998
7600.0	70672592499.99998
7610.0	72365377499.99998
7620.0	74085099999.99997
7630.0	75839084999.99998
7640.0	77618899999.99998
7650.0	79372444999.99998
7660.0	81073772499.99998
7670.0	82898747499.99998
7680.0	85071572499.99998
7690.0	87076192499.99998
7700.0	88872899999.99998
7710.0	91168652499.99998
7720.0	93417522499.99997
7730.0	95629217499.99997
7740.0	97847614999.99995
7750.0	100121582499.99997
7760.0	102426074999.99998
7770.0	104778049999.99997
7780.0	107164474999.99998
7790.0	109610674999.99997
7800.0	111984050000.0
7810.0	114630299999.99997
7820.0	117216874999.99997
7830.0	119854174999.99997
7840.0	122543124999.99997
7850.0	125292974999.99994
7860.0	128071274999.99995
7870.0	130894624999.99995
7880.0	133800624999.99997
7890.0	136742499999.99998
7900.0	139724874999.99997
7910.0	142852274999.99997
7920.0	145996874999.99997
7930.0	149181249999.99994
7940.0	152429399999.99997
7950.0	155590049999.99994
7960.0	159108799999.99997
7970.0	162535974999.99997
7980.0	166015574999.99997
7990.0	169598024999.99997
8000.0	173187549999.99997
8010.0	176921749999.99997
8020.0	180695274999.99994
8030.0	184498899999.99994
8040.0	188443299999.99997
8050.0	192425124999.99997
8060.0	196475449999.99994
8070.0	200562999999.99994
8080.0	204770899999.99997
8090.0	208978899999.99997
8100.0	213223299999.99994
8110.0	216966449999.99994
8120.0	221688574999.99997
8130.0	226553274999.99997
8140.0	230068249999.9999
8150.0	235019650000.0
8160.0	240538674999.99997
8170.0	245606024999.99994
8180.0	250101624999.99994
8190.0	256027449999.99997
8200.0	260858824999.9999
8210.0	266590974999.99994
8220.0	271936274999.99994
8230.0	274266449999.99988
8240.0	281902024999.99994
8250.0	288621374999.9999
8260.0	294208525000.0
8270.0	299734599999.9999
8280.0	305960924999.9999
8290.0	311489549999.99994
8300.0	317921199999.9999
8310.0	323999674999.99994
8320.0	330284224999.9999
8330.0	336997024999.99994
8340.0	343752524999.99994
8350.0	350685024999.9998
8360.0	356993549999.9999
8370.0	364302674999.9999
8380.0	371066799999.9999
8390.0	378234149999.9999
8400.0	385308924999.99994
8410.0	393039524999.9999
8420.0	400647524999.9999
8430.0	408337874999.9999
8440.0	416130299999.9999
8450.0	423899224999.9999
8460.0	431796749999.9999
8470.0	439697574999.9999
8480.0	448373024999.9999
8490.0	456529849999.9999
8500.0	465351924999.9998
8510.0	474052799999.9998
8520.0	482707424999.9999
8530.0	491755199999.9998
8540.0	500709849999.9999
8550.0	510059924999.9998
8560.0	519435599999.9999
8570.0	528942724999.99994
8580.0	538618724999.9998
8590.0	548341799999.9999
8600.0	558371974999.9998
8610.0	567866999999.9999
8620.0	576797549999.9999
8630.0	586558324999.9999
8640.0	597583699999.9999
8650.0	608902375000.0
8660.0	620616974999.9999
8670.0	631777399999.9998
8680.0	642925724999.9998
8690.0	654503024999.9998
8700.0	665717725000.0
8710.0	677373449999.9999
8720.0	689433299999.9999
8730.0	701878074999.9999
8740.0	713804449999.9998
8750.0	726600749999.9999
8760.0	739376349999.9998
8770.0	751931899999.9998
8780.0	765328999999.9999
8790.0	778270724999.9998
8800.0	792036674999.9999
8810.0	805276599999.9998
8820.0	819305499999.9998
8830.0	833327549999.9998
8840.0	847484474999.9998
8850.0	861912374999.9998
8860.0	876335874999.9998
8870.0	891497299999.9998
8880.0	906400374999.9999
8890.0	921412699999.9998
8900.0	936931674999.9998
8910.0	950092199999.9998
8920.0	964815699999.9998
8930.0	980870574999.9998
8940.0	997511474999.9996
8950.0	1015826999999.9998
8960.0	1031598749999.9999
8970.0	1029260149999.9998
8980.0	1066088199999.9998
8990.0	1064548749999.9996
9000.0	1101546499999.9998
9010.0	1111957499999.9998
9020.0	1139163499999.9998
9030.0	1156616749999.9998
9040.0	1176847499999.9998
9050.0	1194926499999.9995
9060.0	1214741749999.9998
9070.0	1233249749999.9998
9080.0	1252057999999.9995
9090.0	1271326499999.9998
9100.0	1291296749999.9995
9110.0	1307417749999.9995
9120.0	1334502749999.9998
9130.0	1355103749999.9998
9140.0	1376382749999.9998
9150.0	1395334999999.9995
9160.0	1409484999999.9998
9170.0	1438357999999.9998
9180.0	1463301499999.9995
9190.0	1483858999999.9998
9200.0	1501500999999.9993
9210.0	1530818999999.9995
9220.0	1551743249999.9998
9230.0	1583053999999.9998
9240.0	1605265749999.9998
9250.0	1626533999999.9995
9260.0	1637635249999.9998
9270.0	1665265999999.9998
9280.0	1649038999999.9998
9290.0	1627841749999.9995
9300.0	1701444249999.9998
9310.0	1638481249999.9995
9320.0	1763883999999.9993
9330.0	1713088249999.9993
9340.0	1649950749999.9995
9350.0	1669417249999.9995
9360.0	1787039749999.9995
9370.0	1741855999999.9995
9380.0	1909776749999.9998
9390.0	1981263749999.9995
9400.0	2025885249999.9995
9410.0	2048749499999.9995
9420.0	2069914999999.9995
9430.0	2111181999999.9998
9440.0	2119032249999.9995
9450.0	2143808999999.9995
9460.0	2154553249999.9998
9470.0	2120913749999.9998
9480.0	2232045500000.0
9490.0	2279964499999.999
9500.0	2153532749999.9995
9510.0	2340028249999.9995
9520.0	2342929249999.9995
9530.0	2400839499999.9995
9540.0	2468290999999.999
9550.0	2479184249999.9995
9560.0	2352795749999.9995
9570.0	2547501499999.9995
9580.0	2594756749999.9995
9590.0	2606336999999.999
9600.0	2604201249999.9995
9610.0	2713947999999.999
9620.0	2625494499999.9995
9630.0	2805214499999.999
9640.0	2802898499999.9995
9650.0	2847156999999.9995
9660.0	2926681499999.999
9670.0	2917166999999.9995
9680.0	3015966999999.999
9690.0	3047448499999.999
9700.0	3087742249999.9995
9710.0	3142933999999.9995
9720.0	3158815249999.9995
9730.0	3194444999999.9985
9740.0	3262325749999.999
9750.0	3277212499999.999
9760.0	3349894999999.999
9770.0	3400206999999.9985
9780.0	3450324000000.0
9790.0	3472174249999.999
9800.0	3511604749999.999
9810.0	3599202499999.9985
9820.0	3648437749999.9985
9830.0	3689227249999.9985
9840.0	3750300749999.999
9850.0	3787721499999.998
9860.0	3842695499999.999
9870.0	3897219249999.999
9880.0	3942671499999.9985
9890.0	3998887999999.9985
9900.0	4053832749999.9985
9910.0	4115833249999.9985
9920.0	4163394499999.999
9930.0	4217252249999.9985
9940.0	4268918999999.9985
9950.0	4337110749999.999
9960.0	4386629499999.9985
9970.0	4446946999999.999
9980.0	4506259749999.999
9990.0	4561158749999.998
10000.0	4613201749999.999
10010.0	4670660249999.999
10020.0	4730400999999.998
10030.0	4788787000000.0
10040.0	4846473749999.998
10050.0	4910355749999.999
10060.0	4968649249999.999
10070.0	5032634999999.999
10080.0	5089644749999.998
10090.0	5154900499999.999
10100.0	5220361749999.999
10110.0	5282753249999.999
10120.0	5345743250000.0
10130.0	5411813999999.999
10140.0	5477692749999.999
10150.0	5543963249999.999
10160.0	5611390749999.999
10170.0	5678845499999.998
10180.0	5745531499999.999
10190.0	5815407500000.0
10200.0	5884610749999.997
10210.0	5954741999999.998
10220.0	6025912249999.999
10230.0	6097370249999.998
10240.0	6168510249999.998
10250.0	6241733999999.999
10260.0	6314882749999.999
10270.0	6389952749999.999
10280.0	6464616000000.0
10290.0	6539207749999.999
10300.0	6616108249999.999
10310.0	6692638999999.998
10320.0	6769093249999.997
10330.0	6847388249999.998
10340.0	6927833749999.999
10350.0	7007814499999.999
10360.0	7088304500000.0
10370.0	7169392749999.998
10380.0	7250702999999.998
10390.0	7333096999999.999
10400.0	7417495499999.997
10410.0	7501101749999.999
10420.0	7586472999999.998
10430.0	7671582749999.999
10440.0	7757868999999.999
10450.0	7844807249999.998
10460.0	7932724749999.998
10470.0	8021255249999.997
10480.0	8110777250000.0
10490.0	8201338749999.998
10500.0	8292013749999.997
10510.0	8383829249999.998
10520.0	8476662499999.998
10530.0	8569540500000.0
10540.0	8664127249999.996
10550.0	8759914999999.999
10560.0	8855739999999.998
10570.0	8952816000000.0
10580.0	9048668999999.998
10590.0	9147290249999.996
10600.0	9236158499999.998
10610.0	9347278999999.996
10620.0	9458125999999.998
10630.0	9575417249999.998
10640.0	9682661749999.996
10650.0	9784245499999.998
10660.0	9891100499999.996
10670.0	9985788749999.998
10680.0	10092939999999.996
10690.0	10205307499999.998
10700.0	10307997499999.996
10710.0	10423182499999.998
10720.0	10532397499999.996
10730.0	10643409999999.996
10740.0	10753604999999.998
10750.0	10861692499999.998
10760.0	10986647499999.998
10770.0	11093132499999.996
10780.0	11199002499999.998
10790.0	11330649999999.996
10800.0	11436162499999.996
10810.0	11561834999999.998
10820.0	11683549999999.998
10830.0	11806507499999.996
10840.0	11924339999999.994
10850.0	12043619999999.998
10860.0	12163042499999.996
10870.0	12269457499999.994
10880.0	12417949999999.996
10890.0	12537894999999.998
10900.0	12635119999999.996
10910.0	12780059999999.996
10920.0	12890419999999.998
10930.0	12986787499999.996
10940.0	13127957500000.0
10950.0	13272722499999.998
10960.0	13331949999999.998
10970.0	13517287499999.994
10980.0	13542759999999.994
10990.0	13680259999999.998
11000.0	13877527499999.996
11010.0	13717342499999.998
11020.0	14001039999999.994
11030.0	13966929999999.998
11040.0	14231914999999.998
11050.0	14404272499999.996
11060.0	14227999999999.996
11070.0	14528492499999.996
11080.0	14385624999999.998
11090.0	15006064999999.994
11100.0	14898642499999.996
11110.0	14449482499999.994
11120.0	15278174999999.996
11130.0	14805369999999.996
11140.0	15381294999999.996
11150.0	13650861499999.996
11160.0	15052414999999.998
11170.0	14639404999999.996
11180.0	15885074999999.992
11190.0	14908522499999.994
11200.0	13184002249999.998
11210.0	16316298749999.998
11220.0	14478331249999.996
11230.0	15687281249999.998
11240.0	14769788499999.996
11250.0	15328008749999.996
11260.0	16231453750000.0
11270.0	16498417499999.994
11280.0	17676367499999.996
11290.0	17946445000000.0
11300.0	17665979999999.996
11310.0	17973697499999.992
11320.0	18565532499999.996
11330.0	18076247499999.996
11340.0	16789492499999.998
11350.0	14609902499999.994
11360.0	18445494999999.996
11370.0	19294719999999.996
11380.0	19610964999999.996
11390.0	19832519999999.992
11400.0	19925952499999.996
11410.0	20201132499999.996
11420.0	19682607499999.996
11430.0	20197450000000.0
11440.0	19539807499999.996
11450.0	20394504999999.996
11460.0	20889442499999.992
11470.0	20821104999999.996
11480.0	19478647499999.996
11490.0	21340529999999.996
11500.0	17779222999999.992
11510.0	21904424999999.992
11520.0	21402439999999.996
11530.0	21139352499999.996
11540.0	21232164999999.996
11550.0	21866119999999.996
11560.0	21904250000000.0
11570.0	22275657499999.996
11580.0	21973722499999.996
11590.0	22886867499999.996
11600.0	21833874999999.992
11610.0	23364047499999.992
11620.0	23881922499999.996
11630.0	24561779999999.992
11640.0	22254744999999.996
11650.0	24405747499999.996
11660.0	23942742499999.996
11670.0	25248789999999.996
11680.0	25393392499999.992
11690.0	25110942499999.992
11700.0	25036642499999.996
11710.0	26055652499999.996
11720.0	26557627499999.996
11730.0	24749382499999.992
11740.0	26276749999999.992
11750.0	26859559999999.992
11760.0	27487719999999.996
11770.0	27653977499999.99
11780.0	27554392499999.992
11790.0	28287544999999.996
11800.0	28289469999999.99
11810.0	28689112499999.992
11820.0	28513477499999.992
11830.0	29322924999999.992
11840.0	29533559999999.996
11850.0	29530517499999.996
11860.0	29978417499999.992
11870.0	30302872499999.992
11880.0	30485682499999.996
11890.0	30703487499999.992
11900.0	30963734999999.99
11910.0	31386694999999.996
11920.0	31647534999999.99
11930.0	31959244999999.992
11940.0	31986764999999.992
11950.0	32440624999999.99
11960.0	32685974999999.992
11970.0	33026892499999.996
11980.0	33090332499999.99
11990.0	33169287499999.996
12000.0	33821189999999.992
12010.0	34127392499999.992
12020.0	34242472499999.996
12030.0	34568322499999.992
12040.0	34719492499999.984
12050.0	35201779999999.99
12060.0	35493549999999.99
12070.0	35698767499999.99
12080.0	35996084999999.99
12090.0	36223062499999.99
12100.0	36570007499999.984
12110.0	36902269999999.99
12120.0	37053247499999.99
12130.0	37389147499999.99
12140.0	37596234999999.984
12150.0	37871839999999.99
12160.0	38363722499999.99
12170.0	38623547499999.99
12180.0	38877884999999.99
12190.0	39274539999999.984
12200.0	39517974999999.99
12210.0	39849387500000.0
12220.0	40117934999999.99
12230.0	40410442499999.99
12240.0	40738214999999.99
12250.0	41056614999999.99
12260.0	41414029999999.984
12270.0	41699734999999.984
12280.0	41983269999999.99
12290.0	42241817499999.99
12300.0	42663997499999.984
12310.0	42953639999999.984
12320.0	43295529999999.99
12330.0	43567884999999.99
12340.0	43968154999999.99
12350.0	44330869999999.98
12360.0	44637387499999.99
12370.0	44934914999999.984
12380.0	45310227499999.99
12390.0	45619244999999.984
12400.0	45976004999999.99
12410.0	46276832499999.984
12420.0	46656404999999.984
12430.0	46988722499999.984
12440.0	47332689999999.984
12450.0	47696459999999.99
12460.0	48015384999999.984
12470.0	48363107499999.984
12480.0	48729372499999.984
12490.0	49047264999999.984
12500.0	49417549999999.98
12510.0	49783279999999.984
12520.0	50153452499999.984
12530.0	50513042499999.984
12540.0	50719982499999.984
12550.0	51206049999999.98
12560.0	51588872499999.984
12570.0	51955212499999.984
12580.0	52331497499999.984
12590.0	52684867499999.984
12600.0	53051859999999.984
12610.0	53454399999999.984
12620.0	53815619999999.99
12630.0	54192752499999.99
12640.0	54568354999999.984
12650.0	54948772499999.984
12660.0	55303289999999.98
12670.0	55663854999999.984
12680.0	56110439999999.984
12690.0	56509434999999.984
12700.0	56892934999999.98
12710.0	57221964999999.984
12720.0	57548149999999.984
12730.0	58000474999999.99
12740.0	58327852499999.98
12750.0	58868617499999.99
12760.0	59169972499999.98
12770.0	59597567499999.99
12780.0	60063239999999.98
12790.0	60388427499999.984
12800.0	60624289999999.98
12810.0	61115504999999.984
12820.0	61601177499999.99
12830.0	61735704999999.97
12840.0	62475854999999.984
12850.0	62642949999999.984
12860.0	63208677499999.984
12870.0	63632902499999.984
12880.0	63955264999999.984
12890.0	64427919999999.984
12900.0	64854014999999.98
12910.0	65248492499999.99
12920.0	65332812499999.984
12930.0	65943837499999.984
12940.0	66464987499999.98
12950.0	66299197499999.98
12960.0	66748159999999.984
12970.0	67235692499999.984
12980.0	68477847499999.96
12990.0	68403129999999.984
13000.0	68996262499999.984
13010.0	69206299999999.97
13020.0	70124359999999.98
13030.0	69651909999999.984
13040.0	70594042499999.98
13050.0	71517732499999.97
13060.0	72009409999999.98
13070.0	71641474999999.97
13080.0	72860602499999.98
13090.0	73085044999999.98
13100.0	73536094999999.98
13110.0	74289922499999.98
13120.0	74306267499999.97
13130.0	74892239999999.98
13140.0	75025592499999.97
13150.0	74459742499999.98
13160.0	76188392499999.98
13170.0	76912497499999.98
13180.0	77587727499999.98
13190.0	75943537499999.98
13200.0	78031239999999.98
13210.0	78748102499999.98
13220.0	79469512499999.98
13230.0	75371649999999.98
13240.0	79173602499999.97
13250.0	80452760000000.0
13260.0	80880377499999.97
13270.0	81170320000000.0
13280.0	81708674999999.98
13290.0	79886649999999.98
13300.0	81613259999999.98
13310.0	81817859999999.97
13320.0	75511242499999.98
13330.0	80812082499999.98
13340.0	82698739999999.97
13350.0	80416207500000.0
13360.0	75667379999999.97
13370.0	66594072499999.98
13380.0	64783837499999.99
13390.0	69910149999999.97
13400.0	66049462499999.984
13410.0	71353607500000.0
13420.0	59375592499999.99
13430.0	65221642499999.984
13440.0	64104436999999.98
13450.0	49537496499999.99
13460.0	71327018249999.98
13470.0	55159582749999.99
13480.0	40825361499999.99
13490.0	58276529499999.984
13500.0	53385959274999.99
13510.0	52898036324999.984
13520.0	36232720500000.0
13530.0	58258177499999.99
13540.0	46831259999999.99
13550.0	32866758799999.992
13560.0	56460142499999.984
13570.0	48713292500000.0
13580.0	49196634249999.99
13590.0	39321677750000.0
13600.0	58855867499999.98
13610.0	48060886999999.984
13620.0	30431296749999.992
13630.0	52950997249999.984
13640.0	60200686999999.98
13650.0	45140720999999.984
13660.0	67132932499999.99
13670.0	68747019999999.98
13680.0	45621176424999.99
13690.0	65189032474999.99
13700.0	61018024999999.97
13710.0	63302042500000.0
13720.0	75611527499999.97
13730.0	76603704999999.98
13740.0	54881577499999.99
13750.0	75596797499999.98
13760.0	78396129999999.98
13770.0	74090749999999.98
13780.0	92100642499999.98
13790.0	80068169999999.98
13800.0	88571793999999.97
13810.0	50741915499999.984
13820.0	78840814999999.97
13830.0	46619429999999.99
13840.0	86578544999999.98
13850.0	59528092499999.984
13860.0	56465410999999.984
13870.0	86708387999999.98
13880.0	58444894999999.984
13890.0	75900771299999.98
13900.0	78570537999999.98
13910.0	70349017499999.984
13920.0	62224677499999.984
13930.0	70701419999999.98
13940.0	79924597500000.0
13950.0	50701619099999.99
13960.0	60035151249999.98
13970.0	65520098749999.984
13980.0	85163204999999.97
13990.0	94908949999999.98
14000.0	59297177500000.0
14010.0	51062392499999.99
14020.0	94884834999999.98
14030.0	99833954999999.97
14040.0	64951329999999.984
14050.0	53745062199999.98
14060.0	101835749999999.97
14070.0	79411784999999.97
14080.0	81562092499999.97
14090.0	63734982499999.984
14100.0	77338089999999.97
14110.0	102511372499999.97
14120.0	68336622499999.984
14130.0	102755909999999.97
14140.0	67413570249999.98
14150.0	74633166749999.98
14160.0	91302819999999.95
14170.0	96661789499999.97
14180.0	64234326499999.98
14190.0	58236679499999.98
14200.0	75165058999999.98
14210.0	87594297499999.98
14220.0	90958904999999.98
14230.0	65247202499999.984
14240.0	67659024500000.0
14250.0	95752382499999.95
14260.0	68253122499999.984
14270.0	107689054999999.98
14280.0	79952529999999.97
14290.0	59433010999999.984
14300.0	116245894999999.97
14310.0	104769744999999.95
14320.0	91385854999999.98
14330.0	106921274999999.97
14340.0	64054259999999.984
14350.0	112158064999999.98
14360.0	119220107499999.98
14370.0	111624342499999.98
14380.0	97343449999999.98
14390.0	94711417499999.98
14400.0	91796327499999.97
14410.0	111536240000000.0
14420.0	104895249999999.98
14430.0	130818924999999.97
14440.0	121739127499999.97
14450.0	90513679999999.98
14460.0	101883917499999.98
14470.0	124126467499999.95
14480.0	131395452499999.97
14490.0	137813799999999.95
14500.0	110929055000000.0
14510.0	77859034999999.98
14520.0	144964324999999.97
14530.0	146670974999999.94
14540.0	135082174999999.97
14550.0	133219604999999.97
14560.0	120082029999999.95
14570.0	124138210000000.0
14580.0	154821874999999.97
14590.0	159034099999999.97
14600.0	157636024999999.94
14610.0	155260849999999.94
14620.0	135048579999999.95
14630.0	115704964999999.95
14640.0	159752574999999.97
