# Flux units: erg / (cm m2 s)
# Wavelength units: Angstrom
wave	flux
7000.0	25186849999.999992
7010.0	26011319999.999992
7020.0	26752269999.999996
7030.0	27554995000.0
7040.0	28384537499.99999
7050.0	29214577499.999992
7060.0	30085847499.99999
7070.0	30915274999.999992
7080.0	31848964999.999985
7090.0	32722322499.99999
7100.0	33627279999.99999
7110.0	34689054999.99999
7120.0	35708802499.99999
7130.0	36679277499.99999
7140.0	37658717499.999985
7150.0	38834019999.99999
7160.0	39812719999.99999
7170.0	40282424999.999985
7180.0	41863209999.999985
7190.0	43296129999.99999
7200.0	44598382499.999985
7210.0	45755987499.99999
7220.0	47025875000.0
7230.0	48363309999.99999
7240.0	49584914999.999985
7250.0	51192554999.999985
7260.0	52474035000.0
7270.0	53966779999.99998
7280.0	55311514999.999985
7290.0	56933677499.99998
7300.0	58289092499.99999
7310.0	59659257499.99998
7320.0	61563642499.999985
7330.0	63464289999.99999
7340.0	65013847499.999985
7350.0	66363904999.999985
7360.0	68510562499.99999
7370.0	70001032499.99998
7380.0	72279502499.99998
7390.0	74331762499.99998
7400.0	76279564999.99997
7410.0	77939620000.0
7420.0	80208717499.99998
7430.0	82406129999.99998
7440.0	84422757500.0
7450.0	86701269999.99997
7460.0	89058199999.99998
7470.0	91319694999.99998
7480.0	93572242499.99997
7490.0	96098114999.99997
7500.0	98602287499.99998
7510.0	101082334999.99997
7520.0	103656124999.99997
7530.0	106287900000.0
7540.0	108971799999.99997
7550.0	111741524999.99998
7560.0	114548699999.99998
7570.0	117393674999.99997
7580.0	120271499999.99997
7590.0	123249774999.99995
7600.0	126232724999.99995
7610.0	129255199999.99998
7620.0	132253749999.99997
7630.0	135184124999.99995
7640.0	137724599999.99997
7650.0	138857724999.99994
7660.0	132022099999.99997
7670.0	126783424999.99997
7680.0	146243949999.99994
7690.0	150320249999.99994
7700.0	136685174999.99995
7710.0	156350124999.99997
7720.0	166274774999.99997
7730.0	171586324999.99997
7740.0	176162374999.99994
7750.0	180621499999.99994
7760.0	185031974999.99994
7770.0	189510624999.99994
7780.0	194037649999.99997
7790.0	198580925000.0
7800.0	198682024999.99997
7810.0	207889549999.99994
7820.0	212925574999.99994
7830.0	217887624999.99994
7840.0	222980924999.99997
7850.0	228133999999.99994
7860.0	233343124999.99997
7870.0	238596374999.9999
7880.0	243899525000.0
7890.0	249349724999.99994
7900.0	254820999999.99997
7910.0	261107699999.99994
7920.0	267118749999.99994
7930.0	273039949999.9999
7940.0	279129425000.0
7950.0	276909174999.99994
7960.0	291631650000.0
7970.0	298257799999.99994
7980.0	304560125000.0
7990.0	311527074999.99994
8000.0	318091799999.9999
8010.0	325353449999.99994
8020.0	332521249999.99994
8030.0	339314949999.99994
8040.0	347302574999.99994
8050.0	354680624999.9999
8060.0	362452374999.9999
8070.0	370040774999.99994
8080.0	378350049999.9999
8090.0	385786949999.9999
8100.0	393308824999.9999
8110.0	396290249999.99994
8120.0	408487049999.99994
8130.0	419455874999.99994
8140.0	423260799999.9999
8150.0	429034399999.99994
8160.0	446303599999.9999
8170.0	456259199999.99994
8180.0	457029749999.99994
8190.0	474228574999.9999
8200.0	483622299999.99994
8210.0	495654199999.99976
8220.0	506126349999.9998
8230.0	502095674999.9998
8240.0	521214874999.9998
8250.0	537801349999.9998
8260.0	547711949999.99994
8270.0	554430674999.9999
8280.0	571558474999.9999
8290.0	581181324999.9999
8300.0	594090524999.9999
8310.0	602454549999.9999
8320.0	615927799999.9999
8330.0	630842499999.9999
8340.0	643887774999.9999
8350.0	657242724999.9998
8360.0	668865074999.9999
8370.0	682671574999.9999
8380.0	695809799999.9999
8390.0	708366474999.9996
8400.0	721732550000.0
8410.0	738940574999.9999
8420.0	753945699999.9998
8430.0	767880174999.9998
8440.0	782314549999.9999
8450.0	797072074999.9998
8460.0	811835174999.9999
8470.0	824603849999.9998
8480.0	844566499999.9995
8490.0	859831449999.9999
8500.0	878439699999.9999
8510.0	895292074999.9999
8520.0	911426599999.9999
8530.0	929611174999.9998
8540.0	946142674999.9995
8550.0	965164524999.9998
8560.0	983236824999.9998
8570.0	1001683299999.9996
8580.0	1020598249999.9999
8590.0	1039449999999.9998
8600.0	1059099749999.9999
8610.0	1078005499999.9996
8620.0	1094435499999.9996
8630.0	1113069749999.9995
8640.0	1133923249999.9998
8650.0	1154955749999.9998
8660.0	1179757250000.0
8670.0	1201977999999.9998
8680.0	1223341749999.9998
8690.0	1246321499999.9995
8700.0	1266610249999.9995
8710.0	1290169249999.9998
8720.0	1313068499999.9998
8730.0	1338532249999.9998
8740.0	1359537499999.9995
8750.0	1386682249999.9998
8760.0	1411617749999.9998
8770.0	1435314249999.9998
8780.0	1462716999999.9998
8790.0	1487222499999.9998
8800.0	1514634999999.9995
8810.0	1539451249999.9995
8820.0	1566894499999.9998
8830.0	1595283999999.9995
8840.0	1619437499999.9998
8850.0	1650984999999.9995
8860.0	1676992249999.9998
8870.0	1709005249999.9995
8880.0	1736607749999.9995
8890.0	1766570999999.9998
8900.0	1796826500000.0
8910.0	1802860249999.9993
8920.0	1823424749999.9993
8930.0	1861693999999.9995
8940.0	1904061749999.9998
8950.0	1949247249999.9993
8960.0	1975384249999.9993
8970.0	1862307499999.9995
8980.0	2039866499999.9995
8990.0	1918546249999.9995
9000.0	2113778499999.9995
9010.0	2074992749999.9993
9020.0	2192677749999.9995
9030.0	2224684749999.9995
9040.0	2262517749999.999
9050.0	2295803500000.0
9060.0	2336589750000.0
9070.0	2374238999999.9995
9080.0	2409236249999.9995
9090.0	2439223749999.9995
9100.0	2478542249999.9995
9110.0	2520622500000.0
9120.0	2576495999999.999
9130.0	2615889249999.9995
9140.0	2654120499999.999
9150.0	2664896999999.999
9160.0	2678631249999.999
9170.0	2750617499999.9995
9180.0	2825205999999.9995
9190.0	2839009499999.9995
9200.0	2849921249999.999
9210.0	2919667249999.9995
9220.0	2980568999999.9995
9230.0	3063724249999.999
9240.0	3108704499999.9995
9250.0	3121121499999.9995
9260.0	3067987249999.999
9270.0	3129976749999.999
9280.0	3021705749999.9995
9290.0	2777844999999.9995
9300.0	3241160499999.9995
9310.0	2811785149999.9995
9320.0	3413666749999.999
9330.0	3030763249999.999
9340.0	2575367749999.9995
9350.0	2700305749999.9995
9360.0	2827506999999.999
9370.0	2677548824999.999
9380.0	3614072974999.999
9390.0	3752213999999.999
9400.0	3872866999999.9995
9410.0	3909596249999.999
9420.0	3915444999999.9995
9430.0	4088487999999.999
9440.0	4139211249999.9985
9450.0	4145975749999.999
9460.0	4048217249999.9985
9470.0	3380687249999.9995
9480.0	4246472749999.9985
9490.0	4329399749999.9985
9500.0	3325502749999.999
9510.0	4403471250000.0
9520.0	4326059999999.999
9530.0	4421677000000.0
9540.0	4769117499999.999
9550.0	4748292649999.998
9560.0	3919632800000.0
9570.0	4870117499999.998
9580.0	4925530249999.998
9590.0	5077268499999.998
9600.0	4474513249999.998
9610.0	5276774499999.999
9620.0	4421892250000.0
9630.0	5416441250000.0
9640.0	5229522999999.999
9650.0	5332013749999.998
9660.0	5604252249999.999
9670.0	5545165999999.999
9680.0	5866354499999.998
9690.0	5885695999999.998
9700.0	5985845249999.998
9710.0	6044333999999.999
9720.0	5968196249999.999
9730.0	6092087499999.998
9740.0	6228351749999.998
9750.0	6117733250000.0
9760.0	6475411249999.999
9770.0	6566198999999.998
9780.0	6683571499999.998
9790.0	6668967750000.0
9800.0	6630477499999.999
9810.0	6949783749999.998
9820.0	7111076249999.999
9830.0	7174235499999.998
9840.0	7288003249999.998
9850.0	7322508749999.998
9860.0	7371553749999.998
9870.0	7576762249999.998
9880.0	7567977999999.997
9890.0	7706172499999.999
9900.0	7870884249999.999
9910.0	8042307749999.999
9920.0	8092338499999.998
9930.0	8203973499999.998
9940.0	8245257749999.998
9950.0	8472916999999.997
9960.0	8542161499999.999
9970.0	8694293749999.998
9980.0	8807773749999.996
9990.0	8896253749999.998
10000.0	8986649499999.998
10010.0	9107537249999.998
10020.0	9241176749999.996
10030.0	9350406749999.998
10040.0	9433356249999.996
10050.0	9596273749999.996
10060.0	9702058999999.998
10070.0	9829657999999.998
10080.0	9909349499999.996
10090.0	10052767500000.0
10100.0	10195327499999.996
10110.0	10308174999999.998
10120.0	10413942499999.996
10130.0	10555619999999.996
10140.0	10683284999999.998
10150.0	10815359999999.998
10160.0	10946064999999.998
10170.0	11076032499999.998
10180.0	11190672499999.998
10190.0	11336144999999.996
10200.0	11472234999999.996
10210.0	11606349999999.998
10220.0	11744372499999.998
10230.0	11880659999999.998
10240.0	12015062499999.996
10250.0	12152074999999.996
10260.0	12295477499999.998
10270.0	12442419999999.998
10280.0	12585214999999.998
10290.0	12730502499999.998
10300.0	12877004999999.998
10310.0	13018109999999.994
10320.0	13155564999999.996
10330.0	13312564999999.998
10340.0	13470397499999.996
10350.0	13620247499999.996
10360.0	13776492499999.996
10370.0	13932224999999.996
10380.0	14084862499999.992
10390.0	14241559999999.994
10400.0	14403739999999.996
10410.0	14562894999999.998
10420.0	14726589999999.994
10430.0	14886302499999.996
10440.0	15049967499999.996
10450.0	15214757499999.998
10460.0	15382062499999.996
10470.0	15550717499999.998
10480.0	15723159999999.998
10490.0	15892752499999.996
10500.0	16055564999999.998
10510.0	16239679999999.996
10520.0	16408794999999.998
10530.0	16585672499999.994
10540.0	16772669999999.994
10550.0	16950704999999.994
10560.0	17132452499999.996
10570.0	17318069999999.994
10580.0	17497747499999.998
10590.0	17677452499999.996
10600.0	17750722499999.996
10610.0	18061204999999.996
10620.0	18242879999999.996
10630.0	18498212499999.996
10640.0	18709364999999.992
10650.0	18891437499999.992
10660.0	19101472499999.996
10670.0	19196824999999.992
10680.0	19418152499999.992
10690.0	19690214999999.996
10700.0	19805257500000.0
10710.0	20079522500000.0
10720.0	20280154999999.996
10730.0	20517090000000.0
10740.0	20682132499999.996
10750.0	20927042499999.992
10760.0	21159434999999.992
10770.0	21324319999999.996
10780.0	21416477499999.996
10790.0	21786939999999.992
10800.0	21941299999999.992
10810.0	22231087499999.996
10820.0	22456509999999.996
10830.0	22691799999999.996
10840.0	22900922499999.996
10850.0	23131169999999.996
10860.0	23343354999999.99
10870.0	23421042500000.0
10880.0	23827997499999.992
10890.0	24053259999999.996
10900.0	24016974999999.996
10910.0	24416209999999.992
10920.0	24532277499999.992
10930.0	24623339999999.996
10940.0	24787639999999.996
10950.0	25259639999999.996
10960.0	25079972499999.992
10970.0	25433967499999.996
10980.0	24797917499999.996
10990.0	25133012499999.992
11000.0	26329534999999.992
11010.0	23893622499999.992
11020.0	26100750000000.0
11030.0	24258254999999.996
11040.0	26653529999999.992
11050.0	26704452499999.996
11060.0	26613317499999.996
11070.0	26747442499999.992
11080.0	26809622499999.992
11090.0	28733919999999.996
11100.0	28408017499999.992
11110.0	27493199999999.996
11120.0	28920277499999.992
11130.0	27747069999999.992
11140.0	29015024999999.992
11150.0	23056026099999.996
11160.0	25091129999999.996
11170.0	23466899999999.992
11180.0	29708039999999.992
11190.0	24382719999999.992
11200.0	19872090499999.992
11210.0	30262294999999.996
11220.0	25497089924999.996
11230.0	28880349274999.996
11240.0	24370754499999.992
11250.0	26240975999999.992
11260.0	27586751499999.992
11270.0	26299260499999.99
11280.0	32989031499999.99
11290.0	33785224999999.996
11300.0	32664987499999.99
11310.0	30494307499999.992
11320.0	34986872499999.996
11330.0	34233372499999.984
11340.0	31433566000000.0
11350.0	21323753399999.996
11360.0	31938219999999.984
11370.0	35321182500000.0
11380.0	35507099999999.99
11390.0	36503850000000.0
11400.0	37483437499999.984
11410.0	37321764999999.99
11420.0	32604931500000.0
11430.0	35215162500000.0
11440.0	32045432499999.996
11450.0	36889667500000.0
11460.0	36790777499999.99
11470.0	39308682249999.98
11480.0	30733215749999.992
11490.0	38406044999999.99
11500.0	25429984999999.996
11510.0	41386837499999.99
11520.0	40748832499999.99
11530.0	39578044999999.99
11540.0	37005467499999.984
11550.0	37772949999999.99
11560.0	41209564999999.984
11570.0	37475227499999.99
11580.0	38430722499999.99
11590.0	43288752499999.99
11600.0	37214911999999.99
11610.0	43262988499999.984
11620.0	45161589999999.99
11630.0	44994232499999.984
11640.0	32772323999999.99
11650.0	43508044999999.99
11660.0	39799994999999.99
11670.0	46909417499999.99
11680.0	47093177499999.99
11690.0	45402709999999.984
11700.0	41517367499999.99
11710.0	46829479999999.99
11720.0	49516242499999.984
11730.0	37596999999999.99
11740.0	45818874999999.99
11750.0	48495192499999.99
11760.0	50735092499999.984
11770.0	51170107499999.984
11780.0	49126234999999.99
11790.0	52567339999999.99
11800.0	50448587499999.984
11810.0	51863322499999.99
11820.0	48610547499999.99
11830.0	54325279999999.984
11840.0	54625394999999.99
11850.0	51614572499999.984
11860.0	54030629999999.99
11870.0	55419414999999.984
11880.0	55987547499999.99
11890.0	56452007499999.984
11900.0	56700052499999.98
11910.0	58113737499999.984
11920.0	58466482499999.99
11930.0	59010169999999.984
11940.0	58486392499999.984
11950.0	59979934999999.984
11960.0	60275112499999.984
11970.0	60807842499999.99
11980.0	59026999999999.984
11990.0	58397797499999.99
12000.0	62508434999999.984
12010.0	63005564999999.98
12020.0	62181874999999.99
12030.0	63392494999999.97
12040.0	63057184999999.98
12050.0	64976535000000.0
12060.0	65399392499999.99
12070.0	65754899999999.98
12080.0	66301047499999.98
12090.0	66497727499999.98
12100.0	67352104999999.99
12110.0	67836177499999.99
12120.0	67035714999999.98
12130.0	68391124999999.984
12140.0	67763769999999.98
12150.0	68589099999999.984
12160.0	70361379999999.98
12170.0	70988329999999.97
12180.0	71341364999999.98
12190.0	72188642499999.98
12200.0	71925922499999.98
12210.0	73042512499999.98
12220.0	73232882499999.98
12230.0	73924257499999.98
12240.0	74197427499999.98
12250.0	75212152499999.97
12260.0	75741607500000.0
12270.0	76374949999999.97
12280.0	76749569999999.98
12290.0	76219059999999.98
12300.0	78014149999999.98
12310.0	77971954999999.97
12320.0	79052794999999.98
12330.0	79284112499999.97
12340.0	80351327499999.98
12350.0	81017162499999.98
12360.0	81454222499999.98
12370.0	81802599999999.98
12380.0	82721077499999.98
12390.0	83150914999999.98
12400.0	83830434999999.97
12410.0	84300137499999.98
12420.0	84997999999999.98
12430.0	85574379999999.97
12440.0	86207249999999.98
12450.0	86848299999999.98
12460.0	87310842499999.97
12470.0	87934797499999.98
12480.0	88589754999999.97
12490.0	89096539999999.98
12500.0	89721089999999.98
12510.0	90399602499999.98
12520.0	91051214999999.98
12530.0	91688747499999.98
12540.0	90927512499999.97
12550.0	92812704999999.98
12560.0	93441612499999.97
12570.0	94149414999999.98
12580.0	94815232499999.98
12590.0	95369299999999.97
12600.0	96006129999999.97
12610.0	96752214999999.98
12620.0	97363467499999.97
12630.0	97985382499999.97
12640.0	98592507499999.97
12650.0	99219302499999.97
12660.0	99823297499999.97
12670.0	100398549999999.97
12680.0	101181499999999.97
12690.0	101947349999999.97
12700.0	102513362499999.98
12710.0	102540112499999.97
12720.0	102812362499999.97
12730.0	104259137499999.97
12740.0	104697574999999.97
12750.0	105962049999999.98
12760.0	105834399999999.97
12770.0	107195399999999.97
12780.0	108000799999999.97
12790.0	108549274999999.98
12800.0	108607800000000.0
12810.0	109391499999999.97
12820.0	110442224999999.98
12830.0	109097749999999.97
12840.0	111932249999999.97
12850.0	110286524999999.98
12860.0	113384124999999.97
12870.0	113823549999999.97
12880.0	114604399999999.95
12890.0	115064500000000.0
12900.0	115369999999999.97
12910.0	115487499999999.97
12920.0	115529049999999.98
12930.0	116912549999999.98
12940.0	118318267499999.97
12950.0	111579054999999.97
12960.0	113792902499999.97
12970.0	118713049999999.97
12980.0	121878624999999.95
12990.0	117397454999999.98
13000.0	123234374999999.97
13010.0	123291499999999.98
13020.0	124583074999999.95
13030.0	120044924999999.97
13040.0	124846074999999.98
13050.0	126955099999999.98
13060.0	128115399999999.97
13070.0	126592024999999.97
13080.0	129237649999999.97
13090.0	127895599999999.95
13100.0	130144799999999.94
13110.0	131569724999999.97
13120.0	129447524999999.95
13130.0	132251949999999.98
13140.0	129276149999999.97
13150.0	130877674999999.98
13160.0	131578974999999.95
13170.0	135816974999999.98
13180.0	136704624999999.95
13190.0	125610327499999.97
13200.0	136951257499999.94
13210.0	137825699999999.98
13220.0	140056974999999.95
13230.0	115564859999999.97
13240.0	138000499999999.98
13250.0	141003425000000.0
13260.0	139357899999999.97
13270.0	141158049999999.97
13280.0	141322849999999.94
13290.0	133536374999999.98
13300.0	144553149999999.97
13310.0	141364924999999.97
13320.0	124192069999999.95
13330.0	137919374999999.97
13340.0	140579284999999.97
13350.0	115215404999999.97
13360.0	124206144999999.97
13370.0	86797044999999.97
13380.0	86470054999999.98
13390.0	107237569999999.98
13400.0	119602297499999.98
13410.0	115093412249999.97
13420.0	87782225249999.98
13430.0	119774279999999.97
13440.0	103369584749999.97
13450.0	89303999249999.98
13460.0	133117878249999.98
13470.0	96974557749999.98
13480.0	87445665249999.98
13490.0	99143005749999.97
13500.0	96687457077499.98
13510.0	83047349582499.98
13520.0	55619628699999.984
13530.0	105207282499999.97
13540.0	64552207499999.99
13550.0	62554623979999.98
13560.0	103530384999999.95
13570.0	89504413999999.97
13580.0	86816732199999.97
13590.0	61245679959999.984
13600.0	112448622499999.95
13610.0	90390554999999.97
13620.0	53026772299999.99
13630.0	51147344099999.98
13640.0	112068728009999.97
13650.0	72872015249999.98
13660.0	93903467499999.98
13670.0	88514514999999.98
13680.0	67931761369999.984
13690.0	98391524089999.98
13700.0	81193305999999.98
13710.0	98305944999999.97
13720.0	112805342499999.95
13730.0	142630569999999.94
13740.0	54581233499999.984
13750.0	83861202500000.0
13760.0	107525083999999.97
13770.0	104483369999999.98
13780.0	151017464999999.97
13790.0	146873099999999.97
13800.0	160493781749999.94
13810.0	69212162249999.99
13820.0	150227599999999.97
13830.0	81052971999999.98
13840.0	142747589999999.97
13850.0	120372686499999.98
13860.0	94598766397499.98
13870.0	136277588842499.98
13880.0	103176812499999.98
13890.0	121474939179999.98
13900.0	141928643699999.97
13910.0	88328019999999.98
13920.0	114371612499999.98
13930.0	124571210999999.95
13940.0	127532029999999.97
13950.0	93872729619999.98
13960.0	87661522844999.97
13970.0	99243401914999.98
13980.0	124870409999999.98
13990.0	165184279999999.97
14000.0	88736917499999.98
14010.0	82394969999999.98
14020.0	149316472499999.97
14030.0	144402809999999.94
14040.0	76245516999999.98
14050.0	85821930839999.98
14060.0	150404077499999.97
14070.0	122966482499999.98
14080.0	82488127499999.97
14090.0	118520692999999.98
14100.0	112795240999999.98
14110.0	188506674999999.97
14120.0	109715965249999.97
14130.0	161640276749999.94
14140.0	142655052924999.97
14150.0	121755068474999.95
14160.0	110400403999999.95
14170.0	167283096024999.94
14180.0	71622488174999.98
14190.0	101176713749999.97
14200.0	110599194109999.98
14210.0	126756539499999.97
14220.0	107646599999999.98
14230.0	99735008749999.97
14240.0	97081789449999.98
14250.0	138107000249999.97
14260.0	79732942249999.97
14270.0	137350558499999.97
14280.0	92660468149999.97
14290.0	90880500900000.0
14300.0	175013907749999.94
14310.0	154605871499999.97
14320.0	153159967499999.94
14330.0	136159919999999.97
14340.0	108941014999999.97
14350.0	177295739999999.97
14360.0	144785029999999.97
14370.0	163175474999999.97
14380.0	121536934999999.97
14390.0	125322529249999.97
14400.0	130434867749999.97
14410.0	141646542499999.97
14420.0	126803433999999.98
14430.0	201686677499999.94
14440.0	178795085000000.0
14450.0	142733100249999.97
14460.0	120245665749999.95
14470.0	183029549999999.97
14480.0	181085674999999.94
14490.0	225593649999999.9
14500.0	171363595899999.97
14510.0	90261231299999.98
14520.0	226222599999999.94
14530.0	218216199999999.97
14540.0	171423217499999.94
14550.0	182519604999999.97
14560.0	180159201499999.94
14570.0	204062444999999.94
14580.0	252108849999999.94
14590.0	242765674999999.97
14600.0	251395349999999.88
14610.0	246627200000000.0
14620.0	191156882499999.94
14630.0	118801797499999.98
