# Flux units: erg / (cm m2 s)
# Wavelength units: Angstrom
wave	flux
7000.0	14034.002499999997
7010.0	14359.392499999998
7020.0	14571.465
7030.0	14980.172499999995
7040.0	15291.534999999996
7050.0	15603.614999999998
7060.0	15911.572499999998
7070.0	16216.062499999996
7080.0	16538.157499999994
7090.0	16854.647499999995
7100.0	17172.789999999997
7110.0	17517.0925
7120.0	17854.509999999995
7130.0	18190.499999999996
7140.0	18532.989999999994
7150.0	18896.324999999993
7160.0	19210.909999999996
7170.0	19547.334999999995
7180.0	19968.794999999995
7190.0	20361.979999999996
7200.0	20742.152499999997
7210.0	21124.004999999997
7220.0	21512.83499999999
7230.0	21919.874999999996
7240.0	22324.254999999994
7250.0	22748.709999999995
7260.0	23160.974999999995
7270.0	23587.177499999994
7280.0	24004.454999999994
7290.0	24457.177499999994
7300.0	24887.007499999992
7310.0	25323.267499999994
7320.0	25797.419999999995
7330.0	26278.262499999993
7340.0	26428.502499999995
7350.0	26614.104999999996
7360.0	27314.47499999999
7370.0	27876.714999999997
7380.0	28204.712499999994
7390.0	28526.55249999999
7400.0	29157.704999999994
7410.0	29603.534999999996
7420.0	29693.672499999997
7430.0	30589.7175
7440.0	31196.274999999994
7450.0	31180.334999999995
7460.0	32032.294999999995
7470.0	32821.04749999999
7480.0	33346.0825
7490.0	34156.40249999999
7500.0	34907.35749999999
7510.0	35321.87
7520.0	35974.67249999999
7530.0	36759.67749999999
7540.0	37410.189999999995
7550.0	38122.719999999994
7560.0	38845.5675
7570.0	39521.7875
7580.0	40111.76749999999
7590.0	40829.87
7600.0	41516.68999999999
7610.0	42182.274999999994
7620.0	42828.86749999999
7630.0	43390.30499999999
7640.0	43759.28249999999
7650.0	43292.65999999999
7660.0	34870.279999999984
7670.0	24092.637499999997
7680.0	43527.69999999999
7690.0	44659.82749999999
7700.0	26886.327499999992
7710.0	45047.12749999998
7720.0	49616.984999999986
7730.0	50991.377499999995
7740.0	52007.26999999998
7750.0	52942.05249999998
7760.0	53835.09
7770.0	54727.45
7780.0	55616.024999999994
7790.0	56489.389999999985
7800.0	54855.37999999999
7810.0	58232.7175
7820.0	59230.09
7830.0	60162.69749999998
7840.0	61087.43749999999
7850.0	62034.24999999999
7860.0	62985.804999999986
7870.0	63813.097499999996
7880.0	64887.75499999999
7890.0	65914.90499999998
7900.0	66924.74249999998
7910.0	67793.66249999998
7920.0	68834.99999999999
7930.0	69705.26249999998
7940.0	70726.59249999998
7950.0	67303.39749999998
7960.0	72950.80999999998
7970.0	73932.53499999997
7980.0	75116.19999999998
7990.0	76180.62499999999
8000.0	77192.445
8010.0	78315.21249999998
8020.0	79519.94499999998
8030.0	80889.54999999999
8040.0	82133.40999999999
8050.0	83109.20499999999
8060.0	84410.73999999999
8070.0	85762.26249999998
8080.0	87073.26999999996
8090.0	88357.52999999997
8100.0	89640.18749999999
8110.0	90771.70999999998
8120.0	92222.05749999998
8130.0	93645.92499999997
8140.0	94894.20499999999
8150.0	96092.82999999997
8160.0	97743.73749999999
8170.0	99142.27749999998
8180.0	100294.30249999999
8190.0	101891.92499999997
8200.0	103320.04999999997
8210.0	104807.67499999997
8220.0	106280.54999999997
8230.0	107365.025
8240.0	109066.94999999998
8250.0	110744.69999999997
8260.0	112238.64999999998
8270.0	113568.22499999998
8280.0	115371.57499999997
8290.0	116902.29999999997
8300.0	118522.79999999997
8310.0	120007.07499999998
8320.0	121708.72499999998
8330.0	123428.14999999997
8340.0	125083.09999999999
8350.0	126776.62499999999
8360.0	128425.92499999994
8370.0	130140.14999999998
8380.0	131869.92499999996
8390.0	133575.59999999995
8400.0	135300.97499999995
8410.0	137216.2499999999
8420.0	139042.09999999998
8430.0	140824.49999999997
8440.0	142638.02499999997
8450.0	144488.17499999996
8460.0	146336.22499999998
8470.0	148118.175
8480.0	150202.9
8490.0	152118.04999999996
8500.0	154150.62499999997
8510.0	156135.22499999998
8520.0	158110.42499999996
8530.0	159688.25
8540.0	161282.89999999997
8550.0	163731.24999999997
8560.0	166010.69999999995
8570.0	168189.14999999997
8580.0	170160.69999999995
8590.0	171627.79999999996
8600.0	173803.37499999997
8610.0	176258.025
8620.0	178598.39999999994
8630.0	180568.42499999996
8640.0	182408.19999999995
8650.0	184691.07499999992
8660.0	187338.57499999995
8670.0	189547.19999999998
8680.0	191280.24999999994
8690.0	194178.6999999999
8700.0	196470.22499999998
8710.0	199215.8749999999
8720.0	201772.97499999992
8730.0	204436.42499999996
8740.0	206818.675
8750.0	209170.6
8760.0	211929.07499999998
8770.0	214512.67499999996
8780.0	217200.49999999994
8790.0	219900.02499999994
8800.0	222608.97499999995
8810.0	225209.74999999997
8820.0	227770.77499999994
8830.0	230557.89999999994
8840.0	232974.44999999995
8850.0	236111.64999999997
8860.0	238795.12499999994
8870.0	241701.94999999992
8880.0	244480.97499999995
8890.0	247310.37499999997
8900.0	250139.77499999997
8910.0	252351.14999999994
8920.0	254874.67499999996
8930.0	258126.8749999999
8940.0	261430.1749999999
8950.0	264705.7249999999
8960.0	267640.39999999997
8970.0	267863.85
8980.0	273701.92499999993
8990.0	274032.37499999994
9000.0	280002.99999999994
9010.0	282040.67499999993
9020.0	286500.3999999999
9030.0	289615.7749999999
9040.0	292780.99999999994
9050.0	295980.74999999994
9060.0	299349.8999999999
9070.0	302663.4999999999
9080.0	305905.92499999993
9090.0	309085.6749999999
9100.0	312551.7249999999
9110.0	316152.79999999993
9120.0	319723.5249999999
9130.0	323127.72499999986
9140.0	326580.32499999995
9150.0	329494.7499999999
9160.0	332846.7499999999
9170.0	336522.4249999998
9180.0	340820.2249999999
9190.0	343898.79999999993
9200.0	347072.0749999999
9210.0	350955.52499999997
9220.0	355262.6249999999
9230.0	359509.04999999993
9240.0	363291.5499999999
9250.0	366158.6249999999
9260.0	368135.29999999993
9270.0	371379.9749999999
9280.0	370533.1499999999
9290.0	367571.1749999999
9300.0	383338.4249999999
9310.0	374165.3999999999
9320.0	393463.34999999986
9330.0	391678.07499999995
9340.0	384455.87499999994
9350.0	374364.8499999999
9360.0	392605.49999999994
9370.0	386979.475
9380.0	415067.8749999999
9390.0	421035.7499999999
9400.0	426210.29999999993
9410.0	431015.5499999999
9420.0	434397.4999999999
9430.0	440517.5749999999
9440.0	445296.3249999999
9450.0	449138.2249999999
9460.0	451478.9499999999
9470.0	437994.75
9480.0	461231.4499999999
9490.0	465471.1249999998
9500.0	447555.1499999999
9510.0	473894.2999999999
9520.0	477401.24999999994
9530.0	482040.1249999998
9540.0	490507.9749999999
9550.0	492189.3999999999
9560.0	475122.2999999999
9570.0	504189.87499999994
9580.0	508382.07499999995
9590.0	515036.5999999999
9600.0	505348.72499999986
9610.0	525098.975
9620.0	504437.97499999986
9630.0	534660.7999999999
9640.0	536571.8999999999
9650.0	541061.2499999998
9660.0	549547.7249999999
9670.0	553575.2499999999
9680.0	561188.9249999999
9690.0	565949.0249999999
9700.0	571614.4749999999
9710.0	576190.7749999998
9720.0	580319.6999999998
9730.0	584949.7999999999
9740.0	590677.1999999998
9750.0	595472.0749999998
9760.0	603672.2999999999
9770.0	609690.8249999998
9780.0	615803.5999999999
9790.0	620284.7249999999
9800.0	624666.9499999998
9810.0	632318.575
9820.0	638976.5749999998
9830.0	644759.575
9840.0	650042.85
9850.0	655392.2999999998
9860.0	659878.5499999998
9870.0	668094.7499999999
9880.0	671000.4999999998
9890.0	678231.9999999998
9900.0	685829.9999999999
9910.0	693289.2
9920.0	698642.8999999998
9930.0	704853.6999999998
9940.0	709177.725
9950.0	718024.4999999998
9960.0	723689.7749999998
9970.0	730968.8999999998
9980.0	737155.4999999999
9990.0	743184.6249999999
10000.0	748861.6249999998
10010.0	755304.3249999998
10020.0	762148.2999999999
10030.0	768574.8999999998
10040.0	774635.0499999997
10050.0	782453.9249999998
10060.0	788922.1499999998
10070.0	795777.7249999997
10080.0	801902.4749999997
10090.0	808987.2999999999
10100.0	816397.0499999997
10110.0	822949.9749999999
10120.0	829540.1749999998
10130.0	837131.8999999999
10140.0	844148.1999999997
10150.0	851302.5749999998
10160.0	858462.2999999998
10170.0	865652.8749999999
10180.0	872396.1249999998
10190.0	879971.9499999997
10200.0	887316.7999999999
10210.0	894630.4749999999
10220.0	902035.1499999998
10230.0	909449.9249999998
10240.0	916967.2499999999
10250.0	924243.2999999998
10260.0	931963.5249999998
10270.0	939650.1249999999
10280.0	947237.2749999998
10290.0	954951.5249999998
10300.0	962628.5249999999
10310.0	970272.6499999997
10320.0	977854.1999999996
10330.0	985782.7499999997
10340.0	993799.4249999998
10350.0	1001589.3499999997
10360.0	1010126.2499999998
10370.0	1017714.7499999999
10380.0	1025654.4999999999
10390.0	1033656.7499999998
10400.0	1041902.2499999998
10410.0	1050451.7499999995
10420.0	1058343.0
10430.0	1066596.75
10440.0	1074922.2499999998
10450.0	1082996.5
10460.0	1091444.4999999995
10470.0	1099961.0
10480.0	1108218.0
10490.0	1117378.4999999998
10500.0	1124608.4999999995
10510.0	1133970.4999999998
10520.0	1142880.4999999998
10530.0	1151265.9999999998
10540.0	1160450.9999999995
10550.0	1168966.4999999998
10560.0	1178152.4999999995
10570.0	1186249.9999999998
10580.0	1195641.9999999998
10590.0	1203929.9999999998
10600.0	1212345.9999999995
10610.0	1222930.7499999998
10620.0	1233179.7499999998
10630.0	1244443.4999999993
10640.0	1253720.4999999998
10650.0	1262923.4999999995
10660.0	1272331.9999999998
10670.0	1279975.9999999998
10680.0	1290184.9999999995
10690.0	1300099.9999999998
10700.0	1309108.9999999995
10710.0	1319475.9999999995
10720.0	1328617.9999999995
10730.0	1338525.4999999995
10740.0	1348342.4999999998
10750.0	1358314.4999999995
10760.0	1368360.4999999998
10770.0	1377768.9999999998
10780.0	1386202.25
10790.0	1397016.2499999998
10800.0	1407267.4999999995
10810.0	1417837.9999999998
10820.0	1428238.4999999998
10830.0	1438057.4999999995
10840.0	1447525.7499999998
10850.0	1458144.4999999998
10860.0	1468845.7499999995
10870.0	1477837.4999999998
10880.0	1488680.7499999998
10890.0	1498913.7499999995
10900.0	1506002.9999999995
10910.0	1519764.9999999995
10920.0	1529154.5
10930.0	1536216.4999999998
10940.0	1547174.4999999995
10950.0	1559468.4999999998
10960.0	1565521.7499999995
10970.0	1574474.7499999995
10980.0	1575329.0
10990.0	1584558.4999999995
11000.0	1613183.9999999998
11010.0	1574805.9999999995
11020.0	1627390.9999999995
11030.0	1609428.4999999995
11040.0	1654062.5
11050.0	1657078.2499999998
11060.0	1671207.2499999995
11070.0	1680838.4999999998
11080.0	1692232.4999999995
11090.0	1717023.4999999995
11100.0	1725362.4999999998
11110.0	1727175.4999999998
11120.0	1745937.9999999995
11130.0	1754825.7499999995
11140.0	1759948.75
11150.0	1582443.75
11160.0	1740442.75
11170.0	1742653.7499999998
11180.0	1805176.2499999995
11190.0	1773862.4999999993
11200.0	1590538.7499999995
11210.0	1823665.75
11220.0	1685149.2749999997
11230.0	1847065.0749999995
11240.0	1787783.7499999995
11250.0	1740654.7499999998
11260.0	1845708.4999999998
11270.0	1823095.7499999998
11280.0	1925538.7499999998
11290.0	1946966.7499999995
11300.0	1953391.4999999993
11310.0	1918418.4999999998
11320.0	1985077.9999999995
11330.0	1997259.7499999993
11340.0	1995383.2499999995
11350.0	1752645.9999999995
11360.0	1982731.9999999995
11370.0	2038807.9999999995
11380.0	2037114.7499999998
11390.0	2060111.75
11400.0	2085977.0
11410.0	2085539.999999999
11420.0	2050458.999999999
11430.0	2095382.7499999998
11440.0	2043639.2499999995
11450.0	2128115.4999999995
11460.0	2128189.749999999
11470.0	2169942.499999999
11480.0	2049656.7499999995
11490.0	2184289.7499999995
11500.0	1980552.2499999995
11510.0	2235898.2499999995
11520.0	2250222.7499999995
11530.0	2259749.4999999995
11540.0	2241696.999999999
11550.0	2242741.5
11560.0	2297192.999999999
11570.0	2265710.4999999995
11580.0	2284160.5
11590.0	2346673.4999999995
11600.0	2232293.7499999995
11610.0	2352317.7499999995
11620.0	2387548.5
11630.0	2386981.4999999995
11640.0	2180073.4999999995
11650.0	2408150.0
11660.0	2333284.0
11670.0	2452898.4999999995
11680.0	2468602.499999999
11690.0	2467955.499999999
11700.0	2431908.9999999995
11710.0	2494124.749999999
11720.0	2529364.75
11730.0	2307834.0
11740.0	2527740.9999999995
11750.0	2552564.75
11760.0	2583678.2499999995
11770.0	2596350.9999999995
11780.0	2581662.4999999995
11790.0	2628783.5
11800.0	2624423.499999999
11810.0	2642036.999999999
11820.0	2640969.7499999995
11830.0	2692482.249999999
11840.0	2705536.7499999995
11850.0	2668419.249999999
11860.0	2708357.999999999
11870.0	2737562.999999999
11880.0	2763293.5
11890.0	2779403.25
11900.0	2795810.0
11910.0	2816926.2499999995
11920.0	2829114.75
11930.0	2849383.2499999995
11940.0	2857611.9999999995
11950.0	2878731.9999999995
11960.0	2893677.4999999995
11970.0	2910053.2499999995
11980.0	2898876.4999999995
11990.0	2920770.7499999995
12000.0	2959548.999999999
12010.0	2975780.4999999995
12020.0	2981863.2499999995
12030.0	3002657.2499999995
12040.0	3014584.4999999995
12050.0	3042115.499999999
12060.0	3056330.0
12070.0	3071857.999999999
12080.0	3089058.4999999995
12090.0	3102062.2499999995
12100.0	3121237.2499999995
12110.0	3138169.749999999
12120.0	3147765.999999999
12130.0	3164853.4999999986
12140.0	3178226.999999999
12150.0	3197642.9999999995
12160.0	3222927.7499999995
12170.0	3239858.9999999986
12180.0	3252383.999999999
12190.0	3273414.0
12200.0	3282307.9999999995
12210.0	3305604.7499999995
12220.0	3321627.749999999
12230.0	3340613.4999999986
12240.0	3356029.7499999995
12250.0	3377344.2499999986
12260.0	3393133.9999999995
12270.0	3410558.4999999986
12280.0	3425907.499999999
12290.0	3438819.9999999995
12300.0	3463581.999999999
12310.0	3473380.749999999
12320.0	3497243.249999999
12330.0	3512578.999999999
12340.0	3535086.9999999995
12350.0	3554473.9999999986
12360.0	3571088.0
12370.0	3585923.999999999
12380.0	3607453.9999999995
12390.0	3622642.749999999
12400.0	3640833.4999999995
12410.0	3659322.7499999995
12420.0	3677903.249999999
12430.0	3694673.7499999995
12440.0	3715355.9999999995
12450.0	3732505.9999999986
12460.0	3748221.9999999995
12470.0	3768561.999999999
12480.0	3786394.4999999995
12490.0	3805398.9999999995
12500.0	3822964.9999999986
12510.0	3842161.5
12520.0	3860117.9999999986
12530.0	3877938.0000000005
12540.0	3883768.999999999
12550.0	3915172.9999999995
12560.0	3937317.9999999995
12570.0	3955494.0
12580.0	3973751.9999999986
12590.0	3992324.499999999
12600.0	4010518.9999999995
12610.0	4030650.4999999986
12620.0	4047863.5
12630.0	4070053.2499999986
12640.0	4086958.9999999995
12650.0	4107717.249999998
12660.0	4124784.9999999986
12670.0	4144055.7499999995
12680.0	4162704.4999999995
12690.0	4185773.7499999995
12700.0	4204371.249999998
12710.0	4216278.249999998
12720.0	4235480.249999999
12730.0	4258690.249999999
12740.0	4275888.749999999
12750.0	4301307.249999998
12760.0	4313215.249999999
12770.0	4340854.75
12780.0	4359391.499999999
12790.0	4379257.249999999
12800.0	4397450.999999999
12810.0	4415955.999999998
12820.0	4439668.249999999
12830.0	4442796.25
12840.0	4478685.749999999
12850.0	4479401.999999998
12860.0	4518565.999999999
12870.0	4537343.999999999
12880.0	4560373.999999999
12890.0	4576678.999999999
12900.0	4590448.999999999
12910.0	4606869.999999998
12920.0	4624635.249999998
12930.0	4655337.749999998
12940.0	4675351.499999998
12950.0	4631278.249999999
12960.0	4664895.249999999
12970.0	4734009.999999999
12980.0	4764313.999999999
12990.0	4722422.999999999
13000.0	4805904.249999998
13010.0	4826146.999999998
13020.0	4845360.249999999
13030.0	4837985.499999999
13040.0	4884572.249999998
13050.0	4908803.749999998
13060.0	4931745.999999998
13070.0	4938870.249999998
13080.0	4966804.499999999
13090.0	4978843.249999999
13100.0	5007305.499999998
13110.0	5037330.5
13120.0	5039419.999999998
13130.0	5067629.999999999
13140.0	5074818.0
13150.0	5108609.499999998
13160.0	5105848.499999998
13170.0	5157649.999999999
13180.0	5178493.999999999
13190.0	5150074.999999999
13200.0	5219923.0
13210.0	5241745.249999999
13220.0	5266546.749999999
13230.0	5041488.249999999
13240.0	5294731.749999997
13250.0	5324147.999999998
13260.0	5317366.999999999
13270.0	5354370.999999998
13280.0	5344197.25
13290.0	5379842.499999999
13300.0	5440969.249999999
13310.0	5432914.499999999
13320.0	5384924.75
13330.0	5425148.999999998
13340.0	5469356.249999999
13350.0	4990357.249999999
13360.0	5414393.749999999
13370.0	4557567.499999999
13380.0	5078493.249999999
13390.0	5075854.499999998
13400.0	5536803.5
13410.0	5473862.499999999
13420.0	4691581.749999999
13430.0	5606608.749999998
13440.0	4808139.5
13450.0	4113365.499999999
13460.0	5598532.1499999985
13470.0	4755697.799999999
13480.0	5337538.749999999
13490.0	5320302.249999999
13500.0	4792174.475
13510.0	5333023.174999999
13520.0	3792641.9999999995
13530.0	5733696.999999999
13540.0	4518514.749999999
13550.0	4065074.0999999987
13560.0	4894593.749999999
13570.0	5423815.749999999
13580.0	4980292.999999998
13590.0	3851244.8499999996
13600.0	5901463.249999999
13610.0	5899914.999999999
13620.0	4821333.999999999
13630.0	4286864.999999999
13640.0	4928944.199999999
13650.0	5424742.249999998
13660.0	5848668.499999999
13670.0	5540530.749999998
13680.0	5144943.174999999
13690.0	4866165.225
13700.0	5139397.499999999
13710.0	5793962.999999998
13720.0	5760639.249999998
13730.0	6353937.999999998
13740.0	4825540.0
13750.0	5357539.749999998
13760.0	5585572.499999999
13770.0	6038808.249999998
13780.0	6301341.749999999
13790.0	6439494.499999998
13800.0	6472090.999999998
13810.0	5501208.749999998
13820.0	6536533.499999998
13830.0	5500144.749999999
13840.0	6124037.5
13850.0	6351155.499999999
13860.0	5450741.75
13870.0	6095671.749999999
13880.0	6208711.999999996
13890.0	5144282.649999999
13900.0	5495486.499999998
13910.0	5722082.749999998
13920.0	6621587.749999999
13930.0	5934856.499999998
13940.0	6445464.499999998
13950.0	4539743.3999999985
13960.0	5976078.024999999
13970.0	5362911.924999999
13980.0	6456195.999999999
13990.0	6917923.749999999
14000.0	5851711.499999998
14010.0	6443410.999999999
14020.0	6687571.999999999
14030.0	6576815.249999998
14040.0	4998876.5
14050.0	5053670.149999998
14060.0	6829140.249999999
14070.0	6549871.249999999
14080.0	5729078.249999998
14090.0	6774357.749999998
14100.0	6557337.999999999
14110.0	7258497.499999998
14120.0	5860022.749999999
14130.0	6758697.249999998
14140.0	7085496.124999997
14150.0	5964999.124999998
14160.0	5754331.999999999
14170.0	7126926.749999999
14180.0	4747621.749999999
14190.0	5926002.749999998
14200.0	5521811.099999998
14210.0	6385221.749999998
14220.0	6456375.249999999
14230.0	6030298.499999998
14240.0	5707779.749999999
14250.0	6551768.249999999
14260.0	5544429.249999999
14270.0	6811093.5
14280.0	5891285.249999998
14290.0	5681359.999999999
14300.0	6887811.999999998
14310.0	6347037.499999999
14320.0	7583973.999999999
14330.0	6950814.749999996
14340.0	7316731.499999998
14350.0	7561337.249999998
14360.0	7296106.499999997
14370.0	7607255.25
14380.0	6334379.999999998
14390.0	6410765.999999997
14400.0	7363211.499999999
14410.0	7145561.249999997
14420.0	6731507.25
14430.0	7894055.749999998
14440.0	7461408.499999999
14450.0	6977098.249999999
14460.0	7399166.499999998
14470.0	7875670.25
14480.0	7721184.499999999
14490.0	8143090.249999998
14500.0	7941499.249999998
14510.0	6027879.499999999
14520.0	8184711.749999998
14530.0	8055223.25
14540.0	7618962.749999998
14550.0	7183703.999999998
14560.0	7241412.499999997
14570.0	8107825.749999999
14580.0	8399001.749999998
14590.0	8249408.499999997
14600.0	8433891.999999998
14610.0	8411611.249999998
14620.0	7749664.499999999
14630.0	7539325.249999999
14640.0	8576966.249999998
14650.0	7775720.999999998
14660.0	7830122.999999997
14670.0	8322687.249999999
14680.0	7963590.999999998
14690.0	7825057.249999997
14700.0	8696995.0
14710.0	8569825.25
14720.0	8721551.499999998
14730.0	8043848.499999998
14740.0	8412904.749999998
14750.0	8409014.999999998
14760.0	8083066.999999998
14770.0	8781360.999999998
14780.0	8849968.749999998
14790.0	8573021.499999998
14800.0	8852404.999999998
14810.0	9033509.749999996
14820.0	8874483.749999998
14830.0	8056452.249999999
14840.0	9164455.249999996
14850.0	8966252.499999996
14860.0	8809515.249999998
14870.0	9146841.749999998
14880.0	8738946.25
14890.0	9079738.249999998
14900.0	8442412.249999998
