# Flux units: erg / (cm m2 s)
# Wavelength units: Angstrom
wave	flux
7000.0	287.65059999999994
7010.0	297.08632499999993
7020.0	305.71292499999987
7030.0	314.9259499999999
7040.0	324.44575
7050.0	334.1184249999999
7060.0	344.1771749999999
7070.0	353.8849999999999
7080.0	364.6287249999999
7090.0	374.78852499999994
7100.0	385.41144999999995
7110.0	397.4958249999999
7120.0	409.24019999999996
7130.0	420.56979999999993
7140.0	432.13692499999985
7150.0	445.5257499999999
7160.0	456.82087499999994
7170.0	462.14597499999985
7180.0	480.18222499999985
7190.0	496.6499749999999
7200.0	512.0355000000001
7210.0	525.7994499999999
7220.0	540.9414499999998
7230.0	556.2901749999999
7240.0	570.193225
7250.0	588.8404499999998
7260.0	603.0586749999999
7270.0	620.9221999999997
7280.0	637.3109499999999
7290.0	655.2784499999998
7300.0	670.96535
7310.0	687.6891249999999
7320.0	709.5471249999998
7330.0	731.6956999999999
7340.0	750.4364249999999
7350.0	766.3674249999999
7360.0	791.2228749999999
7370.0	809.6370749999998
7380.0	835.2564749999998
7390.0	858.7269999999997
7400.0	881.1934249999998
7410.0	901.9778749999998
7420.0	927.7511499999997
7430.0	953.1634749999998
7440.0	976.9838249999998
7450.0	1003.3944249999997
7460.0	1030.5849999999996
7470.0	1057.4049999999995
7480.0	1083.7824999999996
7490.0	1112.9944999999996
7500.0	1142.0545
7510.0	1170.8344999999997
7520.0	1200.8039999999999
7530.0	1231.2504999999996
7540.0	1262.1432499999996
7550.0	1293.8294999999994
7560.0	1325.7722499999995
7570.0	1357.9559999999997
7580.0	1390.0052499999997
7590.0	1422.40925
7600.0	1453.8727499999998
7610.0	1483.8829999999996
7620.0	1510.0034999999996
7630.0	1528.6084999999996
7640.0	1528.1559999999997
7650.0	1480.5559999999998
7660.0	1310.6944999999996
7670.0	1239.8209999999997
7680.0	1506.232
7690.0	1557.6944999999996
7700.0	1335.8047499999996
7710.0	1613.3984999999998
7720.0	1833.1829999999993
7730.0	1941.3342499999997
7740.0	2016.5649999999998
7750.0	2080.8774999999996
7760.0	2140.162499999999
7770.0	2197.5209999999993
7780.0	2254.2782499999994
7790.0	2308.4439999999995
7800.0	2211.9925
7810.0	2412.4667499999996
7820.0	2483.858749999999
7830.0	2544.5787499999997
7840.0	2605.707249999999
7850.0	2667.9092499999997
7860.0	2730.0927499999993
7870.0	2792.4602499999996
7880.0	2856.5827499999996
7890.0	2921.9597499999995
7900.0	2987.052749999999
7910.0	3061.5955
7920.0	3133.0317499999987
7930.0	3203.1989999999987
7940.0	3272.419499999999
7950.0	3120.217249999999
7960.0	3421.8547499999986
7970.0	3502.939249999999
7980.0	3579.895249999999
7990.0	3661.9799999999987
8000.0	3741.403249999999
8010.0	3827.1079999999997
8020.0	3912.7967499999995
8030.0	3995.7214999999987
8040.0	4088.7747499999987
8050.0	4177.513
8060.0	4269.8584999999985
8070.0	4360.312999999999
8080.0	4458.44875
8090.0	4549.335
8100.0	4639.100499999999
8110.0	4681.548
8120.0	4811.570749999999
8130.0	4941.049749999999
8140.0	4967.134499999999
8150.0	5069.872749999999
8160.0	5254.015249999999
8170.0	5374.463999999998
8180.0	5417.336499999999
8190.0	5610.8857499999995
8200.0	5708.998249999999
8210.0	5860.76125
8220.0	5985.462249999998
8230.0	5899.920249999998
8240.0	6159.297499999999
8250.0	6365.989499999999
8260.0	6485.264999999999
8270.0	6583.646749999998
8280.0	6763.884749999997
8290.0	6867.9659999999985
8300.0	7028.0462499999985
8310.0	7143.530249999998
8320.0	7297.549499999998
8330.0	7467.067499999998
8340.0	7631.442499999997
8350.0	7797.0115000000005
8360.0	7928.087249999997
8370.0	8106.379249999999
8380.0	8254.866749999997
8390.0	8415.445249999999
8400.0	8572.407249999998
8410.0	8773.39475
8420.0	8956.5
8430.0	9130.704749999997
8440.0	9310.089499999996
8450.0	9486.952249999997
8460.0	9663.008249999997
8470.0	9828.246249999998
8480.0	10060.475999999999
8490.0	10239.039999999997
8500.0	10464.844999999998
8510.0	10669.019999999997
8520.0	10863.207499999999
8530.0	11083.119999999999
8540.0	11284.474999999997
8550.0	11510.642499999996
8560.0	11728.927499999998
8570.0	11953.237499999996
8580.0	12180.934999999994
8590.0	12408.572499999997
8600.0	12644.989999999998
8610.0	12855.472499999998
8620.0	13021.524999999998
8630.0	13217.779999999995
8640.0	13493.654999999995
8650.0	13770.97
8660.0	14080.517499999996
8670.0	14353.674999999996
8680.0	14608.147499999995
8690.0	14891.954999999996
8700.0	15130.769999999997
8710.0	15406.252499999995
8720.0	15686.407499999998
8730.0	16008.409999999994
8740.0	16264.404999999999
8750.0	16589.969999999994
8760.0	16896.794999999995
8770.0	17173.229999999996
8780.0	17519.782499999994
8790.0	17809.679999999993
8800.0	18148.249999999993
8810.0	18446.242499999997
8820.0	18781.907499999994
8830.0	19128.065
8840.0	19440.929999999993
8850.0	19800.029999999995
8860.0	20127.544999999995
8870.0	20509.959999999995
8880.0	20849.589999999993
8890.0	21204.742499999993
8900.0	21577.8575
8910.0	21696.534999999996
8920.0	21984.892499999998
8930.0	22404.59249999999
8940.0	22863.709999999992
8950.0	23405.312499999996
8960.0	23717.202499999996
8970.0	22454.322499999995
8980.0	24536.394999999993
8990.0	23254.054999999997
9000.0	25401.21749999999
9010.0	25089.447499999995
9020.0	26371.139999999996
9030.0	26752.077499999992
9040.0	27260.064999999995
9050.0	27642.327499999992
9060.0	28159.392499999994
9070.0	28584.584999999992
9080.0	28988.694999999992
9090.0	29392.04499999999
9100.0	29865.127499999995
9110.0	30154.504999999997
9120.0	31005.46499999999
9130.0	31494.26
9140.0	31976.047499999986
9150.0	32201.64249999999
9160.0	32214.882499999996
9170.0	33197.94249999999
9180.0	34034.334999999985
9190.0	34277.56749999999
9200.0	34429.557499999995
9210.0	35358.602499999986
9220.0	35874.69749999999
9230.0	36978.032499999994
9240.0	37469.44999999999
9250.0	37709.41249999999
9260.0	37121.82499999999
9270.0	37977.042499999996
9280.0	36017.517499999994
9290.0	33257.972499999996
9300.0	38236.63499999999
9310.0	33524.11949999999
9320.0	40252.347499999996
9330.0	35287.532499999994
9340.0	30066.439999999995
9350.0	32516.929499999995
9360.0	35174.282499999994
9370.0	32658.25149999999
9380.0	42619.8195
9390.0	45193.07749999999
9400.0	46859.22999999999
9410.0	47126.41749999999
9420.0	47225.60749999999
9430.0	49144.9125
9440.0	49024.04249999999
9450.0	48909.46499999998
9460.0	48264.23499999999
9470.0	42311.37999999998
9480.0	50666.13249999999
9490.0	52003.727499999986
9500.0	41170.90249999999
9510.0	52706.659999999996
9520.0	51476.21999999998
9530.0	53520.71249999998
9540.0	57342.89499999998
9550.0	57099.36999999998
9560.0	47191.91749999999
9570.0	58349.439999999995
9580.0	59364.862499999996
9590.0	59875.35249999999
9600.0	55121.952499999985
9610.0	63103.4625
9620.0	54673.52749999999
9630.0	65468.827499999985
9640.0	63216.75499999998
9650.0	64258.31749999999
9660.0	68124.92499999999
9670.0	66143.40749999999
9680.0	70984.01249999997
9690.0	71198.76499999998
9700.0	72149.89499999997
9710.0	73527.1875
9720.0	72550.38249999996
9730.0	73571.03999999998
9740.0	75873.05249999996
9750.0	74550.66499999998
9760.0	78369.9925
9770.0	79497.89499999999
9780.0	80956.94999999998
9790.0	80349.13249999998
9800.0	80402.2275
9810.0	84694.21249999998
9820.0	86361.77249999998
9830.0	86929.48749999999
9840.0	88755.41749999998
9850.0	89082.35749999998
9860.0	90231.92249999997
9870.0	92137.06249999997
9880.0	92543.99499999997
9890.0	94169.12
9900.0	95925.58999999998
9910.0	97947.60749999998
9920.0	98663.65249999998
9930.0	100008.14499999997
9940.0	100843.38499999997
9950.0	103405.77499999997
9960.0	104246.94999999998
9970.0	105960.44999999997
9980.0	107496.84999999998
9990.0	108600.29999999997
10000.0	109737.87499999999
10010.0	111206.04999999996
10020.0	112803.22499999999
10030.0	114141.89999999998
10040.0	115285.92499999997
10050.0	117159.49999999997
10060.0	118413.47499999998
10070.0	120026.525
10080.0	121078.82499999997
10090.0	122805.17499999996
10100.0	124514.77499999998
10110.0	125915.17499999997
10120.0	127265.99999999997
10130.0	128960.89999999997
10140.0	130531.39999999995
10150.0	132099.27499999997
10160.0	133722.82499999995
10170.0	135312.34999999998
10180.0	136798.14999999997
10190.0	138529.44999999995
10200.0	140186.3
10210.0	141834.07499999995
10220.0	143510.92499999996
10230.0	145191.92499999996
10240.0	146834.4
10250.0	148542.44999999998
10260.0	150289.19999999998
10270.0	152081.925
10280.0	153829.79999999996
10290.0	155592.97499999995
10300.0	157397.27499999997
10310.0	159154.59999999998
10320.0	160876.02499999997
10330.0	162765.44999999998
10340.0	164688.37499999997
10350.0	166541.49999999994
10360.0	168445.74999999997
10370.0	170342.09999999998
10380.0	172240.32499999998
10390.0	174153.67499999996
10400.0	176123.29999999996
10410.0	178084.09999999998
10420.0	180054.74999999997
10430.0	182032.87499999994
10440.0	184040.27499999994
10450.0	186080.04999999996
10460.0	188115.77499999994
10470.0	190180.92499999996
10480.0	192281.49999999997
10490.0	194365.57499999995
10500.0	196420.97499999998
10510.0	198609.37499999994
10520.0	200726.54999999996
10530.0	202899.27499999997
10540.0	205146.87499999994
10550.0	207350.14999999997
10560.0	209574.92499999993
10570.0	211855.49999999997
10580.0	214016.3999999999
10590.0	216263.12499999994
10600.0	217427.99999999994
10610.0	220888.92499999993
10620.0	223326.6249999999
10630.0	226319.49999999994
10640.0	228948.07499999995
10650.0	231190.4999999999
10660.0	233767.69999999992
10670.0	235114.17499999996
10680.0	237722.47499999998
10690.0	240901.69999999995
10700.0	242605.82499999995
10710.0	245751.22499999992
10720.0	248289.17499999993
10730.0	250941.69999999995
10740.0	253207.74999999997
10750.0	255747.8749999999
10760.0	258985.92499999993
10770.0	261021.64999999994
10780.0	262551.6499999999
10790.0	266738.9749999999
10800.0	268551.24999999994
10810.0	271987.05
10820.0	274800.24999999994
10830.0	277783.5
10840.0	280267.3249999999
10850.0	282932.32499999995
10860.0	285490.59999999986
10870.0	286518.5999999999
10880.0	291588.14999999997
10890.0	294247.975
10900.0	293978.575
10910.0	298565.27499999997
10920.0	299961.925
10930.0	300674.79999999993
10940.0	303495.62499999994
10950.0	308908.6
10960.0	305659.1499999999
10970.0	311879.7
10980.0	304849.175
10990.0	308937.6249999999
11000.0	320201.5249999999
11010.0	296892.79999999993
11020.0	315097.87499999994
11030.0	299529.04999999993
11040.0	319912.17499999993
11050.0	324201.35
11060.0	312827.1999999999
11070.0	319028.42499999993
11080.0	313195.32499999995
11090.0	344871.4749999999
11100.0	333236.39999999985
11110.0	310753.6999999999
11120.0	344880.37499999994
11130.0	313353.6499999999
11140.0	342579.1999999999
11150.0	278331.01599999995
11160.0	300557.04999999993
11170.0	272972.6749999999
11180.0	350403.17499999993
11190.0	283003.0999999999
11200.0	239660.3694999999
11210.0	362944.2634999999
11220.0	296454.774
11230.0	324103.68199999986
11240.0	282587.51499999996
11250.0	319286.0325
11260.0	325694.9725
11270.0	322694.5374999999
11280.0	395281.5374999999
11290.0	402329.37499999994
11300.0	381277.35
11310.0	374547.3499999999
11320.0	420177.1999999999
11330.0	394594.5999999999
11340.0	337787.45249999996
11350.0	243988.25249999994
11360.0	383712.92500000005
11370.0	423280.2499999999
11380.0	433483.0249999999
11390.0	443096.74999999994
11400.0	448463.6249999998
11410.0	453227.67499999993
11420.0	404964.94999999995
11430.0	428135.24999999994
11440.0	384934.77499999985
11450.0	440514.1249999999
11460.0	451530.22499999986
11470.0	466388.9774999999
11480.0	379330.7424999999
11490.0	464187.0775000001
11500.0	305234.7825
11510.0	492840.3249999999
11520.0	467619.1999999999
11530.0	452429.17499999993
11540.0	428794.77499999985
11550.0	449855.6249999999
11560.0	470076.7999999999
11570.0	452565.67499999993
11580.0	454391.4749999998
11590.0	500652.02499999997
11600.0	448355.6574999999
11610.0	508646.97249999974
11620.0	530133.2999999999
11630.0	548815.825
11640.0	410288.545
11650.0	517118.0499999998
11660.0	490203.7999999999
11670.0	562269.1999999998
11680.0	563852.1249999999
11690.0	534892.2499999999
11700.0	502811.19999999995
11710.0	567023.6
11720.0	597384.825
11730.0	470722.64999999985
11740.0	550435.8249999998
11750.0	582200.2249999999
11760.0	614999.2499999998
11770.0	617110.7
11780.0	591881.0999999997
11790.0	638778.7249999999
11800.0	614628.9499999998
11810.0	636458.0249999999
11820.0	601722.4499999998
11830.0	660618.4749999999
11840.0	662818.2999999998
11850.0	640886.5499999998
11860.0	664642.5499999999
11870.0	676242.1249999999
11880.0	681442.8749999998
11890.0	683193.4249999999
11900.0	687261.2749999998
11910.0	707026.0499999999
11920.0	713738.2
11930.0	719740.5499999999
11940.0	709447.8999999999
11950.0	730588.3749999999
11960.0	735242.45
11970.0	743360.1499999999
11980.0	728542.0749999998
11990.0	718460.5499999998
12000.0	763680.3749999998
12010.0	769638.0249999999
12020.0	762555.3499999999
12030.0	774754.0499999998
12040.0	771930.3999999998
12050.0	794402.7249999999
12060.0	799199.4749999999
12070.0	802139.5999999997
12080.0	809827.725
12090.0	812061.2
12100.0	823037.1249999998
12110.0	829577.0999999999
12120.0	822595.0249999997
12130.0	837526.4749999997
12140.0	832036.8749999999
12150.0	838778.0499999999
12160.0	860438.3749999998
12170.0	866154.5249999999
12180.0	872398.0499999998
12190.0	882604.5249999998
12200.0	881408.0499999999
12210.0	892936.9249999998
12220.0	896568.1499999997
12230.0	902318.0749999998
12240.0	908526.925
12250.0	918579.0749999998
12260.0	926238.3499999996
12270.0	933069.6749999999
12280.0	939134.3499999997
12290.0	934792.5749999998
12300.0	954137.5249999997
12310.0	955584.7249999997
12320.0	966267.7249999996
12330.0	969664.4999999998
12340.0	982383.1499999999
12350.0	990847.5999999997
12360.0	995917.7249999996
12370.0	1001021.8999999998
12380.0	1011989.4999999998
12390.0	1017480.9999999999
12400.0	1025419.4999999999
12410.0	1030865.9999999997
12420.0	1039505.9999999999
12430.0	1046648.4999999998
12440.0	1053420.2499999998
12450.0	1062615.2499999998
12460.0	1068686.9999999998
12470.0	1075790.9999999995
12480.0	1082808.9999999998
12490.0	1089073.9999999998
12500.0	1096549.0
12510.0	1105161.9999999998
12520.0	1113268.4999999998
12530.0	1120988.4999999995
12540.0	1116452.0
12550.0	1134498.4999999998
12560.0	1143280.4999999998
12570.0	1151399.9999999998
12580.0	1159380.7499999995
12590.0	1165742.7499999998
12600.0	1173282.25
12610.0	1183588.4999999998
12620.0	1190144.4999999995
12630.0	1197848.75
12640.0	1206150.2499999995
12650.0	1213462.2499999998
12660.0	1219484.4999999998
12670.0	1227092.7499999995
12680.0	1237519.4999999998
12690.0	1246091.2499999998
12700.0	1252864.2499999998
12710.0	1254754.4999999998
12720.0	1258209.4999999995
12730.0	1273539.4999999998
12740.0	1276988.2499999998
12750.0	1295097.9999999995
12760.0	1294184.7499999995
12770.0	1307461.2499999998
12780.0	1319475.9999999995
12790.0	1323208.4999999998
12800.0	1321566.7499999998
12810.0	1334263.4999999995
12820.0	1346713.2499999998
12830.0	1331811.4999999995
12840.0	1366023.4999999995
12850.0	1351926.7499999998
12860.0	1379873.7499999995
12870.0	1388528.4999999998
12880.0	1393113.7499999995
12890.0	1403248.7499999995
12900.0	1409386.7499999998
12910.0	1411096.7499999995
12920.0	1405649.9999999998
12930.0	1421362.2499999993
12940.0	1440967.7499999995
12950.0	1384610.2499999998
12960.0	1401611.4999999998
12970.0	1431594.2499999998
12980.0	1488357.9999999995
12990.0	1451264.2499999998
13000.0	1492491.9999999995
13010.0	1490406.2499999995
13020.0	1516730.2499999998
13030.0	1458591.2499999995
13040.0	1511681.2499999998
13050.0	1547041.9999999995
13060.0	1560019.2499999998
13070.0	1530325.75
13080.0	1575473.2499999995
13090.0	1561174.7499999998
13100.0	1580765.4999999993
13110.0	1603186.2499999995
13120.0	1575457.7499999995
13130.0	1606561.7499999995
13140.0	1575937.7499999998
13150.0	1555534.7499999998
13160.0	1608418.7499999995
13170.0	1648057.4999999998
13180.0	1664911.9999999995
13190.0	1521505.9999999995
13200.0	1660722.9999999995
13210.0	1674379.9999999998
13220.0	1701348.4999999998
13230.0	1432396.3999999994
13240.0	1661956.7499999995
13250.0	1705824.7499999993
13260.0	1699676.7499999998
13270.0	1705350.2499999998
13280.0	1716108.2499999995
13290.0	1576842.4999999995
13300.0	1709649.25
13310.0	1688092.2499999995
13320.0	1369940.4999999998
13330.0	1607200.4999999998
13340.0	1667646.7499999995
13350.0	1425940.7499999998
13360.0	1340288.1749999998
13370.0	945223.8749999998
13380.0	864021.8749999997
13390.0	1164167.5749999997
13400.0	1161707.1249999998
13410.0	1173062.6749999998
13420.0	923166.0499999998
13430.0	1097482.7499999998
13440.0	1030021.7319999995
13450.0	923920.3779999999
13460.0	1294327.9722499996
13470.0	881726.5557499997
13480.0	606572.3999999999
13490.0	921874.4499999998
13500.0	937433.4708999998
13510.0	716443.7137000001
13520.0	438740.75999999995
13530.0	878297.0999999999
13540.0	528853.3699999999
13550.0	459916.6895999999
13560.0	950821.8359999999
13570.0	677058.5149999999
13580.0	792088.3827499998
13590.0	495276.9562499999
13600.0	865339.6749999998
13610.0	654091.1899999998
13620.0	329562.3057499999
13630.0	538924.44225
13640.0	1017706.6079999998
13650.0	579278.2774999999
13660.0	834470.6074999998
13670.0	838357.2749999999
13680.0	472135.3229249999
13690.0	1008999.1229749997
13700.0	731238.4674999999
13710.0	904703.5099999998
13720.0	1114895.5749999997
13730.0	1244792.8999999997
13740.0	504019.6639999998
13750.0	908020.9999999999
13760.0	1170185.7999999998
13770.0	1064348.6999999997
13780.0	1592898.0499999996
13790.0	1332383.65
13800.0	1605788.4319999996
13810.0	619778.1739999999
13820.0	1332831.0924999996
13830.0	639640.0174999998
13840.0	1472477.4
13850.0	878564.8474999998
13860.0	799581.6924249998
13870.0	1416980.8642749996
13880.0	784012.9999999998
13890.0	1315881.9689999998
13900.0	1445749.9689999998
13910.0	751054.7499999998
13920.0	879954.3499999999
13930.0	1252358.7939999998
13940.0	1151106.6749999998
13950.0	751693.8967999998
13960.0	806096.8012749999
13970.0	894075.9689249998
13980.0	1241891.9999999998
13990.0	1546824.3499999999
14000.0	768775.5874999998
14010.0	497680.3524999999
14020.0	1516705.3499999996
14030.0	1528658.5999999999
14040.0	749444.5222499998
14050.0	725527.7188499998
14060.0	1592094.0224999995
14070.0	1084641.4999999998
14080.0	824901.2999999999
14090.0	831326.1449999998
14100.0	1049598.8649999998
14110.0	1770745.7499999995
14120.0	922018.1349999998
14130.0	1725614.2749999997
14140.0	1043929.4018999997
14150.0	1095540.3632999996
14160.0	1212026.2899999998
14170.0	1541578.2342499995
14180.0	741125.3197499999
14190.0	764536.5025
14200.0	1053324.0198999995
14210.0	1238562.8399999994
14220.0	1057168.0499999996
14230.0	848380.9124999997
14240.0	931870.0274999999
14250.0	1351663.6049999995
14260.0	787103.1524999999
14270.0	1456691.8524999998
14280.0	1010937.20775
14290.0	784602.6352499998
14300.0	1969148.8549999997
14310.0	1717917.9409999994
14320.0	1201718.6999999997
14330.0	1503728.275
14340.0	681574.0899999999
14350.0	1829096.9699999997
14360.0	1570662.7249999994
14370.0	1549014.4249999998
14380.0	1329354.4599999997
14390.0	1303619.8074999996
14400.0	1133640.1724999996
14410.0	1485664.1249999995
14420.0	1221073.9249999998
14430.0	2178361.25
14440.0	1935613.8499999994
14450.0	1213920.4049999998
14460.0	1095771.815
14470.0	1838937.5499999996
14480.0	1965186.575
14490.0	2434183.0749999993
14500.0	1531824.5764999997
14510.0	854056.2354999997
14520.0	2471709.4999999995
14530.0	2501754.4999999995
14540.0	1978188.95
14550.0	2144519.3999999994
14560.0	1880316.82
14570.0	1993232.1999999993
14580.0	2889463.4999999995
14590.0	2900842.249999999
14600.0	2908833.2499999995
14610.0	2826671.9999999995
14620.0	2060568.1999999995
14630.0	1244440.5249999997
14640.0	2908458.7749999994
14650.0	2152844.049999999
14660.0	2100469.374999999
14670.0	2612077.1249999995
14680.0	2213897.6499999994
14690.0	1904396.5999999994
14700.0	2322314.9999999995
14710.0	2483564.9999999995
14720.0	2801926.9749999987
14730.0	2224697.8249999993
14740.0	2419579.499999999
14750.0	2529325.499999999
14760.0	2018346.5499999998
14770.0	2749627.2499999995
14780.0	3023407.2499999986
14790.0	2674030.749999999
14800.0	2381194.724999999
14810.0	3085975.9249999993
