# Flux units: erg / (cm m2 s)
# Wavelength units: Angstrom
wave	flux
7000.0	12447583499999.998
7010.0	12667364999999.998
7020.0	12577812499999.998
7030.0	13334944999999.998
7040.0	13673059999999.998
7050.0	14000387499999.998
7060.0	14230064999999.996
7070.0	14443354999999.994
7080.0	14699629999999.996
7090.0	14930425000000.0
7100.0	15134987499999.996
7110.0	15414862499999.998
7120.0	15663219999999.996
7130.0	15900919999999.992
7140.0	16152782499999.996
7150.0	16415624999999.998
7160.0	16617409999999.996
7170.0	16883687499999.996
7180.0	17192919999999.996
7190.0	17474684999999.996
7200.0	17735192499999.996
7210.0	18010649999999.996
7220.0	18288947499999.996
7230.0	18581194999999.996
7240.0	18864784999999.996
7250.0	19168667499999.992
7260.0	19454267499999.996
7270.0	19747237499999.996
7280.0	20030279999999.996
7290.0	20354567499999.992
7300.0	20650989999999.996
7310.0	20953017500000.0
7320.0	21273379999999.996
7330.0	21602009999999.996
7340.0	21354899999999.992
7350.0	21135887499999.996
7360.0	21797102499999.992
7370.0	22294299999999.996
7380.0	22291902499999.992
7390.0	22259942499999.996
7400.0	22735859999999.996
7410.0	22950629999999.996
7420.0	22576997499999.992
7430.0	23487419999999.996
7440.0	23940069999999.992
7450.0	23347277499999.996
7460.0	24126562499999.992
7470.0	24824022499999.996
7480.0	25099617499999.996
7490.0	25849440000000.0
7500.0	26500304999999.996
7510.0	26517952499999.992
7520.0	26980132499999.99
7530.0	27677974999999.99
7540.0	28060562499999.99
7550.0	28585434999999.992
7560.0	29120139999999.996
7570.0	29529137499999.992
7580.0	29689594999999.996
7590.0	30067482499999.992
7600.0	30295472499999.992
7610.0	30349982499999.992
7620.0	30165197499999.992
7630.0	29365139999999.996
7640.0	27262494999999.996
7650.0	21620870000000.0
7660.0	8689855749999.997
7670.0	3844867249999.999
7680.0	16508342499999.994
7690.0	17783781499999.992
7700.0	4284069499999.999
7710.0	17290819499999.998
7720.0	29360082499999.99
7730.0	33595959999999.996
7740.0	35659544999999.99
7750.0	36989027499999.99
7760.0	37980267499999.984
7770.0	38810354999999.984
7780.0	39537419999999.984
7790.0	40097917499999.99
7800.0	32344642499999.992
7810.0	40813947499999.984
7820.0	42109279999999.984
7830.0	42770222499999.99
7840.0	43357162499999.99
7850.0	43968364999999.99
7860.0	44564857499999.984
7870.0	44956782499999.984
7880.0	45688314999999.99
7890.0	46358589999999.99
7900.0	46976029999999.99
7910.0	47351667499999.99
7920.0	47942354999999.99
7930.0	48199609999999.984
7940.0	48655117499999.99
7950.0	39564459999999.984
7960.0	50090984999999.99
7970.0	50631002499999.99
7980.0	51392182499999.99
7990.0	51960194999999.984
8000.0	52502129999999.984
8010.0	53063257499999.99
8020.0	53782602499999.984
8030.0	54782272499999.984
8040.0	55533309999999.99
8050.0	55843294999999.984
8060.0	56662607499999.984
8070.0	57591430000000.0
8080.0	58386164999999.98
8090.0	59199507499999.984
8100.0	59991052499999.984
8110.0	60685099999999.98
8120.0	61472922499999.984
8130.0	62330522499999.98
8140.0	63056997499999.984
8150.0	63768044999999.98
8160.0	64698692499999.99
8170.0	65499099999999.984
8180.0	66164384999999.98
8190.0	67030042499999.98
8200.0	67823179999999.99
8210.0	68649159999999.98
8220.0	69471662499999.99
8230.0	70060322499999.99
8240.0	71003199999999.97
8250.0	71915939999999.98
8260.0	72735199999999.97
8270.0	73460347500000.0
8280.0	74434667499999.98
8290.0	75252764999999.97
8300.0	76130782499999.97
8310.0	76935882499999.98
8320.0	77856797499999.98
8330.0	78768464999999.98
8340.0	79663157499999.98
8350.0	80563319999999.98
8360.0	81435684999999.98
8370.0	82350782499999.98
8380.0	83263004999999.97
8390.0	84170264999999.98
8400.0	85070079999999.98
8410.0	86088977499999.97
8420.0	87049212499999.97
8430.0	87982714999999.98
8440.0	88930769999999.98
8450.0	89877459999999.98
8460.0	90844039999999.97
8470.0	91771237499999.98
8480.0	92861852499999.95
8490.0	93838199999999.98
8500.0	94899139999999.98
8510.0	95935584999999.97
8520.0	96939809999999.97
8530.0	97262809999999.98
8540.0	97593059999999.98
8550.0	99164587499999.97
8560.0	100548874999999.97
8570.0	101777774999999.97
8580.0	102655475000000.0
8590.0	102619674999999.97
8600.0	103556874999999.97
8610.0	105058199999999.95
8620.0	106299049999999.98
8630.0	106870674999999.98
8640.0	107409399999999.98
8650.0	108488774999999.98
8660.0	110346099999999.98
8670.0	111304024999999.97
8680.0	111578924999999.97
8690.0	113594849999999.97
8700.0	114520099999999.95
8710.0	116199274999999.95
8720.0	117639649999999.95
8730.0	119289874999999.98
8740.0	120289974999999.97
8750.0	121388974999999.97
8760.0	123134149999999.97
8770.0	124344799999999.97
8780.0	125886199999999.95
8790.0	127241175000000.0
8800.0	128825874999999.97
8810.0	130017449999999.97
8820.0	131107499999999.95
8830.0	132618049999999.95
8840.0	133289099999999.98
8850.0	135449249999999.97
8860.0	136592924999999.95
8870.0	138229849999999.97
8880.0	139629624999999.94
8890.0	140937774999999.97
8900.0	142299074999999.94
8910.0	143023449999999.97
8920.0	144586924999999.97
8930.0	146219199999999.94
8940.0	147606049999999.97
8950.0	149099924999999.94
8960.0	150748299999999.97
8970.0	150886149999999.94
8980.0	153615624999999.94
8990.0	153901824999999.97
9000.0	156405625000000.0
9010.0	157519024999999.97
9020.0	159579849999999.97
9030.0	161000724999999.97
9040.0	162546275000000.0
9050.0	164059799999999.97
9060.0	165520549999999.94
9070.0	167080999999999.97
9080.0	168511049999999.97
9090.0	170079700000000.0
9100.0	171712574999999.94
9110.0	173300949999999.94
9120.0	174965574999999.97
9130.0	176462174999999.97
9140.0	178105474999999.97
9150.0	179434724999999.94
9160.0	180968724999999.97
9170.0	182589874999999.97
9180.0	184608749999999.94
9190.0	186060474999999.94
9200.0	187513674999999.97
9210.0	189235474999999.97
9220.0	191161899999999.97
9230.0	193019524999999.94
9240.0	194716074999999.94
9250.0	195920949999999.97
9260.0	196762374999999.9
9270.0	198163099999999.97
9280.0	197071499999999.97
9290.0	195959324999999.94
9300.0	203506574999999.94
9310.0	200095299999999.97
9320.0	207934624999999.9
9330.0	207321549999999.94
9340.0	203976649999999.97
9350.0	201062624999999.94
9360.0	208944374999999.94
9370.0	206649174999999.97
9380.0	217833924999999.94
9390.0	220233324999999.97
9400.0	222527799999999.94
9410.0	224673449999999.94
9420.0	226302824999999.94
9430.0	228798324999999.9
9440.0	230847974999999.9
9450.0	232423049999999.97
9460.0	233610999999999.9
9470.0	228564449999999.94
9480.0	237811399999999.9
9490.0	239543924999999.94
9500.0	233094424999999.94
9510.0	243146899999999.97
9520.0	244620674999999.9
9530.0	246876574999999.88
9540.0	250295174999999.97
9550.0	251249499999999.94
9560.0	244752924999999.94
9570.0	256200024999999.9
9580.0	258006974999999.94
9590.0	260736799999999.94
9600.0	256851624999999.94
9610.0	264890074999999.97
9620.0	256647900000000.0
9630.0	269141999999999.94
9640.0	269762099999999.9
9650.0	271424099999999.94
9660.0	275378624999999.88
9670.0	276889574999999.9
9680.0	280188974999999.97
9690.0	282245174999999.94
9700.0	284415074999999.94
9710.0	286452324999999.94
9720.0	288380574999999.94
9730.0	290035124999999.94
9740.0	292455699999999.94
9750.0	294795149999999.94
9760.0	297682724999999.94
9770.0	300402574999999.94
9780.0	302867199999999.94
9790.0	304619724999999.94
9800.0	306858974999999.94
9810.0	309780699999999.94
9820.0	312465400000000.0
9830.0	314921599999999.94
9840.0	316775625000000.0
9850.0	319046174999999.94
9860.0	320890024999999.9
9870.0	324230174999999.94
9880.0	325084149999999.94
9890.0	328296850000000.0
9900.0	331474974999999.9
9910.0	334581099999999.94
9920.0	336687724999999.94
9930.0	339293824999999.94
9940.0	340665924999999.9
9950.0	344390924999999.94
9960.0	346779724999999.9
9970.0	349784799999999.94
9980.0	352067699999999.94
9990.0	354160749999999.9
10000.0	356451924999999.94
10010.0	359233024999999.94
10020.0	361765324999999.9
10030.0	364418899999999.94
10040.0	366925174999999.94
10050.0	369850549999999.94
10060.0	372371049999999.94
10070.0	374995674999999.94
10080.0	377551724999999.94
10090.0	380365799999999.9
10100.0	383354999999999.9
10110.0	385812324999999.9
10120.0	388554549999999.9
10130.0	391562349999999.94
10140.0	394253575000000.0
10150.0	396850149999999.9
10160.0	399761549999999.9
10170.0	402717974999999.94
10180.0	404973099999999.9
10190.0	408296999999999.94
10200.0	410961374999999.9
10210.0	413810174999999.9
10220.0	416678175000000.0
10230.0	419373749999999.94
10240.0	422450749999999.9
10250.0	425207799999999.9
10260.0	428155399999999.9
10270.0	431122999999999.8
10280.0	434111399999999.94
10290.0	437120599999999.94
10300.0	439770374999999.8
10310.0	442792974999999.9
10320.0	445657374999999.94
10330.0	448746399999999.9
10340.0	451648974999999.8
10350.0	454753299999999.94
10360.0	457721399999999.9
10370.0	460894399999999.9
10380.0	463875199999999.94
10390.0	466901750000000.0
10400.0	470111199999999.9
10410.0	472934174999999.94
10420.0	476184875000000.0
10430.0	479072199999999.94
10440.0	482198424999999.8
10450.0	485289599999999.8
10460.0	488427949999999.94
10470.0	491560024999999.94
10480.0	494540199999999.8
10490.0	497995574999999.94
10500.0	500524724999999.8
10510.0	503705199999999.94
10520.0	507225199999999.9
10530.0	510271574999999.8
10540.0	513807999999999.9
10550.0	516863924999999.9
10560.0	520266424999999.9
10570.0	523329774999999.8
10580.0	526533175000000.0
10590.0	529389624999999.9
10600.0	532660949999999.94
10610.0	537002674999999.8
10620.0	540537574999999.94
10630.0	544723449999999.94
10640.0	548498949999999.9
10650.0	551316800000000.06
10660.0	555169649999999.94
10670.0	558439549999999.8
10680.0	561598224999999.8
10690.0	565198224999999.9
10700.0	568330624999999.8
10710.0	572236924999999.9
10720.0	575738849999999.9
10730.0	579129549999999.9
10740.0	582372599999999.8
10750.0	586442674999999.9
10760.0	589896524999999.9
10770.0	592960049999999.9
10780.0	596486825000000.0
10790.0	600344374999999.8
10800.0	603672624999999.8
10810.0	607820924999999.9
10820.0	610977899999999.8
10830.0	614859299999999.8
10840.0	618337499999999.8
10850.0	621978899999999.8
10860.0	625461799999999.9
10870.0	628928199999999.9
10880.0	632740724999999.9
10890.0	636173874999999.9
10900.0	638853399999999.9
10910.0	643281799999999.9
10920.0	646882999999999.9
10930.0	648452699999999.9
10940.0	652399299999999.9
10950.0	656754399999999.9
10960.0	658967199999999.9
10970.0	661474274999999.9
10980.0	660691825000000.0
10990.0	663899149999999.8
11000.0	675005999999999.9
11010.0	661574474999999.9
11020.0	679972999999999.8
11030.0	672058424999999.8
11040.0	688728399999999.9
11050.0	690026549999999.9
11060.0	694247374999999.9
11070.0	698067549999999.8
11080.0	701263474999999.8
11090.0	711869774999999.9
11100.0	713442224999999.9
11110.0	712294024999999.8
11120.0	720821674999999.8
11130.0	723124599999999.8
11140.0	724366374999999.9
11150.0	661893150000000.0
11160.0	720255024999999.9
11170.0	720131449999999.9
11180.0	739950924999999.8
11190.0	730157949999999.9
11200.0	671097549999999.8
11210.0	747116774999999.8
11220.0	701492799999999.9
11230.0	754412074999999.8
11240.0	734564124999999.8
11250.0	718654199999999.8
11260.0	756989599999999.8
11270.0	752044599999999.9
11280.0	782958374999999.8
11290.0	789466749999999.9
11300.0	790780549999999.9
11310.0	777395924999999.9
11320.0	801272199999999.8
11330.0	805347774999999.8
11340.0	802513749999999.9
11350.0	722849649999999.9
11360.0	799435874999999.8
11370.0	818378324999999.9
11380.0	816995624999999.8
11390.0	825075349999999.9
11400.0	834999949999999.9
11410.0	833163899999999.9
11420.0	827789724999999.8
11430.0	837576774999999.6
11440.0	814664674999999.6
11450.0	847816824999999.9
11460.0	847974574999999.8
11470.0	863636849999999.9
11480.0	824754349999999.8
11490.0	867930274999999.8
11500.0	804029599999999.9
11510.0	884813774999999.8
11520.0	889412774999999.9
11530.0	891190349999999.9
11540.0	886228299999999.9
11550.0	886518400000000.0
11560.0	904847949999999.8
11570.0	893550874999999.6
11580.0	898914774999999.8
11590.0	920508974999999.8
11600.0	882332899999999.8
11610.0	922930874999999.8
11620.0	933691599999999.5
11630.0	933487899999999.9
11640.0	864813299999999.9
11650.0	939467299999999.8
11660.0	914954099999999.8
11670.0	954398874999999.9
11680.0	960289399999999.8
11690.0	958009349999999.8
11700.0	945559574999999.8
11710.0	967542199999999.6
11720.0	979964499999999.6
11730.0	902552749999999.9
11740.0	977088399999999.8
11750.0	985313024999999.9
11760.0	996465899999999.6
11770.0	997268924999999.8
11780.0	967876524999999.6
11790.0	1011067774999999.6
11800.0	1007398999999999.9
11810.0	1013301599999999.8
11820.0	1014892749999999.8
11830.0	1031580249999999.5
11840.0	1034317499999999.6
11850.0	1019670549999999.8
11860.0	1032563149999999.8
11870.0	1042318499999999.9
11880.0	1053851999999999.9
11890.0	1058163749999999.9
11900.0	1063078749999999.6
11910.0	1070841249999999.6
11920.0	1074179749999999.8
11930.0	1081872499999999.6
11940.0	1083377499999999.8
11950.0	1090439999999999.8
11960.0	1094655249999999.8
11970.0	1100719999999999.8
11980.0	1093517249999999.6
11990.0	1102425499999999.8
12000.0	1115382999999999.5
12010.0	1121955499999999.8
12020.0	1122685999999999.9
12030.0	1128640499999999.8
12040.0	1132404499999999.8
12050.0	1141238500000000.0
12060.0	1145973999999999.8
12070.0	1149277999999999.8
12080.0	1155116749999999.8
12090.0	1159447749999999.5
12100.0	1166144999999999.8
12110.0	1171189249999999.5
12120.0	1173283999999999.5
12130.0	1178633499999999.8
12140.0	1184487249999999.5
12150.0	1189809249999999.5
12160.0	1197362999999999.5
12170.0	1202682249999999.5
12180.0	1205045999999999.8
12190.0	1212833999999999.8
12200.0	1215005749999999.5
12210.0	1223070749999999.8
12220.0	1226736749999999.8
12230.0	1232612749999999.8
12240.0	1238301499999999.8
12250.0	1245084250000000.0
12260.0	1249612249999999.5
12270.0	1254873999999999.8
12280.0	1258929999999999.8
12290.0	1263007999999999.8
12300.0	1270425749999999.5
12310.0	1273874500000000.0
12320.0	1280933749999999.8
12330.0	1285956249999999.8
12340.0	1292337749999999.8
12350.0	1297780000000000.0
12360.0	1302569999999999.8
12370.0	1307980000000000.0
12380.0	1314087999999999.8
12390.0	1318867999999999.5
12400.0	1324265999999999.5
12410.0	1329302749999999.8
12420.0	1335368249999999.8
12430.0	1340218999999999.8
12440.0	1345859999999999.5
12450.0	1351449999999999.8
12460.0	1356515999999999.5
12470.0	1361991999999999.8
12480.0	1367729999999999.8
12490.0	1373409999999999.5
12500.0	1378477999999999.5
12510.0	1382931999999999.5
12520.0	1389235749999999.8
12530.0	1393962749999999.8
12540.0	1396379999999999.8
12550.0	1405321499999999.8
12560.0	1410589999999999.2
12570.0	1416529749999999.5
12580.0	1422904249999999.8
12590.0	1427004499999999.8
12600.0	1433510249999999.8
12610.0	1440045249999999.5
12620.0	1444777999999999.5
12630.0	1450857749999999.5
12640.0	1456046249999999.5
12650.0	1462179999999999.5
12660.0	1466227999999999.8
12670.0	1471807499999999.8
12680.0	1477665749999999.5
12690.0	1484572249999999.8
12700.0	1489618499999999.5
12710.0	1493843999999999.5
12720.0	1498047249999999.8
12730.0	1505484749999999.8
12740.0	1510171249999999.5
12750.0	1518362749999999.8
12760.0	1521255999999999.8
12770.0	1529681999999999.8
12780.0	1534619999999999.5
12790.0	1540279999999999.8
12800.0	1544629249999999.5
12810.0	1549623499999999.5
12820.0	1557939249999999.5
12830.0	1556889999999999.5
12840.0	1569459999999999.5
12850.0	1568265999999999.8
12860.0	1581249999999999.5
12870.0	1584989499999999.8
12880.0	1592852499999999.8
12890.0	1596343999999999.8
12900.0	1599125999999999.5
12910.0	1604013999999999.2
12920.0	1610097499999999.8
12930.0	1619392499999999.5
12940.0	1625129249999999.5
12950.0	1611422749999999.8
12960.0	1619085749999999.8
12970.0	1640706249999999.5
12980.0	1649775249999999.5
12990.0	1634337499999999.8
13000.0	1661691249999999.5
13010.0	1665809999999999.5
13020.0	1673111749999999.5
13030.0	1669786249999999.5
13040.0	1685001999999999.5
13050.0	1690441999999999.2
13060.0	1697557999999999.2
13070.0	1698933999999999.5
13080.0	1707270999999999.5
13090.0	1709731749999999.8
13100.0	1717039249999999.5
13110.0	1726735499999999.5
13120.0	1727250499999999.8
13130.0	1733923999999999.8
13140.0	1737055999999999.5
13150.0	1745533999999999.8
13160.0	1744408249999999.5
13170.0	1758233249999999.5
13180.0	1765244499999999.5
13190.0	1757268499999999.2
13200.0	1776579499999999.5
13210.0	1783514249999999.8
13220.0	1788655749999999.5
13230.0	1729327749999999.5
13240.0	1797394249999999.5
13250.0	1804057499999999.8
13260.0	1799078249999999.5
13270.0	1807945249999999.5
13280.0	1801992749999999.8
13290.0	1818302249999999.5
13300.0	1835491749999999.5
13310.0	1832555499999999.5
13320.0	1808021249999999.2
13330.0	1814775499999999.8
13340.0	1836896499999999.2
13350.0	1620703249999999.8
13360.0	1795600949999999.5
13370.0	1497284349999999.8
13380.0	1663269249999999.5
13390.0	1670519749999999.8
13400.0	1829801499999999.5
13410.0	1817584999999999.2
13420.0	1589059699999999.8
13430.0	1849313499999999.8
13440.0	1595722949999999.8
13450.0	1366000149999999.5
13460.0	1851885549999999.2
13470.0	1553850349999999.8
13480.0	1721232499999999.8
13490.0	1742488249999999.5
13500.0	1575159099999999.8
13510.0	1759871049999999.8
13520.0	1258827249999999.5
13530.0	1894096499999999.8
13540.0	1499717749999999.5
13550.0	1352080759999999.5
13560.0	1618303549999999.8
13570.0	1778545749999999.5
13580.0	1659407424999999.5
13590.0	1302512224999999.8
13600.0	1926349499999999.2
13610.0	1915976749999999.2
13620.0	1555227949999999.5
13630.0	1440357475000000.0
13640.0	1633556624999999.5
13650.0	1763384999999999.2
13660.0	1891149749999999.5
13670.0	1803650499999999.8
13680.0	1712249899999999.5
13690.0	1601484149999999.8
13700.0	1694598949999999.8
13710.0	1875703249999999.2
13720.0	1883195499999999.2
13730.0	2058348499999999.5
13740.0	1615963099999999.8
13750.0	1766954999999999.5
13760.0	1838362499999999.5
13770.0	1971606249999999.8
13780.0	2035502249999999.8
13790.0	2076949749999999.8
13800.0	2085854999999999.5
13810.0	1784255749999999.2
13820.0	2103627999999999.2
13830.0	1781079199999999.2
13840.0	1994161999999999.2
13850.0	2061490249999999.2
13860.0	1781486474999999.2
13870.0	1980666174999999.2
13880.0	1987311499999999.2
13890.0	1671815379999999.5
13900.0	1774354949999999.8
13910.0	1856008499999999.5
13920.0	2105563499999999.8
13930.0	1887593199999999.5
13940.0	2046081999999999.5
13950.0	1460717789999999.5
13960.0	1926937374999999.8
13970.0	1745389624999999.8
13980.0	2064948499999999.5
13990.0	2195664249999999.2
14000.0	1873127749999999.8
14010.0	2029356749999999.8
14020.0	2131492249999999.8
14030.0	2083992749999999.5
14040.0	1610357599999999.8
14050.0	1614712949999999.8
14060.0	2174047499999999.2
14070.0	2079113749999999.0
14080.0	1795605999999999.8
14090.0	2131123749999999.2
14100.0	2050824999999999.2
14110.0	2286570499999999.5
14120.0	1883748999999999.2
14130.0	2172548249999999.8
14140.0	2214287499999999.0
14150.0	1891862749999999.8
14160.0	1867684999999999.5
14170.0	2236191499999999.2
14180.0	1515886999999999.5
14190.0	1879115249999999.8
14200.0	1744367649999999.8
14210.0	2023984199999999.8
14220.0	2024487249999999.8
14230.0	1927832249999999.5
14240.0	1794887249999999.2
14250.0	2043926999999999.2
14260.0	1737707349999999.5
14270.0	2123651299999999.5
14280.0	1904264049999999.8
14290.0	1748508849999999.2
14300.0	2172648499999999.8
14310.0	2010100149999999.2
14320.0	2343912749999999.5
14330.0	2182694499999999.5
14340.0	2261812999999999.5
14350.0	2358107499999999.5
14360.0	2265994999999999.5
14370.0	2330911499999999.5
14380.0	1975215900000000.0
14390.0	1997456799999999.5
14400.0	2260832399999999.0
14410.0	2208899999999999.5
14420.0	2084740750000000.0
14430.0	2443704749999999.5
14440.0	2303472499999999.5
14450.0	2138125149999999.2
14460.0	2300272449999999.5
14470.0	2399306999999999.0
14480.0	2386180250000000.0
14490.0	2492177499999999.5
14500.0	2436619499999999.5
14510.0	1858123499999999.8
14520.0	2512998499999999.5
14530.0	2469732999999999.5
14540.0	2326873499999999.0
14550.0	2209275999999999.8
14560.0	2253257249999999.5
14570.0	2439967999999999.5
