# Flux units: erg / (cm m2 s)
# Wavelength units: Angstrom
wave	flux
7000.0	531633899999.99976
7010.0	544634575000.0
7020.0	554890649999.9999
7030.0	569491049999.9998
7040.0	582263349999.9999
7050.0	595068199999.9998
7060.0	607959299999.9999
7070.0	620660949999.9998
7080.0	634339599999.9998
7090.0	647583874999.9999
7100.0	661012274999.9998
7110.0	675781899999.9998
7120.0	690241749999.9999
7130.0	704362424999.9999
7140.0	718803049999.9999
7150.0	734565924999.9999
7160.0	748657874999.9998
7170.0	761023249999.9998
7180.0	780001449999.9998
7190.0	797373749999.9998
7200.0	813884374999.9998
7210.0	830380424999.9999
7220.0	847212599999.9998
7230.0	864821949999.9998
7240.0	882224624999.9999
7250.0	901214174999.9998
7260.0	919022149999.9998
7270.0	937757449999.9998
7280.0	955914450000.0
7290.0	975819849999.9998
7300.0	994467874999.9998
7310.0	1013222000000.0
7320.0	1034725749999.9998
7330.0	1056337499999.9999
7340.0	1068685999999.9998
7350.0	1081902249999.9996
7360.0	1109829749999.9998
7370.0	1132249499999.9995
7380.0	1151913999999.9998
7390.0	1170378499999.9998
7400.0	1196560249999.9998
7410.0	1216994499999.9998
7420.0	1230138249999.9998
7430.0	1264059249999.9998
7440.0	1289794499999.9995
7450.0	1300142500000.0
7460.0	1333670999999.9998
7470.0	1365031249999.9995
7480.0	1389496249999.9998
7490.0	1422111499999.9998
7500.0	1452821749999.9998
7510.0	1475457249999.9998
7520.0	1504115499999.9995
7530.0	1535946749999.9995
7540.0	1564907749999.9998
7550.0	1595434249999.9995
7560.0	1626080250000.0
7570.0	1655598249999.9995
7580.0	1682961499999.9995
7590.0	1713158999999.9995
7600.0	1741495999999.9998
7610.0	1768169749999.9998
7620.0	1790987999999.9995
7630.0	1805408249999.9995
7640.0	1797652999999.9993
7650.0	1711342999999.9998
7660.0	1276735250000.0
7670.0	971732949999.9999
7680.0	1648604499999.9995
7690.0	1709311999999.9995
7700.0	1061967399999.9996
7710.0	1720670749999.9993
7720.0	2052498249999.9998
7730.0	2154506249999.9998
7740.0	2217481249999.9995
7750.0	2269246249999.999
7760.0	2316048499999.9995
7770.0	2361494249999.9995
7780.0	2405684249999.9995
7790.0	2447810749999.9995
7800.0	2289011249999.9995
7810.0	2527950749999.9995
7820.0	2582862749999.999
7830.0	2628849999999.9995
7840.0	2674302999999.9995
7850.0	2720521749999.9995
7860.0	2767011249999.999
7870.0	2810139249999.999
7880.0	2860228749999.9995
7890.0	2909707999999.999
7900.0	2958486499999.9995
7910.0	3005396749999.9995
7920.0	3056140500000.0
7930.0	3102995749999.9985
7940.0	3151868499999.999
7950.0	2911063499999.9995
7960.0	3259651999999.999
7970.0	3312332249999.999
7980.0	3368811749999.9995
7990.0	3423161999999.999
8000.0	3475743999999.999
8010.0	3532537249999.999
8020.0	3591163750000.0
8030.0	3654462749999.9995
8040.0	3716337249999.9985
8050.0	3769882749999.999
8060.0	3833126499999.999
8070.0	3897549749999.9985
8080.0	3962374249999.999
8090.0	4024145499999.9995
8100.0	4087097749999.999
8110.0	4137319999999.999
8120.0	4215433999999.999
8130.0	4288735749999.999
8140.0	4346954249999.9995
8150.0	4402892499999.999
8160.0	4494636749999.999
8170.0	4566436749999.998
8180.0	4615061499999.999
8190.0	4704152999999.999
8200.0	4776785749999.998
8210.0	4854558999999.999
8220.0	4929721499999.998
8230.0	4972197999999.999
8240.0	5066505749999.999
8250.0	5158246499999.998
8260.0	5234187249999.998
8270.0	5297014499999.999
8280.0	5397092249999.999
8290.0	5474968500000.0
8300.0	5559587249999.999
8310.0	5632636749999.998
8320.0	5721604749999.999
8330.0	5813018749999.998
8340.0	5900029749999.998
8350.0	5988482499999.999
8360.0	6073392999999.999
8370.0	6163283749999.998
8380.0	6253615249999.999
8390.0	6341515249999.998
8400.0	6431100249999.998
8410.0	6534604249999.999
8420.0	6630808999999.998
8430.0	6724798999999.998
8440.0	6819239249999.998
8450.0	6916580999999.999
8460.0	7014147999999.999
8470.0	7105096999999.997
8480.0	7220199999999.998
8490.0	7321137749999.998
8500.0	7430900749999.997
8510.0	7536745499999.998
8520.0	7641237499999.999
8530.0	7737689999999.999
8540.0	7830401499999.997
8550.0	7955578249999.997
8560.0	8073171249999.999
8570.0	8188061499999.998
8580.0	8297596749999.998
8590.0	8392081749999.999
8600.0	8510518749999.997
8610.0	8635183749999.999
8620.0	8752017499999.997
8630.0	8862747250000.0
8640.0	8967531749999.996
8650.0	9089229499999.998
8660.0	9238254999999.998
8670.0	9361378499999.996
8680.0	9468685749999.998
8690.0	9615285499999.998
8700.0	9736634749999.996
8710.0	9881906249999.998
8720.0	10019623999999.998
8730.0	10162452499999.998
8740.0	10286607499999.996
8750.0	10428009999999.998
8760.0	10573804999999.996
8770.0	10713554999999.996
8780.0	10861724999999.996
8790.0	11004957499999.996
8800.0	11153809999999.998
8810.0	11297072499999.996
8820.0	11443024999999.998
8830.0	11593992499999.998
8840.0	11718709999999.998
8850.0	11900869999999.998
8860.0	12046152499999.996
8870.0	12211137499999.996
8880.0	12364757499999.998
8890.0	12523542499999.998
8900.0	12681852499999.998
8910.0	12782967499999.998
8920.0	12917844999999.996
8930.0	13105982499999.998
8940.0	13299357499999.996
8950.0	13493427499999.998
8960.0	13657347500000.0
8970.0	13557889999999.994
8980.0	13995464999999.996
8990.0	13899622499999.998
9000.0	14355024999999.998
9010.0	14420174999999.996
9020.0	14730792499999.994
9030.0	14903377499999.996
9040.0	15085124999999.996
9050.0	15265797499999.998
9060.0	15459207499999.996
9070.0	15648329999999.994
9080.0	15830019999999.996
9090.0	16006732499999.994
9100.0	16204112499999.994
9110.0	16417727499999.998
9120.0	16630524999999.994
9130.0	16822344999999.998
9140.0	17019519999999.996
9150.0	17163452499999.994
9160.0	17343147499999.996
9170.0	17569254999999.994
9180.0	17840215000000.0
9190.0	17997930000000.0
9200.0	18157162499999.996
9210.0	18396874999999.996
9220.0	18661249999999.996
9230.0	18929359999999.996
9240.0	19150194999999.996
9250.0	19288939999999.996
9260.0	19333309999999.996
9270.0	19524424999999.996
9280.0	19375807499999.996
9290.0	18967672499999.996
9300.0	20220577499999.992
9310.0	19223179999999.996
9320.0	20867249999999.992
9330.0	20492837499999.996
9340.0	19671337499999.996
9350.0	18870994499999.996
9360.0	20145944999999.992
9370.0	19571369999999.996
9380.0	22027174999999.996
9390.0	22444674999999.996
9400.0	22787109999999.996
9410.0	23067862499999.992
9420.0	23234652499999.992
9430.0	23668669999999.992
9440.0	23959569999999.99
9450.0	24166492499999.996
9460.0	24196369999999.996
9470.0	22789397499999.996
9480.0	24820254999999.99
9490.0	25071779999999.996
9500.0	23151689999999.996
9510.0	25550617499999.992
9520.0	25691567499999.996
9530.0	25957899999999.996
9540.0	26645089999999.992
9550.0	26656825000000.0
9560.0	24907292499999.996
9570.0	27412579999999.992
9580.0	27646619999999.99
9590.0	28115759999999.996
9600.0	27031197499999.996
9610.0	28742362499999.996
9620.0	26728274999999.996
9630.0	29303254999999.99
9640.0	29274589999999.992
9650.0	29555889999999.992
9660.0	30180122499999.984
9670.0	30369464999999.996
9680.0	30949962499999.992
9690.0	31205959999999.99
9700.0	31569742499999.992
9710.0	31820594999999.99
9720.0	31994897499999.992
9730.0	32285970000000.0
9740.0	32659802499999.99
9750.0	32858402499999.99
9760.0	33513762499999.992
9770.0	33890072499999.992
9780.0	34281299999999.992
9790.0	34501447499999.996
9800.0	34704912499999.992
9810.0	35288957499999.984
9820.0	35739282499999.99
9830.0	36080059999999.99
9840.0	36408732499999.99
9850.0	36708139999999.99
9860.0	36948227499999.99
9870.0	37531422499999.99
9880.0	37639542499999.984
9890.0	38111172499999.984
9900.0	38626012499999.984
9910.0	39128699999999.99
9920.0	39435907499999.99
9930.0	39824649999999.99
9940.0	40051544999999.984
9950.0	40674572499999.984
9960.0	41009274999999.984
9970.0	41493167499999.984
9980.0	41879579999999.984
9990.0	42241562499999.99
10000.0	42591702499999.98
10010.0	43003157499999.99
10020.0	43444797500000.0
10030.0	43847677499999.99
10040.0	44215854999999.98
10050.0	44731819999999.984
10060.0	45135370000000.0
10070.0	45569564999999.984
10080.0	45936982499999.984
10090.0	46400479999999.984
10100.0	46876947499999.99
10110.0	47287979999999.98
10120.0	47698889999999.98
10130.0	48184424999999.98
10140.0	48627474999999.99
10150.0	49090979999999.99
10160.0	49545179999999.99
10170.0	50001624999999.99
10180.0	50418114999999.984
10190.0	50918922499999.984
10200.0	51387687499999.98
10210.0	51854222499999.98
10220.0	52324324999999.99
10230.0	52800604999999.984
10240.0	53278469999999.99
10250.0	53745764999999.98
10260.0	54238089999999.984
10270.0	54737397499999.984
10280.0	55222902499999.984
10290.0	55713639999999.984
10300.0	56213274999999.984
10310.0	56703397499999.98
10320.0	57187299999999.99
10330.0	57704049999999.99
10340.0	58228299999999.99
10350.0	58733239999999.98
10360.0	59254199999999.99
10370.0	59775242499999.99
10380.0	60286372499999.98
10390.0	60811969999999.98
10400.0	61347419999999.984
10410.0	61876239999999.99
10420.0	62411044999999.984
10430.0	62945022499999.99
10440.0	63483219999999.984
10450.0	64029719999999.984
10460.0	64571562499999.984
10470.0	65124420000000.0
10480.0	65674824999999.984
10490.0	66226754999999.984
10500.0	66748884999999.984
10510.0	67345187499999.98
10520.0	67916264999999.98
10530.0	68480862499999.97
10540.0	69072282499999.984
10550.0	69627202499999.96
10560.0	70224502499999.984
10570.0	70803365000000.0
10580.0	71396787499999.98
10590.0	71955887499999.98
10600.0	72407189999999.97
10610.0	73195862499999.98
10620.0	73835689999999.98
10630.0	74591497500000.0
10640.0	75223972499999.98
10650.0	75810014999999.97
10660.0	76458144999999.98
10670.0	76970247499999.98
10680.0	77616535000000.0
10690.0	78322927499999.98
10700.0	78864092499999.98
10710.0	79560724999999.98
10720.0	80182902499999.98
10730.0	80883294999999.98
10740.0	81463157499999.97
10750.0	82180049999999.98
10760.0	82838289999999.98
10770.0	83412040000000.0
10780.0	83961602499999.98
10790.0	84796622499999.98
10800.0	85406692499999.97
10810.0	86151647499999.97
10820.0	86822752499999.97
10830.0	87495044999999.98
10840.0	88165049999999.97
10850.0	88876327500000.0
10860.0	89538737499999.97
10870.0	90094942499999.98
10880.0	90927224999999.97
10890.0	91619647499999.98
10900.0	92012312499999.97
10910.0	92947749999999.97
10920.0	93528939999999.98
10930.0	93939374999999.97
10940.0	94638514999999.97
10950.0	95559699999999.97
10960.0	95880919999999.98
10970.0	96433862499999.98
10980.0	96067802499999.97
10990.0	96709762499999.97
11000.0	99091937499999.97
11010.0	95180949999999.97
11020.0	99845804999999.98
11030.0	97524302499999.98
11040.0	101616702499999.98
11050.0	101725139999999.98
11060.0	102676379999999.97
11070.0	103311764999999.98
11080.0	104007734999999.95
11090.0	106267799999999.98
11100.0	106767149999999.95
11110.0	106559774999999.97
11120.0	108052699999999.97
11130.0	108416174999999.97
11140.0	108820099999999.97
11150.0	93086364999999.97
11160.0	105280594999999.97
11170.0	104850944999999.95
11180.0	111825574999999.97
11190.0	107274394999999.97
11200.0	89701689999999.98
11210.0	112579224999999.97
11220.0	100144819999999.98
11230.0	113976334999999.97
11240.0	106539609999999.97
11250.0	103526127499999.97
11260.0	112104312499999.97
11270.0	109149582499999.97
11280.0	120031072500000.0
11290.0	121856649999999.98
11300.0	121847049999999.98
11310.0	117914799999999.95
11320.0	124597199999999.97
11330.0	125213549999999.95
11340.0	124139267500000.0
11350.0	100319792499999.98
11360.0	122397874999999.97
11370.0	127804099999999.98
11380.0	127451099999999.97
11390.0	129357900000000.0
11400.0	131505874999999.97
11410.0	131279924999999.95
11420.0	126103059999999.97
11430.0	130816399999999.98
11440.0	125581774999999.97
11450.0	133588349999999.98
11460.0	133204899999999.98
11470.0	137015767499999.95
11480.0	123559597500000.0
11490.0	137327009999999.97
11500.0	115048079999999.97
11510.0	142062649999999.97
11520.0	143196749999999.97
11530.0	143395349999999.97
11540.0	140750399999999.94
11550.0	140331799999999.95
11560.0	146071149999999.94
11570.0	141714599999999.97
11580.0	143107324999999.97
11590.0	149755500000000.0
11600.0	137532252499999.94
11610.0	149551082500000.0
11620.0	152872574999999.97
11630.0	152232424999999.97
11640.0	130873389999999.97
11650.0	153166599999999.94
11660.0	145228749999999.97
11670.0	157239299999999.97
11680.0	158318674999999.94
11690.0	157467949999999.97
11700.0	152992649999999.97
11710.0	159438174999999.97
11720.0	162744174999999.94
11730.0	141054319999999.97
11740.0	161224549999999.97
11750.0	163659999999999.97
11760.0	166441849999999.94
11770.0	167596499999999.97
11780.0	166348299999999.97
11790.0	170064175000000.0
11800.0	168692599999999.97
11810.0	170123099999999.97
11820.0	168950424999999.97
11830.0	174634574999999.94
11840.0	175410299999999.97
11850.0	171277574999999.97
11860.0	174872799999999.97
11870.0	177513174999999.94
11880.0	179536975000000.0
11890.0	180760574999999.9
11900.0	181800299999999.94
11910.0	183632899999999.97
11920.0	184364349999999.97
11930.0	185930374999999.97
11940.0	186201074999999.97
11950.0	188018799999999.94
11960.0	189006249999999.94
11970.0	190185449999999.97
11980.0	188522324999999.94
11990.0	189930699999999.97
12000.0	193921449999999.94
12010.0	195242874999999.9
12020.0	195091274999999.94
12030.0	196771349999999.94
12040.0	197451574999999.94
12050.0	199894474999999.94
12060.0	200990274999999.94
12070.0	201930199999999.94
12080.0	203236399999999.97
12090.0	204115299999999.94
12100.0	205649099999999.97
12110.0	206872149999999.97
12120.0	206878499999999.94
12130.0	208754249999999.97
12140.0	209310049999999.94
12150.0	210893299999999.97
12160.0	213047549999999.94
12170.0	214326649999999.97
12180.0	215192749999999.97
12190.0	216870999999999.97
12200.0	217261624999999.97
12210.0	219306249999999.94
12220.0	219964249999999.94
12230.0	221629474999999.97
12240.0	222537399999999.94
12250.0	224401124999999.94
12260.0	225619274999999.9
12270.0	226895100000000.0
12280.0	227916899999999.94
12290.0	228363999999999.97
12300.0	230622024999999.94
12310.0	231223199999999.94
12320.0	233065174999999.97
12330.0	234113949999999.97
12340.0	235939449999999.97
12350.0	237246899999999.94
12360.0	238657899999999.94
12370.0	239567074999999.97
12380.0	241324049999999.97
12390.0	242451800000000.0
12400.0	243879749999999.9
12410.0	245132074999999.97
12420.0	246703649999999.94
12430.0	247756524999999.94
12440.0	249330674999999.94
12450.0	250625874999999.94
12460.0	251884024999999.9
12470.0	253149099999999.94
12480.0	254565999999999.9
12490.0	255991599999999.9
12500.0	257380799999999.97
12510.0	258717349999999.94
12520.0	260135874999999.94
12530.0	261562574999999.9
12540.0	261492874999999.9
12550.0	264210924999999.9
12560.0	265583599999999.94
12570.0	267055599999999.9
12580.0	268658199999999.97
12590.0	269914174999999.94
12600.0	271378624999999.88
12610.0	272772599999999.94
12620.0	274299649999999.97
12630.0	275677049999999.94
12640.0	277061099999999.94
12650.0	278612199999999.97
12660.0	279640999999999.94
12670.0	281109424999999.9
12680.0	282716100000000.0
12690.0	284299274999999.9
12700.0	285661149999999.94
12710.0	286539624999999.94
12720.0	287727224999999.94
12730.0	289735799999999.94
12740.0	291207399999999.9
12750.0	293089399999999.9
12760.0	293767199999999.94
12770.0	295937799999999.94
12780.0	297578399999999.94
12790.0	298951200000000.0
12800.0	300210524999999.94
12810.0	301457224999999.94
12820.0	303355049999999.94
12830.0	303037274999999.9
12840.0	306567724999999.94
12850.0	305537999999999.94
12860.0	309599999999999.94
12870.0	310743800000000.0
12880.0	312608399999999.94
12890.0	313583174999999.94
12900.0	314402249999999.9
12910.0	315784774999999.9
12920.0	316997674999999.9
12930.0	319414924999999.9
12940.0	321084099999999.9
12950.0	315157624999999.9
12960.0	318138449999999.94
12970.0	325153049999999.94
12980.0	327925974999999.94
12990.0	322851499999999.94
13000.0	331360299999999.94
13010.0	332372749999999.94
13020.0	334119424999999.9
13030.0	332151824999999.94
13040.0	336844274999999.94
13050.0	338844499999999.94
13060.0	340879074999999.94
13070.0	340903824999999.9
13080.0	343560124999999.94
13090.0	343545149999999.94
13100.0	346403049999999.94
13110.0	348537799999999.9
13120.0	348287399999999.9
13130.0	350781199999999.94
13140.0	350309049999999.94
13150.0	353394324999999.8
13160.0	353154774999999.94
13170.0	357995124999999.94
13180.0	359405324999999.94
13190.0	354105849999999.94
13200.0	362411074999999.8
13210.0	363877149999999.9
13220.0	366461124999999.9
13230.0	338351299999999.94
13240.0	367356299999999.94
13250.0	370382674999999.94
13260.0	368580699999999.9
13270.0	372043899999999.94
13280.0	371264024999999.9
13290.0	372061924999999.9
13300.0	379250749999999.94
13310.0	377633824999999.94
13320.0	369150324999999.94
13330.0	376290799999999.9
13340.0	379741324999999.94
13350.0	334846749999999.9
13360.0	371644724999999.9
13370.0	293691799999999.94
13380.0	330455349999999.94
13390.0	337281524999999.9
13400.0	379275874999999.9
13410.0	371300825000000.0
13420.0	295622074999999.94
13430.0	385373299999999.94
13440.0	318492879999999.94
13450.0	265249494999999.9
13460.0	388279877499999.9
13470.0	318926292499999.94
13480.0	348583949999999.94
13490.0	352095649999999.94
13500.0	326099763499999.94
13510.0	350601455499999.9
13520.0	228833564999999.94
13530.0	388486049999999.94
13540.0	274539574999999.88
13550.0	257085996999999.97
13560.0	326280029999999.94
13570.0	354063024999999.94
13580.0	310618357500000.0
13590.0	239325537499999.97
13600.0	403244324999999.9
13610.0	396534624999999.94
13620.0	288348364999999.9
13630.0	245306779999999.97
13640.0	335852515999999.94
13650.0	343630924999999.94
13660.0	390787099999999.94
13670.0	361950399999999.94
13680.0	322373103749999.94
13690.0	324561841249999.94
13700.0	330501280000000.0
13710.0	381699724999999.94
13720.0	381081224999999.94
13730.0	444618399999999.9
13740.0	292385054999999.94
13750.0	336536700000000.0
13760.0	360230849999999.94
13770.0	401542249999999.94
13780.0	437095349999999.94
13790.0	450673999999999.9
13800.0	453013700000000.0
13810.0	335506549999999.94
13820.0	458209349999999.9
13830.0	354856009999999.94
13840.0	416028199999999.94
13850.0	430139499999999.8
13860.0	360230139999999.94
13870.0	411329794999999.9
13880.0	413699975000000.0
13890.0	350279910999999.9
13900.0	382112209999999.94
13910.0	364705849999999.94
13920.0	453751149999999.8
13930.0	397336094999999.9
13940.0	437172024999999.9
13950.0	303498499999999.9
13960.0	383915892499999.9
13970.0	351147097499999.94
13980.0	431245174999999.94
13990.0	486936150000000.0
14000.0	371700249999999.9
14010.0	424890124999999.8
14020.0	457486524999999.9
14030.0	447963899999999.94
14040.0	299061004999999.9
14050.0	326733149999999.94
14060.0	469328499999999.9
14070.0	438853749999999.94
14080.0	356670999999999.9
14090.0	460296774999999.9
14100.0	432753899999999.9
14110.0	517137574999999.8
14120.0	373843749999999.94
14130.0	459789849999999.9
14140.0	495284592499999.9
14150.0	407647297499999.94
14160.0	364437874999999.9
14170.0	497234532499999.9
14180.0	272632177499999.94
14190.0	374839424999999.94
14200.0	370466143999999.94
14210.0	426197759999999.94
14220.0	419031299999999.9
14230.0	383615524999999.94
14240.0	365105024999999.94
14250.0	435731874999999.94
14260.0	340283912499999.9
14270.0	455886212499999.94
14280.0	365924024999999.9
14290.0	365847264999999.9
14300.0	471045599999999.94
14310.0	429462694999999.9
14320.0	529182499999999.9
14330.0	461816899999999.9
14340.0	490011074999999.94
14350.0	525388874999999.9
14360.0	494140874999999.94
14370.0	529129974999999.94
14380.0	418370969999999.94
14390.0	422541767499999.94
14400.0	499258977499999.9
14410.0	478109524999999.9
14420.0	445009749999999.9
14430.0	558751949999999.94
14440.0	514396099999999.94
14450.0	473333849999999.9
14460.0	494121974999999.9
14470.0	553018574999999.94
14480.0	533476299999999.8
14490.0	585030299999999.9
14500.0	555582049999999.9
14510.0	367182549999999.9
14520.0	587050724999999.8
14530.0	571255924999999.9
14540.0	521190899999999.94
14550.0	489714474999999.94
14560.0	495197324999999.9
14570.0	571939974999999.9
14580.0	607451074999999.9
14590.0	592173050000000.0
14600.0	609417924999999.9
14610.0	605592074999999.8
