# Flux units: erg / (cm m2 s)
# Wavelength units: Angstrom
wave	flux
7000.0	116489974999.99997
7010.0	119543274999.99995
7020.0	122457324999.99997
7030.0	125546999999.99995
7040.0	128707549999.99994
7050.0	131883974999.99995
7060.0	135155749999.99995
7070.0	138387249999.99997
7080.0	141854975000.0
7090.0	145234074999.99997
7100.0	148683724999.99994
7110.0	152471599999.99994
7120.0	156200224999.99997
7130.0	159869624999.99997
7140.0	163601049999.99997
7150.0	167700049999.99994
7160.0	171522800000.0
7170.0	174514449999.99997
7180.0	179524274999.99994
7190.0	184146224999.99997
7200.0	188561499999.99994
7210.0	192877450000.0
7220.0	197362824999.99994
7230.0	202030049999.99994
7240.0	206650649999.99994
7250.0	211771800000.0
7260.0	216546549999.9999
7270.0	221588874999.99994
7280.0	226468374999.99994
7290.0	231904649999.99994
7300.0	236918474999.99997
7310.0	241971974999.99994
7320.0	247907949999.99997
7330.0	253868899999.99994
7340.0	259053474999.99997
7350.0	264148074999.99997
7360.0	270753024999.9999
7370.0	276287799999.9999
7380.0	283093000000.0
7390.0	289448199999.99994
7400.0	296017949999.9999
7410.0	301896624999.99994
7420.0	308540949999.9999
7430.0	315882699999.9999
7440.0	322681999999.99994
7450.0	329300999999.99994
7460.0	337036299999.99994
7470.0	344518674999.99994
7480.0	351760724999.99994
7490.0	359799124999.99994
7500.0	367761549999.99994
7510.0	375483449999.99994
7520.0	383536299999.99994
7530.0	391874649999.9999
7540.0	400258699999.99994
7550.0	408880274999.9998
7560.0	417550299999.9999
7570.0	426366549999.9999
7580.0	435184874999.99994
7590.0	444353149999.9999
7600.0	453553174999.9999
7610.0	462895399999.9999
7620.0	472226399999.9999
7630.0	481531299999.99994
7640.0	490247349999.9999
7650.0	496347474999.9999
7660.0	479040799999.9998
7670.0	451740349999.9999
7680.0	521361199999.9998
7690.0	533240724999.9998
7700.0	485758649999.9999
7710.0	551949399999.9999
7720.0	575480749999.9999
7730.0	589147825000.0
7740.0	601683875000.0
7750.0	614109324999.9999
7760.0	626509424999.9999
7770.0	639157649999.9999
7780.0	651936074999.9999
7790.0	664768024999.9999
7800.0	669384849999.9998
7810.0	691136599999.9999
7820.0	704960824999.9999
7830.0	718765899999.9998
7840.0	732807549999.9999
7850.0	747084549999.9999
7860.0	761460099999.9999
7870.0	775950774999.9998
7880.0	790832499999.9998
7890.0	805889374999.9999
7900.0	821146924999.9996
7910.0	837173099999.9998
7920.0	853299024999.9999
7930.0	869269174999.9998
7940.0	885545949999.9996
7950.0	886398149999.9999
7960.0	919301325000.0
7970.0	936588724999.9998
7980.0	953826999999.9999
7990.0	971792849999.9996
8000.0	989383474999.9998
8010.0	1008036799999.9998
8020.0	1026779749999.9998
8030.0	1045479499999.9999
8040.0	1065354249999.9996
8050.0	1084539249999.9996
8060.0	1104508249999.9995
8070.0	1124568249999.9998
8080.0	1145430499999.9998
8090.0	1165225250000.0
8100.0	1185502249999.9998
8110.0	1200951499999.9998
8120.0	1227503499999.9998
8130.0	1251982249999.9995
8140.0	1270614749999.9998
8150.0	1288114749999.9995
8160.0	1320126500000.0
8170.0	1343936749999.9998
8180.0	1358371249999.9998
8190.0	1389683499999.9995
8200.0	1414377499999.9998
8210.0	1440615749999.9998
8220.0	1466115999999.9995
8230.0	1478835499999.9995
8240.0	1511740249999.9998
8250.0	1543489499999.9998
8260.0	1569080749999.9995
8270.0	1589982499999.9998
8280.0	1624944249999.9995
8290.0	1651526499999.9995
8300.0	1680600249999.9998
8310.0	1705118249999.9995
8320.0	1735803999999.9995
8330.0	1768012249999.9995
8340.0	1797931249999.9995
8350.0	1828672250000.0
8360.0	1858105249999.9995
8370.0	1889355749999.9995
8380.0	1920780249999.9995
8390.0	1951344749999.9993
8400.0	1982776749999.9995
8410.0	2019460749999.9995
8420.0	2053278499999.9998
8430.0	2086028749999.9995
8440.0	2119453499999.9995
8450.0	2153702999999.9995
8460.0	2188331499999.9998
8470.0	2220204999999.9995
8480.0	2261286749999.9995
8490.0	2297522749999.999
8500.0	2336589750000.0
8510.0	2374461250000.0
8520.0	2411918999999.9995
8530.0	2450597250000.0
8540.0	2487721499999.9995
8550.0	2529616749999.9995
8560.0	2570012249999.9995
8570.0	2610818999999.9995
8580.0	2652083249999.9995
8590.0	2692725999999.9995
8600.0	2735644249999.999
8610.0	2778605499999.9995
8620.0	2820292249999.999
8630.0	2863738749999.9995
8640.0	2906093499999.999
8650.0	2949919999999.9995
8660.0	3001029249999.9995
8670.0	3047312999999.999
8680.0	3093066249999.9995
8690.0	3141735999999.999
8700.0	3187551749999.999
8710.0	3238781999999.999
8720.0	3287756499999.9995
8730.0	3338888749999.9995
8740.0	3386334999999.9995
8750.0	3440344499999.999
8760.0	3492483249999.9995
8770.0	3544802999999.9985
8780.0	3598811999999.999
8790.0	3651989999999.999
8800.0	3707355749999.999
8810.0	3761067749999.999
8820.0	3817676999999.9995
8830.0	3874258749999.9995
8840.0	3924293499999.999
8850.0	3989345499999.999
8860.0	4045265249999.999
8870.0	4107277249999.999
8880.0	4165589499999.9985
8890.0	4226510749999.998
8900.0	4287277749999.9985
8910.0	4324924499999.999
8920.0	4373472999999.9985
8930.0	4446592999999.998
8940.0	4523839249999.999
8950.0	4600468749999.998
8960.0	4661753250000.0
8970.0	4602052999999.999
8980.0	4791777499999.999
8990.0	4729638249999.999
9000.0	4934078999999.999
9010.0	4945360249999.998
9020.0	5080770499999.998
9030.0	5148326249999.999
9040.0	5218939999999.998
9050.0	5289463749999.999
9060.0	5365464499999.999
9070.0	5441167000000.0
9080.0	5512742249999.999
9090.0	5580891499999.998
9100.0	5658532749999.999
9110.0	5745487999999.998
9120.0	5830309249999.999
9130.0	5907310749999.998
9140.0	5984556999999.999
9150.0	6037074499999.999
9160.0	6106774999999.999
9170.0	6201010749999.998
9180.0	6312852749999.999
9190.0	6372422499999.998
9200.0	6430637749999.998
9210.0	6530860249999.999
9220.0	6640718499999.999
9230.0	6752836999999.998
9240.0	6842057749999.999
9250.0	6895152749999.998
9260.0	6901437749999.998
9270.0	6985054999999.998
9280.0	6928921999999.998
9290.0	6723163499999.998
9300.0	7268604749999.998
9310.0	6782587749999.998
9320.0	7538102999999.998
9330.0	7329966499999.998
9340.0	6933224499999.998
9350.0	6608567999999.999
9360.0	7094897249999.998
9370.0	6852109750000.0
9380.0	7998129749999.999
9390.0	8179465249999.998
9400.0	8327908749999.999
9410.0	8439107999999.999
9420.0	8500146249999.998
9430.0	8698210249999.997
9440.0	8821953749999.998
9450.0	8906535499999.998
9460.0	8887625999999.998
9470.0	8183640499999.997
9480.0	9159935999999.996
9490.0	9267045749999.998
9500.0	8286010749999.997
9510.0	9471401749999.998
9520.0	9514778499999.998
9530.0	9611375499999.996
9540.0	9948114499999.996
9550.0	9940486749999.998
9560.0	9086034749999.998
9570.0	10256287249999.998
9580.0	10355126749999.998
9590.0	10573929999999.996
9600.0	10018485000000.0
9610.0	10843638999999.996
9620.0	9867891999999.996
9630.0	11077527499999.996
9640.0	11034119999999.996
9650.0	11168589999999.998
9660.0	11445959999999.998
9670.0	11525019999999.996
9680.0	11795567499999.998
9690.0	11896972499999.998
9700.0	12060257500000.0
9710.0	12162089999999.996
9720.0	12209974999999.996
9730.0	12356247499999.998
9740.0	12521439999999.998
9750.0	12564342499999.996
9760.0	12902239999999.998
9770.0	13066629999999.996
9780.0	13239992499999.996
9790.0	13330307499999.996
9800.0	13393194999999.998
9810.0	13676072499999.996
9820.0	13883832499999.998
9830.0	14032337499999.998
9840.0	14180897500000.0
9850.0	14303214999999.996
9860.0	14403614999999.994
9870.0	14674449999999.994
9880.0	14718714999999.996
9890.0	14926907499999.994
9900.0	15160659999999.994
9910.0	15389544999999.998
9920.0	15520142499999.992
9930.0	15695414999999.996
9940.0	15793359999999.998
9950.0	16079357499999.996
9960.0	16227437499999.996
9970.0	16445684999999.996
9980.0	16620564999999.994
9990.0	16784174999999.994
10000.0	16943527499999.998
10010.0	17129569999999.996
10020.0	17331589999999.994
10030.0	17513267499999.996
10040.0	17674867499999.992
10050.0	17909239999999.996
10060.0	18092579999999.992
10070.0	18289319999999.996
10080.0	18451884999999.996
10090.0	18664017499999.992
10100.0	18879902499999.992
10110.0	19068044999999.996
10120.0	19252804999999.996
10130.0	19474429999999.996
10140.0	19677147499999.996
10150.0	19889315000000.0
10160.0	20094864999999.996
10170.0	20304264999999.996
10180.0	20497894999999.996
10190.0	20724287499999.992
10200.0	20939892499999.992
10210.0	21155452499999.996
10220.0	21372077499999.992
10230.0	21591329999999.992
10240.0	21808932500000.0
10250.0	22027327499999.996
10260.0	22253839999999.996
10270.0	22484579999999.992
10280.0	22711292499999.996
10290.0	22940299999999.996
10300.0	23170717499999.996
10310.0	23398299999999.992
10320.0	23623552499999.992
10330.0	23865424999999.99
10340.0	24108737499999.996
10350.0	24345652499999.996
10360.0	24588889999999.996
10370.0	24832552499999.992
10380.0	25073744999999.992
10390.0	25320182499999.996
10400.0	25570504999999.996
10410.0	25819152499999.996
10420.0	26071402499999.992
10430.0	26323412499999.99
10440.0	26579019999999.996
10450.0	26835012499999.992
10460.0	27093114999999.996
10470.0	27355644999999.992
10480.0	27617154999999.996
10490.0	27881197499999.99
10500.0	28134352499999.992
10510.0	28415587499999.992
10520.0	28682467499999.996
10530.0	28953917500000.0
10540.0	29233742499999.992
10550.0	29507962499999.996
10560.0	29786804999999.992
10570.0	30067619999999.992
10580.0	30348637499999.99
10590.0	30622949999999.996
10600.0	30822817499999.996
10610.0	31205752499999.992
10620.0	31503699999999.992
10630.0	31865082499999.992
10640.0	32170939999999.99
10650.0	32456509999999.992
10660.0	32763005000000.0
10670.0	32999847499999.992
10680.0	33316374999999.992
10690.0	33665084999999.996
10700.0	33917062499999.992
10710.0	34267052499999.99
10720.0	34567452499999.992
10730.0	34912149999999.99
10740.0	35186967499999.99
10750.0	35542419999999.984
10760.0	35860085000000.0
10770.0	36140299999999.99
10780.0	36388662499999.984
10790.0	36816192499999.99
10800.0	37109934999999.99
10810.0	37482329999999.99
10820.0	37810387499999.984
10830.0	38147055000000.0
10840.0	38473087499999.99
10850.0	38821182500000.0
10860.0	39148809999999.99
10870.0	39407522500000.0
10880.0	39838864999999.99
10890.0	40179199999999.99
10900.0	40356522499999.984
10910.0	40829992499999.984
10920.0	41105864999999.99
10930.0	41316792499999.99
10940.0	41649887499999.984
10950.0	42128327499999.984
10960.0	42270569999999.99
10970.0	42555384999999.99
10980.0	42319207499999.984
10990.0	42646827499999.984
11000.0	43881374999999.99
11010.0	41685719999999.99
11020.0	44214759999999.984
11030.0	42867022499999.984
11040.0	45107694999999.99
11050.0	45145554999999.984
11060.0	45648135000000.0
11070.0	45904509999999.984
11080.0	46329754999999.984
11090.0	47498707499999.99
11100.0	47759287499999.98
11110.0	47624564999999.984
11120.0	48358937499999.99
11130.0	48550784999999.984
11140.0	48773227499999.99
11150.0	40751276499999.99
11160.0	46364842499999.99
11170.0	46025317499999.99
11180.0	50236477499999.984
11190.0	47278847499999.99
11200.0	38118302499999.99
11210.0	50605129999999.984
11220.0	44257337749999.99
11230.0	51340815749999.99
11240.0	46773637499999.984
11250.0	45662544999999.99
11260.0	49744274999999.99
11270.0	47933562499999.99
11280.0	54329590000000.0
11290.0	55403502499999.99
11300.0	55269674999999.98
11310.0	53034777499999.984
11320.0	56819089999999.99
11330.0	57109612499999.99
11340.0	56476379999999.98
11350.0	43365124999999.99
11360.0	55258334999999.99
11370.0	58405819999999.98
11380.0	58233287499999.99
11390.0	59296257499999.99
11400.0	60430217499999.98
11410.0	60264027500000.0
11420.0	56675404999999.984
11430.0	59720509999999.99
11440.0	56932252499999.99
11450.0	61311772499999.99
11460.0	60993789999999.99
11470.0	63178114999999.99
11480.0	55227229999999.99
11490.0	63164239999999.98
11500.0	50179987499999.99
11510.0	65943664999999.99
11520.0	66515032499999.98
11530.0	66564774999999.984
11540.0	64708607499999.984
11550.0	64477299999999.984
11560.0	67899469999999.99
11570.0	65084614999999.984
11580.0	66032772499999.99
11590.0	69969167499999.98
11600.0	62935539999999.984
11610.0	69758989999999.98
11620.0	71616014999999.97
11630.0	71168304999999.98
11640.0	58939854999999.984
11650.0	71601802499999.98
11660.0	66896332499999.984
11670.0	73888619999999.98
11680.0	74416617499999.98
11690.0	73959544999999.97
11700.0	71082479999999.98
11710.0	74970054999999.97
11720.0	76892252499999.98
11730.0	64671907499999.984
11740.0	75604922499999.98
11750.0	77252812499999.97
11760.0	78810762499999.98
11770.0	79474779999999.97
11780.0	78730622499999.98
11790.0	80793679999999.97
11800.0	79893174999999.98
11810.0	80730137499999.98
11820.0	79555077499999.98
11830.0	83246279999999.98
11840.0	83712062499999.98
11850.0	81195077499999.98
11860.0	83321194999999.98
11870.0	84853557499999.97
11880.0	85888792499999.97
11890.0	86567562499999.95
11900.0	87104512499999.98
11910.0	88114137499999.98
11920.0	88551604999999.98
11930.0	89353909999999.98
11940.0	89452424999999.98
11950.0	90564159999999.97
11960.0	91032737499999.97
11970.0	91719587499999.98
11980.0	90614307499999.97
11990.0	91191777499999.97
12000.0	93732079999999.97
12010.0	94426274999999.97
12020.0	94210567499999.97
12030.0	95277859999999.97
12040.0	95523634999999.97
12050.0	96982742499999.98
12060.0	97617144999999.97
12070.0	98141917499999.97
12080.0	98847767499999.98
12090.0	99344424999999.98
12100.0	100166649999999.97
12110.0	100815749999999.98
12120.0	100780054999999.98
12130.0	101796839999999.98
12140.0	101980514999999.98
12150.0	102923919999999.97
12160.0	104208374999999.95
12170.0	104966574999999.98
12180.0	105402974999999.97
12190.0	106414799999999.98
12200.0	106503299999999.97
12210.0	107659574999999.97
12220.0	108125499999999.98
12230.0	109006899999999.98
12240.0	109504349999999.97
12250.0	110509599999999.98
12260.0	111218249999999.95
12270.0	111905299999999.98
12280.0	112505999999999.98
12290.0	112623699999999.95
12300.0	114038524999999.98
12310.0	114369424999999.98
12320.0	115465449999999.97
12330.0	116046124999999.97
12340.0	117058024999999.97
12350.0	117815249999999.97
12360.0	118515799999999.95
12370.0	119070199999999.97
12380.0	119956949999999.98
12390.0	120732949999999.97
12400.0	121437299999999.98
12410.0	122187249999999.97
12420.0	123083674999999.97
12430.0	123758874999999.95
12440.0	124515799999999.95
12450.0	125256649999999.97
12460.0	126016274999999.97
12470.0	126867674999999.95
12480.0	127585199999999.98
12490.0	128351599999999.98
12500.0	129070249999999.98
12510.0	129897649999999.97
12520.0	130730099999999.97
12530.0	131530399999999.98
12540.0	131361624999999.94
12550.0	133091474999999.97
12560.0	133890999999999.98
12570.0	134656299999999.92
12580.0	135518999999999.94
12590.0	136214874999999.97
12600.0	137088249999999.95
12610.0	137967074999999.95
12620.0	138747824999999.97
12630.0	139564974999999.97
12640.0	140410999999999.97
12650.0	141262174999999.94
12660.0	142028824999999.94
12670.0	142782899999999.94
12680.0	143664999999999.97
12690.0	144610850000000.0
12700.0	145328850000000.0
12710.0	145770249999999.97
12720.0	146499924999999.97
12730.0	147818899999999.97
12740.0	148534724999999.97
12750.0	149632449999999.97
12760.0	150100149999999.97
12770.0	151425999999999.94
12780.0	152265400000000.0
12790.0	153047624999999.94
12800.0	153612325000000.0
12810.0	154463374999999.94
12820.0	155570274999999.97
12830.0	155206224999999.94
12840.0	157380474999999.94
12850.0	156703299999999.94
12860.0	159221199999999.97
12870.0	159883599999999.97
12880.0	161064999999999.97
12890.0	161493174999999.97
12900.0	161981224999999.97
12910.0	162787799999999.97
12920.0	163327599999999.97
12930.0	164876599999999.97
12940.0	165778049999999.97
12950.0	161744749999999.97
12960.0	163686824999999.94
12970.0	168226724999999.97
12980.0	169980849999999.97
12990.0	166709174999999.97
13000.0	171999149999999.97
13010.0	172594174999999.97
13020.0	173561374999999.97
13030.0	171973199999999.94
13040.0	175220324999999.97
13050.0	176461974999999.94
13060.0	177572474999999.97
13070.0	177526824999999.94
13080.0	179206624999999.94
13090.0	179149524999999.94
13100.0	180877374999999.97
13110.0	182253524999999.94
13120.0	181781274999999.94
13130.0	183492399999999.94
13140.0	182777349999999.97
13150.0	184818399999999.94
13160.0	184547724999999.94
13170.0	187792174999999.97
13180.0	188705949999999.97
13190.0	184321024999999.97
13200.0	190265374999999.97
13210.0	191154024999999.94
13220.0	192831574999999.94
13230.0	173494984999999.94
13240.0	193069274999999.97
13250.0	195197799999999.97
13260.0	194079774999999.94
13270.0	196248074999999.97
13280.0	195857599999999.97
13290.0	195462224999999.97
13300.0	200782799999999.94
13310.0	199177799999999.94
13320.0	192889399999999.94
13330.0	198659199999999.94
13340.0	200546824999999.97
13350.0	175374349999999.94
13360.0	196106637499999.94
13370.0	151592367499999.97
13380.0	169555649999999.94
13390.0	175772527499999.94
13400.0	200549832499999.97
13410.0	194507627499999.94
13420.0	149272557499999.97
13430.0	203780849999999.97
13440.0	166723697499999.97
13450.0	138404515499999.97
13460.0	206615035499999.94
13470.0	168646298499999.97
13480.0	181997624999999.97
13490.0	183386274999999.94
13500.0	172677983499999.97
13510.0	180569040499999.97
13520.0	116569694999999.97
13530.0	203762924999999.94
13540.0	137456119999999.97
13550.0	131461141599999.98
13560.0	172296098999999.97
13570.0	184090849999999.97
13580.0	157752447499999.94
13590.0	123353250499999.98
13600.0	213919774999999.94
13610.0	208574174999999.97
13620.0	146205324999999.94
13630.0	118603414999999.97
13640.0	179621367499999.97
13650.0	176059632499999.97
13660.0	205247074999999.94
13670.0	187062609999999.97
13680.0	163659599249999.94
13690.0	169578489749999.9
13700.0	170284144999999.97
13710.0	198463499999999.97
13720.0	198803779999999.97
13730.0	240032774999999.94
13740.0	144560617499999.97
13750.0	169401182500000.0
13760.0	185576984999999.94
13770.0	208754600000000.0
13780.0	234992499999999.94
13790.0	244023825000000.0
13800.0	245351824999999.97
13810.0	168557784999999.97
13820.0	248669349999999.97
13830.0	185623604999999.94
13840.0	221669324999999.97
13850.0	228473844999999.97
13860.0	189596514999999.97
13870.0	218164989999999.94
13880.0	217995224999999.97
13890.0	186891207999999.94
13900.0	208079476499999.9
13910.0	187027877499999.94
13920.0	243996649999999.94
13930.0	213974389999999.97
13940.0	234644049999999.97
13950.0	163555241799999.97
13960.0	197296647999999.97
13970.0	184184885999999.97
13980.0	227501474999999.9
13990.0	266537324999999.94
14000.0	192657942499999.97
14010.0	224704152499999.9
14020.0	245359274999999.9
14030.0	240400974999999.97
14040.0	151753844999999.97
14050.0	170537783599999.97
14060.0	252476899999999.97
14070.0	232774074999999.94
14080.0	183244897499999.94
14090.0	248216917499999.94
14100.0	228947599999999.97
14110.0	285934199999999.9
14120.0	196671652499999.94
14130.0	247270967499999.94
14140.0	272613811499999.94
14150.0	220717642999999.97
14160.0	190344052500000.0
14170.0	272105457499999.94
14180.0	137909542499999.95
14190.0	198105974999999.94
14200.0	199007457499999.94
14210.0	228524327499999.9
14220.0	220852594999999.97
14230.0	202248279999999.97
14240.0	191052109999999.97
14250.0	234491232499999.9
14260.0	178057274999999.94
14270.0	244008497499999.97
14280.0	185537377499999.94
14290.0	195555049999999.94
14300.0	257762732499999.97
14310.0	234303304999999.94
14320.0	291156474999999.94
14330.0	244402274999999.9
14340.0	263142724999999.9
14350.0	287084549999999.94
14360.0	265599099999999.97
14370.0	292175349999999.94
14380.0	224212724999999.94
14390.0	226319217499999.94
14400.0	271684652499999.9
14410.0	256113874999999.94
14420.0	239798644999999.94
14430.0	309948649999999.94
14440.0	281947674999999.94
14450.0	259255522499999.9
14460.0	264234617499999.9
14470.0	307381874999999.9
14480.0	291714374999999.94
14490.0	329540474999999.94
14500.0	308409605000000.0
14510.0	192889134999999.94
14520.0	329795374999999.94
14530.0	318655749999999.94
14540.0	284111799999999.94
14550.0	269388794999999.94
14560.0	272900004999999.9
14570.0	321464424999999.94
14580.0	343024674999999.94
14590.0	333438624999999.9
14600.0	343937449999999.94
14610.0	341043149999999.9
