# Flux units: erg / (cm m2 s)
# Wavelength units: Angstrom
wave	flux
7000.0	1285.17025
7010.0	1318.5302499999996
7020.0	1351.6879999999996
7030.0	1385.8284999999998
7040.0	1420.7817499999999
7050.0	1456.4467499999996
7060.0	1493.0442499999997
7070.0	1529.7589999999996
7080.0	1568.0484999999996
7090.0	1606.1967499999998
7100.0	1645.3904999999995
7110.0	1686.7532499999995
7120.0	1728.40875
7130.0	1769.8674999999996
7140.0	1812.6704999999995
7150.0	1857.5407499999997
7160.0	1900.7407499999995
7170.0	1937.7209999999995
7180.0	1990.5909999999997
7190.0	2040.6752499999998
7200.0	2090.3882499999995
7210.0	2139.9397499999995
7220.0	2191.3979999999992
7230.0	2243.2094999999995
7240.0	2294.7599999999998
7250.0	2351.057
7260.0	2403.6672499999995
7270.0	2461.3224999999998
7280.0	2518.4692499999996
7290.0	2576.9067499999996
7300.0	2634.1152499999994
7310.0	2693.6369999999993
7320.0	2758.38325
7330.0	2824.149499999999
7340.0	2885.3512499999993
7350.0	2945.5397499999995
7360.0	3017.6394999999993
7370.0	3084.2397499999993
7380.0	3155.7122499999996
7390.0	3226.1579999999994
7400.0	3298.5747499999993
7410.0	3370.5239999999994
7420.0	3443.2047499999994
7430.0	3523.4499999999994
7440.0	3600.3964999999994
7450.0	3675.804249999999
7460.0	3759.4714999999987
7470.0	3843.7899999999995
7480.0	3925.691749999999
7490.0	4013.0267499999995
7500.0	4100.611249999999
7510.0	4186.085499999998
7520.0	4274.729499999999
7530.0	4365.397249999999
7540.0	4455.486749999998
7550.0	4547.161249999999
7560.0	4638.392749999998
7570.0	4728.701749999999
7580.0	4816.915749999998
7590.0	4902.984749999999
7600.0	4982.868249999999
7610.0	5052.579249999999
7620.0	5102.3285
7630.0	5115.26175
7640.0	5054.9355
7650.0	4858.414749999999
7660.0	4382.463499999999
7670.0	4197.989749999999
7680.0	4922.456499999999
7690.0	5060.838
7700.0	4472.170749999999
7710.0	5215.941249999998
7720.0	5878.098249999999
7730.0	6256.631999999999
7740.0	6516.417749999998
7750.0	6726.106999999998
7760.0	6910.792999999999
7770.0	7083.508749999998
7780.0	7247.063999999999
7790.0	7397.097249999999
7800.0	7007.013999999999
7810.0	7663.95525
7820.0	7892.629249999998
7830.0	8061.7329999999965
7840.0	8227.8815
7850.0	8396.29925
7860.0	8564.611749999996
7870.0	8733.327499999998
7880.0	8907.994249999998
7890.0	9084.4065
7900.0	9261.186499999996
7910.0	9443.874249999997
7920.0	9628.183999999997
7930.0	9810.909999999998
7940.0	9978.806749999998
7950.0	9459.501499999997
7960.0	10370.627499999997
7970.0	10585.862499999997
7980.0	10790.157499999996
7990.0	10996.609999999999
8000.0	11202.574999999997
8010.0	11415.084999999995
8020.0	11630.149999999996
8030.0	11849.749999999996
8040.0	12073.685
8050.0	12295.822499999998
8060.0	12525.335
8070.0	12755.309999999998
8080.0	12993.429999999997
8090.0	13228.197499999995
8100.0	13463.894999999997
8110.0	13673.199999999997
8120.0	13937.827499999998
8130.0	14208.932499999999
8140.0	14408.127499999997
8150.0	14677.222499999998
8160.0	14983.867499999997
8170.0	15261.834999999994
8180.0	15505.469999999996
8190.0	15824.014999999998
8200.0	16090.274999999998
8210.0	16397.73
8220.0	16688.2375
8230.0	16828.14
8240.0	17228.114999999998
8250.0	17585.967499999995
8260.0	17886.75
8270.0	18177.667499999992
8280.0	18518.062499999996
8290.0	18812.129999999994
8300.0	19151.925
8310.0	19473.702499999996
8320.0	19808.909999999996
8330.0	20162.639999999996
8340.0	20517.104999999996
8350.0	20876.974999999995
8360.0	21210.604999999996
8370.0	21588.659999999996
8380.0	21943.297499999997
8390.0	22315.084999999995
8400.0	22679.182499999995
8410.0	23078.98
8420.0	23473.372499999994
8430.0	23866.88
8440.0	24265.402499999993
8450.0	24664.0075
8460.0	25065.447499999995
8470.0	25466.837499999994
8480.0	25911.8175
8490.0	26326.0375
8500.0	26777.042499999992
8510.0	27216.054999999993
8520.0	27651.734999999993
8530.0	28102.802499999998
8540.0	28547.132499999996
8550.0	29017.519999999993
8560.0	29489.69499999999
8570.0	29967.447499999995
8580.0	30446.669999999995
8590.0	30921.997499999987
8600.0	31416.802499999994
8610.0	31885.4875
8620.0	32300.72749999999
8630.0	32759.207499999993
8640.0	33306.21749999999
8650.0	33874.20749999999
8660.0	34464.537499999984
8670.0	35009.414999999986
8680.0	35541.99749999999
8690.0	36119.2
8700.0	36647.04249999999
8710.0	37217.65999999999
8720.0	37803.1775
8730.0	38412.96249999999
8740.0	38977.37749999999
8750.0	39594.98749999999
8760.0	40215.57999999999
8770.0	40804.389999999985
8780.0	41459.779999999984
8790.0	42066.05499999999
8800.0	42723.44249999998
8810.0	43348.509999999995
8820.0	44008.30499999999
8830.0	44677.049999999996
8840.0	45335.48999999998
8850.0	46017.649999999994
8860.0	46694.35249999999
8870.0	47408.77999999999
8880.0	48100.967499999984
8890.0	48802.047499999986
8900.0	49522.95749999998
8910.0	50107.662499999984
8920.0	50788.627499999995
8930.0	51544.08499999999
8940.0	52324.059999999976
8950.0	53174.234999999986
8960.0	53910.26999999998
8970.0	53817.77499999999
8980.0	55482.0625
8990.0	55459.42249999999
9000.0	57096.81749999998
9010.0	57598.13749999999
9020.0	58805.122499999976
9030.0	59599.57999999997
9040.0	60498.039999999986
9050.0	61311.604999999996
9060.0	62207.8875
9070.0	63054.867499999986
9080.0	63894.84999999998
9090.0	64757.60749999998
9100.0	65659.1725
9110.0	66412.31999999998
9120.0	67570.93499999998
9130.0	68486.86499999998
9140.0	69427.61249999999
9150.0	70250.69249999999
9160.0	70930.96499999998
9170.0	72135.04749999999
9180.0	73269.56499999999
9190.0	74142.82749999998
9200.0	74934.24499999998
9210.0	76187.2975
9220.0	77134.53749999999
9230.0	78472.15249999998
9240.0	79445.8425
9250.0	80325.2775
9260.0	80750.75499999998
9270.0	81932.48999999998
9280.0	81034.27999999997
9290.0	80115.86499999998
9300.0	83878.23499999999
9310.0	81140.02249999998
9320.0	86664.93749999999
9330.0	84641.75749999998
9340.0	81888.42749999998
9350.0	82437.19499999998
9360.0	87531.67249999999
9370.0	85605.97249999999
9380.0	92904.9375
9390.0	95529.09249999997
9400.0	97364.28999999998
9410.0	98403.78499999996
9420.0	99368.58999999998
9430.0	101135.52499999998
9440.0	101733.84749999997
9450.0	102645.05749999995
9460.0	103261.85999999997
9470.0	101371.17999999996
9480.0	106455.12499999996
9490.0	108178.0125
9500.0	103139.5275
9510.0	110444.24999999997
9520.0	110875.14999999998
9530.0	113190.34999999996
9540.0	115902.69999999998
9550.0	116441.79499999995
9560.0	111124.93999999997
9570.0	119393.52499999997
9580.0	121124.12499999997
9590.0	121902.475
9600.0	121073.14999999998
9610.0	125986.64999999997
9620.0	121897.85499999994
9630.0	129569.09999999995
9640.0	129534.22499999996
9650.0	131168.29999999996
9660.0	134414.02499999994
9670.0	134035.07499999998
9680.0	137939.59999999998
9690.0	139212.09999999995
9700.0	140836.89999999994
9710.0	142903.22499999995
9720.0	143629.74999999997
9730.0	144937.09999999998
9740.0	147642.07499999995
9750.0	148427.84999999995
9760.0	151227.39999999997
9770.0	153203.87499999997
9780.0	155108.32499999995
9790.0	155894.64999999997
9800.0	157632.79999999993
9810.0	160955.92499999996
9820.0	162905.32499999995
9830.0	164514.64999999994
9840.0	166790.84999999998
9850.0	168248.19999999995
9860.0	170321.92499999993
9870.0	172471.49999999994
9880.0	174118.34999999995
9890.0	176332.54999999996
9900.0	178547.02499999997
9910.0	180946.32499999995
9920.0	182747.49999999997
9930.0	184824.47499999998
9940.0	186693.77499999994
9950.0	189420.67499999996
9960.0	191248.12499999994
9970.0	193553.42499999996
9980.0	195819.37499999997
9990.0	197850.54999999993
10000.0	199803.09999999995
10010.0	201946.84999999992
10020.0	204256.17499999996
10030.0	206434.49999999994
10040.0	208588.32499999992
10050.0	211053.42499999993
10060.0	213213.64999999997
10070.0	215614.0499999999
10080.0	217712.97499999995
10090.0	220160.64999999997
10100.0	222628.04999999996
10110.0	224933.79999999996
10120.0	227275.72499999992
10130.0	229742.94999999998
10140.0	232186.42499999996
10150.0	234629.5
10160.0	237120.82499999995
10170.0	239595.74999999994
10180.0	242042.92499999993
10190.0	244656.77499999997
10200.0	247193.4999999999
10210.0	249736.52499999994
10220.0	252360.94999999995
10230.0	254955.62499999994
10240.0	257581.64999999994
10250.0	260210.22499999998
10260.0	262884.4249999999
10270.0	265571.7749999999
10280.0	268286.975
10290.0	271034.4749999999
10300.0	273767.55
10310.0	276537.74999999994
10320.0	279274.9749999999
10330.0	282113.77499999997
10340.0	284980.25
10350.0	287823.8499999999
10360.0	290723.1
10370.0	293631.1499999999
10380.0	296509.99999999994
10390.0	299463.67499999993
10400.0	302440.0249999999
10410.0	305410.8999999999
10420.0	308419.5749999999
10430.0	311445.3249999999
10440.0	314471.77499999997
10450.0	317555.29999999993
10460.0	320642.9749999999
10470.0	323775.62499999994
10480.0	326918.27499999985
10490.0	330070.3499999999
10500.0	333195.6499999999
10510.0	336435.5499999999
10520.0	339690.9499999999
10530.0	342923.39999999997
10540.0	346245.5749999999
10550.0	349527.9499999999
10560.0	352859.3999999999
10570.0	356220.69999999995
10580.0	359537.62499999994
10590.0	362937.3999999999
10600.0	365941.075
10610.0	369832.02499999985
10620.0	373699.12499999994
10630.0	377813.17499999993
10640.0	381468.9499999999
10650.0	384967.75
10660.0	388603.2749999999
10670.0	391797.92499999993
10680.0	395471.29999999993
10690.0	399336.62499999994
10700.0	402792.6749999999
10710.0	406683.82499999995
10720.0	410385.17499999993
10730.0	414187.9749999999
10740.0	417872.49999999994
10750.0	421602.6249999999
10760.0	425739.39999999985
10770.0	429317.67499999993
10780.0	432888.99999999994
10790.0	437314.4999999998
10800.0	440858.3
10810.0	445101.1749999999
10820.0	449134.8249999999
10830.0	453175.57499999984
10840.0	457102.8749999998
10850.0	461098.8249999999
10860.0	465059.59999999986
10870.0	468507.0999999999
10880.0	473512.475
10890.0	477508.3249999999
10900.0	480490.82499999995
10910.0	485318.8249999999
10920.0	488901.8499999999
10930.0	491981.9749999999
10940.0	496446.7999999998
10950.0	501230.1
10960.0	502805.22499999986
10970.0	508869.6249999998
10980.0	509016.0749999999
10990.0	513275.9499999999
11000.0	521011.04999999993
11010.0	513384.82499999984
11020.0	524338.0999999999
11030.0	521642.6499999998
11040.0	532352.2499999999
11050.0	537861.2749999999
11060.0	532768.1749999998
11070.0	541298.1499999999
11080.0	537960.3999999999
11090.0	558878.8999999998
11100.0	554888.575
11110.0	542718.7999999999
11120.0	568208.5749999998
11130.0	554301.2999999998
11140.0	571747.5
11150.0	509533.4249999999
11160.0	561984.8249999998
11170.0	550435.3249999998
11180.0	589385.9249999998
11190.0	559723.4999999999
11200.0	497090.7999999998
11210.0	601663.5249999999
11220.0	542861.75
11230.0	585310.3249999998
11240.0	553465.5749999998
11250.0	566488.0249999998
11260.0	602033.375
11270.0	606023.6749999998
11280.0	645257.5999999997
11290.0	653209.0249999998
11300.0	646012.1
11310.0	648793.8999999999
11320.0	671334.6499999999
11330.0	659365.8999999999
11340.0	623883.45
11350.0	548591.4749999999
11360.0	668056.9249999999
11370.0	692177.7999999999
11380.0	701671.4999999999
11390.0	708882.4749999997
11400.0	714546.5249999998
11410.0	721387.3749999999
11420.0	706229.2999999998
11430.0	719318.8749999999
11440.0	698307.1249999999
11450.0	730230.9249999998
11460.0	741582.7499999998
11470.0	745297.3999999998
11480.0	697477.0499999999
11490.0	758097.7749999999
11500.0	646703.2499999999
11510.0	776754.4499999997
11520.0	764476.6499999999
11530.0	756512.9249999998
11540.0	758738.3499999997
11550.0	773434.8250000001
11560.0	780209.1499999999
11570.0	784853.325
11580.0	777228.2499999999
11590.0	808470.9999999999
11600.0	769686.1749999999
11610.0	820227.9999999998
11620.0	836249.1249999998
11630.0	854505.5999999999
11640.0	776148.225
11650.0	848776.725
11660.0	833637.3999999997
11670.0	875805.1249999995
11680.0	880342.8249999997
11690.0	869549.9249999997
11700.0	863551.2249999999
11710.0	896711.7499999997
11720.0	913688.1999999998
11730.0	846832.5499999998
11740.0	903146.5749999997
11750.0	920713.4749999997
11760.0	940194.8749999999
11770.0	946272.7999999997
11780.0	940969.4749999999
11790.0	964220.8499999999
11800.0	961526.0499999998
11810.0	975217.4249999998
11820.0	970617.2999999997
11830.0	994344.4749999997
11840.0	999636.2
11850.0	997131.3749999997
11860.0	1010889.4749999997
11870.0	1020080.4999999999
11880.0	1028616.2499999998
11890.0	1032910.9999999998
11900.0	1040137.7499999997
11910.0	1053782.4999999998
11920.0	1061397.4999999998
11930.0	1071335.4999999998
11940.0	1069185.7499999995
11950.0	1084429.9999999998
11960.0	1091632.7499999998
11970.0	1101609.75
11980.0	1101843.9999999998
11990.0	1104769.9999999998
12000.0	1124218.5
12010.0	1133314.4999999998
12020.0	1136748.7499999995
12030.0	1145925.7499999998
12040.0	1151874.7499999998
12050.0	1164666.4999999995
12060.0	1172672.7499999995
12070.0	1177677.9999999998
12080.0	1186799.9999999998
12090.0	1193648.7499999995
12100.0	1203175.2499999998
12110.0	1212413.7499999998
12120.0	1216895.7499999998
12130.0	1226111.7499999998
12140.0	1232500.7499999998
12150.0	1239465.9999999998
12160.0	1253864.7499999995
12170.0	1261689.9999999998
12180.0	1267658.7499999995
12190.0	1278794.4999999995
12200.0	1285219.9999999995
12210.0	1295466.7499999998
12220.0	1302345.25
12230.0	1311079.9999999998
12240.0	1320161.9999999998
12250.0	1329304.75
12260.0	1338448.7499999998
12270.0	1346557.7499999998
12280.0	1355736.9999999995
12290.0	1361950.9999999998
12300.0	1373332.4999999998
12310.0	1380711.7499999998
12320.0	1391082.4999999998
12330.0	1398465.9999999998
12340.0	1409859.2499999998
12350.0	1419714.7499999998
12360.0	1428815.9999999998
12370.0	1436157.9999999998
12380.0	1446111.9999999995
12390.0	1455041.7499999998
12400.0	1464626.2499999998
12410.0	1472997.9999999998
12420.0	1483291.4999999995
12430.0	1492108.4999999995
12440.0	1501671.9999999998
12450.0	1512171.9999999995
12460.0	1520637.4999999998
12470.0	1528892.4999999995
12480.0	1540195.2499999995
12490.0	1548288.2499999995
12500.0	1558032.5
12510.0	1568197.9999999998
12520.0	1577702.9999999995
12530.0	1587086.7499999995
12540.0	1594328.2499999995
12550.0	1605467.9999999995
12560.0	1615758.7499999998
12570.0	1626399.2499999995
12580.0	1636819.9999999998
12590.0	1645224.9999999998
12600.0	1655772.4999999998
12610.0	1666386.4999999998
12620.0	1675810.7499999998
12630.0	1686554.7499999998
12640.0	1696586.4999999998
12650.0	1706182.4999999998
12660.0	1714752.4999999995
12670.0	1725844.5
12680.0	1737704.5
12690.0	1746730.7499999995
12700.0	1758331.9999999998
12710.0	1765549.2499999995
12720.0	1775525.2499999998
12730.0	1786804.7499999998
12740.0	1795773.4999999998
12750.0	1810300.5
12760.0	1816464.9999999995
12770.0	1829579.2499999993
12780.0	1840989.9999999998
12790.0	1850124.4999999998
12800.0	1856098.4999999995
12810.0	1867567.4999999995
12820.0	1880635.2499999995
12830.0	1883238.7499999998
12840.0	1903277.2499999993
12850.0	1907289.9999999995
12860.0	1923981.9999999995
12870.0	1933865.7499999993
12880.0	1943462.2499999998
12890.0	1954906.9999999995
12900.0	1966215.9999999998
12910.0	1974378.9999999993
12920.0	1978124.4999999995
12930.0	1994383.2499999998
12940.0	2008470.7499999998
12950.0	1999530.4999999998
12960.0	2010767.9999999993
12970.0	2028293.25
12980.0	2059214.7499999995
12990.0	2052551.9999999995
13000.0	2073979.9999999998
13010.0	2079832.0
13020.0	2102454.2499999995
13030.0	2089672.7499999993
13040.0	2114732.999999999
13050.0	2137716.999999999
13060.0	2150433.499999999
13070.0	2142902.249999999
13080.0	2172708.4999999995
13090.0	2177093.7499999995
13100.0	2190795.9999999995
13110.0	2209281.4999999995
13120.0	2208069.999999999
13130.0	2224898.7499999995
13140.0	2225587.5
13150.0	2214931.499999999
13160.0	2254211.7499999995
13170.0	2273282.7499999986
13180.0	2289820.2499999995
13190.0	2249835.249999999
13200.0	2304193.4999999995
13210.0	2321203.7499999995
13220.0	2337649.499999999
13230.0	2225768.9999999995
13240.0	2333931.0
13250.0	2359999.4999999995
13260.0	2368803.4999999995
13270.0	2376647.7499999995
13280.0	2390467.4999999995
13290.0	2352396.999999999
13300.0	2395606.75
13310.0	2399579.4999999995
13320.0	2212582.7499999995
13330.0	2362550.9999999995
13340.0	2412225.2499999995
13350.0	2291530.7499999995
13360.0	2209502.5
13370.0	1899212.7499999993
13380.0	1882831.9999999993
13390.0	2037120.7499999995
13400.0	1991537.9999999995
13410.0	2103783.4999999995
13420.0	1788726.85
13430.0	2005860.7499999998
13440.0	1915121.0999999996
13450.0	1499718.6499999994
13460.0	2167589.8499999996
13470.0	1672414.1999999995
13480.0	1397738.7499999998
13490.0	1809969.5499999993
13500.0	1647658.3149999995
13510.0	1682315.6949999998
13520.0	1165753.8399999996
13530.0	1889762.4999999998
13540.0	1507060.9499999995
13550.0	1135285.2999999998
13560.0	1762211.8999999997
13570.0	1581311.8999999994
13580.0	1571868.1999999997
13590.0	1267557.6599999997
13600.0	1916968.4999999995
13610.0	1638465.4999999995
13620.0	1101450.1999999997
13630.0	1601082.0499999996
13640.0	1852677.7299999997
13650.0	1504143.9749999996
13660.0	2044371.9749999999
13670.0	2079699.7499999993
13680.0	1549054.4999999998
13690.0	1956457.4999999993
13700.0	1869610.2499999998
13710.0	1980040.0499999993
13720.0	2275482.9999999995
13730.0	2357148.999999999
13740.0	1688167.9999999995
13750.0	2220246.9999999995
13760.0	2303546.749999999
13770.0	2254656.9999999995
13780.0	2647474.9999999995
13790.0	2455630.9999999995
13800.0	2625388.349999999
13810.0	1635807.6999999995
13820.0	2423606.4249999993
13830.0	1552743.075
13840.0	2571644.4999999995
13850.0	1993692.2499999995
13860.0	1803189.2249999994
13870.0	2548615.4249999993
13880.0	1937025.6499999994
13890.0	2212490.7599999993
13900.0	2293153.649999999
13910.0	2114350.249999999
13920.0	2026602.7499999998
13930.0	2093321.1999999997
13940.0	2350728.9999999995
13950.0	1588497.7199999997
13960.0	1907611.9924999992
13970.0	1969775.8474999997
13980.0	2467273.249999999
13990.0	2739703.4999999995
14000.0	1885180.0999999996
14010.0	1707705.4499999995
14020.0	2744365.999999999
14030.0	2818430.4999999995
14040.0	1915539.0749999997
14050.0	1719634.0249999994
14060.0	2882584.499999999
14070.0	2462546.499999999
14080.0	2288511.7499999995
14090.0	2047114.0749999993
14100.0	2321864.025
14110.0	2954731.7499999995
14120.0	2045940.825
14130.0	2905710.4249999993
14140.0	2170857.73
14150.0	2231511.8599999994
14160.0	2542461.749999999
14170.0	2809405.8999999994
14180.0	1828902.5499999996
14190.0	1829811.0999999996
14200.0	2197523.7499999995
14210.0	2522236.9999999995
14220.0	2551497.499999999
14230.0	1990960.8499999996
14240.0	1997174.45
14250.0	2704445.099999999
14260.0	1962090.9749999996
14270.0	2982767.5749999997
14280.0	2302506.2499999995
14290.0	1745700.2499999995
14300.0	3162571.7499999995
14310.0	2869793.249999999
14320.0	2701436.9999999995
14330.0	3003309.4999999995
14340.0	1998389.9999999995
14350.0	3135692.7499999995
14360.0	3206230.9999999995
14370.0	3057102.999999999
14380.0	2706577.8999999994
14390.0	2636407.4999999995
14400.0	2598337.249999999
14410.0	3067193.749999999
14420.0	2849309.749999999
14430.0	3564190.749999999
14440.0	3313148.9999999995
14450.0	2558407.1999999997
14460.0	2890379.849999999
14470.0	3329044.249999999
14480.0	3508918.9999999995
14490.0	3676853.4999999995
14500.0	3061213.9999999986
14510.0	2169769.4999999995
14520.0	3874773.4999999986
14530.0	3872214.4999999995
14540.0	3559746.9999999995
14550.0	3500229.4999999986
14560.0	3241069.749999999
14570.0	3324166.4999999995
14580.0	4096514.2499999986
14590.0	4149783.4999999986
14600.0	4151213.749999999
14610.0	4098793.9999999995
14620.0	3567372.4999999986
14630.0	3067946.749999999
14640.0	4171502.7499999986
14650.0	3708353.999999999
14660.0	3811066.749999999
14670.0	4088801.7499999986
14680.0	3801656.9999999986
14690.0	3602361.499999999
14700.0	3874532.249999999
14710.0	4024085.2499999995
14720.0	4221252.999999998
14730.0	3931552.499999999
14740.0	4016251.249999999
14750.0	4090063.499999998
14760.0	3826885.499999999
14770.0	4209036.999999999
14780.0	4371212.999999998
14790.0	4279565.0
14800.0	4010636.5
14810.0	4444834.999999998
14820.0	4143196.7499999986
