# Flux units: erg / (cm m2 s)
# Wavelength units: Angstrom
wave	flux
7000.0	4865460499.999999
7010.0	5018518249.999999
7020.0	5169899499.999999
7030.0	5327636749.999999
7040.0	5489744999.999998
7050.0	5655582499.999999
7060.0	5826630749.999999
7070.0	5998153499.999999
7080.0	6179559999.999999
7090.0	6360168999.999999
7100.0	6547389749.999999
7110.0	6746787499.999998
7120.0	6947186499.999999
7130.0	7148315749.999998
7140.0	7353815499.999997
7150.0	7574973999.999998
7160.0	7786788749.999998
7170.0	7962328749.999999
7180.0	8224120249.999997
7190.0	8480410249.999998
7200.0	8734893499.999996
7210.0	8979561999.999998
7220.0	9239259749.999998
7230.0	9503392499.999998
7240.0	9762069749.999998
7250.0	10057803999.999998
7260.0	10328239999.999996
7270.0	10627252499.999998
7280.0	10919629999.999996
7290.0	11228654999.999996
7300.0	11527067499.999996
7310.0	11836579999.999996
7320.0	12187232499.999998
7330.0	12543022499.999998
7340.0	12881552499.999998
7350.0	13205832499.999994
7360.0	13598319999.999998
7370.0	13950419999.999998
7380.0	14356404999.999996
7390.0	14753904999.999998
7400.0	15153909999.999994
7410.0	15544434999.999996
7420.0	15975654999.999994
7430.0	16411584999.999996
7440.0	16845032499.999994
7450.0	17298199999.999996
7460.0	17766035000.0
7470.0	18239009999.999996
7480.0	18716464999.999996
7490.0	19217604999.999996
7500.0	19726647499.999996
7510.0	20242832499.999996
7520.0	20772949999.999996
7530.0	21316107499.999992
7540.0	21870444999.999992
7550.0	22439329999.999996
7560.0	23020242499.999996
7570.0	23614039999.999996
7580.0	24220092499.999992
7590.0	24842177499.999992
7600.0	25475044999.999996
7610.0	26125962499.999992
7620.0	26787504999.999992
7630.0	27467067499.999992
7640.0	28158832499.999996
7650.0	28863527499.99999
7660.0	29586007499.999992
7670.0	30327362499.999992
7680.0	31089369999.999996
7690.0	31861897499.999992
7700.0	32649344999.99999
7710.0	33461789999.999996
7720.0	34287182499.999992
7730.0	35132719999.99999
7740.0	35992464999.999985
7750.0	36873249999.999985
7760.0	37773650000.0
7770.0	38691125000.0
7780.0	39628829999.999985
7790.0	40587627499.999985
7800.0	41561477499.99999
7810.0	42562844999.99999
7820.0	43582362499.99999
7830.0	44623989999.99999
7840.0	45686822499.99999
7850.0	46776824999.99999
7860.0	47877667499.999985
7870.0	48998502499.999985
7880.0	50146992499.99999
7890.0	51316079999.99999
7900.0	52497207499.999985
7910.0	53768564999.99999
7920.0	55025967499.99999
7930.0	56295979999.99999
7940.0	57603982499.99999
7950.0	58929434999.99998
7960.0	60280702499.99999
7970.0	61664112500.0
7980.0	63056502499.999985
7990.0	64509632499.999985
8000.0	65961514999.999985
8010.0	67473079999.999985
8020.0	69004890000.0
8030.0	70531152499.99998
8040.0	72156702499.99997
8050.0	73771022499.99998
8060.0	75420922499.99998
8070.0	77093684999.99997
8080.0	78828227499.99998
8090.0	80532779999.99998
8100.0	82263027500.0
8110.0	83669692499.99997
8120.0	85720795000.0
8130.0	87781712499.99998
8140.0	89162639999.99998
8150.0	91054124999.99998
8160.0	93582757499.99998
8170.0	95667472499.99997
8180.0	97217159999.99997
8190.0	99874452499.99998
8200.0	101905649999.99997
8210.0	104313799999.99998
8220.0	106556274999.99998
8230.0	107379799999.99997
8240.0	110615649999.99997
8250.0	113498274999.99998
8260.0	115812099999.99997
8270.0	118014149999.99997
8280.0	120819699999.99997
8290.0	123117799999.99998
8300.0	125839274999.99997
8310.0	128257324999.99997
8320.0	130988849999.99995
8330.0	133862099999.99995
8340.0	136721099999.99995
8350.0	139624924999.99994
8360.0	142330799999.99997
8370.0	145386250000.0
8380.0	148275949999.99994
8390.0	151261650000.0
8400.0	154295899999.99997
8410.0	157634574999.99994
8420.0	160893449999.99997
8430.0	164127274999.99994
8440.0	167437274999.99997
8450.0	170767374999.99997
8460.0	174126349999.99997
8470.0	177446474999.99997
8480.0	181245674999.99994
8490.0	184776599999.99997
8500.0	188601299999.99994
8510.0	192355499999.99994
8520.0	196083899999.99997
8530.0	200001249999.99994
8540.0	203857775000.0
8550.0	207929949999.99994
8560.0	211981450000.0
8570.0	216119749999.99994
8580.0	220331999999.99997
8590.0	224570399999.99994
8600.0	228941699999.9999
8610.0	233229499999.99997
8620.0	237374599999.99997
8630.0	241680999999.99997
8640.0	246457249999.99997
8650.0	251274574999.99994
8660.0	256335999999.99994
8670.0	261256424999.99994
8680.0	266134324999.99994
8690.0	271240724999.99994
8700.0	276188474999.99994
8710.0	281375324999.99994
8720.0	286637799999.99994
8730.0	292154174999.99994
8740.0	297419699999.99994
8750.0	303106299999.99994
8760.0	308753099999.99994
8770.0	314339725000.0
8780.0	320319849999.99994
8790.0	326087349999.99994
8800.0	332189599999.9999
8810.0	338084974999.99994
8820.0	344327624999.9999
8830.0	350675999999.9999
8840.0	356911174999.9999
8850.0	363465874999.9999
8860.0	369869949999.99994
8870.0	376719849999.99994
8880.0	383361474999.9999
8890.0	390220274999.99994
8900.0	397217724999.99994
8910.0	402562099999.99994
8920.0	409103924999.99994
8930.0	416608799999.9998
8940.0	424535799999.9999
8950.0	433034199999.9999
8960.0	440038574999.9999
8970.0	434970524999.9998
8980.0	455490124999.9999
8990.0	450495174999.9998
9000.0	471889174999.9999
9010.0	474463424999.9999
9020.0	489145049999.9999
9030.0	497169749999.9998
9040.0	506146099999.9998
9050.0	514372824999.9999
9060.0	523586849999.99994
9070.0	532250299999.99994
9080.0	540844549999.9999
9090.0	549513149999.9999
9100.0	558735374999.9999
9110.0	566914474999.9999
9120.0	579001924999.9998
9130.0	588678474999.9999
9140.0	598326374999.9999
9150.0	606125174999.9998
9160.0	612570224999.9999
9170.0	626376399999.9999
9180.0	638932574999.9999
9190.0	647339774999.9999
9200.0	655026800000.0
9210.0	668706349999.9999
9220.0	679401249999.9999
9230.0	694459799999.9998
9240.0	705250449999.9998
9250.0	714349849999.9996
9260.0	717392499999.9999
9270.0	731352074999.9998
9280.0	725787849999.9998
9290.0	706340099999.9999
9300.0	756409774999.9998
9310.0	705644324999.9998
9320.0	786821399999.9999
9330.0	749067724999.9998
9340.0	703069599999.9998
9350.0	699229549999.9998
9360.0	761768274999.9999
9370.0	729592774999.9999
9380.0	848409799999.9998
9390.0	881634399999.9999
9400.0	902599424999.9998
9410.0	913442349999.9999
9420.0	922807899999.9999
9430.0	946610874999.9998
9440.0	954922499999.9999
9450.0	962975524999.9996
9460.0	965034949999.9999
9470.0	915471924999.9998
9480.0	1004950624999.9995
9490.0	1024348499999.9999
9500.0	925513324999.9999
9510.0	1051461999999.9999
9520.0	1050710049999.9996
9530.0	1075734749999.9998
9540.0	1116982999999.9995
9550.0	1120783124999.9998
9560.0	1023228974999.9996
9570.0	1156414000000.0
9580.0	1175376749999.9998
9590.0	1191164749999.9998
9600.0	1160725249999.9998
9610.0	1238419750000.0
9620.0	1158733649999.9998
9630.0	1279128249999.9995
9640.0	1273822499999.9998
9650.0	1293778999999.9998
9660.0	1335417499999.9998
9670.0	1333551499999.9998
9680.0	1382593999999.9998
9690.0	1396880749999.9998
9700.0	1417399749999.9995
9710.0	1440453249999.9998
9720.0	1444887749999.9995
9730.0	1467309749999.9998
9740.0	1498456499999.9998
9750.0	1499612999999.9995
9760.0	1545152499999.9995
9770.0	1567275249999.9995
9780.0	1592966250000.0
9790.0	1603640499999.9995
9800.0	1616341249999.9998
9810.0	1664470749999.9995
9820.0	1692396499999.9995
9830.0	1711971249999.9995
9840.0	1741210499999.9995
9850.0	1759380249999.9995
9860.0	1783414749999.9993
9870.0	1814113999999.9995
9880.0	1833630499999.9995
9890.0	1861872749999.9995
9900.0	1891497249999.9993
9910.0	1923285249999.9995
9920.0	1945586999999.9998
9930.0	1972890249999.9995
9940.0	1997017249999.9995
9950.0	2033100249999.999
9960.0	2057530249999.9995
9970.0	2088295999999.9993
9980.0	2117896249999.9993
9990.0	2145141499999.9998
10000.0	2170836999999.9995
10010.0	2199674999999.9995
10020.0	2230674999999.999
10030.0	2259975499999.9995
10040.0	2287644249999.9995
10050.0	2320987999999.9995
10060.0	2350477499999.999
10070.0	2382447999999.999
10080.0	2410700249999.9995
10090.0	2444126249999.9995
10100.0	2477541749999.9995
10110.0	2509100999999.999
10120.0	2540485249999.9995
10130.0	2574503249999.9995
10140.0	2607975750000.0
10150.0	2641789499999.9995
10160.0	2675923499999.9995
10170.0	2710322499999.999
10180.0	2744085499999.999
10190.0	2779809499999.999
10200.0	2815501749999.999
10210.0	2851172499999.999
10220.0	2887640250000.0
10230.0	2924040499999.999
10240.0	2960591749999.999
10250.0	2997819499999.999
10260.0	3035594000000.0
10270.0	3073870249999.999
10280.0	3112420249999.9995
10290.0	3150852499999.9995
10300.0	3190365999999.999
10310.0	3229499999999.9985
10320.0	3268856499999.999
10330.0	3309690999999.999
10340.0	3351163249999.999
10350.0	3392054499999.9995
10360.0	3433860749999.999
10370.0	3475864499999.9995
10380.0	3518178249999.9985
10390.0	3560803249999.9995
10400.0	3604297749999.999
10410.0	3647751749999.9995
10420.0	3691840999999.999
10430.0	3736310749999.9995
10440.0	3781292999999.9985
10450.0	3826684749999.9995
10460.0	3872242500000.0
10470.0	3918886749999.999
10480.0	3965544749999.9995
10490.0	4012430999999.9985
10500.0	4059571999999.9985
10510.0	4108279249999.9995
10520.0	4156330749999.9995
10530.0	4205478749999.999
10540.0	4255618999999.999
10550.0	4305317749999.9995
10560.0	4355721999999.998
10570.0	4406588999999.998
10580.0	4457432499999.999
10590.0	4509076749999.999
10600.0	4552702249999.999
10610.0	4614377999999.999
10620.0	4671969499999.998
10630.0	4735007999999.998
10640.0	4791593499999.999
10650.0	4845348999999.999
10660.0	4902104999999.999
10670.0	4948855499999.998
10680.0	5006529499999.999
10690.0	5069264749999.999
10700.0	5120157999999.999
10710.0	5183616499999.998
10720.0	5241974499999.998
10730.0	5301740249999.999
10740.0	5358885499999.999
10750.0	5418480249999.999
10760.0	5484060999999.998
10770.0	5540888999999.999
10780.0	5592988499999.999
10790.0	5667574249999.998
10800.0	5723153749999.998
10810.0	5792439749999.999
10820.0	5857026499999.999
10830.0	5923276999999.999
10840.0	5985941000000.0
10850.0	6050062999999.998
10860.0	6115041999999.998
10870.0	6166724999999.998
10880.0	6252698249999.998
10890.0	6318758500000.0
10900.0	6362475999999.998
10910.0	6444603999999.999
10920.0	6502336999999.998
10930.0	6555650499999.999
10940.0	6624433999999.999
10950.0	6715346250000.0
10960.0	6739811750000.0
10970.0	6838265249999.999
10980.0	6829161749999.998
10990.0	6911821999999.999
11000.0	7052075249999.998
11010.0	6870342249999.998
11020.0	7107981249999.998
11030.0	7017416499999.999
11040.0	7251703499999.998
11050.0	7333718499999.999
11060.0	7291453999999.998
11070.0	7396853999999.998
11080.0	7369082249999.998
11090.0	7713257249999.999
11100.0	7668677499999.999
11110.0	7508549249999.998
11120.0	7870236999999.998
11130.0	7625978499999.998
11140.0	7965995749999.997
11150.0	6770146749999.999
11160.0	7590125999999.999
11170.0	7355253999999.999
11180.0	8234018999999.998
11190.0	7502448999999.999
11200.0	6263531999999.998
11210.0	8420075999999.998
11220.0	7267965749999.998
11230.0	8068767499999.998
11240.0	7377432999999.999
11250.0	7622297999999.999
11260.0	8208351749999.998
11270.0	8132543249999.999
11280.0	9158207249999.998
11290.0	9334152999999.996
11300.0	9206853749999.998
11310.0	9183469499999.996
11320.0	9681039249999.998
11330.0	9505599249999.998
11340.0	8896059749999.996
11350.0	7184727749999.999
11360.0	9537509749999.998
11370.0	10037855999999.998
11380.0	10183591499999.998
11390.0	10333609999999.998
11400.0	10443157499999.998
11410.0	10560129999999.996
11420.0	9962826499999.998
11430.0	10456300000000.0
11440.0	10100696999999.998
11450.0	10687829749999.998
11460.0	10860903249999.998
11470.0	10982791249999.998
11480.0	9735834249999.998
11490.0	11130079249999.996
11500.0	8582430749999.998
11510.0	11590279999999.998
11520.0	11368737749999.996
11530.0	11193909249999.996
11540.0	11168859999999.996
11550.0	11354264749999.996
11560.0	11677224249999.996
11570.0	11540992499999.996
11580.0	11498817999999.998
11590.0	12212512499999.996
11600.0	11243055500000.0
11610.0	12396013999999.998
11620.0	12762297499999.998
11630.0	12982870999999.996
11640.0	11089714999999.996
11650.0	12872167499999.996
11660.0	12458471499999.996
11670.0	13448450000000.0
11680.0	13542217499999.998
11690.0	13341449999999.994
11700.0	13059587499999.998
11710.0	13800647499999.996
11720.0	14176857499999.998
11730.0	12539118999999.998
11740.0	13894837499999.996
11750.0	14292797499999.994
11760.0	14680369999999.996
11770.0	14792742499999.996
11780.0	14659217499999.996
11790.0	15150012499999.996
11800.0	15032282499999.996
11810.0	15313764999999.996
11820.0	15058929999999.994
11830.0	15712677499999.994
11840.0	15839529999999.996
11850.0	15707829999999.998
11860.0	16037727499999.994
11870.0	16245659999999.996
11880.0	16356185000000.0
11890.0	16491004999999.994
11900.0	16618359999999.998
11910.0	16886837499999.998
11920.0	17036549999999.994
11930.0	17196994999999.996
11940.0	17213904999999.996
11950.0	17491162499999.998
11960.0	17626722499999.996
11970.0	17811674999999.996
11980.0	17779592499999.996
11990.0	17777677500000.0
12000.0	18286224999999.996
12010.0	18456792499999.996
12020.0	18489072499999.996
12030.0	18713209999999.992
12040.0	18786399999999.996
12050.0	19097504999999.996
12060.0	19248042500000.0
12070.0	19388787499999.996
12080.0	19558117499999.996
12090.0	19684767499999.996
12100.0	19889857499999.992
12110.0	20074222499999.992
12120.0	20115419999999.992
12130.0	20365757499999.996
12140.0	20415137499999.992
12150.0	20595012499999.996
12160.0	20919754999999.992
12170.0	21086302499999.992
12180.0	21252122499999.996
12190.0	21467614999999.996
12200.0	21580272499999.992
12210.0	21797842499999.992
12220.0	21947722500000.0
12230.0	22123499999999.996
12240.0	22300402499999.996
12250.0	22515089999999.996
12260.0	22712132499999.996
12270.0	22893429999999.992
12280.0	23072437499999.992
12290.0	23152909999999.992
12300.0	23455199999999.992
12310.0	23602192499999.996
12320.0	23829282499999.992
12330.0	23983124999999.996
12340.0	24231402499999.996
12350.0	24437369999999.992
12360.0	24614129999999.992
12370.0	24794582500000.0
12380.0	25021529999999.996
12390.0	25201917499999.996
12400.0	25413197499999.996
12410.0	25601837499999.992
12420.0	25816477499999.996
12430.0	26020379999999.992
12440.0	26223994999999.996
12450.0	26438919999999.996
12460.0	26627372499999.992
12470.0	26838899999999.996
12480.0	27053060000000.0
12490.0	27243017499999.992
12500.0	27462744999999.996
12510.0	27683669999999.992
12520.0	27904927499999.99
12530.0	28122987499999.996
12540.0	28223760000000.0
12550.0	28537052500000.0
12560.0	28759332499999.992
12570.0	28985909999999.992
12580.0	29210814999999.99
12590.0	29425652499999.99
12600.0	29648202499999.99
12610.0	29884687499999.99
12620.0	30104132499999.996
12630.0	30329052499999.992
12640.0	30551059999999.992
12650.0	30780319999999.992
12660.0	30999417499999.992
12670.0	31230474999999.996
12680.0	31481747499999.992
12690.0	31721864999999.992
12700.0	31952247499999.992
12710.0	32126767500000.0
12720.0	32316949999999.992
12730.0	32626532499999.99
12740.0	32827809999999.984
12750.0	33153442499999.996
12760.0	33320959999999.992
12770.0	33608649999999.996
12780.0	33882202499999.99
12790.0	34093472499999.996
12800.0	34242654999999.992
12810.0	34520664999999.992
12820.0	34815289999999.996
12830.0	34859654999999.996
12840.0	35348429999999.984
12850.0	35375037500000.0
12860.0	35828094999999.99
12870.0	36082082499999.99
12880.0	36295384999999.984
12890.0	36570329999999.99
12900.0	36804349999999.99
12910.0	37012142499999.99
12920.0	37125682499999.984
12930.0	37454917499999.99
12940.0	37815174999999.984
12950.0	37412304999999.984
12960.0	37785232499999.99
12970.0	38276787499999.984
12980.0	39025592499999.99
12990.0	38824212499999.99
13000.0	39437792500000.0
13010.0	39593032499999.99
13020.0	40059650000000.0
13030.0	39609067499999.99
13040.0	40366029999999.99
13050.0	40912939999999.99
13060.0	41235754999999.99
13070.0	41128462499999.984
13080.0	41782287499999.99
13090.0	41822542499999.99
13100.0	42226837499999.99
13110.0	42637514999999.99
13120.0	42556124999999.99
13130.0	43067849999999.99
13140.0	42916939999999.99
13150.0	42911832499999.984
13160.0	43688117499999.984
13170.0	44294707499999.99
13180.0	44679702499999.99
13190.0	43217604999999.99
13200.0	44998064999999.99
13210.0	45354014999999.99
13220.0	45865192499999.984
13230.0	41882852499999.984
13240.0	45832557499999.99
13250.0	46536624999999.99
13260.0	46688944999999.99
13270.0	46980029999999.984
13280.0	47307387499999.99
13290.0	45828649999999.984
13300.0	47606337499999.99
13310.0	47612777499999.99
13320.0	44086517499999.984
13330.0	47161622499999.99
13340.0	48035469999999.99
13350.0	45968422499999.984
13360.0	44242392499999.99
13370.0	37364899999999.99
13380.0	37270707499999.99
13390.0	41051469999999.984
13400.0	41329899999999.99
13410.0	42395962500000.0
13420.0	34815072499999.992
13430.0	41912652499999.99
13440.0	37929150749999.99
13450.0	30771620749999.992
13460.0	45065926924999.99
13470.0	34810885974999.99
13480.0	29667211499999.992
13490.0	37397864499999.984
13500.0	34027107124999.992
13510.0	33503278874999.992
13520.0	22873673899999.996
13530.0	37967284999999.984
13540.0	29271639499999.996
13550.0	22745871599999.996
13560.0	36862572299999.984
13570.0	32298939999999.992
13580.0	31467565999999.992
13590.0	24184032099999.996
13600.0	39796307499999.984
13610.0	33271270999999.992
13620.0	20793222749999.996
13630.0	28033188249999.996
13640.0	37861393149999.99
13650.0	29101451249999.99
13660.0	39661147499999.99
13670.0	40446462499999.984
13680.0	27057313674999.992
13690.0	39779103224999.99
13700.0	35327695000000.0
13710.0	39964714999999.99
13720.0	45816272499999.984
13730.0	49231067499999.99
13740.0	29163396999999.996
13750.0	42403912499999.98
13760.0	44728577499999.99
13770.0	44657942499999.984
13780.0	55930644999999.99
13790.0	51290054999999.984
13800.0	55895984749999.99
13810.0	30666500749999.992
13820.0	51510542499999.984
13830.0	31402002499999.992
13840.0	53257407499999.984
13850.0	41121074999999.984
13860.0	37108545149999.99
13870.0	53086398949999.99
13880.0	40750152499999.99
13890.0	46728609200000.0
13900.0	49785261499999.984
13910.0	42316969999999.99
13920.0	42844782499999.984
13930.0	44954728999999.99
13940.0	50066174999999.99
13950.0	33267064619999.992
13960.0	38635280999999.99
13970.0	40506472999999.99
13980.0	52647989999999.99
13990.0	60220402499999.984
14000.0	37964766499999.99
14010.0	34859836999999.992
14020.0	58637719999999.984
14030.0	60128682499999.99
14040.0	36896375749999.984
14050.0	35686589450000.0
14060.0	60292812499999.98
14070.0	52772232499999.984
14080.0	46333094999999.99
14090.0	44436568249999.984
14100.0	49298872749999.99
14110.0	66765694999999.99
14120.0	42564869999999.99
14130.0	62311269999999.984
14140.0	49967922324999.99
14150.0	47639796274999.984
14160.0	49983724999999.99
14170.0	63607285749999.984
14180.0	36099737749999.99
14190.0	38796823999999.99
14200.0	47330576399999.984
14210.0	53438269999999.99
14220.0	52428042499999.99
14230.0	40436792499999.99
14240.0	44046357499999.99
14250.0	58269023749999.984
14260.0	39796188999999.99
14270.0	65009863249999.98
14280.0	45937568499999.99
14290.0	38505263499999.99
14300.0	69018122499999.984
14310.0	62894563999999.98
14320.0	60168189999999.984
14330.0	65877319999999.99
14340.0	45529842499999.99
14350.0	71319767499999.98
14360.0	70063292499999.984
14370.0	68511117499999.99
14380.0	56676848499999.99
14390.0	58492243749999.97
14400.0	57602641249999.984
14410.0	67795057499999.984
14420.0	60847747499999.98
14430.0	81294624999999.97
14440.0	75571407499999.97
14450.0	58991702499999.984
14460.0	58974142499999.98
14470.0	77032574999999.97
14480.0	78691507499999.97
14490.0	86284949999999.98
14500.0	69875825499999.98
14510.0	44350940999999.984
14520.0	89086379999999.97
14530.0	89651859999999.97
14540.0	81275254999999.97
14550.0	78793537499999.98
14560.0	73555482499999.98
14570.0	80278172499999.98
14580.0	96772052499999.98
14590.0	97371492499999.98
14600.0	97843294999999.97
14610.0	96948632499999.97
14620.0	83196189999999.98
14630.0	67622134999999.984
14640.0	99197927499999.97
14650.0	82766519999999.97
