# Flux units: erg / (cm m2 s)
# Wavelength units: Angstrom
wave	flux
7000.0	43184954999.99999
7010.0	44368454999.999985
7020.0	45556899999.999985
7030.0	46770977499.99998
7040.0	48031472499.99999
7050.0	49314932499.999985
7060.0	50635019999.999985
7070.0	51961644999.999985
7080.0	53344057499.999985
7090.0	54730927499.99998
7100.0	56171312499.99998
7110.0	57651539999.999985
7120.0	59152429999.999985
7130.0	60674019999.99999
7140.0	62243327499.99997
7150.0	63847607499.999985
7160.0	65391897499.999985
7170.0	66547429999.999985
7180.0	68572490000.0
7190.0	70384904999.99998
7200.0	72304812499.99998
7210.0	74146419999.99998
7220.0	76115424999.99998
7230.0	77996102499.99998
7240.0	79860422499.99998
7250.0	81888527499.99997
7260.0	83838567499.99998
7270.0	86033864999.99997
7280.0	88188432499.99997
7290.0	90297349999.99998
7300.0	92415889999.99998
7310.0	94650392499.99997
7320.0	97119132499.99997
7330.0	99604759999.99997
7340.0	102005874999.99997
7350.0	104324424999.99998
7360.0	107028224999.99998
7370.0	109503624999.99997
7380.0	112271699999.99998
7390.0	114956774999.99995
7400.0	117719449999.99995
7410.0	120500624999.99995
7420.0	123364724999.99997
7430.0	126343874999.99997
7440.0	129285324999.99997
7450.0	132364374999.99994
7460.0	135467524999.99994
7470.0	138682174999.99997
7480.0	141871599999.99997
7490.0	145214774999.99997
7500.0	148590199999.99997
7510.0	152009199999.99994
7520.0	155499799999.99997
7530.0	159077099999.99997
7540.0	162716749999.99994
7550.0	166406224999.99997
7560.0	170179649999.99994
7570.0	174008199999.99997
7580.0	177905449999.99994
7590.0	181855774999.99994
7600.0	185871124999.99994
7610.0	189953324999.99997
7620.0	194039024999.99994
7630.0	198165624999.99997
7640.0	202227274999.99994
7650.0	205878499999.99994
7660.0	209666599999.99994
7670.0	214113174999.99994
7680.0	219432800000.0
7690.0	224272124999.99997
7700.0	228499699999.99997
7710.0	234086124999.99994
7720.0	240196549999.99994
7730.0	245905199999.99997
7740.0	251460599999.99997
7750.0	257068624999.99988
7760.0	262705224999.99997
7770.0	268439849999.9999
7780.0	274225999999.99997
7790.0	280058424999.99994
7800.0	285034499999.9999
7810.0	291929749999.99994
7820.0	298311999999.9999
7830.0	304625124999.99994
7840.0	310964474999.9998
7850.0	317516249999.9999
7860.0	324091899999.99994
7870.0	330708774999.99994
7880.0	337594574999.99994
7890.0	344567999999.9999
7900.0	351540249999.9999
7910.0	358945649999.99994
7920.0	366290424999.9999
7930.0	373723499999.9999
7940.0	381258724999.9999
7950.0	387721299999.9999
7960.0	396755674999.9999
7970.0	404751024999.99994
7980.0	412919174999.99994
7990.0	421177324999.9998
8000.0	429529525000.0
8010.0	438129549999.9998
8020.0	446794549999.9999
8030.0	455646374999.9999
8040.0	464645774999.99994
8050.0	473803524999.9998
8060.0	483049724999.99994
8070.0	492407374999.9999
8080.0	501937299999.9999
8090.0	511312224999.9998
8100.0	520915674999.9999
8110.0	529453450000.0
8120.0	539819574999.99976
8130.0	550336349999.9999
8140.0	557791224999.9999
8150.0	569819024999.9999
8160.0	581429124999.9999
8170.0	593259024999.9998
8180.0	604594649999.9999
8190.0	617782949999.9999
8200.0	628441449999.9999
8210.0	641548424999.9999
8220.0	653371924999.9998
8230.0	655650324999.9999
8240.0	674896374999.9999
8250.0	690737874999.9999
8260.0	703217799999.9999
8270.0	715832350000.0
8280.0	728516549999.9998
8290.0	740696899999.9998
8300.0	754884249999.9999
8310.0	769024099999.9998
8320.0	781666499999.9999
8330.0	797311849999.9999
8340.0	811831549999.9998
8350.0	827785899999.9999
8360.0	840900074999.9999
8370.0	857584024999.9999
8380.0	872163174999.9999
8390.0	888337174999.9998
8400.0	903792399999.9996
8410.0	920446724999.9998
8420.0	936988924999.9998
8430.0	954351999999.9999
8440.0	971148500000.0
8450.0	988242374999.9999
8460.0	1005321149999.9999
8470.0	1022711499999.9995
8480.0	1041295499999.9996
8490.0	1058991999999.9996
8500.0	1077900999999.9998
8510.0	1096745749999.9999
8520.0	1115322750000.0
8530.0	1134832499999.9995
8540.0	1154105749999.9998
8550.0	1174135499999.9998
8560.0	1194128999999.9998
8570.0	1214479749999.9998
8580.0	1235160749999.9995
8590.0	1255937249999.9998
8600.0	1277206999999.9998
8610.0	1294736749999.9998
8620.0	1305769749999.9998
8630.0	1326096249999.9995
8640.0	1350614749999.9995
8650.0	1377515249999.9998
8660.0	1405644999999.9998
8670.0	1428855999999.9995
8680.0	1452628999999.9995
8690.0	1477164249999.9995
8700.0	1500497749999.9998
8710.0	1524772749999.9995
8720.0	1550585749999.9998
8730.0	1576654749999.9995
8740.0	1601572999999.9993
8750.0	1628373749999.9998
8760.0	1655553249999.9998
8770.0	1681444749999.9995
8780.0	1709956249999.9998
8790.0	1736240750000.0
8800.0	1765546249999.9995
8810.0	1792469499999.9995
8820.0	1822616499999.9998
8830.0	1850906499999.9995
8840.0	1881043749999.9995
8850.0	1910326999999.9995
8860.0	1940147249999.9995
8870.0	1971429249999.9998
8880.0	2001955999999.9993
8890.0	2032856249999.9995
8900.0	2064095999999.9998
8910.0	2091476499999.9993
8920.0	2119987499999.9993
8930.0	2148191999999.9998
8940.0	2180079999999.9988
8950.0	2217622249999.999
8960.0	2249446499999.9995
8970.0	2251202249999.9995
8980.0	2322244999999.999
8990.0	2320814499999.9995
9000.0	2394204749999.9995
9010.0	2417985750000.0
9020.0	2471407249999.9995
9030.0	2506719499999.999
9040.0	2550902749999.999
9050.0	2587437999999.9995
9060.0	2626565749999.9995
9070.0	2659252749999.999
9080.0	2696880249999.9995
9090.0	2734198749999.9995
9100.0	2776162749999.9995
9110.0	2802024249999.9995
9120.0	2862844249999.999
9130.0	2898718499999.9995
9140.0	2942211999999.9995
9150.0	2983237249999.999
9160.0	3003462749999.999
9170.0	3065940999999.9995
9180.0	3108861249999.9985
9190.0	3157433999999.999
9200.0	3190187499999.9985
9210.0	3254465000000.0
9220.0	3287922499999.999
9230.0	3353977749999.999
9240.0	3389717749999.999
9250.0	3434603749999.999
9260.0	3456118249999.9995
9270.0	3490234749999.9995
9280.0	3391404749999.9985
9290.0	3351100499999.999
9300.0	3416400749999.999
9310.0	3364129499999.999
9320.0	3515264499999.999
9330.0	3510074499999.9985
9340.0	3400948749999.999
9350.0	3498613999999.999
9360.0	3701588999999.999
9370.0	3675409999999.9995
9380.0	3903272249999.9995
9390.0	4083217999999.9995
9400.0	4191751749999.999
9410.0	4225595749999.998
9420.0	4261851749999.999
9430.0	4287414499999.9985
9440.0	4258841749999.999
9450.0	4367357249999.9985
9460.0	4313259749999.999
9470.0	4395813749999.999
9480.0	4467711499999.999
9490.0	4637745499999.998
9500.0	4370274749999.999
9510.0	4769414249999.998
9520.0	4719941499999.999
9530.0	4871198249999.999
9540.0	4988428999999.999
9550.0	4949825749999.998
9560.0	4815671249999.999
9570.0	5041982749999.999
9580.0	5229268499999.999
9590.0	5157262999999.999
9600.0	5282898749999.999
9610.0	5424603499999.999
9620.0	5302983249999.999
9630.0	5636454749999.999
9640.0	5566642750000.0
9650.0	5725505499999.998
9660.0	5880085999999.999
9670.0	5805702499999.999
9680.0	6055742249999.998
9690.0	6104098999999.998
9700.0	6165470249999.999
9710.0	6318638249999.998
9720.0	6333782749999.998
9730.0	6378752249999.998
9740.0	6532745999999.997
9750.0	6559511249999.996
9760.0	6662803999999.998
9770.0	6795721749999.999
9780.0	6881483249999.998
9790.0	6912645999999.999
9800.0	7007429249999.997
9810.0	7175984499999.998
9820.0	7240860499999.999
9830.0	7321662249999.998
9840.0	7450020499999.999
9850.0	7505668999999.998
9860.0	7631266499999.998
9870.0	7724718499999.998
9880.0	7812901999999.999
9890.0	7922233499999.998
9900.0	8013701999999.998
9910.0	8135973499999.998
9920.0	8221336249999.998
9930.0	8316852749999.997
9940.0	8422284999999.997
9950.0	8545793499999.998
9960.0	8631531749999.998
9970.0	8744022249999.996
9980.0	8853406000000.0
9990.0	8952290249999.998
10000.0	9050966999999.998
10010.0	9158833749999.998
10020.0	9263223999999.996
10030.0	9373848249999.998
10040.0	9481899999999.998
10050.0	9598195749999.996
10060.0	9704098249999.998
10070.0	9820926999999.998
10080.0	9924869249999.996
10090.0	10041145249999.998
10100.0	10161529999999.996
10110.0	10273064999999.996
10120.0	10388384999999.996
10130.0	10507567499999.996
10140.0	10625682499999.998
10150.0	10743844999999.998
10160.0	10866014999999.996
10170.0	10985939999999.998
10180.0	11107337499999.998
10190.0	11232147499999.998
10200.0	11355322499999.996
10210.0	11480547499999.998
10220.0	11609119999999.998
10230.0	11735527499999.996
10240.0	11863137499999.996
10250.0	11993964999999.996
10260.0	12123434999999.998
10270.0	12256367499999.996
10280.0	12389677499999.996
10290.0	12523549999999.998
10300.0	12658507499999.996
10310.0	12794244999999.996
10320.0	12929207499999.998
10330.0	13070109999999.996
10340.0	13210514999999.998
10350.0	13350722499999.996
10360.0	13493329999999.994
10370.0	13636467499999.994
10380.0	13780309999999.996
10390.0	13924664999999.996
10400.0	14070907499999.996
10410.0	14218767499999.994
10420.0	14368187499999.996
10430.0	14517847499999.994
10440.0	14668369999999.998
10450.0	14821167499999.998
10460.0	14974827499999.994
10470.0	15128794999999.998
10480.0	15284799999999.996
10490.0	15442739999999.996
10500.0	15601257499999.996
10510.0	15760837499999.996
10520.0	15921519999999.994
10530.0	16081327499999.992
10540.0	16246682499999.998
10550.0	16413339999999.994
10560.0	16578484999999.992
10570.0	16747187499999.998
10580.0	16910024999999.996
10590.0	17083314999999.998
10600.0	17239362499999.994
10610.0	17426472499999.994
10620.0	17616297499999.992
10630.0	17805322500000.0
10640.0	17994087499999.996
10650.0	18161524999999.996
10660.0	18350547499999.996
10670.0	18518552499999.996
10680.0	18697337499999.992
10690.0	18880399999999.996
10700.0	19065024999999.992
10710.0	19262907499999.996
10720.0	19439549999999.996
10730.0	19633634999999.996
10740.0	19826414999999.996
10750.0	19994257499999.996
10760.0	20219534999999.996
10770.0	20395104999999.992
10780.0	20580799999999.996
10790.0	20806117499999.992
10800.0	20974030000000.0
10810.0	21188179999999.992
10820.0	21398554999999.996
10830.0	21607347499999.996
10840.0	21797397499999.992
10850.0	22006557499999.996
10860.0	22193894999999.992
10870.0	22381249999999.996
10880.0	22630539999999.996
10890.0	22828837499999.992
10900.0	22984899999999.996
10910.0	23232744999999.996
10920.0	23414707499999.992
10930.0	23539897499999.996
10940.0	23792454999999.992
10950.0	23966509999999.992
10960.0	24055044999999.992
10970.0	24411274999999.996
10980.0	24456327499999.996
10990.0	24650209999999.992
11000.0	24866889999999.992
11010.0	24653502499999.992
11020.0	25028784999999.996
11030.0	25003484999999.996
11040.0	25242309999999.99
11050.0	25547484999999.996
11060.0	24762904999999.992
11070.0	25784169999999.99
11080.0	24932492499999.996
11090.0	26190309999999.992
11100.0	25816884999999.99
11110.0	24048867499999.992
11120.0	26177822499999.996
11130.0	25244339999999.996
11140.0	25861660000000.0
11150.0	23627332499999.996
11160.0	25708694999999.992
11170.0	24178437499999.996
11180.0	26835859999999.996
11190.0	25040302499999.996
11200.0	23336659999999.992
11210.0	27876302499999.996
11220.0	24311774999999.996
11230.0	26799124999999.996
11240.0	25583132499999.992
11250.0	27095079999999.996
11260.0	27686264999999.996
11270.0	29387997499999.996
11280.0	29981649999999.996
11290.0	30871477499999.99
11300.0	29737249999999.99
11310.0	31267577499999.992
11320.0	31698919999999.99
11330.0	29878584999999.99
11340.0	25653899999999.992
11350.0	22961552499999.996
11360.0	30526904999999.992
11370.0	33231544999999.99
11380.0	33882579999999.996
11390.0	34239644999999.99
11400.0	34097884999999.99
11410.0	34485714999999.996
11420.0	34298357499999.992
11430.0	34790062499999.99
11440.0	32571637499999.984
11450.0	34235339999999.984
11460.0	35603039999999.99
11470.0	34186634999999.99
11480.0	34077274999999.992
11490.0	36433777500000.0
11500.0	31251724999999.992
11510.0	36737317499999.99
11520.0	35600014999999.99
11530.0	34761117499999.99
11540.0	34848024999999.992
11550.0	37279777499999.99
11560.0	35878894999999.984
11570.0	37781969999999.99
11580.0	36856334999999.99
11590.0	37632392499999.99
11600.0	36678644999999.99
11610.0	38920892499999.99
11620.0	39149372499999.99
11630.0	41608312499999.984
11640.0	38679479999999.99
11650.0	41221507499999.99
11660.0	39731917500000.0
11670.0	42218304999999.99
11680.0	42225552499999.99
11690.0	41904382500000.0
11700.0	42613762499999.99
11710.0	44162047499999.99
11720.0	44696719999999.984
11730.0	42840229999999.984
11740.0	44307797499999.984
11750.0	45577137499999.99
11760.0	46187557499999.99
11770.0	46519979999999.984
11780.0	46498479999999.99
11790.0	47824959999999.99
11800.0	48145064999999.99
11810.0	48479939999999.984
11820.0	48332489999999.984
11830.0	49567962499999.984
11840.0	49928992499999.99
11850.0	50003189999999.984
11860.0	50711414999999.99
11870.0	51337699999999.984
11880.0	51525712499999.984
11890.0	51914477499999.984
11900.0	52428147499999.99
11910.0	53063554999999.99
11920.0	53432047499999.984
11930.0	54085229999999.99
11940.0	54042269999999.984
11950.0	54709164999999.984
11960.0	55143879999999.99
11970.0	55776132499999.984
11980.0	55958959999999.99
11990.0	56084257499999.984
12000.0	56958237499999.984
12010.0	57514279999999.984
12020.0	57661007499999.984
12030.0	58115699999999.99
12040.0	58328489999999.984
12050.0	59192420000000.0
12060.0	59673814999999.99
12070.0	59792312499999.984
12080.0	60336732499999.99
12090.0	60684785000000.0
12100.0	61265182499999.984
12110.0	61800977499999.984
12120.0	62071124999999.98
12130.0	62500182499999.99
12140.0	62945849999999.98
12150.0	63311252499999.984
12160.0	64146939999999.984
12170.0	64498149999999.98
12180.0	64783857499999.984
12190.0	65484084999999.99
12200.0	65893659999999.984
12210.0	66375314999999.984
12220.0	66781999999999.99
12230.0	67277487499999.99
12240.0	67817924999999.984
12250.0	68209664999999.984
12260.0	68881024999999.98
12270.0	69246952499999.99
12280.0	69786592499999.984
12290.0	70162207499999.98
12300.0	70746742499999.98
12310.0	71276957499999.98
12320.0	71699162500000.0
12330.0	72079807499999.98
12340.0	72791542499999.98
12350.0	73354019999999.97
12360.0	73799932500000.0
12370.0	74214194999999.97
12380.0	74845619999999.98
12390.0	75302772499999.98
12400.0	75836117499999.98
12410.0	76261724999999.97
12420.0	76905254999999.98
12430.0	77380417499999.97
12440.0	77915404999999.98
12450.0	78490292499999.97
12460.0	78927917499999.97
12470.0	79477129999999.98
12480.0	80049944999999.97
12490.0	80531764999999.97
12500.0	81074822499999.97
12510.0	81622289999999.97
12520.0	82197922499999.98
12530.0	82771064999999.98
12540.0	83153252499999.98
12550.0	83809544999999.97
12560.0	84400264999999.97
12570.0	84931692499999.98
12580.0	85480197499999.98
12590.0	85999555000000.0
12600.0	86618982499999.98
12610.0	87215439999999.98
12620.0	87747192499999.98
12630.0	88315869999999.97
12640.0	88864079999999.98
12650.0	89474727500000.0
12660.0	89925744999999.98
12670.0	90407339999999.97
12680.0	91196672499999.97
12690.0	91761562499999.97
12700.0	92375272499999.98
12710.0	92868115000000.0
12720.0	93343332499999.98
12730.0	93936864999999.98
12740.0	94383979999999.97
12750.0	95305684999999.97
12760.0	95736739999999.97
12770.0	96264472499999.98
12780.0	97062027499999.97
12790.0	97442404999999.95
12800.0	97618852499999.98
12810.0	98498939999999.97
12820.0	99334057499999.97
12830.0	99377714999999.97
12840.0	100523029999999.97
12850.0	100785469999999.98
12860.0	101479549999999.98
12870.0	101959524999999.97
12880.0	102377549999999.97
12890.0	103021649999999.97
12900.0	103861474999999.97
12910.0	104599499999999.98
12920.0	104059099999999.98
12930.0	105344999999999.97
12940.0	106051575000000.0
12950.0	106175624999999.97
12960.0	106494599999999.97
12970.0	106780674999999.98
12980.0	109385049999999.98
12990.0	109160774999999.98
13000.0	109300649999999.98
13010.0	109272574999999.97
13020.0	111346099999999.98
13030.0	110583399999999.98
13040.0	111465049999999.98
13050.0	113555174999999.97
13060.0	114249574999999.98
13070.0	112086024999999.97
13080.0	115294199999999.97
13090.0	115864849999999.97
13100.0	115892274999999.97
13110.0	117573074999999.95
13120.0	117364074999999.95
13130.0	117630724999999.98
13140.0	118418299999999.97
13150.0	116353699999999.95
13160.0	120441524999999.97
13170.0	121140724999999.97
13180.0	122181500000000.0
13190.0	119681849999999.98
13200.0	121957324999999.98
13210.0	124034799999999.98
13220.0	124847249999999.95
13230.0	119931449999999.94
13240.0	121725374999999.95
13250.0	125442724999999.94
13260.0	126581849999999.97
13270.0	126411649999999.98
13280.0	127366799999999.98
13290.0	124520599999999.98
13300.0	124867549999999.95
13310.0	124389874999999.97
13320.0	110729329999999.98
13330.0	121080189999999.98
13340.0	125614649999999.95
13350.0	122552374999999.98
13360.0	107929129999999.98
13370.0	93114227499999.97
13380.0	86207909999999.98
13390.0	91987234999999.97
13400.0	74702389999999.97
13410.0	94653697499999.97
13420.0	68338374999999.984
13430.0	65986712499999.98
13440.0	74501366499999.98
13450.0	54458166999999.99
13460.0	80199225999999.97
13470.0	59896441999999.984
13480.0	27178797749999.996
13490.0	60113263249999.984
13500.0	58558066475000.0
13510.0	52300305924999.984
13520.0	31294516499999.996
13530.0	52050062499999.99
13540.0	38218127499999.984
13550.0	22484635699999.996
13560.0	50244177499999.984
13570.0	43829361999999.99
13580.0	44604706999999.984
13590.0	36337618499999.99
13600.0	51020697499999.99
13610.0	34620946999999.992
13620.0	19151539249999.996
13630.0	65331407749999.99
13640.0	64987178749999.97
13650.0	38678667749999.99
13660.0	85235624999999.98
13670.0	77152897499999.97
13680.0	43048418474999.984
13690.0	70873469324999.98
13700.0	70374177499999.98
13710.0	61737047499999.984
13720.0	81250267499999.97
13730.0	80837069999999.98
13740.0	70860125000000.0
13750.0	95930770000000.0
13760.0	100366109999999.98
13770.0	86903534999999.98
13780.0	119448539999999.95
13790.0	90273619999999.97
13800.0	104756890249999.98
13810.0	50892991749999.984
13820.0	83833002999999.97
13830.0	37173032999999.984
13840.0	96707389999999.98
13850.0	48778779999999.984
13860.0	45923937749999.99
13870.0	101871908249999.98
13880.0	47032019999999.99
13890.0	78397598599999.98
13900.0	84576417999999.97
13910.0	72563577499999.97
13920.0	49151462499999.99
13930.0	77757992499999.98
13940.0	90054794999999.98
13950.0	45387264399999.99
13960.0	49595718749999.984
13970.0	66762134749999.984
13980.0	95202039999999.97
13990.0	107910874999999.97
14000.0	52560752499999.984
14010.0	39816537499999.984
14020.0	113511564999999.97
14030.0	123715899999999.97
14040.0	77924462499999.97
14050.0	40117167399999.984
14060.0	136094652499999.97
14070.0	70159224999999.98
14080.0	100422504999999.97
14090.0	56955789749999.98
14100.0	78051753249999.98
14110.0	115169887499999.97
14120.0	69184752499999.984
14130.0	122255224999999.97
14140.0	46566149249999.99
14150.0	76243194749999.98
14160.0	128386384999999.98
14170.0	98031566499999.97
14180.0	73805497999999.98
14190.0	46155456999999.99
14200.0	74600198499999.98
14210.0	100120789999999.97
14220.0	115519129999999.97
14230.0	64093369999999.98
14240.0	61252168999999.984
14250.0	114269564999999.95
14260.0	80114137499999.98
14270.0	129062627499999.95
14280.0	94914614999999.97
14290.0	53912500999999.984
14300.0	161660139999999.97
14310.0	140267102499999.98
14320.0	92849182499999.98
14330.0	119018094999999.95
14340.0	52241395000000.0
14350.0	125290649999999.97
14360.0	160565049999999.94
14370.0	144124874999999.94
14380.0	119127579999999.97
14390.0	111280059999999.95
14400.0	105405609999999.97
14410.0	132759874999999.98
14420.0	137226449999999.97
14430.0	167810849999999.97
14440.0	151148289999999.94
14450.0	91556389999999.98
14460.0	129307974999999.97
14470.0	158308550000000.0
14480.0	176122074999999.94
14490.0	184538299999999.94
14500.0	134534057499999.98
14510.0	94230757499999.98
14520.0	201579824999999.94
14530.0	202517224999999.94
14540.0	180485274999999.97
14550.0	181813324999999.97
14560.0	151571849999999.94
14570.0	146944399999999.97
14580.0	211497449999999.94
14590.0	225802299999999.94
14600.0	219981774999999.9
14610.0	205659224999999.97
14620.0	172155149999999.94
