# Flux units: erg / (cm m2 s)
# Wavelength units: Angstrom
wave	flux
7000.0	11672707499.999998
7010.0	12057912499.999996
7020.0	12429947499.999996
7030.0	12819634999.999998
7040.0	13222259999.999996
7050.0	13635237499.999996
7060.0	14063024999.999998
7070.0	14485322499.999994
7080.0	14939364999.999996
7090.0	15382967499.999994
7100.0	15849724999.999998
7110.0	16350587499.999996
7120.0	16848937499.999996
7130.0	17347487499.999992
7140.0	17862092500.0
7150.0	18418384999.999996
7160.0	18916487499.999996
7170.0	19186449999.999996
7180.0	19942617499.999996
7190.0	20605392499.999996
7200.0	21283254999.999992
7210.0	21898417499.999992
7220.0	22582474999.999992
7230.0	23231637499.999996
7240.0	23853654999.999992
7250.0	24621227499.999992
7260.0	25248097499.999992
7270.0	26044557499.999992
7280.0	26799724999.999996
7290.0	27548932499.99999
7300.0	28259024999.999992
7310.0	29034377499.999996
7320.0	29983997499.999992
7330.0	30925447499.999992
7340.0	31790679999.999992
7350.0	32554872499.99999
7360.0	33611064999.999992
7370.0	34481742499.999985
7380.0	35558299999.99999
7390.0	36572847499.99999
7400.0	37585129999.99999
7410.0	38585584999.99999
7420.0	39696737499.99999
7430.0	40818539999.99999
7440.0	41910884999.999985
7450.0	43096839999.999985
7460.0	44282594999.999985
7470.0	45504577499.99999
7480.0	46716304999.999985
7490.0	48011199999.999985
7500.0	49316002499.999985
7510.0	50624044999.99998
7520.0	51982322499.999985
7530.0	53361282500.0
7540.0	54762424999.99999
7550.0	56203767499.99998
7560.0	57659409999.999985
7570.0	59127874999.99999
7580.0	60608262499.999985
7590.0	62093817499.999985
7600.0	63563497499.99999
7610.0	64977592499.99997
7620.0	66273382499.99999
7630.0	67339252499.999985
7640.0	67897327499.99999
7650.0	67429742499.999985
7660.0	64851639999.999985
7670.0	64916774999.99998
7680.0	70624829999.99998
7690.0	72763397499.99998
7700.0	69971582499.99997
7710.0	76149027499.99997
7720.0	82476597499.99997
7730.0	86494635000.0
7740.0	89692057499.99998
7750.0	92556624999.99997
7760.0	95269292499.99998
7770.0	97920117499.99997
7780.0	100542672499.99997
7790.0	103080299999.99995
7800.0	101256754999.99998
7810.0	107990799999.99998
7820.0	111303124999.99998
7830.0	114154349999.99995
7840.0	117006949999.99995
7850.0	119946374999.99998
7860.0	122885099999.99998
7870.0	125828549999.99995
7880.0	128929849999.99998
7890.0	132045399999.99997
7900.0	135131374999.99997
7910.0	138623124999.99994
7920.0	141986124999.99997
7930.0	145338824999.99997
7940.0	148649049999.99997
7950.0	145846524999.99997
7960.0	155794574999.99994
7970.0	159650874999.99997
7980.0	163427749999.99997
7990.0	167318274999.99997
8000.0	171181775000.0
8010.0	175252349999.99997
8020.0	179351024999.99997
8030.0	183461449999.99994
8040.0	187822149999.99994
8050.0	192159875000.0
8060.0	196587924999.99994
8070.0	201018899999.99994
8080.0	205658699999.99994
8090.0	210154849999.99994
8100.0	214644024999.99994
8110.0	217686274999.99997
8120.0	223133299999.99997
8130.0	228843824999.99994
8140.0	230590724999.99997
8150.0	236749599999.99994
8160.0	243734499999.99997
8170.0	249686374999.99997
8180.0	254132874999.9999
8190.0	262227174999.99997
8200.0	266903049999.9999
8210.0	274288024999.99994
8220.0	280231399999.99994
8230.0	276939974999.99994
8240.0	289535924999.9998
8250.0	299200674999.9999
8260.0	305281750000.0
8270.0	311213625000.0
8280.0	318340999999.99994
8290.0	323672449999.99994
8300.0	331724049999.99994
8310.0	338432499999.9999
8320.0	345164774999.9999
8330.0	353439774999.99994
8340.0	361635024999.99994
8350.0	370203974999.99994
8360.0	376537624999.9999
8370.0	385880549999.99994
8380.0	393180925000.0
8390.0	401746399999.99994
8400.0	409636324999.99994
8410.0	419163374999.9999
8420.0	428289849999.9999
8430.0	437584624999.9998
8440.0	446796499999.9998
8450.0	455856499999.9999
8460.0	464922874999.9998
8470.0	474087749999.9999
8480.0	484860049999.9999
8490.0	494223874999.99994
8500.0	505164624999.9998
8510.0	515549674999.9998
8520.0	525745074999.99976
8530.0	536760074999.9999
8540.0	547320849999.99994
8550.0	558611724999.9998
8560.0	569782174999.9999
8570.0	581349074999.9998
8580.0	593001075000.0
8590.0	604772974999.9999
8600.0	616889574999.9999
8610.0	627072374999.9999
8620.0	634524249999.9998
8630.0	645171224999.9999
8640.0	659597974999.9998
8650.0	674712424999.9998
8660.0	690768474999.9998
8670.0	704358449999.9999
8680.0	717994174999.9998
8690.0	732550299999.9998
8700.0	745677199999.9998
8710.0	759729649999.9999
8720.0	774794949999.9998
8730.0	790794624999.9999
8740.0	804965924999.9998
8750.0	821210124999.9998
8760.0	837295774999.9999
8770.0	852465424999.9999
8780.0	869799724999.9998
8790.0	885460449999.9996
8800.0	902895999999.9999
8810.0	918973199999.9999
8820.0	937172524999.9996
8830.0	954656099999.9996
8840.0	972601924999.9998
8850.0	990632074999.9998
8860.0	1008485474999.9999
8870.0	1028009749999.9998
8880.0	1046484999999.9996
8890.0	1065182249999.9996
8900.0	1084999749999.9999
8910.0	1097262249999.9998
8920.0	1113792749999.9998
8930.0	1132903499999.9995
8940.0	1153623999999.9998
8950.0	1180389249999.9998
8960.0	1198649499999.9998
8970.0	1160683499999.9995
8980.0	1243742249999.9998
8990.0	1204655749999.9998
9000.0	1289000499999.9995
9010.0	1287370249999.9998
9020.0	1340462999999.9995
9030.0	1360418749999.9998
9040.0	1390577999999.9995
9050.0	1412158499999.9995
9060.0	1439019999999.9995
9070.0	1459424999999.9995
9080.0	1481292749999.9993
9090.0	1505381499999.9995
9100.0	1530623749999.9995
9110.0	1539948749999.9995
9120.0	1590893749999.9995
9130.0	1616277249999.9995
9140.0	1643792999999.9995
9150.0	1664447249999.9995
9160.0	1664107749999.9998
9170.0	1717522999999.9995
9180.0	1753130749999.9995
9190.0	1778278749999.9998
9200.0	1789670750000.0
9210.0	1841867249999.9995
9220.0	1860452249999.9998
9230.0	1918527749999.9998
9240.0	1941861749999.9995
9250.0	1964843999999.9993
9260.0	1954611249999.9995
9270.0	1992688249999.9995
9280.0	1883938749999.9995
9290.0	1787251499999.9995
9300.0	1924923499999.9998
9310.0	1762871249999.9995
9320.0	2019433249999.9995
9330.0	1845060274999.9998
9340.0	1651962424999.9995
9350.0	1772022599999.9993
9360.0	1956183749999.9998
9370.0	1838801199999.9995
9380.0	2194251350000.0
9390.0	2378879999999.9995
9400.0	2475090249999.9995
9410.0	2486816749999.9995
9420.0	2492473749999.999
9430.0	2562734749999.999
9440.0	2507952999999.999
9450.0	2547641499999.9995
9460.0	2511083249999.9995
9470.0	2402836249999.9995
9480.0	2632452749999.9995
9490.0	2748746499999.999
9500.0	2319297249999.9995
9510.0	2822573499999.999
9520.0	2747185999999.9995
9530.0	2880272000000.0
9540.0	3035652249999.999
9550.0	3005243749999.9995
9560.0	2631873749999.999
9570.0	3063028000000.0
9580.0	3169576499999.999
9590.0	3106782749999.999
9600.0	3086300499999.999
9610.0	3340127249999.999
9620.0	3071516249999.9995
9630.0	3506232749999.999
9640.0	3406577749999.9985
9650.0	3492939749999.9995
9660.0	3682966499999.999
9670.0	3560567499999.9995
9680.0	3823119999999.9995
9690.0	3844836249999.999
9700.0	3894161999999.999
9710.0	4010058499999.9995
9720.0	3970715749999.999
9730.0	4004984999999.9985
9740.0	4152420749999.998
9750.0	4103978749999.9995
9760.0	4258844749999.9995
9770.0	4346326749999.999
9780.0	4425691499999.999
9790.0	4402593499999.999
9800.0	4442722250000.0
9810.0	4657118749999.999
9820.0	4722522999999.999
9830.0	4762731749999.999
9840.0	4882590499999.999
9850.0	4904026249999.998
9860.0	5002364999999.999
9870.0	5082234749999.998
9880.0	5139252000000.0
9890.0	5229839999999.999
9900.0	5308413499999.999
9910.0	5417028499999.998
9920.0	5471873999999.999
9930.0	5547267999999.999
9940.0	5620635749999.999
9950.0	5742607749999.999
9960.0	5799509499999.999
9970.0	5892041499999.998
9980.0	5983565749999.998
9990.0	6057874249999.998
10000.0	6127495749999.998
10010.0	6213359499999.998
10020.0	6298950749999.998
10030.0	6382180999999.999
10040.0	6461919249999.998
10050.0	6559228499999.997
10060.0	6637183499999.999
10070.0	6732800249999.998
10080.0	6805078249999.998
10090.0	6901102249999.997
10100.0	6999771500000.0
10110.0	7086237749999.998
10120.0	7172686749999.998
10130.0	7269023499999.998
10140.0	7363729999999.998
10150.0	7457117249999.999
10160.0	7554160499999.997
10170.0	7649891999999.998
10180.0	7744313999999.998
10190.0	7845176499999.997
10200.0	7943796499999.998
10210.0	8044158499999.998
10220.0	8145591999999.997
10230.0	8247085000000.0
10240.0	8347159249999.999
10250.0	8452899749999.996
10260.0	8556786249999.998
10270.0	8664736499999.998
10280.0	8770781999999.998
10290.0	8878728749999.998
10300.0	8988772499999.998
10310.0	9096884499999.996
10320.0	9205262249999.998
10330.0	9319171499999.998
10340.0	9434699499999.998
10350.0	9548723749999.998
10360.0	9664967249999.998
10370.0	9781890999999.996
10380.0	9898693999999.998
10390.0	10015383499999.996
10400.0	10135904999999.996
10410.0	10256569999999.998
10420.0	10378284999999.998
10430.0	10500869999999.998
10440.0	10624184999999.998
10450.0	10749364999999.998
10460.0	10875927499999.996
10470.0	11002914999999.996
10480.0	11132039999999.998
10490.0	11262919999999.996
10500.0	11394054999999.996
10510.0	11525569999999.996
10520.0	11658284999999.998
10530.0	11793169999999.996
10540.0	11931234999999.996
10550.0	12068102499999.996
10560.0	12206267499999.996
10570.0	12347677499999.996
10580.0	12482144999999.996
10590.0	12626722499999.996
10600.0	12733604999999.998
10610.0	12913999999999.998
10620.0	13079022499999.996
10630.0	13253987499999.996
10640.0	13416762499999.996
10650.0	13558674999999.996
10660.0	13719769999999.998
10670.0	13836307499999.994
10680.0	13991024999999.996
10690.0	14162984999999.998
10700.0	14302142499999.996
10710.0	14484317499999.996
10720.0	14640182499999.996
10730.0	14797387500000.0
10740.0	14960087500000.0
10750.0	15094377499999.994
10760.0	15309252499999.996
10770.0	15447347499999.994
10780.0	15580222499999.998
10790.0	15806892499999.994
10800.0	15924859999999.996
10810.0	16127082499999.992
10820.0	16313792499999.998
10830.0	16501712500000.0
10840.0	16657882499999.996
10850.0	16828264999999.994
10860.0	16987454999999.996
10870.0	17102142499999.996
10880.0	17380327499999.996
10890.0	17543189999999.998
10900.0	17606449999999.996
10910.0	17858497499999.996
10920.0	17985012499999.996
10930.0	18019614999999.992
10940.0	18267452499999.992
10950.0	18495134999999.992
10960.0	18402719999999.996
10970.0	18817307499999.992
10980.0	18623682499999.992
10990.0	18839119999999.996
11000.0	19182859999999.996
11010.0	18447547499999.996
11020.0	19027189999999.992
11030.0	18683867499999.996
11040.0	19151517499999.996
11050.0	19539032499999.992
11060.0	18406164999999.992
11070.0	19340322499999.996
11080.0	18479154999999.996
11090.0	20284464999999.996
11100.0	19554597500000.0
11110.0	17494117499999.998
11120.0	20216972499999.992
11130.0	18149219999999.996
11140.0	19777807499999.992
11150.0	16757009999999.996
11160.0	18259789999999.996
11170.0	16370662499999.998
11180.0	20357329999999.996
11190.0	16982782499999.998
11200.0	14864163999999.996
11210.0	21440895499999.996
11220.0	16956124249999.994
11230.0	19010627749999.992
11240.0	17119799999999.994
11250.0	19627709749999.996
11260.0	19553141749999.996
11270.0	20624620999999.992
11280.0	23442370499999.996
11290.0	23987919999999.992
11300.0	22359644999999.996
11310.0	23728619999999.992
11320.0	25142089999999.99
11330.0	22735872499999.996
11340.0	18282370250000.0
11350.0	14205958749999.996
11360.0	23268174999999.996
11370.0	25964407499999.992
11380.0	26840139999999.996
11390.0	27233512499999.99
11400.0	26951527499999.992
11410.0	27641252499999.992
11420.0	25865454999999.996
11430.0	26955642499999.992
11440.0	24019342499999.996
11450.0	26535399999999.996
11460.0	28220769999999.992
11470.0	27233642749999.996
11480.0	24583769249999.992
11490.0	28585569999999.992
11500.0	19937653999999.992
11510.0	29474177499999.99
11520.0	27572482499999.99
11530.0	26785209999999.99
11540.0	25598399999999.996
11550.0	28105402499999.99
11560.0	27480512499999.996
11570.0	28700467499999.996
11580.0	28010437499999.996
11590.0	29667442499999.984
11600.0	27791368499999.996
11610.0	30570075499999.992
11620.0	31596247499999.99
11630.0	34214909999999.99
11640.0	27678304999999.996
11650.0	32462497499999.99
11660.0	31108294999999.992
11670.0	34462742499999.99
11680.0	34492912499999.996
11690.0	33149324999999.99
11700.0	32932342499999.99
11710.0	35817754999999.99
11720.0	36990539999999.99
11730.0	31952879999999.996
11740.0	35040452499999.992
11750.0	36874882499999.99
11760.0	38453987499999.99
11770.0	38560892499999.99
11780.0	37689677499999.984
11790.0	40050587499999.99
11800.0	39530169999999.99
11810.0	40480452499999.99
11820.0	39158604999999.99
11830.0	41684604999999.984
11840.0	41897342499999.99
11850.0	41568424999999.984
11860.0	42635539999999.99
11870.0	43223724999999.99
11880.0	43407899999999.984
11890.0	43578437499999.984
11900.0	44001497499999.99
11910.0	44969214999999.984
11920.0	45540119999999.99
11930.0	45974647499999.984
11940.0	45548477499999.99
11950.0	46592607499999.99
11960.0	46977884999999.99
11970.0	47661372499999.98
11980.0	47355102499999.99
11990.0	46956994999999.984
12000.0	48827939999999.984
12010.0	49364317499999.984
12020.0	49172717499999.99
12030.0	49797654999999.984
12040.0	49846464999999.99
12050.0	51029157499999.99
12060.0	51469389999999.984
12070.0	51493054999999.99
12080.0	52082469999999.984
12090.0	52266162499999.99
12100.0	52939537499999.98
12110.0	53481864999999.99
12120.0	53461982499999.984
12130.0	54195549999999.99
12140.0	54182554999999.984
12150.0	54526487499999.99
12160.0	55734964999999.99
12170.0	56037854999999.984
12180.0	56524484999999.99
12190.0	57134180000000.0
12200.0	57373102499999.984
12210.0	57916042499999.98
12220.0	58266812499999.98
12230.0	58692782499999.984
12240.0	59191237499999.984
12250.0	59652617499999.984
12260.0	60367074999999.984
12270.0	60745729999999.984
12280.0	61231272499999.99
12290.0	61324712499999.984
12300.0	62292277499999.984
12310.0	62604812499999.984
12320.0	63167942499999.98
12330.0	63415427499999.99
12340.0	64212779999999.98
12350.0	64834570000000.0
12360.0	65204835000000.0
12370.0	65602794999999.984
12380.0	66263899999999.99
12390.0	66748832499999.99
12400.0	67259905000000.0
12410.0	67631572499999.98
12420.0	68262407499999.99
12430.0	68784602499999.98
12440.0	69280157499999.984
12450.0	69901152499999.99
12460.0	70381834999999.98
12470.0	70904227499999.98
12480.0	71368504999999.98
12490.0	71843274999999.98
12500.0	72438399999999.98
12510.0	73038362499999.97
12520.0	73525619999999.98
12530.0	74133314999999.98
12540.0	74262067500000.0
12550.0	75080494999999.98
12560.0	75708447499999.98
12570.0	76295522499999.97
12580.0	76777302499999.97
12590.0	77268344999999.98
12600.0	77904582499999.98
12610.0	78535519999999.98
12620.0	79023882499999.98
12630.0	79557744999999.98
12640.0	80160757499999.98
12650.0	80704542499999.98
12660.0	81136614999999.98
12670.0	81706519999999.98
12680.0	82463869999999.98
12690.0	83023947499999.98
12700.0	83632742499999.97
12710.0	83965287499999.98
12720.0	84311847499999.98
12730.0	85126779999999.98
12740.0	85411792499999.98
12750.0	86587457499999.98
12760.0	86786137499999.97
12770.0	87443052499999.97
12780.0	88335474999999.98
12790.0	88542967499999.98
12800.0	88410867499999.97
12810.0	89499939999999.97
12820.0	90373362499999.98
12830.0	89924897499999.98
12840.0	91736277499999.98
12850.0	91484642499999.97
12860.0	92429852499999.97
12870.0	93165179999999.98
12880.0	93259779999999.98
12890.0	94138499999999.97
12900.0	94921052499999.98
12910.0	95512369999999.97
12920.0	94605022499999.98
12930.0	95872209999999.97
12940.0	96919227499999.98
12950.0	95598157499999.97
12960.0	96062872499999.97
12970.0	96446967499999.97
12980.0	100674234999999.97
12990.0	99622629999999.98
13000.0	99955192499999.95
13010.0	99709717499999.97
13020.0	102454039999999.98
13030.0	99586814999999.98
13040.0	101889804999999.97
13050.0	104792674999999.97
13060.0	105508974999999.98
13070.0	102316699999999.97
13080.0	106730949999999.98
13090.0	106370124999999.97
13100.0	106677249999999.95
13110.0	108703224999999.98
13120.0	107567024999999.98
13130.0	108456974999999.98
13140.0	108133124999999.97
13150.0	104210184999999.97
13160.0	110450744999999.98
13170.0	111938599999999.97
13180.0	113404999999999.97
13190.0	105904099999999.97
13200.0	112611239999999.97
13210.0	114432149999999.98
13220.0	116215099999999.98
13230.0	102704709999999.98
13240.0	111740199999999.97
13250.0	116266174999999.97
13260.0	116839899999999.98
13270.0	116348074999999.97
13280.0	117288199999999.95
13290.0	108752099999999.97
13300.0	113688449999999.97
13310.0	113200699999999.98
13320.0	90374072499999.97
13330.0	106933514999999.98
13340.0	113236619999999.95
13350.0	105303202499999.94
13360.0	88987919999999.97
13370.0	67582817499999.984
13380.0	57889942499999.984
13390.0	72686074999999.97
13400.0	62545602499999.99
13410.0	73964452500000.0
13420.0	51801769999999.984
13430.0	52920309999999.984
13440.0	56634643799999.99
13450.0	47766349899999.99
13460.0	65944436999999.98
13470.0	47411188999999.99
13480.0	17975773099999.996
13490.0	48656461799999.99
13500.0	50851862979999.984
13510.0	37866781139999.99
13520.0	20229275049999.996
13530.0	40352316749999.984
13540.0	22578603499999.996
13550.0	16299775899999.996
13560.0	42285066539999.984
13570.0	30273618999999.99
13580.0	35030291999999.996
13590.0	22646382309999.996
13600.0	34846326749999.99
13610.0	22325654099999.996
13620.0	9211415474999.996
13630.0	36704387424999.99
13640.0	48637255814999.984
13650.0	25259000874999.996
13660.0	53318807249999.99
13670.0	48211037749999.984
13680.0	19673206404999.996
13690.0	53767941584999.99
13700.0	41958125500000.0
13710.0	44848011499999.984
13720.0	58606522499999.99
13730.0	57325832499999.99
13740.0	33831429999999.99
13750.0	62080997999999.984
13760.0	73126559999999.98
13770.0	62973161999999.984
13780.0	97362909999999.97
13790.0	69692449999999.99
13800.0	88994501099999.98
13810.0	34944786699999.984
13820.0	67549995999999.99
13830.0	28198626999999.992
13840.0	78283757499999.98
13850.0	34211148249999.992
13860.0	35445847187499.99
13870.0	79554862562499.98
13880.0	32732142499999.99
13890.0	73792395619999.97
13900.0	75917262199999.98
13910.0	41850238749999.99
13920.0	34829124999999.99
13930.0	69781147149999.99
13940.0	62445462499999.984
13950.0	29393022817999.992
13960.0	38827240074999.99
13970.0	46446229025000.0
13980.0	68961145000000.0
13990.0	85316561749999.97
14000.0	35787217749999.99
14010.0	19302176499999.992
14020.0	89861769999999.98
14030.0	95880144999999.97
14040.0	46671844699999.99
14050.0	28414308489999.996
14060.0	105523626249999.98
14070.0	49780569999999.984
14080.0	59409474999999.984
14090.0	39168585250000.0
14100.0	54831076749999.984
14110.0	92585992499999.98
14120.0	43987800749999.984
14130.0	104215773249999.98
14140.0	36007308199999.99
14150.0	53577098399999.984
14160.0	86099947499999.98
14170.0	76006722524999.98
14180.0	47107530174999.99
14190.0	30960570349999.992
14200.0	54362161369999.99
14210.0	74354157999999.98
14220.0	71854262499999.97
14230.0	40239680749999.984
14240.0	49929724849999.984
14250.0	78574449999999.98
14260.0	47395409499999.984
14270.0	96069078999999.97
14280.0	65872544024999.98
14290.0	39199479974999.984
14300.0	134277072499999.94
14310.0	116180415299999.98
14320.0	56374730000000.0
14330.0	94512817499999.98
14340.0	30165771499999.992
14350.0	105202934499999.97
14360.0	119829804999999.97
14370.0	100441399999999.98
14380.0	88566254999999.98
14390.0	84511322999999.98
14400.0	72911573999999.98
14410.0	94543137499999.98
14420.0	86416077499999.98
14430.0	143151679999999.97
14440.0	123977294999999.97
14450.0	60316741999999.984
14460.0	76902845999999.98
14470.0	123470864999999.97
14480.0	140417479999999.98
14490.0	162417909999999.94
14500.0	93577539749999.98
14510.0	54513373249999.98
14520.0	172776724999999.97
14530.0	179056774999999.97
14540.0	144926519999999.97
14550.0	152235404999999.94
14560.0	115442129999999.97
14570.0	115862129999999.98
14580.0	196447224999999.97
14590.0	211579324999999.94
14600.0	203005549999999.94
14610.0	189780249999999.94
14620.0	136846297499999.98
14630.0	94259957499999.98
