# Flux units: erg / (cm m2 s)
# Wavelength units: Angstrom
wave	flux
9000.0	10391924999999.998
9010.0	10476077499999.996
9020.0	10667087499999.998
9030.0	10799569999999.996
9040.0	10936077499999.996
9050.0	11072502499999.998
9060.0	11215604999999.998
9070.0	11357917499999.998
9080.0	11497109999999.996
9090.0	11634199999999.996
9100.0	11781152499999.996
9110.0	11937004999999.996
9120.0	12091312499999.998
9130.0	12238702499999.996
9140.0	12388412499999.996
9150.0	12514319999999.998
9160.0	12659309999999.996
9170.0	12823369999999.998
9180.0	13007427499999.998
9190.0	13143132499999.998
9200.0	13280079999999.998
9210.0	13453424999999.998
9220.0	13637282499999.998
9230.0	13823969999999.996
9240.0	13990667499999.994
9250.0	14122424999999.994
9260.0	14212242499999.994
9270.0	14369149999999.996
9280.0	14372822499999.998
9290.0	14242947499999.996
9300.0	14896067500000.0
9310.0	14475794999999.996
9320.0	15331047499999.996
9330.0	15242234999999.996
9340.0	14938582499999.998
9350.0	14480758499999.994
9360.0	15273364999999.998
9370.0	15029959999999.998
9380.0	16293699999999.994
9390.0	16570659999999.992
9400.0	16802917499999.996
9410.0	17010859999999.996
9420.0	17164852499999.998
9430.0	17440007499999.996
9440.0	17654674999999.992
9450.0	17831637499999.996
9460.0	17928397499999.996
9470.0	17334154999999.998
9480.0	18377789999999.992
9490.0	18573187499999.996
9500.0	17740622499999.996
9510.0	18965272500000.0
9520.0	19120997499999.992
9530.0	19323312499999.992
9540.0	19722972499999.996
9550.0	19802472499999.996
9560.0	19018397499999.996
9570.0	20344339999999.992
9580.0	20542354999999.992
9590.0	20848912499999.996
9600.0	20437862499999.996
9610.0	21319514999999.992
9620.0	20411767500000.0
9630.0	21763047499999.992
9640.0	21852812499999.992
9650.0	22076049999999.992
9660.0	22455517499999.99
9670.0	22646554999999.992
9680.0	23004977499999.996
9690.0	23222302499999.996
9700.0	23491265000000.0
9710.0	23707159999999.992
9720.0	23890224999999.992
9730.0	24126099999999.996
9740.0	24400192499999.996
9750.0	24597009999999.996
9760.0	25004254999999.996
9770.0	25285317499999.992
9780.0	25572027499999.992
9790.0	25786507499999.992
9800.0	25985972499999.996
9810.0	26359532499999.992
9820.0	26678282499999.996
9830.0	26946599999999.992
9840.0	27210704999999.992
9850.0	27464512499999.996
9860.0	27688694999999.996
9870.0	28074577499999.99
9880.0	28240752499999.99
9890.0	28574819999999.992
9900.0	28929022499999.99
9910.0	29281937499999.996
9920.0	29541542499999.992
9930.0	29842779999999.992
9940.0	30066982499999.996
9950.0	30479297499999.99
9960.0	30757639999999.996
9970.0	31104192499999.996
9980.0	31410454999999.996
9990.0	31705857499999.992
10000.0	31984672499999.996
10010.0	32299789999999.99
10020.0	32630564999999.996
10030.0	32945932499999.996
10040.0	33247547500000.004
10050.0	33618384999999.996
10060.0	33937477499999.992
10070.0	34271422499999.992
10080.0	34576577499999.992
10090.0	34925457500000.0
10100.0	35282512499999.99
10110.0	35610542499999.984
10120.0	35937912499999.99
10130.0	36302292499999.99
10140.0	36648954999999.99
10150.0	37004924999999.99
10160.0	37358069999999.99
10170.0	37713935000000.0
10180.0	38051934999999.99
10190.0	38429899999999.984
10200.0	38791959999999.984
10210.0	39157892499999.99
10220.0	39522464999999.984
10230.0	39893459999999.99
10240.0	40267692499999.99
10250.0	40635332499999.984
10260.0	41016794999999.99
10270.0	41400137500000.0
10280.0	41783197500000.0
10290.0	42167877499999.99
10300.0	42559732499999.99
10310.0	42945149999999.984
10320.0	43328582499999.984
10330.0	43730219999999.984
10340.0	44134607499999.99
10350.0	44535017499999.99
10360.0	44940859999999.99
10370.0	45345994999999.99
10380.0	45751097499999.99
10390.0	46164082499999.99
10400.0	46578079999999.99
10410.0	46993879999999.984
10420.0	47417542499999.99
10430.0	47837014999999.984
10440.0	48261302499999.984
10450.0	48687937499999.98
10460.0	49116119999999.99
10470.0	49552039999999.99
10480.0	49987499999999.984
10490.0	50425042499999.984
10500.0	50848887499999.984
10510.0	51307009999999.99
10520.0	51756957499999.984
10530.0	52207624999999.98
10540.0	52667322499999.984
10550.0	53110637499999.984
10560.0	53577382499999.984
10570.0	54037967499999.98
10580.0	54503119999999.99
10590.0	54958067499999.99
10600.0	55357449999999.98
10610.0	55914449999999.98
10620.0	56432112499999.984
10630.0	57001882499999.97
10640.0	57496167499999.984
10650.0	57970072499999.98
10660.0	58471437499999.98
10670.0	58908712499999.984
10680.0	59413354999999.99
10690.0	59954094999999.99
10700.0	60408977500000.0
10710.0	60943367499999.984
10720.0	61440774999999.98
10730.0	61981039999999.98
10740.0	62457382499999.98
10750.0	63005917499999.98
10760.0	63526689999999.98
10770.0	64009772499999.984
10780.0	64483952500000.0
10790.0	65087677500000.0
10800.0	65595874999999.99
10810.0	66163904999999.984
10820.0	66698532499999.984
10830.0	67239387499999.98
10840.0	67776097499999.98
10850.0	68332327499999.99
10860.0	68867007499999.984
10870.0	69351677499999.99
10880.0	69973939999999.984
10890.0	70527942499999.98
10900.0	70947709999999.98
10910.0	71617012499999.98
10920.0	72125877499999.97
10930.0	72552384999999.98
10940.0	73116722499999.98
10950.0	73786622499999.97
10960.0	74183644999999.98
10970.0	74672942499999.98
10980.0	74735679999999.98
10990.0	75265400000000.0
11000.0	76665992499999.97
11010.0	74861007499999.98
11020.0	77505912499999.98
11030.0	76609809999999.98
11040.0	78859955000000.0
11050.0	79149537499999.97
11060.0	79874012500000.0
11070.0	80402382500000.0
11080.0	81025814999999.97
11090.0	82327669999999.98
11100.0	82828934999999.98
11110.0	82980125000000.0
11120.0	83940214999999.98
11130.0	84444182499999.97
11140.0	84819609999999.97
11150.0	75527092499999.98
11160.0	83551654999999.97
11170.0	83654097499999.98
11180.0	87307677499999.97
11190.0	85368384999999.98
11200.0	75191759999999.98
11210.0	88296747499999.97
11220.0	80736497500000.0
11230.0	89486897499999.97
11240.0	86029832499999.98
11250.0	83651704999999.97
11260.0	89250819999999.98
11270.0	87883349999999.97
11280.0	93852212499999.97
11290.0	95125990000000.0
11300.0	95415984999999.98
11310.0	93654374999999.98
11320.0	97269289999999.95
11330.0	97891857499999.97
11340.0	97714757499999.98
11350.0	84324642499999.98
11360.0	97154869999999.97
11370.0	100291612499999.97
11380.0	100333077499999.97
11390.0	101598724999999.98
11400.0	102928249999999.98
11410.0	103047024999999.98
11420.0	100616544999999.98
11430.0	103528399999999.98
11440.0	101035979999999.98
11450.0	105486017499999.95
11460.0	105510972499999.98
11470.0	107567394999999.98
11480.0	100710314999999.98
11490.0	108406844999999.98
11500.0	96411330000000.0
11510.0	111436249999999.98
11520.0	112254199999999.98
11530.0	112750224999999.97
11540.0	111740599999999.97
11550.0	111769007499999.97
11560.0	114906097499999.98
11570.0	113020774999999.97
11580.0	114142124999999.98
11590.0	117720899999999.97
11600.0	111243989999999.98
11610.0	118103369999999.97
11620.0	120164649999999.98
11630.0	120174174999999.98
11640.0	108522124999999.97
11650.0	121419299999999.97
11660.0	117195644999999.95
11670.0	123902524999999.98
11680.0	124817574999999.97
11690.0	124781774999999.98
11700.0	122769299999999.94
11710.0	126386374999999.97
11720.0	128340199999999.98
11730.0	116243704999999.98
11740.0	128177374999999.95
11750.0	129773074999999.97
11760.0	131520000000000.0
11770.0	132428749999999.97
11780.0	132146624999999.94
11790.0	134324299999999.97
11800.0	134032324999999.95
11810.0	135064649999999.94
11820.0	134774799999999.97
11830.0	138079349999999.94
11840.0	138820049999999.97
11850.0	136874324999999.97
11860.0	139021949999999.97
11870.0	140778274999999.97
11880.0	142184399999999.94
11890.0	143128750000000.0
11900.0	144048599999999.97
11910.0	145278024999999.97
11920.0	146024699999999.97
11930.0	147223424999999.97
11940.0	147640049999999.97
11950.0	148996649999999.94
11960.0	149848049999999.97
11970.0	150748049999999.94
11980.0	150261675000000.0
11990.0	151409849999999.94
12000.0	153886449999999.97
12010.0	154739250000000.0
12020.0	155048524999999.94
12030.0	156289749999999.94
12040.0	157046499999999.94
12050.0	158635849999999.97
12060.0	159652649999999.97
12070.0	160472999999999.97
12080.0	161511000000000.0
12090.0	162424150000000.0
12100.0	163446899999999.97
12110.0	164522474999999.94
12120.0	164998749999999.97
12130.0	166218724999999.97
12140.0	166970274999999.94
12150.0	168037674999999.97
12160.0	169599799999999.97
12170.0	170667649999999.97
12180.0	171475600000000.0
12190.0	172743399999999.97
12200.0	173381599999999.94
12210.0	174673074999999.97
12220.0	175529974999999.97
12230.0	176777549999999.97
12240.0	177593274999999.97
12250.0	178978624999999.94
12260.0	180125899999999.97
12270.0	181061249999999.97
12280.0	181970849999999.94
12290.0	182647274999999.94
12300.0	184289599999999.94
12310.0	185002899999999.97
12320.0	186423924999999.94
12330.0	187338024999999.97
12340.0	188625449999999.97
12350.0	189758474999999.94
12360.0	190886649999999.97
12370.0	191701874999999.94
12380.0	193096924999999.94
12390.0	194111374999999.97
12400.0	195321624999999.94
12410.0	196336199999999.97
12420.0	197435799999999.94
12430.0	198609474999999.97
12440.0	199790724999999.97
12450.0	200920824999999.94
12460.0	201941650000000.0
12470.0	203119124999999.94
12480.0	204279799999999.94
12490.0	205482799999999.94
12500.0	206645324999999.97
12510.0	207766474999999.94
12520.0	208942074999999.97
12530.0	210087649999999.94
12540.0	210488799999999.94
12550.0	212410324999999.94
12560.0	213574824999999.94
12570.0	214808324999999.9
12580.0	215973249999999.97
12590.0	217070074999999.94
12600.0	218273274999999.97
12610.0	219672399999999.94
12620.0	220698999999999.97
12630.0	221935024999999.94
12640.0	223139374999999.97
12650.0	224388200000000.0
12660.0	225437399999999.9
12670.0	226685949999999.94
12680.0	228113449999999.94
12690.0	229206024999999.97
12700.0	230502599999999.9
12710.0	231368574999999.97
12720.0	232462824999999.94
12730.0	234019374999999.88
12740.0	235288799999999.94
12750.0	236714874999999.9
12760.0	237671324999999.9
12770.0	239221799999999.9
12780.0	240561274999999.97
12790.0	241768874999999.9
12800.0	242773074999999.94
12810.0	244005849999999.94
12820.0	245457324999999.94
12830.0	245844049999999.94
12840.0	248170749999999.88
12850.0	248099999999999.94
12860.0	250726999999999.88
12870.0	251667349999999.97
12880.0	253382049999999.97
12890.0	254317224999999.88
12900.0	255302974999999.94
12910.0	256438199999999.94
12920.0	257545249999999.94
12930.0	259270549999999.94
12940.0	260836049999999.94
12950.0	258197099999999.97
12960.0	260217649999999.94
12970.0	264503699999999.9
12980.0	266440874999999.94
12990.0	264210049999999.97
13000.0	269246774999999.94
13010.0	270178399999999.94
13020.0	271847749999999.94
13030.0	271427449999999.97
13040.0	274411199999999.94
13050.0	275819899999999.94
13060.0	277316299999999.94
13070.0	277860824999999.97
13080.0	279947724999999.97
13090.0	280626299999999.94
13100.0	282473749999999.94
13110.0	284331999999999.94
13120.0	284564799999999.94
13130.0	286437774999999.94
13140.0	286947424999999.94
13150.0	289153699999999.94
13160.0	289244524999999.9
13170.0	292449674999999.94
13180.0	293751499999999.94
13190.0	291590574999999.94
13200.0	296463749999999.94
13210.0	297904449999999.94
13220.0	299571824999999.94
13230.0	284154199999999.94
13240.0	301234199999999.94
13250.0	303564000000000.0
13260.0	303059125000000.0
13270.0	305427199999999.9
13280.0	305617224999999.94
13290.0	306796399999999.94
13300.0	311101250000000.0
13310.0	310748850000000.0
13320.0	306980100000000.0
13330.0	311124924999999.9
13340.0	313449099999999.94
13350.0	287873174999999.9
13360.0	310153224999999.9
13370.0	259900099999999.94
13380.0	288527574999999.9
13390.0	290300499999999.9
13400.0	317353524999999.94
13410.0	312866749999999.94
13420.0	263547074999999.94
13430.0	322285299999999.9
13440.0	274576934999999.88
13450.0	232528254999999.94
13460.0	323153699999999.94
13470.0	272774174999999.94
13480.0	304271974999999.94
13490.0	305464599999999.9
13500.0	275564687499999.88
13510.0	304719237499999.94
13520.0	212386529999999.94
13530.0	329813449999999.94
13540.0	254994149999999.94
13550.0	229574116999999.97
13560.0	280557109999999.97
13570.0	309446224999999.94
13580.0	279732924999999.84
13590.0	216183379999999.94
13600.0	342064474999999.9
13610.0	340472049999999.9
13620.0	269336799999999.88
13630.0	237729974999999.9
13640.0	284824299999999.94
13650.0	308864625000000.0
13660.0	339055649999999.9
13670.0	319656949999999.94
13680.0	291559889999999.94
13690.0	281400179999999.9
13700.0	295170249999999.94
13710.0	335652049999999.94
13720.0	333691424999999.94
13730.0	372734599999999.9
13740.0	271895209999999.97
13750.0	307438499999999.9
13760.0	321564824999999.94
13770.0	350628724999999.9
13780.0	370517850000000.0
13790.0	379395099999999.9
13800.0	381236899999999.9
13810.0	312360874999999.94
13820.0	385553324999999.9
13830.0	318200549999999.9
13840.0	358849999999999.94
13850.0	370611699999999.94
13860.0	315707047499999.94
13870.0	357208567499999.94
13880.0	363687024999999.94
13890.0	302072649999999.94
13900.0	324621254999999.9
13910.0	332096449999999.94
13920.0	390481374999999.94
13930.0	347349624999999.94
13940.0	379864099999999.94
13950.0	265886247999999.9
13960.0	347339727499999.9
13970.0	312059642499999.94
13980.0	379340024999999.94
13990.0	412373274999999.94
14000.0	340138449999999.94
14010.0	378482199999999.94
14020.0	396240299999999.9
14030.0	390890999999999.9
14040.0	287497424999999.9
14050.0	295658866000000.0
14060.0	406147449999999.9
14070.0	388294799999999.94
14080.0	335795275000000.0
14090.0	402634949999999.9
14100.0	387813799999999.94
14110.0	436985424999999.94
14120.0	341598399999999.9
14130.0	401095249999999.94
14140.0	424830419999999.94
14150.0	355095939999999.94
14160.0	335710749999999.94
14170.0	427755099999999.94
14180.0	271227999999999.94
14190.0	344918874999999.94
14200.0	328953035000000.0
14210.0	379611524999999.9
14220.0	382087124999999.94
14230.0	352774199999999.94
14240.0	335658434999999.94
14250.0	391342774999999.9
14260.0	324209049999999.94
14270.0	408343574999999.9
14280.0	342598544999999.94
14290.0	335807934999999.9
14300.0	413302574999999.9
14310.0	379624389999999.9
14320.0	458750724999999.9
14330.0	416639999999999.94
14340.0	437356474999999.94
14350.0	457245799999999.9
14360.0	439379374999999.9
14370.0	461784124999999.9
14380.0	379360124999999.9
14390.0	384732799999999.9
14400.0	443955824999999.9
14410.0	430805949999999.94
14420.0	404390374999999.9
14430.0	482051674999999.9
14440.0	453960824999999.9
14450.0	422030349999999.9
14460.0	445023224999999.94
14470.0	481501849999999.9
14480.0	469869949999999.9
14490.0	501090024999999.9
14500.0	484300124999999.94
14510.0	355195199999999.94
14520.0	504154674999999.94
14530.0	495006649999999.9
14540.0	465947324999999.9
14550.0	438402649999999.9
14560.0	439858249999999.94
14570.0	499217424999999.9
14580.0	519989074999999.94
14590.0	510808474999999.9
14600.0	522367049999999.8
14610.0	520332099999999.8
14620.0	476397699999999.9
14630.0	456670824999999.9
14640.0	531889124999999.8
14650.0	474016049999999.9
14660.0	479534699999999.94
14670.0	513444200000000.0
14680.0	492109674999999.94
14690.0	480864099999999.8
14700.0	539930599999999.75
14710.0	532286974999999.9
14720.0	542275249999999.8
14730.0	492024124999999.94
14740.0	522620549999999.9
14750.0	521376149999999.8
14760.0	494093549999999.8
14770.0	547833499999999.8
14780.0	554192175000000.0
14790.0	534117124999999.9
14800.0	552102174999999.94
14810.0	565722124999999.9
14820.0	554984524999999.94
14830.0	497714299999999.9
14840.0	575271049999999.9
14850.0	562205724999999.9
14860.0	551784599999999.94
14870.0	574785124999999.9
14880.0	549956049999999.9
14890.0	571188674999999.9
14900.0	524644799999999.8
14910.0	531570874999999.9
14920.0	545688274999999.94
14930.0	589216824999999.8
14940.0	579450074999999.9
14950.0	603059224999999.9
14960.0	583496299999999.9
14970.0	595150049999999.9
14980.0	475244724999999.9
14990.0	608978349999999.9
15000.0	606967824999999.8
15010.0	575215200000000.0
15020.0	571581749999999.8
15030.0	616437549999999.8
15040.0	599166374999999.9
15050.0	610402399999999.8
15060.0	624003874999999.9
15070.0	606400524999999.9
15080.0	620292224999999.9
15090.0	616020649999999.9
15100.0	619048974999999.9
15110.0	608881499999999.9
15120.0	637098824999999.9
15130.0	633125324999999.9
15140.0	617431574999999.8
15150.0	640206099999999.9
15160.0	643795949999999.8
15170.0	631799724999999.9
15180.0	645199049999999.9
15190.0	645322524999999.9
15200.0	651541324999999.9
15210.0	658858874999999.9
15220.0	644293574999999.8
15230.0	665396074999999.9
15240.0	662292399999999.9
15250.0	653311974999999.9
15260.0	667800124999999.9
15270.0	657860999999999.9
15280.0	647691299999999.9
15290.0	673591324999999.9
15300.0	653381249999999.9
15310.0	678274000000000.0
15320.0	653378674999999.8
15330.0	684444799999999.9
15340.0	689526899999999.8
15350.0	677929025000000.0
15360.0	686955974999999.9
15370.0	691814224999999.9
15380.0	696274774999999.9
15390.0	698600574999999.9
15400.0	698164974999999.9
15410.0	704371575000000.0
15420.0	703674899999999.8
15430.0	708245499999999.9
15440.0	703949549999999.9
15450.0	710903624999999.8
15460.0	716395724999999.8
15470.0	715711799999999.9
15480.0	720208424999999.9
15490.0	719338999999999.8
15500.0	724538374999999.6
15510.0	724204599999999.9
15520.0	728712424999999.8
15530.0	730687274999999.9
15540.0	734901174999999.8
15550.0	732646199999999.9
15560.0	738713474999999.8
15570.0	739234374999999.9
15580.0	735463524999999.8
15590.0	744831949999999.9
15600.0	744414599999999.8
15610.0	747969349999999.9
15620.0	750490449999999.9
15630.0	741838849999999.8
15640.0	755505849999999.9
15650.0	756726549999999.9
15660.0	760859699999999.6
15670.0	765862449999999.6
15680.0	767715799999999.9
15690.0	766456199999999.8
15700.0	773171424999999.9
15710.0	774286924999999.8
15720.0	761998074999999.9
15730.0	778218349999999.9
15740.0	781182824999999.9
15750.0	780578199999999.8
15760.0	786684799999999.8
15770.0	789951399999999.9
15780.0	789821624999999.8
15790.0	790776799999999.8
15800.0	796253999999999.9
15810.0	793024699999999.9
15820.0	800758874999999.6
15830.0	802787599999999.8
15840.0	805750399999999.9
15850.0	808351600000000.0
15860.0	809051774999999.9
15870.0	811018824999999.6
15880.0	815080599999999.8
15890.0	817664724999999.8
15900.0	820023274999999.9
15910.0	820638749999999.9
15920.0	824615449999999.8
15930.0	827182199999999.8
15940.0	829850999999999.8
15950.0	832148199999999.8
15960.0	833301999999999.9
15970.0	836421549999999.6
15980.0	838302624999999.9
15990.0	841735624999999.9
16000.0	844501399999999.9
16010.0	846010299999999.8
16020.0	848497449999999.9
16030.0	848749049999999.8
16040.0	854231024999999.9
16050.0	855905374999999.9
16060.0	858668299999999.9
16070.0	858985099999999.9
16080.0	863774599999999.9
16090.0	864823449999999.9
16100.0	866169399999999.8
16110.0	871116149999999.9
16120.0	873675699999999.8
16130.0	874683899999999.8
16140.0	878214199999999.8
16150.0	879786224999999.9
16160.0	882369274999999.6
16170.0	884659699999999.8
16180.0	888025124999999.6
16190.0	890379874999999.8
16200.0	892124099999999.8
16210.0	894130299999999.9
16220.0	898204999999999.9
16230.0	899758249999999.9
16240.0	896416299999999.6
16250.0	904223049999999.8
16260.0	899017499999999.8
16270.0	908711049999999.9
16280.0	892858499999999.8
16290.0	912960824999999.9
16300.0	916591124999999.8
16310.0	917069199999999.9
16320.0	920398574999999.8
16330.0	906027024999999.9
16340.0	916303024999999.8
16350.0	884353399999999.8
16360.0	926502974999999.8
16370.0	935406099999999.8
16380.0	936916174999999.9
16390.0	939457724999999.8
16400.0	940222074999999.8
16410.0	944441924999999.9
16420.0	940248399999999.6
16430.0	948528650000000.0
16440.0	953071025000000.0
16450.0	950746150000000.0
16460.0	953267749999999.8
16470.0	959236674999999.6
16480.0	957758549999999.6
16490.0	961839299999999.6
16500.0	966276499999999.9
16510.0	969673124999999.8
16520.0	972747149999999.6
16530.0	974990099999999.8
16540.0	977631424999999.6
16550.0	976902374999999.8
