# Flux units: erg / (cm m2 s)
# Wavelength units: Angstrom
wave	flux
9000.0	5696810249999.999
9010.0	5736807999999.998
9020.0	5857150749999.998
9030.0	5933940999999.999
9040.0	6012554249999.998
9050.0	6092143999999.999
9060.0	6175534749999.997
9070.0	6258765249999.999
9080.0	6339303999999.999
9090.0	6418423499999.999
9100.0	6504256999999.997
9110.0	6597185999999.999
9120.0	6687419749999.998
9130.0	6773880999999.999
9140.0	6860711749999.998
9150.0	6931228249999.998
9160.0	7014854249999.999
9170.0	7113036249999.997
9180.0	7223908999999.997
9190.0	7300954249999.997
9200.0	7377704999999.999
9210.0	7481632499999.999
9220.0	7593217249999.998
9230.0	7706074749999.999
9240.0	7803932999999.999
9250.0	7878419749999.999
9260.0	7922505749999.999
9270.0	8015552999999.997
9280.0	8011667999999.998
9290.0	7900208499999.998
9300.0	8328456499999.998
9310.0	8004850749999.997
9320.0	8593474999999.999
9330.0	8502996749999.997
9340.0	8268887500000.0
9350.0	7944162499999.997
9360.0	8445560249999.999
9370.0	8265337749999.997
9380.0	9147504499999.998
9390.0	9324136499999.998
9400.0	9466431499999.998
9410.0	9588174999999.998
9420.0	9675548249999.998
9430.0	9851292999999.998
9440.0	9981995499999.998
9450.0	10086162499999.996
9460.0	10125106499999.996
9470.0	9668821499999.998
9480.0	10400479999999.998
9490.0	10517347249999.998
9500.0	9876090249999.998
9510.0	10754782499999.998
9520.0	10837939999999.996
9530.0	10950487499999.996
9540.0	11220997499999.996
9550.0	11253233999999.996
9560.0	10666107999999.994
9570.0	11585342499999.996
9580.0	11704114999999.996
9590.0	11901047499999.996
9600.0	11576039999999.996
9610.0	12186682499999.996
9620.0	11515889999999.998
9630.0	12451807499999.996
9640.0	12485144999999.996
9650.0	12625742499999.996
9660.0	12866137500000.0
9670.0	12979919999999.998
9680.0	13209532499999.996
9690.0	13337649999999.996
9700.0	13505724999999.998
9710.0	13632139999999.998
9720.0	13729014999999.996
9730.0	13879719999999.998
9740.0	14048152499999.996
9750.0	14147619999999.996
9760.0	14425074999999.994
9770.0	14597307499999.996
9780.0	14774597499999.998
9790.0	14899569999999.996
9800.0	15009884999999.998
9810.0	15254854999999.994
9820.0	15455222499999.996
9830.0	15621017499999.994
9840.0	15782557499999.998
9850.0	15931972499999.996
9860.0	16065329999999.996
9870.0	16312337499999.998
9880.0	16405572499999.994
9890.0	16613582499999.996
9900.0	16838522500000.0
9910.0	17059457499999.996
9920.0	17216869999999.996
9930.0	17403720000000.0
9940.0	17537639999999.996
9950.0	17799609999999.996
9960.0	17970162499999.992
9970.0	18188409999999.992
9980.0	18376302499999.996
9990.0	18559224999999.992
10000.0	18733647499999.996
10010.0	18928022500000.0
10020.0	19136307499999.996
10030.0	19332339999999.992
10040.0	19515427499999.996
10050.0	19748847499999.996
10060.0	19946977499999.996
10070.0	20156372499999.992
10080.0	20344152499999.996
10090.0	20561967499999.996
10100.0	20785572499999.996
10110.0	20991277499999.996
10120.0	21195094999999.992
10130.0	21423457499999.996
10140.0	21639229999999.992
10150.0	21861609999999.992
10160.0	22082314999999.996
10170.0	22306012499999.996
10180.0	22517462499999.996
10190.0	22753414999999.996
10200.0	22981537499999.996
10210.0	23211414999999.992
10220.0	23442507499999.992
10230.0	23674434999999.992
10240.0	23908734999999.996
10250.0	24140269999999.996
10260.0	24380609999999.996
10270.0	24623194999999.996
10280.0	24865627499999.992
10290.0	25107557499999.992
10300.0	25353584999999.996
10310.0	25596972499999.992
10320.0	25836719999999.996
10330.0	26093022499999.992
10340.0	26348552499999.992
10350.0	26602469999999.996
10360.0	26858667499999.996
10370.0	27115597499999.992
10380.0	27374054999999.992
10390.0	27632927499999.996
10400.0	27898392499999.992
10410.0	28161872499999.992
10420.0	28429012499999.992
10430.0	28696197499999.992
10440.0	28967899999999.996
10450.0	29237779999999.99
10460.0	29512042499999.992
10470.0	29789582499999.996
10480.0	30065032499999.99
10490.0	30342339999999.992
10500.0	30615359999999.992
10510.0	30907019999999.992
10520.0	31193874999999.996
10530.0	31478532499999.992
10540.0	31773414999999.992
10550.0	32064092499999.992
10560.0	32356699999999.996
10570.0	32654224999999.99
10580.0	32950262499999.992
10590.0	33242149999999.99
10600.0	33489312499999.99
10610.0	33856082499999.992
10620.0	34180362499999.992
10630.0	34549297499999.984
10640.0	34864352499999.992
10650.0	35170974999999.99
10660.0	35493102499999.99
10670.0	35767812499999.99
10680.0	36095634999999.99
10690.0	36443212499999.99
10700.0	36731752499999.99
10710.0	37085279999999.99
10720.0	37402394999999.99
10730.0	37751932499999.984
10740.0	38059554999999.99
10750.0	38416852499999.984
10760.0	38750404999999.99
10770.0	39061282499999.984
10780.0	39356369999999.99
10790.0	39759297499999.984
10800.0	40084537499999.984
10810.0	40457697500000.0
10820.0	40803132499999.99
10830.0	41151307499999.99
10840.0	41499132499999.99
10850.0	41862377499999.99
10860.0	42209119999999.99
10870.0	42519184999999.99
10880.0	42933257499999.99
10890.0	43290872499999.99
10900.0	43548542499999.99
10910.0	43999364999999.984
10920.0	44317849999999.984
10930.0	44592044999999.984
10940.0	44956212499999.99
10950.0	45406279999999.984
10960.0	45647959999999.984
10970.0	45962929999999.984
10980.0	45962877499999.99
10990.0	46308012499999.984
11000.0	47274459999999.984
11010.0	45873062499999.99
11020.0	47795374999999.984
11030.0	47066602499999.99
11040.0	48686224999999.99
11050.0	48852417499999.99
11060.0	49353059999999.98
11070.0	49675652499999.984
11080.0	50110109999999.99
11090.0	50995077499999.984
11100.0	51331102499999.984
11110.0	51415527499999.984
11120.0	52032782499999.984
11130.0	52364709999999.99
11140.0	52608184999999.98
11150.0	45934619999999.99
11160.0	51360822499999.984
11170.0	51381319999999.984
11180.0	54216909999999.99
11190.0	52551334999999.99
11200.0	44956944999999.99
11210.0	54783862499999.984
11220.0	49289024999999.984
11230.0	55584092499999.984
11240.0	52737392499999.984
11250.0	51130729999999.984
11260.0	55009107499999.99
11270.0	53808297499999.99
11280.0	58477027499999.99
11290.0	59407154999999.99
11300.0	59537059999999.984
11310.0	58163122499999.984
11320.0	60844527499999.98
11330.0	61241904999999.99
11340.0	61064162499999.98
11350.0	50955779999999.984
11360.0	60468132499999.984
11370.0	62791774999999.98
11380.0	62795267499999.99
11390.0	63689642499999.99
11400.0	64611167499999.98
11410.0	64668339999999.97
11420.0	62467499999999.98
11430.0	64759027499999.984
11440.0	62929152499999.984
11450.0	66128037499999.99
11460.0	66072784999999.98
11470.0	67618474999999.98
11480.0	62138504999999.98
11490.0	68050872499999.98
11500.0	58654049999999.99
11510.0	70266437499999.98
11520.0	70860224999999.98
11530.0	71139579999999.98
11540.0	70177419999999.984
11550.0	70105404999999.98
11560.0	72552415000000.0
11570.0	70970539999999.98
11580.0	71754229999999.97
11590.0	74481489999999.97
11600.0	69449214999999.98
11610.0	74647169999999.97
11620.0	76131559999999.98
11630.0	76013314999999.98
11640.0	67090454999999.98
11650.0	76798714999999.98
11660.0	73505999999999.98
11670.0	78627964999999.97
11680.0	79201099999999.98
11690.0	79145799999999.98
11700.0	77455524999999.97
11710.0	80195789999999.98
11720.0	81617454999999.95
11730.0	72540189999999.98
11740.0	81315289999999.98
11750.0	82520717499999.98
11760.0	83733634999999.98
11770.0	84374559999999.98
11780.0	84144847499999.98
11790.0	85647099999999.97
11800.0	85327307500000.0
11810.0	86055009999999.98
11820.0	85649037499999.97
11830.0	88134592499999.98
11840.0	88656474999999.98
11850.0	87161142499999.97
11860.0	88805159999999.98
11870.0	90045699999999.97
11880.0	90984937499999.98
11890.0	91658282499999.97
11900.0	92242299999999.98
11910.0	93104457499999.97
11920.0	93612984999999.98
11930.0	94378552499999.97
11940.0	94699967499999.98
11950.0	95622709999999.95
11960.0	96166954999999.98
11970.0	96856099999999.97
11980.0	96368982499999.98
11990.0	97081399999999.98
12000.0	98861717499999.97
12010.0	99562444999999.97
12020.0	99718074999999.95
12030.0	100633294999999.98
12040.0	101031649999999.97
12050.0	102188049999999.98
12060.0	102843500000000.0
12070.0	103371599999999.97
12080.0	104142224999999.95
12090.0	104670849999999.97
12100.0	105475524999999.97
12110.0	106181824999999.98
12120.0	106398024999999.98
12130.0	107314149999999.97
12140.0	107721074999999.97
12150.0	108570324999999.97
12160.0	109667349999999.98
12170.0	110389049999999.97
12180.0	110968599999999.98
12190.0	111840999999999.98
12200.0	112196899999999.97
12210.0	113253449999999.97
12220.0	113750274999999.98
12230.0	114511999999999.95
12240.0	115186249999999.97
12250.0	116145224999999.95
12260.0	116836099999999.98
12270.0	117551174999999.95
12280.0	118188624999999.97
12290.0	118527399999999.95
12300.0	119701849999999.97
12310.0	120227899999999.97
12320.0	121199849999999.97
12330.0	121850449999999.97
12340.0	122800824999999.97
12350.0	123530924999999.95
12360.0	124222799999999.97
12370.0	124918224999999.95
12380.0	125827774999999.97
12390.0	126488574999999.98
12400.0	127277024999999.98
12410.0	128004599999999.98
12420.0	128884649999999.98
12430.0	129591549999999.95
12440.0	130384524999999.97
12450.0	131159674999999.95
12460.0	131955199999999.98
12470.0	132792874999999.98
12480.0	133590724999999.95
12490.0	134346149999999.97
12500.0	135075049999999.94
12510.0	135956600000000.0
12520.0	136780899999999.94
12530.0	137586299999999.95
12540.0	137738349999999.98
12550.0	139172049999999.95
12560.0	140023399999999.95
12570.0	140799599999999.97
12580.0	141652974999999.97
12590.0	142364224999999.97
12600.0	143219075000000.0
12610.0	144137324999999.94
12620.0	144952374999999.97
12630.0	145806024999999.97
12640.0	146631249999999.97
12650.0	147494549999999.97
12660.0	148260949999999.94
12670.0	149081849999999.97
12680.0	150029074999999.94
12690.0	150930124999999.97
12700.0	151731675000000.0
12710.0	152311924999999.97
12720.0	153101624999999.97
12730.0	154179374999999.97
12740.0	154953599999999.97
12750.0	156036399999999.94
12760.0	156666599999999.94
12770.0	157833999999999.97
12780.0	158708999999999.97
12790.0	159597424999999.94
12800.0	160398849999999.94
12810.0	161148499999999.94
12820.0	162162824999999.97
12830.0	162353999999999.94
12840.0	163964999999999.94
12850.0	163856124999999.97
12860.0	165873075000000.0
12870.0	166658224999999.97
12880.0	167725649999999.97
12890.0	168315849999999.97
12900.0	168998274999999.97
12910.0	169817399999999.97
12920.0	170550849999999.97
12930.0	171862099999999.97
12940.0	172902649999999.94
12950.0	170624299999999.97
12960.0	172139224999999.97
12970.0	175412024999999.97
12980.0	176848249999999.97
12990.0	174995149999999.97
13000.0	178875749999999.97
13010.0	179721474999999.97
13020.0	180603624999999.97
13030.0	180017099999999.97
13040.0	182380499999999.94
13050.0	183495374999999.94
13060.0	184491424999999.94
13070.0	184779874999999.97
13080.0	186231249999999.97
13090.0	186607299999999.97
13100.0	188106649999999.97
13110.0	189332374999999.97
13120.0	189391149999999.97
13130.0	190900599999999.94
13140.0	190906925000000.0
13150.0	192666074999999.97
13160.0	192762824999999.94
13170.0	195007424999999.97
13180.0	195966149999999.94
13190.0	193871374999999.94
13200.0	197942274999999.94
13210.0	198838974999999.97
13220.0	200205574999999.97
13230.0	187157149999999.97
13240.0	201170249999999.97
13250.0	202884999999999.97
13260.0	202547999999999.94
13270.0	204332674999999.94
13280.0	204317749999999.94
13290.0	204900199999999.94
13300.0	208402000000000.0
13310.0	207880974999999.94
13320.0	204594499999999.94
13330.0	208274949999999.94
13340.0	209799675000000.0
13350.0	191697624999999.97
13360.0	207566224999999.94
13370.0	170987724999999.97
13380.0	190637499999999.94
13390.0	192781249999999.97
13400.0	212660850000000.0
13410.0	208807924999999.97
13420.0	170953749999999.94
13430.0	216146349999999.94
13440.0	181723137499999.97
13450.0	152738137499999.97
13460.0	217114344999999.97
13470.0	182069864999999.94
13480.0	202862549999999.94
13490.0	202996224999999.9
13500.0	184573234499999.97
13510.0	201687458499999.9
13520.0	136985649999999.95
13530.0	220305524999999.94
13540.0	164583784999999.94
13550.0	149908144000000.0
13560.0	186367289999999.94
13570.0	204882199999999.9
13580.0	181632434999999.97
13590.0	140338144999999.97
13600.0	229768849999999.94
13610.0	228149049999999.94
13620.0	176206064999999.94
13630.0	150058824999999.97
13640.0	190575657999999.94
13650.0	203538274999999.97
13660.0	226789474999999.9
13670.0	211509849999999.94
13680.0	189819063999999.94
13690.0	186784157999999.94
13700.0	194009264999999.94
13710.0	223161874999999.97
13720.0	221305175000000.0
13730.0	251993799999999.97
13740.0	174766954999999.97
13750.0	200119799999999.94
13760.0	211068599999999.94
13770.0	232968874999999.97
13780.0	249925574999999.97
13790.0	256766499999999.94
13800.0	257953174999999.94
13810.0	203554824999999.94
13820.0	261446874999999.9
13830.0	210797159999999.97
13840.0	239859824999999.94
13850.0	247889524999999.94
13860.0	209665182500000.0
13870.0	238419272499999.9
13880.0	243056574999999.94
13890.0	202182070999999.97
13900.0	218930004999999.97
13910.0	217961399999999.94
13920.0	264006699999999.97
13930.0	233077134999999.94
13940.0	255896674999999.9
13950.0	177691497999999.94
13960.0	229073085000000.0
13970.0	206524669999999.9
13980.0	253536699999999.97
13990.0	280381524999999.94
14000.0	223928800000000.0
14010.0	253653924999999.94
14020.0	266674324999999.94
14030.0	262929374999999.94
14040.0	185361279999999.94
14050.0	195855600999999.97
14060.0	273397999999999.97
14070.0	259859449999999.97
14080.0	220869674999999.94
14090.0	271848724999999.94
14100.0	260024149999999.97
14110.0	298084299999999.94
14120.0	224515524999999.9
14130.0	268293474999999.94
14140.0	289702499999999.94
14150.0	239481674999999.94
14160.0	219769229999999.97
14170.0	290761942499999.94
14180.0	173497032499999.94
14190.0	227410362499999.9
14200.0	220565013499999.94
14210.0	253675034999999.97
14220.0	254152899999999.94
14230.0	232374454999999.94
14240.0	221852789999999.94
14250.0	262300247499999.94
14260.0	212743669999999.97
14270.0	273862687499999.94
14280.0	222407902499999.97
14290.0	224939814999999.97
14300.0	278437802499999.9
14310.0	255096359999999.88
14320.0	312798349999999.94
14330.0	278213049999999.88
14340.0	294663749999999.94
14350.0	310010749999999.94
14360.0	296079275000000.0
14370.0	315323249999999.94
14380.0	253538234999999.94
14390.0	257066482499999.94
14400.0	300747172499999.9
14410.0	289586750000000.0
14420.0	271056824999999.94
14430.0	329267850000000.0
14440.0	307576374999999.94
14450.0	285511769999999.9
14460.0	299029584999999.94
14470.0	329649224999999.94
14480.0	318078049999999.94
14490.0	344873649999999.94
14500.0	330965177499999.9
14510.0	233613642499999.9
14520.0	346020774999999.9
14530.0	338518924999999.9
14540.0	315380624999999.94
14550.0	296354524999999.9
14560.0	296805699999999.94
14570.0	343075924999999.9
14580.0	357500074999999.9
14590.0	350729874999999.94
14600.0	358935150000000.0
14610.0	357659449999999.9
14620.0	324411224999999.94
14630.0	306483399999999.9
14640.0	366481424999999.9
14650.0	319313249999999.94
14660.0	323393374999999.94
14670.0	350000124999999.94
14680.0	335878349999999.94
14690.0	326340274999999.8
14700.0	371288374999999.9
14710.0	365375299999999.94
14720.0	372891174999999.9
14730.0	331868599999999.94
14740.0	357965274999999.9
14750.0	356399849999999.9
14760.0	331465149999999.94
14770.0	377045674999999.9
14780.0	382578299999999.94
14790.0	366182324999999.9
14800.0	379780349999999.9
14810.0	390436974999999.9
14820.0	383003749999999.94
14830.0	335774574999999.94
14840.0	397358624999999.9
14850.0	387106924999999.94
14860.0	379035724999999.94
14870.0	397143074999999.9
14880.0	379220849999999.94
14890.0	393976224999999.9
14900.0	356909349999999.94
14910.0	362700199999999.94
14920.0	371284574999999.94
14930.0	407332524999999.94
14940.0	399233299999999.9
14950.0	418251874999999.94
14960.0	403272924999999.9
14970.0	411537324999999.9
14980.0	314874324999999.94
14990.0	421994799999999.94
15000.0	421080024999999.94
15010.0	394728624999999.94
15020.0	391352574999999.9
15030.0	427704874999999.94
15040.0	414289649999999.9
15050.0	421803999999999.9
15060.0	432924975000000.0
15070.0	419996649999999.94
15080.0	429972274999999.9
15090.0	426484024999999.94
15100.0	428224874999999.9
15110.0	419960699999999.9
15120.0	443004574999999.8
15130.0	439443124999999.9
15140.0	427132424999999.9
15150.0	443735049999999.8
15160.0	447875524999999.94
15170.0	437842824999999.9
15180.0	448247724999999.9
15190.0	447911499999999.9
15200.0	452352824999999.94
15210.0	458519524999999.9
15220.0	446227650000000.0
15230.0	463027249999999.8
15240.0	460805499999999.94
15250.0	453348649999999.94
15260.0	464787749999999.9
15270.0	456869299999999.8
15280.0	448929474999999.8
15290.0	469214674999999.94
15300.0	452734424999999.9
15310.0	472290749999999.8
15320.0	453501250000000.0
15330.0	476704099999999.94
15340.0	480757849999999.94
15350.0	471916874999999.94
15360.0	478578699999999.8
15370.0	482740749999999.94
15380.0	485773749999999.9
15390.0	487757399999999.8
15400.0	487063499999999.94
15410.0	491786824999999.9
15420.0	490460924999999.9
15430.0	494690224999999.9
15440.0	491355149999999.9
15450.0	496178674999999.9
15460.0	500211399999999.9
15470.0	499539174999999.9
15480.0	503049049999999.8
15490.0	502265999999999.8
15500.0	506159399999999.9
15510.0	506131224999999.9
15520.0	509226500000000.0
15530.0	510661324999999.8
15540.0	513398249999999.8
15550.0	511798924999999.94
15560.0	516536849999999.94
15570.0	516638849999999.8
15580.0	513372774999999.94
15590.0	520909599999999.8
15600.0	520557774999999.9
15610.0	522949099999999.94
15620.0	524632599999999.9
15630.0	516165124999999.9
15640.0	528285299999999.75
15650.0	529377999999999.8
15660.0	532699025000000.0
15670.0	536291124999999.94
15680.0	537775474999999.9
15690.0	536615824999999.94
15700.0	541377975000000.0
15710.0	542565124999999.8
15720.0	532152524999999.94
15730.0	545351299999999.9
15740.0	547209224999999.94
15750.0	547287399999999.94
15760.0	551823999999999.8
15770.0	553860399999999.9
15780.0	553737199999999.9
15790.0	553706549999999.9
15800.0	558248624999999.8
15810.0	555572174999999.9
15820.0	561664649999999.94
15830.0	562860599999999.8
15840.0	565458400000000.0
15850.0	567022599999999.9
15860.0	568005524999999.9
15870.0	569189474999999.9
15880.0	572237199999999.9
15890.0	573884999999999.9
15900.0	575440399999999.9
15910.0	576172399999999.9
15920.0	579231599999999.9
15930.0	580498199999999.9
15940.0	583176599999999.9
15950.0	584790599999999.9
15960.0	585299624999999.9
15970.0	587557449999999.9
15980.0	589387350000000.0
15990.0	591528374999999.9
16000.0	593745199999999.9
16010.0	594806349999999.9
16020.0	596555074999999.9
16030.0	596459375000000.0
16040.0	600586224999999.9
16050.0	601763574999999.8
16060.0	603705999999999.8
16070.0	603654399999999.9
16080.0	607575399999999.9
16090.0	608313824999999.8
16100.0	609260799999999.9
16110.0	612739574999999.9
16120.0	614540324999999.9
16130.0	615533074999999.9
16140.0	618016799999999.8
16150.0	619123699999999.8
16160.0	620941074999999.8
16170.0	622302374999999.9
16180.0	625173074999999.9
16190.0	626866774999999.8
16200.0	628637199999999.8
16210.0	629218399999999.9
16220.0	632157449999999.9
16230.0	633689124999999.9
16240.0	631155049999999.9
16250.0	637199899999999.9
16260.0	633531149999999.9
16270.0	640362549999999.8
16280.0	628894950000000.0
16290.0	642803575000000.0
16300.0	645878449999999.8
16310.0	646513799999999.8
16320.0	648934199999999.9
16330.0	638187199999999.9
16340.0	645164049999999.8
16350.0	622396999999999.9
16360.0	652791249999999.9
16370.0	659743700000000.0
16380.0	660580024999999.9
16390.0	662334774999999.9
16400.0	662873650000000.0
16410.0	666193574999999.8
16420.0	662829249999999.9
16430.0	669347124999999.9
16440.0	672319199999999.8
16450.0	670572374999999.8
16460.0	672390399999999.9
16470.0	676824474999999.9
16480.0	675666874999999.9
16490.0	679324699999999.9
16500.0	682222899999999.9
16510.0	684188475000000.0
16520.0	686475599999999.9
16530.0	688652099999999.9
16540.0	690518499999999.9
