# Flux units: erg / (cm m2 s)
# Wavelength units: Angstrom
wave	flux
9000.0	134246299999999.95
9010.0	135240649999999.98
9020.0	136962274999999.97
9030.0	138038849999999.97
9040.0	139308224999999.98
9050.0	140605599999999.97
9060.0	141726574999999.97
9070.0	142931174999999.97
9080.0	144154649999999.97
9090.0	145362199999999.97
9100.0	146622949999999.97
9110.0	147979549999999.94
9120.0	149340150000000.0
9130.0	150600324999999.94
9140.0	151932899999999.94
9150.0	152935524999999.97
9160.0	154172000000000.0
9170.0	155489699999999.97
9180.0	157118149999999.97
9190.0	158144999999999.97
9200.0	159315774999999.94
9210.0	160621674999999.97
9220.0	162256274999999.97
9230.0	163908499999999.97
9240.0	165263324999999.97
9250.0	166075899999999.94
9260.0	166626574999999.94
9270.0	167666799999999.97
9280.0	166592500000000.0
9290.0	165429299999999.97
9300.0	171952299999999.97
9310.0	168717124999999.97
9320.0	175752350000000.0
9330.0	174985424999999.97
9340.0	171904899999999.97
9350.0	168956324999999.97
9360.0	175701749999999.97
9370.0	173453949999999.97
9380.0	183310124999999.97
9390.0	185378599999999.97
9400.0	187244799999999.94
9410.0	189028524999999.97
9420.0	190059899999999.94
9430.0	192244049999999.97
9440.0	193899424999999.94
9450.0	195187474999999.97
9460.0	196095624999999.94
9470.0	191207149999999.97
9480.0	199450549999999.94
9490.0	200881599999999.94
9500.0	194757124999999.97
9510.0	203445074999999.94
9520.0	204607399999999.97
9530.0	206472749999999.94
9540.0	209159449999999.97
9550.0	209801899999999.97
9560.0	203813174999999.94
9570.0	213884749999999.94
9580.0	215294249999999.94
9590.0	217458699999999.94
9600.0	213568399999999.97
9610.0	220606099999999.97
9620.0	213066499999999.94
9630.0	223965799999999.94
9640.0	224482524999999.97
9650.0	225659724999999.94
9660.0	229050074999999.97
9670.0	230107649999999.94
9680.0	232716349999999.9
9690.0	234329299999999.9
9700.0	236021999999999.97
9710.0	237712449999999.94
9720.0	239188999999999.94
9730.0	240243924999999.94
9740.0	242262924999999.94
9750.0	244073324999999.94
9760.0	246578049999999.94
9770.0	248701499999999.9
9780.0	250554674999999.88
9790.0	251844174999999.94
9800.0	253477024999999.9
9810.0	255890524999999.9
9820.0	257989599999999.94
9830.0	259912024999999.97
9840.0	261533149999999.9
9850.0	263301224999999.97
9860.0	264457574999999.97
9870.0	267210424999999.9
9880.0	267668574999999.97
9890.0	270298624999999.94
9900.0	272820374999999.94
9910.0	275106949999999.9
9920.0	276839074999999.9
9930.0	278725099999999.94
9940.0	279980249999999.88
9950.0	283042049999999.9
9960.0	284759874999999.9
9970.0	287194324999999.9
9980.0	288819249999999.9
9990.0	290536524999999.94
10000.0	292281724999999.94
10010.0	294561899999999.94
10020.0	296620799999999.94
10030.0	298538799999999.94
10040.0	300332199999999.94
10050.0	302988099999999.9
10060.0	304912699999999.9
10070.0	306920924999999.94
10080.0	308870874999999.94
10090.0	311047574999999.94
10100.0	313329524999999.94
10110.0	315319299999999.94
10120.0	317433349999999.94
10130.0	319595924999999.9
10140.0	321940524999999.94
10150.0	323892799999999.9
10160.0	326137999999999.9
10170.0	328265949999999.94
10180.0	330370524999999.9
10190.0	332660149999999.94
10200.0	334811724999999.9
10210.0	337132724999999.94
10220.0	339312699999999.94
10230.0	341350549999999.94
10240.0	343855874999999.94
10250.0	345800574999999.9
10260.0	348157224999999.9
10270.0	350429799999999.94
10280.0	352858799999999.94
10290.0	354997500000000.0
10300.0	357437949999999.94
10310.0	359563549999999.94
10320.0	361743999999999.94
10330.0	364104224999999.8
10340.0	366607149999999.9
10350.0	368787224999999.9
10360.0	371194199999999.94
10370.0	373444349999999.94
10380.0	375838349999999.9
10390.0	378247299999999.94
10400.0	380540599999999.94
10410.0	383023724999999.8
10420.0	385279274999999.94
10430.0	387458974999999.8
10440.0	389763149999999.9
10450.0	392442274999999.9
10460.0	394662374999999.9
10470.0	397352424999999.9
10480.0	399394199999999.94
10490.0	401629349999999.9
10500.0	403506649999999.9
10510.0	406398674999999.94
10520.0	409284949999999.94
10530.0	411482774999999.94
10540.0	414024324999999.94
10550.0	416080275000000.0
10560.0	418842524999999.8
10570.0	421261474999999.9
10580.0	423838999999999.8
10590.0	425991599999999.9
10600.0	428377374999999.8
10610.0	431718749999999.9
10620.0	434736224999999.8
10630.0	437674249999999.94
10640.0	440505499999999.8
10650.0	442642300000000.0
10660.0	445477300000000.0
10670.0	447869624999999.9
10680.0	450480899999999.8
10690.0	453681574999999.94
10700.0	456063749999999.9
10710.0	458749849999999.9
10720.0	461557649999999.94
10730.0	464275349999999.9
10740.0	466471949999999.9
10750.0	469651249999999.9
10760.0	472280999999999.8
10770.0	474680199999999.8
10780.0	477337574999999.9
10790.0	480590824999999.94
10800.0	483087724999999.9
10810.0	486156074999999.9
10820.0	488652599999999.9
10830.0	491389749999999.8
10840.0	494055649999999.8
10850.0	496850274999999.94
10860.0	499545924999999.9
10870.0	502142000000000.0
10880.0	505330799999999.9
10890.0	507692599999999.9
10900.0	509801599999999.8
10910.0	513128024999999.9
10920.0	515703949999999.8
10930.0	517223099999999.8
10940.0	520129924999999.8
10950.0	523602399999999.9
10960.0	525098049999999.94
10970.0	526913349999999.94
10980.0	526259924999999.94
10990.0	528569274999999.94
11000.0	537412274999999.75
11010.0	526504449999999.9
11020.0	541119899999999.8
11030.0	534784949999999.9
11040.0	547865849999999.75
11050.0	548648899999999.75
11060.0	552155624999999.9
11070.0	554751649999999.8
11080.0	557560074999999.9
11090.0	565164924999999.6
11100.0	566770974999999.9
11110.0	565982949999999.9
11120.0	572339874999999.9
11130.0	574425924999999.9
11140.0	575051874999999.9
11150.0	525199349999999.94
11160.0	571568374999999.9
11170.0	571223849999999.9
11180.0	586913199999999.9
11190.0	578945449999999.8
11200.0	531948899999999.9
11210.0	591582474999999.9
11220.0	555795724999999.94
11230.0	597533274999999.9
11240.0	582039349999999.9
11250.0	569143900000000.0
11260.0	598939774999999.9
11270.0	594673399999999.9
11280.0	619039524999999.8
11290.0	624214549999999.9
11300.0	624968249999999.9
11310.0	614378499999999.9
11320.0	632965949999999.9
11330.0	636478724999999.9
11340.0	634324999999999.9
11350.0	571645924999999.9
11360.0	631798449999999.9
11370.0	646213924999999.9
11380.0	644474199999999.8
11390.0	650831100000000.0
11400.0	658126924999999.8
11410.0	657468750000000.0
11420.0	651891849999999.9
11430.0	660422299999999.8
11440.0	642617624999999.9
11450.0	668422199999999.9
11460.0	667433074999999.9
11470.0	679752474999999.9
11480.0	649351600000000.0
11490.0	683094174999999.9
11500.0	633699099999999.9
11510.0	695788649999999.8
11520.0	699764374999999.8
11530.0	701314399999999.8
11540.0	696855899999999.8
11550.0	696647549999999.9
11560.0	711537349999999.8
11570.0	702631349999999.9
11580.0	706765124999999.9
11590.0	723148149999999.8
11600.0	693714849999999.8
11610.0	724506299999999.9
11620.0	733164999999999.8
11630.0	732366674999999.8
11640.0	679711449999999.9
11650.0	737660849999999.8
11660.0	717447174999999.9
11670.0	748995049999999.8
11680.0	752707524999999.9
11690.0	750869349999999.8
11700.0	741691324999999.9
11710.0	757689524999999.9
11720.0	767069599999999.9
11730.0	707994499999999.9
11740.0	765125474999999.8
11750.0	771564949999999.8
11760.0	779941124999999.9
11770.0	780015024999999.9
11780.0	760848999999999.8
11790.0	790323499999999.8
11800.0	788111299999999.9
11810.0	792025849999999.8
11820.0	793628524999999.8
11830.0	806311624999999.8
11840.0	808451774999999.8
11850.0	796922999999999.8
11860.0	806744424999999.9
11870.0	813954424999999.9
11880.0	822201899999999.9
11890.0	825995449999999.8
11900.0	829725399999999.8
11910.0	835074574999999.8
11920.0	837628224999999.9
11930.0	842948024999999.9
11940.0	844068199999999.8
11950.0	849230049999999.9
11960.0	853151174999999.8
11970.0	856842100000000.0
11980.0	851950349999999.9
11990.0	859255924999999.9
12000.0	868261074999999.9
12010.0	872921049999999.8
12020.0	873890099999999.8
12030.0	878123724999999.9
12040.0	881051349999999.9
12050.0	887924099999999.8
12060.0	891251800000000.0
12070.0	894079399999999.8
12080.0	898310999999999.9
12090.0	901260174999999.9
12100.0	905633624999999.9
12110.0	910438549999999.9
12120.0	911961349999999.8
12130.0	915385224999999.8
12140.0	919454524999999.6
12150.0	923586349999999.8
12160.0	929449149999999.8
12170.0	932717850000000.0
12180.0	934549999999999.8
12190.0	940970924999999.8
12200.0	942382274999999.8
12210.0	948473874999999.8
12220.0	950989324999999.6
12230.0	955434799999999.5
12240.0	959015824999999.9
12250.0	964662374999999.6
12260.0	967833599999999.9
12270.0	971852199999999.8
12280.0	974991599999999.8
12290.0	977700199999999.8
12300.0	983842274999999.8
12310.0	985717449999999.6
12320.0	990662474999999.6
12330.0	994089974999999.6
12340.0	999080374999999.6
12350.0	1003233999999999.8
12360.0	1007800249999999.6
12370.0	1010649999999999.8
12380.0	1015372499999999.6
12390.0	1019060249999999.9
12400.0	1023233249999999.8
12410.0	1027131249999999.6
12420.0	1031278749999999.8
12430.0	1035142000000000.0
12440.0	1039023999999999.9
12450.0	1043219999999999.5
12460.0	1046708249999999.9
12470.0	1050447749999999.8
12480.0	1054875999999999.8
12490.0	1059253999999999.9
12500.0	1062737499999999.8
12510.0	1067028499999999.6
12520.0	1071025999999999.8
12530.0	1075043999999999.9
12540.0	1076039999999999.9
12550.0	1082868499999999.8
12560.0	1087367499999999.8
12570.0	1091442000000000.0
12580.0	1095471999999999.8
12590.0	1099073249999999.6
12600.0	1103508749999999.5
12610.0	1107639999999999.6
12620.0	1111729999999999.8
12630.0	1115896499999999.8
12640.0	1119891499999999.9
12650.0	1124148999999999.6
12660.0	1127654999999999.8
12670.0	1130970249999999.5
12680.0	1135993249999999.8
12690.0	1141236500000000.0
12700.0	1145249000000000.0
12710.0	1147368999999999.8
12720.0	1151597000000000.0
12730.0	1156912999999999.8
12740.0	1160383999999999.8
12750.0	1165737999999999.5
12760.0	1167891999999999.8
12770.0	1173819999999999.8
12780.0	1177609999999999.8
12790.0	1181476249999999.8
12800.0	1185223999999999.5
12810.0	1189116999999999.8
12820.0	1194952749999999.8
12830.0	1194689999999999.5
12840.0	1202681999999999.8
12850.0	1202316000000000.0
12860.0	1211157999999999.5
12870.0	1214513999999999.8
12880.0	1220113999999999.8
12890.0	1223281749999999.8
12900.0	1224844249999999.8
12910.0	1228586000000000.0
12920.0	1232684000000000.0
12930.0	1239800000000000.0
12940.0	1243682499999999.8
12950.0	1234245500000000.0
12960.0	1239465749999999.8
12970.0	1255606750000000.0
12980.0	1262339499999999.5
12990.0	1251328499999999.5
13000.0	1271010749999999.5
13010.0	1275264249999999.8
13020.0	1279234999999999.5
13030.0	1277719499999999.5
13040.0	1287067999999999.5
13050.0	1291816000000000.0
13060.0	1296658749999999.8
13070.0	1297707249999999.5
13080.0	1304073999999999.8
13090.0	1305953499999999.8
13100.0	1311002499999999.8
13110.0	1318259999999999.8
13120.0	1318115999999999.8
13130.0	1323821999999999.8
13140.0	1325519249999999.8
13150.0	1331459249999999.5
13160.0	1331273499999999.5
13170.0	1342379499999999.8
13180.0	1346488249999999.5
13190.0	1342088499999999.5
13200.0	1355287749999999.8
13210.0	1359174749999999.5
13220.0	1363719249999999.5
13230.0	1320560499999999.8
13240.0	1370297499999999.5
13250.0	1375387249999999.8
13260.0	1372348999999999.5
13270.0	1378351750000000.0
13280.0	1373272999999999.8
13290.0	1385685999999999.8
13300.0	1398707999999999.5
13310.0	1395342249999999.8
13320.0	1381322999999999.5
13330.0	1385057999999999.8
13340.0	1400110249999999.8
13350.0	1254886499999999.5
13360.0	1377315199999999.5
13370.0	1163800499999999.5
13380.0	1289816749999999.8
13390.0	1289160149999999.8
13400.0	1402777449999999.8
13410.0	1393385999999999.8
13420.0	1225624999999999.8
13430.0	1416509249999999.8
13440.0	1231250949999999.5
13450.0	1061801949999999.8
13460.0	1413621574999999.5
13470.0	1200558274999999.5
13480.0	1335588649999999.2
13490.0	1342571449999999.5
13500.0	1208570652499999.8
13510.0	1353033207499999.8
13520.0	989370149999999.8
13530.0	1447023749999999.5
13540.0	1167849649999999.8
13550.0	1046325059999999.6
13560.0	1246837399999999.5
13570.0	1371621849999999.8
13580.0	1284221699999999.5
13590.0	1011930749999999.9
13600.0	1473275499999999.5
13610.0	1470453249999999.8
13620.0	1221705349999999.8
13630.0	1125446749999999.6
13640.0	1249512049999999.5
13650.0	1365230749999999.5
13660.0	1452288249999999.8
13670.0	1387563899999999.8
13680.0	1319686349999999.8
13690.0	1225916674999999.8
13700.0	1304041574999999.8
13710.0	1441909749999999.8
13720.0	1442907249999999.5
13730.0	1565541999999999.5
13740.0	1248264449999999.8
13750.0	1359594249999999.8
13760.0	1410350249999999.5
13770.0	1506313499999999.5
13780.0	1550784999999999.5
13790.0	1580192999999999.5
13800.0	1586196499999999.8
13810.0	1382586749999999.5
13820.0	1599386499999999.8
13830.0	1374120099999999.2
13840.0	1517917749999999.8
13850.0	1569983499999999.5
13860.0	1365299474999999.8
13870.0	1509945674999999.8
13880.0	1523309749999999.5
13890.0	1272759629999999.8
13900.0	1352437849999999.5
13910.0	1428666749999999.5
13920.0	1607768999999999.5
13930.0	1451216899999999.5
13940.0	1567643499999999.5
13950.0	1124222669999999.6
13960.0	1478673549999999.5
13970.0	1338323349999999.8
13980.0	1578342499999999.8
13990.0	1668448499999999.2
14000.0	1444908249999999.5
14010.0	1561541749999999.8
14020.0	1623387249999999.8
14030.0	1591921499999999.5
14040.0	1255956824999999.8
14050.0	1241432304999999.8
14060.0	1653340749999999.5
14070.0	1588786999999999.8
14080.0	1396693999999999.5
14090.0	1628294499999999.8
14100.0	1577826499999999.8
14110.0	1731449999999999.5
14120.0	1449975699999999.8
14130.0	1647536099999999.8
14140.0	1685581074999999.8
14150.0	1443008274999999.2
14160.0	1434569599999999.8
14170.0	1699117249999999.5
14180.0	1194783549999999.8
14190.0	1453685399999999.5
14200.0	1334780199999999.5
14210.0	1545849249999999.5
14220.0	1558930499999999.5
14230.0	1483199699999999.5
14240.0	1388209299999999.8
14250.0	1569892949999999.5
14260.0	1357282974999999.8
14270.0	1625216474999999.5
14280.0	1460887924999999.8
14290.0	1359604849999999.8
14300.0	1653091474999999.5
14310.0	1534872499999999.5
14320.0	1782727999999999.5
14330.0	1664700749999999.5
14340.0	1731948999999999.5
14350.0	1787392249999999.8
14360.0	1727531749999999.8
14370.0	1777681999999999.5
14380.0	1515819199999999.8
14390.0	1533197924999999.5
14400.0	1728140274999999.8
14410.0	1689947249999999.5
14420.0	1600190999999999.8
14430.0	1846675749999999.2
14440.0	1752581249999999.5
14450.0	1637420024999999.5
14460.0	1752955324999999.8
14470.0	1826986749999999.5
14480.0	1810093999999999.5
14490.0	1885380749999999.2
14500.0	1848513524999999.5
14510.0	1451355424999999.8
14520.0	1896095999999999.5
14530.0	1867693999999999.8
14540.0	1775251499999999.8
14550.0	1684019849999999.8
14560.0	1712194850000000.0
14570.0	1858509999999999.2
14580.0	1939664749999999.5
14590.0	1904273999999999.5
14600.0	1945782999999999.8
14610.0	1943089999999999.8
14620.0	1793716749999999.5
14630.0	1751312000000000.0
14640.0	1968757249999999.8
14650.0	1825659499999999.8
14660.0	1824967249999999.2
14670.0	1925943249999999.2
14680.0	1830036249999999.5
14690.0	1809084249999999.5
14700.0	1992794749999999.8
14710.0	1961907499999999.2
14720.0	2003595249999999.2
14730.0	1880888249999999.0
14740.0	1921947249999999.5
14750.0	1925620499999999.8
14760.0	1890853249999999.8
14770.0	2002606249999999.5
14780.0	2006231499999999.5
14790.0	1955080749999999.5
14800.0	2015455249999999.8
14810.0	2054888249999999.5
14820.0	2006312999999999.2
14830.0	1868545249999999.5
14840.0	2080690999999999.2
14850.0	2030534749999999.5
14860.0	2001039749999999.5
14870.0	2068715249999999.8
14880.0	1966691999999999.8
14890.0	2054269249999999.8
14900.0	1935749999999999.0
14910.0	1967263250000000.0
14920.0	2007902249999999.8
14930.0	2105875499999999.2
14940.0	2081589499999999.0
14950.0	2142699499999999.8
14960.0	2073073750000000.0
14970.0	2122341499999999.5
14980.0	1818738249999999.5
14990.0	2153804749999999.2
15000.0	2138105499999999.5
15010.0	2062251999999999.5
15020.0	2055754999999999.5
15030.0	2172020249999999.5
15040.0	2117778499999999.5
15050.0	2156641249999999.5
15060.0	2186330749999999.5
15070.0	2123075750000000.0
15080.0	2175572249999999.8
15090.0	2164604999999999.5
15100.0	2169757749999999.2
15110.0	2145252999999999.8
15120.0	2217921750000000.0
15130.0	2204079249999999.2
15140.0	2156895249999999.5
15150.0	2232116499999999.0
15160.0	2230837499999999.5
15170.0	2197985749999999.8
15180.0	2233477749999999.5
15190.0	2241314499999999.5
15200.0	2250017249999999.2
15210.0	2270387750000000.0
15220.0	2229171499999999.5
15230.0	2287467749999999.0
15240.0	2273327500000000.0
15250.0	2250544999999999.5
15260.0	2286707249999999.5
15270.0	2256828249999999.5
15280.0	2226063499999999.2
15290.0	2295869249999999.0
15300.0	2239213249999999.2
15310.0	2305961999999999.5
15320.0	2228071500000000.0
15330.0	2325979500000000.0
15340.0	2337765999999999.5
15350.0	2297888749999999.5
15360.0	2321042749999999.0
15370.0	2334879999999999.5
15380.0	2349510749999999.5
15390.0	2356981749999999.5
15400.0	2349536249999999.5
15410.0	2367980499999999.5
15420.0	2367608749999999.5
15430.0	2370748499999999.5
15440.0	2355681749999999.5
15450.0	2378807499999999.5
15460.0	2394154499999999.0
15470.0	2391272250000000.0
15480.0	2399980499999999.5
15490.0	2393793749999999.0
15500.0	2411741749999999.5
15510.0	2404706499999999.5
15520.0	2420637500000000.0
15530.0	2419540250000000.0
15540.0	2433346999999999.5
15550.0	2427090249999999.5
15560.0	2439359499999999.5
15570.0	2440068499999999.5
15580.0	2423708999999999.0
15590.0	2451926500000000.0
15600.0	2445118999999999.5
15610.0	2457164499999999.5
15620.0	2464890249999999.5
15630.0	2445559499999999.5
15640.0	2476035499999999.5
15650.0	2473493749999999.5
15660.0	2482724499999999.5
15670.0	2497902749999999.5
15680.0	2500211999999999.5
15690.0	2492710499999999.5
15700.0	2512470999999999.5
15710.0	2512623999999999.0
15720.0	2478001249999999.5
15730.0	2519575499999999.5
15740.0	2530037749999999.5
15750.0	2518982000000000.0
15760.0	2540977999999999.5
15770.0	2548003999999999.5
15780.0	2543936999999999.0
15790.0	2542607749999999.5
15800.0	2557712249999999.5
15810.0	2548512249999999.5
15820.0	2566418749999999.0
15830.0	2572768000000000.0
15840.0	2578547999999999.5
15850.0	2583301249999999.5
15860.0	2581083999999999.0
15870.0	2584826749999999.5
15880.0	2596573999999999.0
15890.0	2601208499999999.0
15900.0	2604059249999999.0
15910.0	2604516249999999.5
15920.0	2613671999999999.5
15930.0	2616991999999999.0
15940.0	2624219999999999.0
15950.0	2630120499999999.5
15960.0	2630435499999999.0
15970.0	2637697999999999.0
15980.0	2639982249999999.5
15990.0	2645917749999999.5
16000.0	2654609999999999.5
16010.0	2654617999999999.5
16020.0	2662111249999999.5
16030.0	2660442999999999.5
16040.0	2670396749999999.0
16050.0	2674556999999999.0
16060.0	2679324250000000.0
16070.0	2676738499999999.5
16080.0	2690137249999999.5
16090.0	2692170249999999.5
16100.0	2691707499999999.5
16110.0	2701942249999999.5
16120.0	2708632749999999.0
16130.0	2709261249999999.5
16140.0	2717691999999999.5
16150.0	2718951999999999.5
16160.0	2724112999999999.5
16170.0	2730082999999999.0
16180.0	2734326749999999.0
16190.0	2741255249999999.0
16200.0	2744097999999999.5
16210.0	2746784499999999.0
16220.0	2754071499999999.0
16230.0	2758039999999999.0
16240.0	2755678999999999.5
16250.0	2765349999999999.0
16260.0	2767112999999999.0
16270.0	2772530249999999.5
16280.0	2774149749999999.5
16290.0	2782444499999999.5
16300.0	2791095499999999.5
16310.0	2789977999999999.5
16320.0	2795119999999999.0
16330.0	2798983999999999.0
16340.0	2787824249999999.5
16350.0	2794656750000000.0
16360.0	2814848999999999.5
16370.0	2822279999999999.0
16380.0	2824719249999999.5
16390.0	2830250749999999.0
16400.0	2830267249999999.0
16410.0	2837920249999999.5
16420.0	2827452499999999.5
16430.0	2844627999999999.5
16440.0	2852005749999999.5
16450.0	2847302249999999.5
16460.0	2855001999999999.5
16470.0	2865170999999998.5
16480.0	2864516999999999.0
