# Flux units: erg / (cm m2 s)
# Wavelength units: Angstrom
wave	flux
9000.0	8286.957749999998
9010.0	8300.0855
9020.0	8597.468749999998
9030.0	8742.489
9040.0	8898.444499999998
9050.0	9047.568249999998
9060.0	9211.305249999998
9070.0	9370.801499999998
9080.0	9527.878249999998
9090.0	9677.946
9100.0	9844.746999999998
9110.0	10016.522249999998
9120.0	10217.842499999997
9130.0	10390.554999999998
9140.0	10562.269999999999
9150.0	10687.025
9160.0	10814.225
9170.0	11054.802499999998
9180.0	11297.237499999997
9190.0	11433.732499999998
9200.0	11563.037499999999
9210.0	11807.379999999997
9220.0	12030.507499999998
9230.0	12300.199999999997
9240.0	12500.484999999999
9250.0	12645.399999999998
9260.0	12664.824999999995
9270.0	12910.259999999997
9280.0	12821.3275
9290.0	12344.051999999998
9300.0	13481.2225
9310.0	12323.433999999997
9320.0	14062.819999999998
9330.0	13340.483999999997
9340.0	12345.717999999999
9350.0	12026.734999999999
9360.0	13074.615499999998
9370.0	12493.371249999998
9380.0	15150.781249999998
9390.0	15680.107499999998
9400.0	16056.222499999998
9410.0	16269.547499999995
9420.0	16426.2575
9430.0	16909.582499999993
9440.0	17152.3475
9450.0	17314.444999999992
9460.0	17248.402499999993
9470.0	15775.359999999993
9480.0	17997.352499999997
9490.0	18304.229999999996
9500.0	15903.439999999997
9510.0	18801.039999999997
9520.0	18800.012499999993
9530.0	19145.772499999995
9540.0	20031.572499999995
9550.0	20053.131249999995
9560.0	17881.198749999996
9570.0	20754.372499999994
9580.0	21060.214999999997
9590.0	21531.059999999994
9600.0	20423.132499999992
9610.0	22308.462499999994
9620.0	20195.037499999995
9630.0	22981.929999999993
9640.0	22810.667499999996
9650.0	23198.357499999995
9660.0	23962.674999999996
9670.0	24040.594999999994
9680.0	24895.352499999994
9690.0	25145.545
9700.0	25556.93
9710.0	25900.377499999995
9720.0	25946.3975
9730.0	26419.997499999994
9740.0	26939.715
9750.0	26897.569999999985
9760.0	27882.149999999998
9770.0	28296.659999999993
9780.0	28768.78
9790.0	28979.009999999995
9800.0	29134.524999999994
9810.0	30037.63499999999
9820.0	30607.9325
9830.0	30985.169999999995
9840.0	31478.934999999994
9850.0	31809.972499999996
9860.0	32181.639999999992
9870.0	32847.01249999999
9880.0	33114.329999999994
9890.0	33662.182499999995
9900.0	34261.66249999999
9910.0	34881.06749999999
9920.0	35269.149999999994
9930.0	35779.22999999999
9940.0	36168.897499999985
9950.0	36904.97499999999
9960.0	37348.73249999999
9970.0	37950.727499999986
9980.0	38485.92499999999
9990.0	38980.88499999999
10000.0	39421.0225
10010.0	39937.63249999999
10020.0	40518.81
10030.0	41054.984999999986
10040.0	41547.212499999994
10050.0	42188.919999999984
10060.0	42733.78749999999
10070.0	43320.24499999999
10080.0	43820.634999999995
10090.0	44445.33499999999
10100.0	45075.55999999999
10110.0	45652.80999999998
10120.0	46215.98499999998
10130.0	46856.09499999999
10140.0	47470.45
10150.0	48099.81749999999
10160.0	48731.63749999998
10170.0	49365.17749999999
10180.0	49974.45249999999
10190.0	50643.999999999985
10200.0	51304.547499999986
10210.0	51963.767499999994
10220.0	52633.88749999999
10230.0	53306.88499999999
10240.0	53982.85
10250.0	54662.01249999998
10260.0	55361.259999999995
10270.0	56076.784999999996
10280.0	56783.645
10290.0	57504.687499999985
10300.0	58229.14749999999
10310.0	58950.55249999999
10320.0	59670.74
10330.0	60430.02499999999
10340.0	61194.609999999986
10350.0	61953.067499999976
10360.0	62725.32999999998
10370.0	63503.89999999998
10380.0	64280.3425
10390.0	65071.464999999975
10400.0	65874.96749999997
10410.0	66678.435
10420.0	67502.97249999999
10430.0	68319.21249999998
10440.0	69145.33499999998
10450.0	69984.67249999999
10460.0	70836.60999999999
10470.0	71688.21499999997
10480.0	72557.17499999999
10490.0	73426.04499999998
10500.0	74287.88749999998
10510.0	75199.98749999999
10520.0	76081.68749999999
10530.0	76992.42999999998
10540.0	77922.90499999998
10550.0	78842.89999999998
10560.0	79777.87999999999
10570.0	80723.51249999998
10580.0	81666.22999999998
10590.0	82608.60999999999
10600.0	83344.11499999999
10610.0	84570.38999999997
10620.0	85687.61749999998
10630.0	86975.85999999999
10640.0	88024.29749999999
10650.0	89014.88249999996
10660.0	90070.99999999999
10670.0	90893.81749999999
10680.0	91986.10249999996
10690.0	93188.59499999997
10700.0	94070.81999999996
10710.0	95292.84749999999
10720.0	96359.72999999997
10730.0	97518.72249999999
10740.0	98535.98749999997
10750.0	99714.15499999998
10760.0	100882.14999999998
10770.0	101917.79999999999
10780.0	102794.19999999997
10790.0	104275.34999999999
10800.0	105310.44999999997
10810.0	106627.94999999997
10820.0	107816.54999999996
10830.0	109034.87499999997
10840.0	110201.64999999998
10850.0	111428.69999999997
10860.0	112611.27499999997
10870.0	113516.12499999997
10880.0	115161.67499999997
10890.0	116400.24999999994
10900.0	117087.92499999997
10910.0	118699.57499999998
10920.0	119723.37499999997
10930.0	120708.77499999995
10940.0	121833.94999999998
10950.0	123691.09999999998
10960.0	124043.69999999997
10970.0	125685.69999999997
10980.0	125057.62499999997
10990.0	126565.92499999999
11000.0	130054.87499999997
11010.0	124216.66499999998
11020.0	131104.04999999996
11030.0	127521.22499999999
11040.0	133990.84999999998
11050.0	135008.54999999996
11060.0	135405.82499999998
11070.0	136670.39999999997
11080.0	137228.59999999998
11090.0	143023.37499999997
11100.0	142982.04999999996
11110.0	141487.84999999998
11120.0	146049.3
11130.0	143625.57499999998
11140.0	148084.05
11150.0	122144.68499999998
11160.0	138194.63249999998
11170.0	134602.99749999997
11180.0	153249.14999999997
11190.0	138234.65000000002
11200.0	110261.09749999999
11210.0	155703.1175
11220.0	133476.56749999995
11230.0	152881.42749999996
11240.0	136068.10499999998
11250.0	138202.60749999998
11260.0	150361.94249999995
11270.0	145192.62499999994
11280.0	169462.52499999994
11290.0	173547.44999999998
11300.0	171675.84999999995
11310.0	166766.34999999995
11320.0	179550.07499999998
11330.0	178446.94999999998
11340.0	170589.54249999995
11350.0	128788.27249999998
11360.0	174646.9
11370.0	185618.89999999997
11380.0	187122.65
11390.0	190736.77499999994
11400.0	194038.625
11410.0	194912.12499999997
11420.0	179249.87499999997
11430.0	191663.54999999996
11440.0	183570.29999999993
11450.0	197912.49999999994
11460.0	198709.29999999996
11470.0	204505.24749999994
11480.0	174351.3325
11490.0	205181.89499999993
11500.0	151597.51499999996
11510.0	215993.275
11520.0	214939.67499999996
11530.0	212232.97499999992
11540.0	207994.34999999995
11550.0	209005.07499999995
11560.0	220597.125
11570.0	211348.24999999997
11580.0	213301.87499999997
11590.0	229912.24999999994
11600.0	204885.83749999994
11610.0	231083.23749999996
11620.0	238725.6499999999
11630.0	239517.82499999995
11640.0	194118.59999999998
11650.0	238471.4
11660.0	224846.74999999994
11670.0	249859.32499999992
11680.0	251640.17499999993
11690.0	248161.69999999992
11700.0	238313.57499999992
11710.0	254851.47499999998
11720.0	263104.9999999999
11730.0	220609.56999999995
11740.0	256426.49999999997
11750.0	264519.52499999997
11760.0	271867.79999999993
11770.0	274319.99999999994
11780.0	270652.67499999993
11790.0	280768.67499999993
11800.0	276795.225
11810.0	282066.425
11820.0	274864.32499999995
11830.0	291100.74999999994
11840.0	293429.84999999986
11850.0	287093.9249999999
11860.0	295139.42499999993
11870.0	300143.42499999993
11880.0	302951.19999999995
11890.0	305584.3999999999
11900.0	307740.79999999993
11910.0	312962.72500000003
11920.0	315465.57499999995
11930.0	318445.2499999999
11940.0	318724.8749999999
11950.0	324122.49999999994
11960.0	326518.6249999999
11970.0	329541.54999999993
11980.0	326963.57499999995
11990.0	326739.2499999999
12000.0	338782.62499999994
12010.0	341790.92499999993
12020.0	341410.175
12030.0	346271.0249999999
12040.0	347117.5749999999
12050.0	353758.7249999999
12060.0	356528.67499999993
12070.0	359213.0999999999
12080.0	362371.9999999998
12090.0	364572.5999999999
12100.0	368649.49999999994
12110.0	371709.82499999995
12120.0	371481.85
12130.0	376793.8749999999
12140.0	376926.67499999993
12150.0	380879.4499999999
12160.0	387380.7249999999
12170.0	390825.5999999999
12180.0	393783.54999999993
12190.0	397721.4499999999
12200.0	399024.3999999999
12210.0	403742.1749999999
12220.0	406162.97499999986
12230.0	409799.2249999999
12240.0	412602.99999999994
12250.0	417120.02499999997
12260.0	420482.84999999986
12270.0	424136.7749999999
12280.0	427145.8499999999
12290.0	427762.24999999994
12300.0	434474.54999999993
12310.0	436496.1499999999
12320.0	441254.14999999997
12330.0	443969.825
12340.0	448846.7
12350.0	452669.99999999994
12360.0	455920.75
12370.0	459003.49999999977
12380.0	463523.0249999999
12390.0	466746.4249999999
12400.0	470707.9249999999
12410.0	474150.22499999986
12420.0	478160.4999999999
12430.0	481915.8749999999
12440.0	485762.3249999999
12450.0	489692.77499999985
12460.0	493216.9999999998
12470.0	497089.39999999997
12480.0	501030.0249999999
12490.0	504664.02499999997
12500.0	508611.5749999999
12510.0	512747.7
12520.0	516798.1749999998
12530.0	520788.3499999999
12540.0	521321.59999999986
12550.0	528544.7249999999
12560.0	532508.45
12570.0	536789.6499999999
12580.0	540976.4499999998
12590.0	544798.825
12600.0	548972.9999999999
12610.0	553434.3999999998
12620.0	557460.1499999999
12630.0	561640.95
12640.0	565775.0249999998
12650.0	569912.6499999999
12660.0	574051.7499999999
12670.0	578207.0749999998
12680.0	582886.1749999999
12690.0	587429.9999999998
12700.0	591513.1249999999
12710.0	594200.3999999999
12720.0	597574.1999999997
12730.0	603955.9999999998
12740.0	607688.3249999997
12750.0	613827.0749999997
12760.0	616311.2249999999
12770.0	622520.2999999998
12780.0	627323.1249999999
12790.0	631489.4249999998
12800.0	634234.9249999998
12810.0	639262.3499999999
12820.0	644739.4999999999
12830.0	643979.3499999999
12840.0	654406.4749999999
12850.0	652606.1499999999
12860.0	663855.2249999999
12870.0	668009.1499999999
12880.0	672908.4999999999
12890.0	676970.8249999998
12900.0	680794.6499999998
12910.0	683999.9999999999
12920.0	686819.8499999999
12930.0	693414.2499999999
12940.0	700290.5499999997
12950.0	684219.3999999998
12960.0	693449.4749999997
12970.0	709760.4999999999
12980.0	722152.2749999999
12990.0	712521.9249999999
13000.0	731542.3999999998
13010.0	734770.2999999998
13020.0	741665.4249999998
13030.0	731086.7749999999
13040.0	748203.7749999998
13050.0	757374.2249999997
13060.0	763587.0249999998
13070.0	762420.8249999998
13080.0	773145.7249999999
13090.0	772576.9499999997
13100.0	782072.2999999999
13110.0	789303.0249999998
13120.0	786168.0999999999
13130.0	797497.5749999998
13140.0	791486.1
13150.0	799025.6999999997
13160.0	805330.25
13170.0	820345.7499999999
13180.0	826314.9999999998
13190.0	794880.8999999999
13200.0	833136.6999999997
13210.0	839056.0499999998
13220.0	848815.0999999996
13230.0	749632.2999999998
13240.0	849054.2499999999
13250.0	861347.0749999998
13260.0	860164.1749999998
13270.0	868744.4499999997
13280.0	873172.7749999999
13290.0	850672.9749999999
13300.0	887858.7999999998
13310.0	882718.6999999998
13320.0	825774.2999999999
13330.0	877993.0499999997
13340.0	889175.1999999998
13350.0	812106.3499999999
13360.0	833783.9499999997
13370.0	653687.4999999999
13380.0	685198.3499999999
13390.0	755090.6999999998
13400.0	818427.4249999998
13410.0	809717.2249999997
13420.0	628889.9749999999
13430.0	840253.6499999999
13440.0	712210.6599999999
13450.0	589590.9399999998
13460.0	888402.2799999997
13470.0	695983.0349999998
13480.0	658495.5624999999
13490.0	749022.3624999998
13500.0	688587.6182499999
13510.0	683974.3597499998
13520.0	454906.20499999984
13530.0	795065.9749999997
13540.0	553201.975
13550.0	492081.39479999983
13560.0	736288.4369999998
13570.0	690554.5249999997
13580.0	625626.1349999998
13590.0	485686.27699999994
13600.0	851946.1749999997
13610.0	730477.9249999997
13620.0	462181.0574999998
13630.0	470383.3174999999
13640.0	763493.6129999998
13650.0	605673.1899999998
13660.0	791279.075
13670.0	757954.1499999997
13680.0	571026.1650749998
13690.0	747725.5305249998
13700.0	678253.7249999999
13710.0	795559.6999999997
13720.0	862082.0749999998
13730.0	1012936.4499999997
13740.0	532156.6549999998
13750.0	738098.8249999998
13760.0	807956.1749999998
13770.0	857119.3749999998
13780.0	1063672.7
13790.0	1052557.3499999996
13800.0	1100023.9524999997
13810.0	599461.1674999999
13820.0	1068032.8249999997
13830.0	679002.7849999998
13840.0	1007992.5999999997
13850.0	904701.1749999998
13860.0	764889.40175
13870.0	998653.3752499998
13880.0	870862.6749999998
13890.0	870135.3169999997
13900.0	964657.7529999998
13910.0	789096.1
13920.0	932131.4999999998
13930.0	894517.6949999998
13940.0	992114.2000000001
13950.0	693700.1567999999
13960.0	770558.7509999999
13970.0	783370.4319999999
13980.0	993638.6999999996
13990.0	1192237.1499999997
14000.0	763026.4549999997
14010.0	785207.7649999998
14020.0	1115916.6999999997
14030.0	1113431.15
14040.0	655925.5949999997
14050.0	717423.7903999998
14060.0	1135240.0
14070.0	1042053.4749999997
14080.0	801821.1749999999
14090.0	989586.1
14100.0	961933.0499999998
14110.0	1334055.7499999998
14120.0	835996.4999999999
14130.0	1158170.1999999997
14140.0	1116412.5844999999
14150.0	953513.7414999997
14160.0	872258.9599999998
14170.0	1263263.5524999995
14180.0	616591.4174999999
14190.0	805341.2499999999
14200.0	906698.5854999997
14210.0	1022216.1325
14220.0	961588.6999999997
14230.0	808656.6249999999
14240.0	840681.0049999997
14250.0	1095098.9374999995
14260.0	737051.0099999998
14270.0	1171671.9424999997
14280.0	807390.3349999997
14290.0	771433.8324999998
14300.0	1262294.5724999995
14310.0	1152735.2349999996
14320.0	1254565.7749999997
14330.0	1186064.3999999997
14340.0	1012468.4999999997
14350.0	1363378.5499999998
14360.0	1256909.5499999998
14370.0	1325750.25
14380.0	1026667.6599999998
14390.0	1082874.2974999999
14400.0	1150019.2924999995
14410.0	1226575.4749999999
14420.0	1103000.7249999996
14430.0	1526109.4999999998
14440.0	1396540.4249999998
14450.0	1172062.6499999994
14460.0	1118344.3749999998
14470.0	1461313.7499999998
14480.0	1431072.4499999997
14490.0	1640175.75
14500.0	1390426.6424999996
14510.0	809287.8474999998
14520.0	1670740.2499999995
14530.0	1640116.9999999995
14540.0	1441917.7499999998
14550.0	1387381.7499999998
14560.0	1365519.7999999998
14570.0	1554233.0999999996
14580.0	1801028.4999999993
14590.0	1769005.7499999998
14600.0	1809174.9999999995
14610.0	1792961.4999999995
14620.0	1516073.45
14630.0	1197271.2499999998
14640.0	1839343.7499999998
14650.0	1472177.7999999996
14660.0	1477872.9249999996
14670.0	1702162.2749999997
14680.0	1597104.7499999995
14690.0	1491107.8499999996
14700.0	1766949.4999999995
14710.0	1783637.4999999998
14720.0	1853485.9499999993
14730.0	1515779.1499999997
14740.0	1716923.0
14750.0	1739150.4999999998
14760.0	1479577.4499999995
14770.0	1885737.2999999996
14780.0	1959620.2499999998
14790.0	1801641.9999999998
14800.0	1780301.4999999995
14810.0	1989711.499999999
14820.0	1882392.4999999993
14830.0	1616095.4499999995
14840.0	2040669.2499999998
14850.0	1952041.4999999998
14860.0	1922976.7499999998
14870.0	2002581.7499999998
14880.0	1950756.2499999995
14890.0	2045982.9999999993
14900.0	1746328.5499999996
14910.0	1832685.6499999997
14920.0	1784486.4499999997
14930.0	2139370.9999999995
14940.0	2011186.9999999993
14950.0	2226930.4999999995
14960.0	2070151.2499999995
14970.0	2141258.3249999993
14980.0	1423407.4749999999
14990.0	2263299.4999999995
15000.0	2271454.4999999995
15010.0	2047563.4999999993
15020.0	1880131.2499999995
15030.0	2260851.5
15040.0	2109911.7499999995
15050.0	2235729.4999999995
15060.0	2358953.249999999
15070.0	2208974.499999999
15080.0	2323386.2499999995
15090.0	2270796.4999999995
15100.0	2307292.2499999995
15110.0	2224537.9999999995
15120.0	2431971.5
15130.0	2369039.499999999
15140.0	2310628.2499999995
15150.0	2424906.999999999
15160.0	2451304.7499999995
15170.0	2387302.4999999995
15180.0	2467641.4999999995
15190.0	2438353.75
15200.0	2481431.5
15210.0	2550699.9999999995
15220.0	2449496.7499999995
15230.0	2594254.9999999995
15240.0	2569551.9999999995
15250.0	2504399.749999999
15260.0	2598079.7499999995
15270.0	2548439.499999999
15280.0	2487619.2499999995
15290.0	2648004.999999999
15300.0	2504966.7499999995
15310.0	2659992.2499999995
15320.0	2546862.5
15330.0	2698309.2499999995
15340.0	2729072.499999999
15350.0	2677502.75
15360.0	2732015.7499999995
15370.0	2750803.4999999995
15380.0	2765520.0
15390.0	2788125.999999999
15400.0	2781641.499999999
15410.0	2815484.9999999995
15420.0	2806985.7499999995
15430.0	2842793.7499999995
15440.0	2802951.75
15450.0	2861240.249999999
15460.0	2888567.7499999995
15470.0	2887862.249999999
15480.0	2919062.2499999995
15490.0	2914819.25
15500.0	2936096.2499999986
15510.0	2929361.2499999995
15520.0	2952433.499999999
15530.0	2973742.749999999
15540.0	3003346.999999999
15550.0	2979734.999999999
15560.0	3024169.2499999986
15570.0	3017111.499999999
15580.0	3051278.7499999995
15590.0	3073101.9999999986
15600.0	3068253.499999999
15610.0	3071401.999999999
15620.0	3109656.4999999995
15630.0	3114428.499999999
15640.0	3136766.499999999
15650.0	3124195.749999999
15660.0	3165939.999999999
15670.0	3188426.2499999995
15680.0	3197619.0
15690.0	3197930.7499999995
15700.0	3232033.999999999
15710.0	3239126.9999999995
15720.0	3199998.499999999
15730.0	3259519.2499999995
15740.0	3280413.4999999995
15750.0	3284101.999999999
15760.0	3314371.999999999
15770.0	3334265.999999999
15780.0	3340234.749999999
15790.0	3348147.7499999986
15800.0	3373077.4999999986
15810.0	3383989.7499999986
15820.0	3403896.249999999
15830.0	3408795.9999999995
15840.0	3434009.999999999
15850.0	3445087.9999999995
15860.0	3454060.0
15870.0	3458920.999999999
15880.0	3489400.9999999995
15890.0	3502476.249999999
15900.0	3515815.749999998
15910.0	3529606.749999999
15920.0	3545509.2499999986
15930.0	3563087.749999999
15940.0	3583646.0
15950.0	3592956.2499999986
15960.0	3605413.9999999995
15970.0	3618482.249999999
15980.0	3635611.75
15990.0	3655533.999999999
16000.0	3672831.999999999
16010.0	3681516.2499999995
16020.0	3701699.2499999986
16030.0	3698176.4999999986
16040.0	3732296.749999999
16050.0	3746503.249999999
16060.0	3762271.749999999
16070.0	3778770.249999999
16080.0	3789667.9999999995
16090.0	3810881.4999999986
16100.0	3806752.25
16110.0	3840846.2499999986
16120.0	3855898.9999999995
16130.0	3861023.999999999
16140.0	3888440.9999999995
16150.0	3893847.25
16160.0	3910891.75
16170.0	3924232.999999999
16180.0	3946845.2499999986
16190.0	3965980.7499999995
16200.0	3977415.999999998
16210.0	3943671.999999998
16220.0	4000865.249999998
16230.0	3973969.749999998
16240.0	3747348.999999999
16250.0	4042131.9999999995
16260.0	3619340.75
16270.0	4055846.499999999
16280.0	3435751.4499999993
16290.0	4029581.7499999986
16300.0	4041145.999999998
16310.0	4010462.4999999995
16320.0	4133562.2499999995
16330.0	3133064.749999999
16340.0	3919512.749999999
16350.0	3475475.3499999987
16360.0	4105170.799999999
16370.0	4245502.499999999
16380.0	4223443.75
16390.0	4209707.499999999
16400.0	4231403.749999999
16410.0	4310598.25
16420.0	4286114.999999999
16430.0	4284004.499999999
16440.0	4372712.499999999
16450.0	4344880.999999998
16460.0	4318168.749999999
16470.0	4378410.499999999
16480.0	4174204.999999999
16490.0	4232080.999999999
16500.0	4388289.249999999
16510.0	4406596.499999999
16520.0	4504819.999999999
16530.0	4524812.0
16540.0	4539428.0
16550.0	4368175.249999999
16560.0	4214081.499999998
16570.0	4000971.249999999
16580.0	4598639.749999999
16590.0	4495581.749999998
16600.0	4575294.499999999
16610.0	4618430.999999998
16620.0	4592400.999999999
16630.0	4607163.999999998
16640.0	4692254.999999998
16650.0	4574757.574999999
16660.0	3179996.374999999
16670.0	3205413.274999999
16680.0	3362437.4749999996
16690.0	4599269.749999999
16700.0	4624135.749999999
16710.0	4761755.499999999
16720.0	4698504.499999999
16730.0	4719126.749999999
16740.0	4871715.249999999
16750.0	4826944.499999999
16760.0	4914422.249999999
16770.0	4769323.499999999
16780.0	4060894.999999999
16790.0	4900892.749999999
