# Flux units: erg / (cm m2 s)
# Wavelength units: Angstrom
wave	flux
9000.0	41437127499999.984
9010.0	41736599999999.984
9020.0	42355004999999.984
9030.0	42784287499999.984
9040.0	43229449999999.99
9050.0	43668214999999.984
9060.0	44132252499999.99
9070.0	44587424999999.99
9080.0	45027507499999.984
9090.0	45471632499999.984
9100.0	45949074999999.99
9110.0	46441569999999.984
9120.0	46940187499999.984
9130.0	47406327499999.984
9140.0	47884209999999.99
9150.0	48277814999999.984
9160.0	48741482499999.984
9170.0	49241507499999.984
9180.0	49832487499999.984
9190.0	50258572499999.984
9200.0	50691314999999.99
9210.0	51221417499999.984
9220.0	51807079999999.984
9230.0	52390134999999.98
9240.0	52909652499999.99
9250.0	53289739999999.99
9260.0	53547414999999.984
9270.0	53983874999999.984
9280.0	53796942499999.984
9290.0	53376434999999.984
9300.0	55607089999999.98
9310.0	54342289999999.99
9320.0	56995677500000.0
9330.0	56727194999999.984
9340.0	55678344999999.984
9350.0	54374642499999.99
9360.0	56900214999999.99
9370.0	56094637499999.984
9380.0	59923880000000.0
9390.0	60725707500000.0
9400.0	61435957499999.98
9410.0	62090152499999.984
9420.0	62547384999999.984
9430.0	63370297499999.98
9440.0	64014577499999.984
9450.0	64524967499999.97
9460.0	64847674999999.99
9470.0	63022667499999.984
9480.0	66163599999999.984
9490.0	66727447499999.98
9500.0	64320004999999.99
9510.0	67838724999999.98
9520.0	68296837499999.98
9530.0	68953572499999.99
9540.0	70088367499999.97
9550.0	70307484999999.984
9560.0	67985952499999.99
9570.0	71905654999999.98
9580.0	72474282499999.98
9590.0	73352957499999.98
9600.0	72023927499999.98
9610.0	74687047500000.0
9620.0	71877252500000.0
9630.0	75985409999999.98
9640.0	76219609999999.97
9650.0	76797847499999.97
9660.0	77973492499999.98
9670.0	78481690000000.0
9680.0	79511802499999.98
9690.0	80148784999999.98
9700.0	80895227499999.97
9710.0	81517047499999.97
9720.0	82074359999999.97
9730.0	82658222499999.97
9740.0	83422774999999.98
9750.0	84086329999999.98
9760.0	85156657499999.98
9770.0	85958617499999.97
9780.0	86758020000000.0
9790.0	87345154999999.98
9800.0	87941959999999.98
9810.0	88954959999999.98
9820.0	89839447499999.95
9830.0	90597239999999.98
9840.0	91286544999999.98
9850.0	91993239999999.97
9860.0	92585604999999.98
9870.0	93669447499999.97
9880.0	94034719999999.97
9890.0	94997464999999.98
9900.0	96001127499999.98
9910.0	96986622499999.97
9920.0	97692249999999.98
9930.0	98509054999999.98
9940.0	99054664999999.97
9950.0	100236384999999.97
9960.0	100949574999999.98
9970.0	101947349999999.97
9980.0	102754799999999.98
9990.0	103520574999999.98
10000.0	104232049999999.97
10010.0	105051249999999.98
10020.0	106023674999999.97
10030.0	106850649999999.97
10040.0	107554249999999.97
10050.0	108643024999999.98
10060.0	109490724999999.97
10070.0	110363774999999.98
10080.0	111173274999999.98
10090.0	112150449999999.98
10100.0	113136249999999.97
10110.0	113966249999999.95
10120.0	114769424999999.97
10130.0	115771474999999.95
10140.0	116681449999999.97
10150.0	117652849999999.95
10160.0	118522449999999.98
10170.0	119502349999999.98
10180.0	120344775000000.0
10190.0	121395224999999.98
10200.0	122349474999999.95
10210.0	123310849999999.97
10220.0	124222449999999.98
10230.0	125141474999999.95
10240.0	126183424999999.98
10250.0	127167324999999.95
10260.0	128122799999999.98
10270.0	129122449999999.98
10280.0	130129749999999.97
10290.0	131038999999999.95
10300.0	132016024999999.98
10310.0	133045474999999.98
10320.0	134022299999999.97
10330.0	135028599999999.95
10340.0	136081674999999.95
10350.0	137088449999999.97
10360.0	138158074999999.97
10370.0	139187999999999.95
10380.0	140160699999999.92
10390.0	141254074999999.97
10400.0	142298825000000.0
10410.0	143342999999999.97
10420.0	144411399999999.97
10430.0	145420624999999.97
10440.0	146487824999999.94
10450.0	147571074999999.97
10460.0	148662449999999.94
10470.0	149692674999999.97
10480.0	150791350000000.0
10490.0	151853949999999.97
10500.0	152695474999999.97
10510.0	153949099999999.94
10520.0	155176774999999.97
10530.0	156234124999999.97
10540.0	157325874999999.97
10550.0	158417049999999.97
10560.0	159597474999999.94
10570.0	160685649999999.97
10580.0	161882874999999.97
10590.0	162845649999999.97
10600.0	163917874999999.97
10610.0	165425074999999.94
10620.0	166657874999999.97
10630.0	168093374999999.94
10640.0	169268449999999.97
10650.0	170314799999999.97
10660.0	171702349999999.97
10670.0	172664000000000.0
10680.0	173960700000000.0
10690.0	175297650000000.0
10700.0	176431649999999.97
10710.0	177582999999999.97
10720.0	178813999999999.94
10730.0	180136199999999.97
10740.0	181301399999999.97
10750.0	182642199999999.97
10760.0	183908199999999.94
10770.0	185012599999999.94
10780.0	186133949999999.97
10790.0	187586074999999.94
10800.0	188712700000000.0
10810.0	190108449999999.97
10820.0	191337874999999.97
10830.0	192652749999999.97
10840.0	193910599999999.97
10850.0	195254399999999.97
10860.0	196426799999999.97
10870.0	197617999999999.94
10880.0	199159099999999.97
10890.0	200343699999999.94
10900.0	201291424999999.97
10910.0	202943974999999.97
10920.0	204185799999999.94
10930.0	205057949999999.94
10940.0	206318624999999.9
10950.0	207863024999999.9
10960.0	208766024999999.94
10970.0	209778899999999.9
10980.0	209672149999999.97
10990.0	211009624999999.9
11000.0	214539699999999.94
11010.0	209833099999999.94
11020.0	216416549999999.94
11030.0	213925974999999.97
11040.0	219583749999999.97
11050.0	220148999999999.97
11060.0	221822899999999.9
11070.0	222907924999999.94
11080.0	224213599999999.94
11090.0	227523149999999.94
11100.0	228575974999999.97
11110.0	228647649999999.97
11120.0	231221624999999.94
11130.0	232293474999999.97
11140.0	232864474999999.97
11150.0	210457999999999.97
11160.0	230585074999999.97
11170.0	230634999999999.94
11180.0	238720249999999.94
11190.0	234591599999999.9
11200.0	211885549999999.97
11210.0	240753699999999.97
11220.0	223504874999999.94
11230.0	243554099999999.94
11240.0	236233649999999.94
11250.0	230302274999999.94
11260.0	243647349999999.97
11270.0	241242824999999.94
11280.0	253495649999999.9
11290.0	256070349999999.97
11300.0	256795999999999.94
11310.0	252526624999999.97
11320.0	260842574999999.94
11330.0	262427199999999.9
11340.0	261901949999999.94
11350.0	231983499999999.9
11360.0	260634574999999.9
11370.0	267423949999999.94
11380.0	267270824999999.94
11390.0	270077749999999.9
11400.0	273218349999999.9
11410.0	273316899999999.9
11420.0	269318999999999.94
11430.0	274571699999999.97
11440.0	267872549999999.97
11450.0	278635524999999.97
11460.0	278551024999999.9
11470.0	283704624999999.94
11480.0	268849874999999.94
11490.0	285283599999999.94
11500.0	260573999999999.9
11510.0	291760549999999.9
11520.0	293614049999999.94
11530.0	294518674999999.9
11540.0	292397374999999.94
11550.0	292589799999999.94
11560.0	299270849999999.94
11570.0	295376875000000.0
11580.0	297509949999999.94
11590.0	305124974999999.94
11600.0	291148274999999.94
11610.0	305954124999999.94
11620.0	310296499999999.9
11630.0	310138025000000.0
11640.0	285081674999999.94
11650.0	312955324999999.94
11660.0	303755874999999.9
11670.0	318203624999999.94
11680.0	320351274999999.94
11690.0	319994624999999.94
11700.0	315708299999999.94
11710.0	323383924999999.9
11720.0	327650399999999.9
11730.0	300566499999999.94
11740.0	327158324999999.94
11750.0	330327274999999.9
11760.0	334261574999999.94
11770.0	335888924999999.9
11780.0	333013799999999.94
11790.0	339941699999999.94
11800.0	339007900000000.0
11810.0	341298049999999.9
11820.0	341332524999999.9
11830.0	347638474999999.9
11840.0	349021699999999.94
11850.0	344322799999999.94
11860.0	349100699999999.9
11870.0	352666074999999.9
11880.0	355980975000000.0
11890.0	358056524999999.94
11900.0	360170449999999.94
11910.0	362723174999999.9
11920.0	364125299999999.94
11930.0	366754674999999.94
11940.0	367433224999999.9
11950.0	369999399999999.9
11960.0	371920674999999.94
11970.0	374025249999999.94
11980.0	372242999999999.9
11990.0	375250074999999.94
12000.0	379861474999999.94
12010.0	382076324999999.9
12020.0	382569450000000.0
12030.0	385039349999999.94
12040.0	386569574999999.9
12050.0	389942499999999.9
12060.0	391877949999999.9
12070.0	393030374999999.9
12080.0	395390249999999.94
12090.0	397214974999999.9
12100.0	399347974999999.94
12110.0	401467649999999.8
12120.0	402742449999999.94
12130.0	404882099999999.9
12140.0	406613599999999.94
12150.0	408745449999999.9
12160.0	411552999999999.9
12170.0	413571749999999.9
12180.0	415146799999999.9
12190.0	417638399999999.9
12200.0	418796999999999.94
12210.0	421891799999999.9
12220.0	423253999999999.8
12230.0	425599599999999.9
12240.0	427564399999999.94
12250.0	430130599999999.9
12260.0	432116999999999.94
12270.0	434135449999999.94
12280.0	435913699999999.94
12290.0	437505049999999.94
12300.0	440504699999999.9
12310.0	441903450000000.0
12320.0	444350849999999.9
12330.0	446299399999999.9
12340.0	449133199999999.94
12350.0	451051249999999.9
12360.0	453289549999999.94
12370.0	454805674999999.94
12380.0	457720524999999.9
12390.0	459436399999999.8
12400.0	461716849999999.9
12410.0	463874324999999.94
12420.0	466015324999999.9
12430.0	467950724999999.9
12440.0	470327324999999.8
12450.0	472715924999999.9
12460.0	474460650000000.0
12470.0	476651199999999.9
12480.0	479264274999999.9
12490.0	481089174999999.8
12500.0	483504349999999.9
12510.0	485512699999999.8
12520.0	487752949999999.94
12530.0	490230724999999.9
12540.0	490911250000000.0
12550.0	494283049999999.75
12560.0	496821599999999.94
12570.0	499114999999999.8
12580.0	501187799999999.9
12590.0	503066799999999.94
12600.0	505563599999999.94
12610.0	507926199999999.9
12620.0	510270799999999.8
12630.0	512418974999999.8
12640.0	514518099999999.9
12650.0	517130749999999.94
12660.0	519009974999999.8
12670.0	521225424999999.9
12680.0	523811974999999.94
12690.0	526260199999999.94
12700.0	528324199999999.9
12710.0	530034799999999.9
12720.0	532232324999999.8
12730.0	534934674999999.94
12740.0	537064224999999.8
12750.0	539977174999999.9
12760.0	541503399999999.8
12770.0	544503399999999.8
12780.0	547016599999999.8
12790.0	549035999999999.94
12800.0	551094024999999.9
12810.0	553382025000000.0
12820.0	556097349999999.9
12830.0	556488299999999.9
12840.0	560726299999999.9
12850.0	560812999999999.9
12860.0	565718199999999.9
12870.0	567285399999999.9
12880.0	570164799999999.9
12890.0	572203549999999.9
12900.0	573692600000000.0
12910.0	575944449999999.9
12920.0	577898574999999.8
12930.0	581503624999999.9
12940.0	583797799999999.8
12950.0	579249049999999.9
12960.0	582455349999999.9
12970.0	590750199999999.8
12980.0	594019199999999.9
12990.0	589586349999999.9
13000.0	599170650000000.0
13010.0	600655449999999.9
13020.0	603846024999999.8
13030.0	602959099999999.9
13040.0	608137150000000.0
13050.0	611188475000000.0
13060.0	613762599999999.9
13070.0	615178799999999.8
13080.0	617911599999999.9
13090.0	619302374999999.9
13100.0	622556024999999.9
13110.0	625785499999999.9
13120.0	626582900000000.0
13130.0	629800999999999.9
13140.0	630400999999999.9
13150.0	634312174999999.9
13160.0	634547949999999.9
13170.0	639847624999999.9
13180.0	642691774999999.9
13190.0	639883824999999.9
13200.0	647382449999999.8
13210.0	649944499999999.9
13220.0	652981699999999.8
13230.0	627409399999999.8
13240.0	656169199999999.9
13250.0	659515774999999.8
13260.0	658741949999999.9
13270.0	662416699999999.9
13280.0	661691249999999.9
13290.0	665798224999999.8
13300.0	672863049999999.9
13310.0	672057674999999.8
13320.0	665531774999999.9
13330.0	670558474999999.9
13340.0	676104524999999.8
13350.0	618434849999999.8
13360.0	667790074999999.9
13370.0	565305049999999.8
13380.0	627095024999999.8
13390.0	627200924999999.9
13400.0	680888349999999.8
13410.0	674937174999999.9
13420.0	584310949999999.9
13430.0	689832625000000.0
13440.0	594788824999999.9
13450.0	508440769999999.9
13460.0	689259349999999.8
13470.0	585117199999999.8
13480.0	653313374999999.8
13490.0	656123974999999.8
13500.0	588483204999999.9
13510.0	657215939999999.8
13520.0	471267799999999.9
13530.0	704861024999999.8
13540.0	562571499999999.9
13550.0	502458439999999.9
13560.0	603172949999999.9
13570.0	666588574999999.9
13580.0	615054049999999.8
13590.0	478054754999999.8
13600.0	723787624999999.8
13610.0	721834224999999.8
13620.0	589597699999999.9
13630.0	534661549999999.9
13640.0	606021874999999.9
13650.0	665835174999999.8
13660.0	716830024999999.8
13670.0	682163874999999.8
13680.0	636157702499999.9
13690.0	598745142499999.8
13700.0	635166349999999.8
13710.0	711437399999999.9
13720.0	709127200000000.0
13730.0	775828149999999.9
13740.0	598244599999999.9
13750.0	664384424999999.8
13760.0	689523374999999.9
13770.0	741286349999999.9
13780.0	771013274999999.9
13790.0	786388599999999.8
13800.0	789947149999999.6
13810.0	674776324999999.9
13820.0	797246649999999.9
13830.0	675567174999999.8
13840.0	751520799999999.9
13850.0	775965274999999.8
13860.0	668230374999999.9
13870.0	747519024999999.9
13880.0	759373074999999.8
13890.0	630369675000000.0
13900.0	670301684999999.9
13910.0	705252274999999.9
13920.0	804880124999999.9
13930.0	722614774999999.9
13940.0	784879699999999.8
13950.0	555215764999999.9
13960.0	732794954999999.8
13970.0	657588309999999.9
13980.0	788250799999999.8
13990.0	839868024999999.8
14000.0	717334424999999.9
14010.0	782934749999999.9
14020.0	815774199999999.9
14030.0	802615999999999.8
14040.0	618167999999999.8
14050.0	618494385000000.0
14060.0	831855299999999.8
14070.0	800176174999999.9
14080.0	703294449999999.9
14090.0	822696299999999.8
14100.0	797580349999999.8
14110.0	879471024999999.9
14120.0	718014574999999.8
14130.0	824846574999999.8
14140.0	856238902499999.8
14150.0	724165842499999.8
14160.0	708453899999999.8
14170.0	863518149999999.9
14180.0	585927574999999.8
14190.0	722348124999999.9
14200.0	672032464999999.9
14210.0	778540024999999.8
14220.0	787631050000000.0
14230.0	737153374999999.8
14240.0	696307474999999.9
14250.0	798428649999999.9
14260.0	679502149999999.9
14270.0	828741049999999.8
14280.0	722904125000000.0
14290.0	686771524999999.9
14300.0	837012299999999.8
14310.0	773185724999999.9
14320.0	914824849999999.8
14330.0	847634899999999.6
14340.0	883458999999999.9
14350.0	914361774999999.9
14360.0	884378699999999.8
14370.0	916915074999999.9
14380.0	770497974999999.8
14390.0	779952624999999.9
14400.0	888330399999999.9
14410.0	867846299999999.8
14420.0	817587324999999.9
14430.0	952097374999999.9
14440.0	902986699999999.9
14450.0	841825524999999.6
14460.0	895285574999999.9
14470.0	948267849999999.8
14480.0	933636399999999.8
14490.0	978666874999999.6
14500.0	954411649999999.8
14510.0	734150174999999.8
14520.0	984757074999999.6
14530.0	970176024999999.9
14540.0	921472099999999.8
14550.0	868877224999999.8
14560.0	876828524999999.9
14570.0	972021699999999.8
14580.0	1009578399999999.8
14590.0	992501999999999.6
14600.0	1013729324999999.8
14610.0	1010972474999999.6
14620.0	934932649999999.8
14630.0	909693524999999.8
14640.0	1028114574999999.8
14650.0	940774249999999.9
14660.0	946768299999999.9
14670.0	1002106949999999.9
14680.0	959370499999999.8
14690.0	944327949999999.9
14700.0	1041351500000000.0
14710.0	1028652349999999.9
14720.0	1046475624999999.8
14730.0	971909849999999.5
14740.0	1009776024999999.9
14750.0	1010172399999999.8
14760.0	976463499999999.9
14770.0	1051502299999999.9
14780.0	1058841649999999.9
14790.0	1028308799999999.8
14800.0	1058290499999999.6
14810.0	1080736249999999.9
14820.0	1060461749999999.6
14830.0	973034549999999.8
14840.0	1094848999999999.9
14850.0	1073126999999999.8
14860.0	1056403499999999.6
14870.0	1093060999999999.9
14880.0	1047025724999999.8
14890.0	1086168824999999.9
14900.0	1015241149999999.6
14910.0	1025945575000000.0
14920.0	1052254574999999.5
14930.0	1114743249999999.8
14940.0	1102026249999999.6
14950.0	1135816499999999.8
14960.0	1102715249999999.8
14970.0	1124351374999999.6
14980.0	942773574999999.8
14990.0	1143785249999999.8
15000.0	1139499999999999.8
15010.0	1091313549999999.8
15020.0	1088886099999999.6
15030.0	1154790499999999.8
15040.0	1127999749999999.8
15050.0	1146987499999999.8
15060.0	1164756749999999.8
15070.0	1135919249999999.8
15080.0	1159783249999999.8
15090.0	1153741999999999.8
15100.0	1158003999999999.8
15110.0	1143030250000000.0
15120.0	1185159749999999.8
15130.0	1178290749999999.8
15140.0	1154349749999999.5
15150.0	1191231249999999.8
15160.0	1195114750000000.0
15170.0	1176005499999999.8
15180.0	1196668499999999.8
15190.0	1198648249999999.5
15200.0	1205754749999999.5
15210.0	1216890249999999.8
15220.0	1195559499999999.8
15230.0	1226743249999999.8
15240.0	1221824249999999.8
15250.0	1208224999999999.5
15260.0	1230230749999999.8
15270.0	1213855499999999.8
15280.0	1197903749999999.8
15290.0	1236325749999999.8
15300.0	1206652999999999.5
15310.0	1243356249999999.8
15320.0	1203930499999999.8
15330.0	1252844999999999.5
15340.0	1261106999999999.8
15350.0	1241928499999999.8
15360.0	1254650249999999.5
15370.0	1263512749999999.5
15380.0	1269924000000000.0
15390.0	1274027499999999.8
15400.0	1272271749999999.5
15410.0	1281080499999999.8
15420.0	1280379749999999.8
15430.0	1285531749999999.5
15440.0	1278952999999999.8
15450.0	1289382749999999.8
15460.0	1298306249999999.8
15470.0	1297422749999999.8
15480.0	1303558749999999.8
15490.0	1301013250000000.0
15500.0	1309574249999999.8
15510.0	1308081499999999.8
15520.0	1314482499999999.8
15530.0	1316757499999999.8
15540.0	1323279749999999.8
15550.0	1320945749999999.5
15560.0	1328847249999999.8
15570.0	1329856999999999.8
15580.0	1323192999999999.8
15590.0	1337689249999999.5
15600.0	1336546750000000.0
15610.0	1341238249999999.5
15620.0	1345233249999999.5
15630.0	1335299999999999.8
15640.0	1352635999999999.8
15650.0	1353662999999999.5
15660.0	1359255999999999.8
15670.0	1366391499999999.5
15680.0	1369541249999999.5
15690.0	1366666249999999.5
15700.0	1376972499999999.8
15710.0	1378162249999999.8
15720.0	1360511999999999.8
15730.0	1383254499999999.5
15740.0	1387238499999999.5
15750.0	1385521999999999.5
15760.0	1395166499999999.5
15770.0	1399589999999999.8
15780.0	1399272249999999.8
15790.0	1399114249999999.8
15800.0	1407023749999999.5
15810.0	1402838499999999.8
15820.0	1413596749999999.5
15830.0	1416447999999999.5
15840.0	1421675999999999.5
15850.0	1423641999999999.5
15860.0	1425529999999999.8
15870.0	1427675999999999.5
15880.0	1432849999999999.8
15890.0	1436731249999999.8
15900.0	1438884749999999.5
15910.0	1439303999999999.8
15920.0	1446276000000000.0
15930.0	1448107999999999.5
15940.0	1452109999999999.5
15950.0	1455459999999999.8
15960.0	1457391749999999.8
15970.0	1461000499999999.8
15980.0	1464202249999999.5
15990.0	1467577999999999.5
16000.0	1472310499999999.8
16010.0	1474183999999999.8
16020.0	1477920249999999.2
16030.0	1477674749999999.8
16040.0	1484486499999999.5
16050.0	1487393499999999.5
16060.0	1490131749999999.5
16070.0	1490668249999999.5
16080.0	1497615999999999.8
16090.0	1498652499999999.5
16100.0	1500378999999999.8
16110.0	1506871749999999.5
16120.0	1509385999999999.5
16130.0	1512256749999999.8
16140.0	1515653999999999.8
16150.0	1517055999999999.8
16160.0	1521337499999999.8
16170.0	1524670499999999.2
16180.0	1529065999999999.8
16190.0	1531707999999999.5
16200.0	1536031999999999.2
16210.0	1536826749999999.8
16220.0	1541699999999999.5
16230.0	1543652499999999.2
16240.0	1541179999999999.5
16250.0	1549980249999999.8
16260.0	1546188499999999.5
16270.0	1555432999999999.8
16280.0	1540616999999999.2
16290.0	1561087999999999.8
16300.0	1565219999999999.5
16310.0	1566753999999999.8
16320.0	1571085999999999.5
16330.0	1558947999999999.5
16340.0	1566366749999999.8
16350.0	1537190249999999.8
16360.0	1579992999999999.5
16370.0	1590013999999999.5
16380.0	1592028749999999.8
16390.0	1594597249999999.8
16400.0	1595246000000000.0
16410.0	1600943999999999.5
16420.0	1595967999999999.8
16430.0	1606298749999999.8
16440.0	1611206499999999.8
16450.0	1608641749999999.5
16460.0	1612812999999999.5
16470.0	1619386249999999.5
16480.0	1619021749999999.5
16490.0	1624242749999999.5
16500.0	1629206999999999.5
16510.0	1632300499999999.8
16520.0	1636725749999999.5
16530.0	1639081999999999.5
16540.0	1642857999999999.8
