# Flux units: erg / (cm m2 s)
# Wavelength units: Angstrom
wave	flux
9000.0	552242.5999999999
9010.0	556482.7499999998
9020.0	565282.1749999999
9030.0	571353.0499999999
9040.0	577610.1499999998
9050.0	583805.9749999999
9060.0	590393.3249999998
9070.0	596791.7
9080.0	603039.7499999998
9090.0	609320.6499999998
9100.0	616157.95
9110.0	623002.0999999999
9120.0	630176.9749999999
9130.0	636709.5999999999
9140.0	643543.05
9150.0	649133.4249999999
9160.0	655549.0999999999
9170.0	662760.0249999998
9180.0	671202.0499999997
9190.0	677171.8499999999
9200.0	683287.0999999999
9210.0	690926.6499999999
9220.0	699273.6999999997
9230.0	707705.1249999999
9240.0	715047.6999999998
9250.0	720381.1499999999
9260.0	723693.1749999999
9270.0	729973.5499999998
9280.0	726059.3749999999
9290.0	719368.7499999998
9300.0	752884.1749999998
9310.0	733598.2
9320.0	772960.8749999998
9330.0	767688.3249999998
9340.0	750721.7749999998
9350.0	733929.1749999998
9360.0	770516.7499999998
9370.0	757981.6999999998
9380.0	814746.7499999999
9390.0	826461.6499999999
9400.0	836869.5999999997
9410.0	846181.2499999998
9420.0	852753.8749999998
9430.0	864836.2999999998
9440.0	873994.7499999998
9450.0	880967.1249999998
9460.0	885494.5249999999
9470.0	857917.2499999999
9480.0	904714.0749999998
9490.0	912836.9249999997
9500.0	876137.7499999997
9510.0	928127.1249999998
9520.0	934691.5749999997
9530.0	944843.3499999999
9540.0	961632.2499999999
9550.0	964779.4249999996
9560.0	928696.8499999997
9570.0	988109.4749999999
9580.0	995884.8499999997
9590.0	1008794.7499999998
9600.0	988176.2249999997
9610.0	1028805.5249999998
9620.0	985619.2999999998
9630.0	1047455.2499999998
9640.0	1050058.7499999995
9650.0	1057925.4999999995
9660.0	1076237.4999999998
9670.0	1082339.2499999998
9680.0	1098567.9999999995
9690.0	1107711.2499999998
9700.0	1118286.2499999998
9710.0	1127792.2499999995
9720.0	1135281.4999999998
9730.0	1143882.5
9740.0	1155357.4999999998
9750.0	1164373.9999999998
9760.0	1180198.9999999998
9770.0	1192079.7499999998
9780.0	1204070.5
9790.0	1211397.2499999998
9800.0	1220115.2499999998
9810.0	1236177.9999999998
9820.0	1249041.7499999998
9830.0	1260238.9999999995
9840.0	1270287.0
9850.0	1280869.7499999998
9860.0	1289307.7499999998
9870.0	1305654.7499999998
9880.0	1309866.7499999998
9890.0	1324403.2499999998
9900.0	1339372.9999999995
9910.0	1353556.9999999998
9920.0	1364750.9999999995
9930.0	1376496.9999999998
9940.0	1383974.4999999998
9950.0	1402175.0
9960.0	1412232.2499999998
9970.0	1426844.25
9980.0	1438226.9999999995
9990.0	1450110.7499999995
10000.0	1460836.7499999993
10010.0	1472998.7499999995
10020.0	1485174.7499999995
10030.0	1497704.4999999995
10040.0	1508698.9999999998
10050.0	1524674.4999999998
10060.0	1536830.7499999995
10070.0	1550964.7499999995
10080.0	1562342.4999999995
10090.0	1574802.9999999995
10100.0	1589192.9999999998
10110.0	1601683.7499999998
10120.0	1613815.7499999995
10130.0	1629960.5
10140.0	1642861.9999999998
10150.0	1656539.9999999998
10160.0	1669652.4999999995
10170.0	1683448.7499999995
10180.0	1695218.75
10190.0	1711401.9999999998
10200.0	1724355.5
10210.0	1738506.4999999998
10220.0	1752371.4999999998
10230.0	1766856.4999999995
10240.0	1780641.9999999995
10250.0	1794743.9999999998
10260.0	1809782.4999999995
10270.0	1823900.7499999995
10280.0	1838237.0
10290.0	1852680.9999999998
10300.0	1867996.7499999998
10310.0	1881919.9999999993
10320.0	1895949.4999999995
10330.0	1911618.9999999995
10340.0	1927528.7499999995
10350.0	1940890.7499999995
10360.0	1957045.2499999995
10370.0	1972428.7499999993
10380.0	1987813.9999999998
10390.0	2002745.7499999995
10400.0	2018370.7499999995
10410.0	2034119.4999999998
10420.0	2049396.4999999998
10430.0	2065384.7499999993
10440.0	2080542.7499999995
10450.0	2096048.0
10460.0	2111671.999999999
10470.0	2128140.9999999995
10480.0	2143760.999999999
10490.0	2158864.499999999
10500.0	2172830.749999999
10510.0	2192683.4999999995
10520.0	2209023.0
10530.0	2224216.2499999995
10540.0	2241949.7499999995
10550.0	2257360.75
10560.0	2275100.999999999
10570.0	2290874.75
10580.0	2307812.9999999995
10590.0	2324750.7499999995
10600.0	2339114.499999999
10610.0	2360349.7499999995
10620.0	2379172.75
10630.0	2400774.9999999995
10640.0	2418807.9999999995
10650.0	2434590.7499999995
10660.0	2453583.0
10670.0	2469316.249999999
10680.0	2486859.2499999995
10690.0	2505975.499999999
10700.0	2522325.0
10710.0	2542000.2499999995
10720.0	2559777.9999999995
10730.0	2578701.9999999995
10740.0	2594185.9999999995
10750.0	2615777.9999999995
10760.0	2633911.9999999995
10770.0	2649727.999999999
10780.0	2667021.9999999986
10790.0	2687669.9999999995
10800.0	2706614.4999999995
10810.0	2727726.9999999995
10820.0	2746472.4999999995
10830.0	2764402.0
10840.0	2783561.9999999995
10850.0	2802855.9999999995
10860.0	2820823.2499999995
10870.0	2838094.749999999
10880.0	2860231.9999999995
10890.0	2879891.7499999995
10900.0	2891184.749999999
10910.0	2917097.4999999995
10920.0	2931236.999999999
10930.0	2943597.499999999
10940.0	2964113.499999999
10950.0	2988153.999999999
10960.0	2999642.4999999995
10970.0	3015028.9999999995
10980.0	3009260.7499999995
10990.0	3027560.499999999
11000.0	3087000.249999999
11010.0	3006329.2499999995
11020.0	3109586.2499999995
11030.0	3064965.9999999995
11040.0	3158715.0
11050.0	3164655.999999999
11060.0	3186832.4999999995
11070.0	3206367.9999999986
11080.0	3222196.4999999986
11090.0	3283978.9999999995
11100.0	3293724.9999999995
11110.0	3287972.499999999
11120.0	3331426.499999998
11130.0	3340984.9999999995
11140.0	3354594.4999999986
11150.0	2989054.499999999
11160.0	3309988.9999999995
11170.0	3301986.249999999
11180.0	3437665.9999999986
11190.0	3359351.7499999986
11200.0	2991012.499999999
11210.0	3468934.4999999995
11220.0	3192808.749999999
11230.0	3505914.7499999995
11240.0	3367633.249999999
11250.0	3289747.499999999
11260.0	3506112.249999999
11270.0	3461717.25
11280.0	3667543.7499999995
11290.0	3704772.4999999995
11300.0	3712312.499999999
11310.0	3628625.75
11320.0	3775552.249999999
11330.0	3794584.2499999995
11340.0	3769946.999999999
11350.0	3274564.4999999986
11360.0	3752404.9999999995
11370.0	3869145.2499999995
11380.0	3862361.999999999
11390.0	3909288.749999998
11400.0	3959955.75
11410.0	3958130.4999999995
11420.0	3891580.749999999
11430.0	3968154.5
11440.0	3839235.749999999
11450.0	4030645.4999999995
11460.0	4030108.7499999995
11470.0	4118273.499999999
11480.0	3861150.25
11490.0	4136168.499999999
11500.0	3704197.999999999
11510.0	4238893.749999999
11520.0	4265624.999999999
11530.0	4272647.749999999
11540.0	4234368.749999998
11550.0	4232923.999999998
11560.0	4350644.249999999
11570.0	4273128.749999999
11580.0	4303062.249999999
11590.0	4440487.999999999
11600.0	4195699.249999999
11610.0	4449179.749999998
11620.0	4518590.0
11630.0	4518658.249999999
11640.0	4078201.749999999
11650.0	4544798.999999999
11660.0	4389510.749999998
11670.0	4638281.249999998
11680.0	4669036.249999998
11690.0	4649456.499999998
11700.0	4571171.749999999
11710.0	4706285.249999999
11720.0	4780980.999999999
11730.0	4309535.999999999
11740.0	4760115.749999999
11750.0	4811829.999999999
11760.0	4878869.499999999
11770.0	4899113.499999999
11780.0	4830377.749999998
11790.0	4967717.999999999
11800.0	4941270.749999998
11810.0	4978902.499999998
11820.0	4975545.999999999
11830.0	5085154.499999999
11840.0	5101282.75
11850.0	5014562.499999999
11860.0	5094712.999999999
11870.0	5151999.749999999
11880.0	5211686.749999999
11890.0	5239976.249999998
11900.0	5264634.249999999
11910.0	5313430.749999998
11920.0	5329372.249999999
11930.0	5374657.999999999
11940.0	5380277.999999999
11950.0	5427203.749999999
11960.0	5451001.499999998
11970.0	5485948.499999999
11980.0	5444891.499999998
11990.0	5490840.999999999
12000.0	5576997.499999999
12010.0	5607901.25
12020.0	5613919.999999998
12030.0	5651414.249999999
12040.0	5672881.249999998
12050.0	5727967.249999999
12060.0	5756394.499999998
12070.0	5773325.499999999
12080.0	5813017.999999999
12090.0	5835464.749999997
12100.0	5873915.249999998
12110.0	5903048.249999999
12120.0	5915681.499999999
12130.0	5950200.249999999
12140.0	5978760.749999999
12150.0	6006629.249999999
12160.0	6056904.499999999
12170.0	6088715.499999999
12180.0	6109451.999999998
12190.0	6151781.999999998
12200.0	6163151.999999998
12210.0	6211916.749999998
12220.0	6233767.749999998
12230.0	6272315.499999999
12240.0	6301242.499999998
12250.0	6341622.749999998
12260.0	6373834.749999998
12270.0	6403250.749999999
12280.0	6426523.249999999
12290.0	6444840.0
12300.0	6500182.749999998
12310.0	6515579.749999998
12320.0	6557313.499999998
12330.0	6586068.999999999
12340.0	6628275.499999998
12350.0	6664625.499999998
12360.0	6695773.999999998
12370.0	6720509.999999998
12380.0	6757727.999999998
12390.0	6786573.749999998
12400.0	6825760.25
12410.0	6854887.999999998
12420.0	6889703.999999999
12430.0	6918317.999999999
12440.0	6953857.249999998
12450.0	6991981.999999997
12460.0	7021018.999999998
12470.0	7053039.749999999
12480.0	7092523.999999999
12490.0	7121981.999999998
12500.0	7154849.999999999
12510.0	7187875.999999997
12520.0	7221053.999999998
12530.0	7254387.999999999
12540.0	7261985.749999998
12550.0	7324044.249999999
12560.0	7358267.749999999
12570.0	7389686.249999998
12580.0	7426779.999999996
12590.0	7454618.249999997
12600.0	7495071.749999998
12610.0	7530099.999999998
12620.0	7564855.999999999
12630.0	7599773.999999997
12640.0	7631339.999999998
12650.0	7666996.249999997
12660.0	7701513.749999998
12670.0	7731713.999999999
12680.0	7768742.249999999
12690.0	7809090.249999999
12700.0	7839273.749999996
12710.0	7865580.499999999
12720.0	7894561.749999997
12730.0	7944225.499999999
12740.0	7972621.999999997
12750.0	8016787.999999998
12760.0	8035319.999999997
12770.0	8090501.749999998
12780.0	8125052.249999998
12790.0	8158317.999999998
12800.0	8188904.75
12810.0	8222913.999999998
12820.0	8267055.249999998
12830.0	8262014.749999998
12840.0	8339229.249999998
12850.0	8325904.0
12860.0	8413959.999999998
12870.0	8441160.0
12880.0	8491809.999999998
12890.0	8513850.749999998
12900.0	8529187.249999998
12910.0	8562183.999999998
12920.0	8587735.249999998
12930.0	8656224.749999998
12940.0	8688015.5
12950.0	8595968.499999996
12960.0	8643140.499999998
12970.0	8787354.499999996
12980.0	8850658.999999996
12990.0	8746787.749999998
13000.0	8923815.249999998
13010.0	8954176.249999998
13020.0	9001211.25
13030.0	8967655.499999998
13040.0	9065717.999999998
13050.0	9112243.499999998
13060.0	9157988.749999996
13070.0	9162263.999999998
13080.0	9223094.249999998
13090.0	9232709.5
13100.0	9280719.999999998
13110.0	9337920.999999998
13120.0	9335944.999999998
13130.0	9393059.999999998
13140.0	9397857.999999998
13150.0	9457058.749999998
13160.0	9449948.249999996
13170.0	9551606.749999998
13180.0	9589192.249999998
13190.0	9521587.249999998
13200.0	9665342.749999998
13210.0	9702930.249999996
13220.0	9751623.749999998
13230.0	9283073.749999996
13240.0	9797270.249999998
13250.0	9845788.749999998
13260.0	9819190.999999996
13270.0	9880727.249999996
13280.0	9846557.749999998
13290.0	9916932.249999998
13300.0	10049109.999999996
13310.0	10011208.499999998
13320.0	9826525.999999996
13330.0	9937919.499999998
13340.0	10056959.749999998
13350.0	8840427.499999998
13360.0	9800832.249999996
13370.0	7977314.749999999
13380.0	8876321.499999996
13390.0	9011542.999999998
13400.0	9963132.999999998
13410.0	9869274.749999998
13420.0	8339478.749999998
13430.0	10112755.749999998
13440.0	8576983.749999998
13450.0	7214000.649999998
13460.0	10175020.349999998
13470.0	8402575.449999997
13480.0	9195676.499999998
13490.0	9394938.999999996
13500.0	8574937.849999998
13510.0	9455586.549999999
13520.0	6445803.749999998
13530.0	10315435.249999998
13540.0	7787726.499999997
13550.0	7107713.849999998
13560.0	8711986.249999998
13570.0	9501101.999999998
13580.0	8662824.749999998
13590.0	6696692.949999999
13600.0	10566512.749999998
13610.0	10407608.999999996
13620.0	7938862.499999996
13630.0	7280720.499999999
13640.0	8876010.399999999
13650.0	9326741.499999998
13660.0	10301149.749999998
13670.0	9749050.499999998
13680.0	9005448.899999997
13690.0	8719545.299999997
13700.0	9061650.249999998
13710.0	10193788.249999998
13720.0	10243153.999999996
13730.0	11479154.999999998
13740.0	8374005.749999998
13750.0	9419496.749999998
13760.0	9886707.499999996
13770.0	10782084.499999996
13780.0	11344373.499999998
13790.0	11620532.499999998
13800.0	11683146.749999998
13810.0	9336627.249999996
13820.0	11787907.249999996
13830.0	9548725.249999998
13840.0	11018935.999999998
13850.0	11366110.999999996
13860.0	9639436.249999998
13870.0	10932319.749999998
13880.0	10904773.499999996
13890.0	9257523.899999999
13900.0	9902112.449999997
13910.0	10002437.749999996
13920.0	11694718.999999998
13930.0	10349301.499999998
13940.0	11342750.499999998
13950.0	7985749.199999999
13960.0	10421581.549999999
13970.0	9462085.849999998
13980.0	11402962.999999998
13990.0	12394840.499999994
14000.0	10081257.749999998
14010.0	11097698.249999998
14020.0	11921133.999999996
14030.0	11660168.499999998
14040.0	8452721.499999998
14050.0	8775023.599999998
14060.0	12193208.499999998
14070.0	11556817.999999998
14080.0	9657033.499999996
14090.0	11887691.249999998
14100.0	11315329.749999998
14110.0	13064262.499999996
14120.0	10163645.249999996
14130.0	12130200.249999998
14140.0	12503572.124999996
14150.0	10566789.874999996
14160.0	10048377.999999998
14170.0	12681037.499999998
14180.0	7809148.999999998
14190.0	10089780.249999998
14200.0	9696589.049999999
14210.0	11225815.999999996
14220.0	11113731.499999998
14230.0	10396750.749999998
14240.0	9796404.749999996
14250.0	11367993.999999998
14260.0	9237191.749999996
14270.0	11896511.749999998
14280.0	10260304.499999996
14290.0	9500926.749999998
14300.0	12220639.249999998
14310.0	11210509.999999998
14320.0	13351129.999999996
14330.0	12210712.499999998
14340.0	12630743.249999996
14350.0	13441677.249999996
14360.0	12775549.999999998
14370.0	13296137.499999998
14380.0	10990403.5
14390.0	11105625.999999996
14400.0	12736770.5
14410.0	12433164.249999996
14420.0	11617567.749999996
14430.0	14101997.499999996
14440.0	13144800.749999998
14450.0	12084483.749999994
14460.0	12914956.999999996
14470.0	13788369.999999998
14480.0	13656844.999999996
14490.0	14504247.499999998
14500.0	13956891.249999996
14510.0	9921022.749999998
14520.0	14628817.499999996
14530.0	14342094.999999998
14540.0	13300914.999999998
14550.0	12591684.999999996
14560.0	12784622.499999998
14570.0	14113539.999999996
14580.0	15112319.999999994
14590.0	14760422.499999994
14600.0	15172574.999999996
14610.0	15098179.999999996
14620.0	13526057.499999994
14630.0	12754342.499999996
14640.0	15375997.499999996
14650.0	13716180.499999996
14660.0	13776219.999999996
14670.0	14861194.999999994
14680.0	13906719.999999996
14690.0	13583462.499999996
14700.0	15531760.0
14710.0	15267437.499999994
14720.0	15698467.749999994
14730.0	14254261.749999996
14740.0	14768694.999999998
14750.0	14792594.999999994
14760.0	14286812.5
14770.0	15654429.999999998
14780.0	15772504.999999998
14790.0	15143934.999999993
14800.0	15705489.999999996
14810.0	16238949.999999994
14820.0	15644592.499999994
14830.0	14224860.999999998
14840.0	16501674.999999996
14850.0	15951502.499999998
14860.0	15628014.999999998
14870.0	16362084.999999998
14880.0	15364942.499999994
14890.0	16222824.999999994
14900.0	14877645.499999996
14910.0	15263653.5
14920.0	15549840.499999998
14930.0	16770512.499999998
14940.0	16432109.999999998
14950.0	17186109.999999996
14960.0	16365344.999999996
14970.0	16916095.749999996
14980.0	13470760.249999994
14990.0	17305574.999999996
15000.0	17157154.999999996
15010.0	16246754.999999994
15020.0	15972499.999999996
15030.0	17451049.999999996
15040.0	16792262.499999996
15050.0	17273044.999999993
15060.0	17636034.999999993
15070.0	16928347.499999993
15080.0	17484727.499999996
15090.0	17321927.499999996
15100.0	17412589.999999996
15110.0	17082627.5
15120.0	17965179.999999996
15130.0	17760162.499999993
15140.0	17264162.499999996
15150.0	18091334.999999993
15160.0	18078304.999999993
15170.0	17715474.999999993
15180.0	18100827.499999996
15190.0	18148607.499999996
15200.0	18270474.999999996
15210.0	18535637.5
15220.0	18019049.999999996
15230.0	18715817.499999996
15240.0	18560092.499999996
15250.0	18254520.0
15260.0	18700514.999999996
15270.0	18318809.999999996
15280.0	17992122.499999996
15290.0	18797277.499999993
15300.0	18105749.999999993
15310.0	18895254.999999996
15320.0	18013629.999999996
15330.0	19093264.999999996
15340.0	19262002.5
15350.0	18801447.5
15360.0	19061659.999999993
15370.0	19234384.999999993
15380.0	19366632.499999993
15390.0	19442879.999999993
15400.0	19371572.499999993
15410.0	19569462.499999996
15420.0	19549107.499999996
15430.0	19622277.5
15440.0	19397064.999999996
15450.0	19671792.499999993
15460.0	19863479.999999993
15470.0	19809967.499999996
15480.0	19932560.0
15490.0	19858174.999999996
15500.0	20029167.499999993
15510.0	19966312.499999993
15520.0	20123859.999999996
15530.0	20127654.999999996
15540.0	20274787.499999996
15550.0	20197672.499999996
15560.0	20349464.999999996
15570.0	20350844.999999993
15580.0	20172264.999999996
15590.0	20485157.499999996
15600.0	20429814.999999996
15610.0	20537242.499999996
15620.0	20634807.499999993
15630.0	20379674.99999999
15640.0	20728542.499999996
15650.0	20693022.499999993
15660.0	20822552.499999996
15670.0	20997902.5
15680.0	21027027.499999996
15690.0	20935547.499999996
15700.0	21159284.999999993
15710.0	21156959.999999993
15720.0	20729134.999999996
15730.0	21221572.499999993
15740.0	21334287.499999996
15750.0	21225892.499999996
15760.0	21468479.999999996
15770.0	21547639.999999993
15780.0	21501019.999999993
15790.0	21483629.999999996
15800.0	21647244.999999993
15810.0	21509074.99999999
15820.0	21759729.999999996
15830.0	21807239.999999993
15840.0	21886439.999999996
15850.0	21917954.999999996
15860.0	21925792.499999993
15870.0	21952752.5
15880.0	22088947.499999996
15890.0	22130939.999999996
15900.0	22162872.499999993
15910.0	22168222.499999996
15920.0	22288317.499999996
15930.0	22315339.999999996
15940.0	22407839.999999996
15950.0	22459499.999999996
15960.0	22458362.499999996
15970.0	22525554.999999996
15980.0	22572382.499999996
15990.0	22634779.999999996
16000.0	22730040.0
16010.0	22739329.999999996
16020.0	22795584.999999996
16030.0	22791964.999999996
16040.0	22936427.5
16050.0	22953669.999999996
16060.0	23006469.999999993
16070.0	22992572.499999993
16080.0	23120639.999999993
16090.0	23139567.499999993
16100.0	23122317.499999993
16110.0	23270292.499999996
16120.0	23321184.999999996
16130.0	23338757.499999996
16140.0	23422089.999999996
16150.0	23460044.999999996
16160.0	23512597.499999993
16170.0	23569607.499999993
16180.0	23641539.999999996
16190.0	23709619.999999993
16200.0	23736949.99999999
16210.0	23767129.999999996
16220.0	23845159.999999996
16230.0	23885039.999999996
16240.0	23785397.499999996
16250.0	23970404.999999993
16260.0	23842904.999999996
16270.0	24059007.499999993
16280.0	23704492.499999996
16290.0	24147799.999999993
16300.0	24239600.0
16310.0	24221629.999999996
16320.0	24278802.499999993
16330.0	24014799.999999993
16340.0	24160217.499999996
16350.0	23496582.499999993
16360.0	24439379.999999996
16370.0	24637719.999999996
16380.0	24657582.499999996
16390.0	24720137.499999996
16400.0	24707664.999999993
16410.0	24808467.499999993
16420.0	24672174.99999999
16430.0	24892904.999999996
16440.0	25010707.499999993
16450.0	24904339.999999993
16460.0	24991539.999999993
16470.0	25116039.999999993
16480.0	25087339.999999996
16490.0	25192802.499999996
16500.0	25278495.0
16510.0	25349862.499999993
16520.0	25399484.999999993
16530.0	25455114.999999996
16540.0	25503519.999999993
16550.0	25461004.99999999
16560.0	25451429.999999993
16570.0	25415464.999999985
16580.0	25693639.99999999
16590.0	25660104.999999996
16600.0	25807762.499999996
16610.0	25868712.499999993
16620.0	25660619.999999996
16630.0	25953779.999999993
16640.0	25949457.499999993
16650.0	25997237.5
16660.0	25259544.999999996
16670.0	25111757.499999993
16680.0	25669399.999999996
16690.0	26112209.999999996
16700.0	26275787.499999993
