# Flux units: erg / (cm m2 s)
# Wavelength units: Angstrom
wave	flux
9000.0	1342462.9999999998
9010.0	1352406.4999999995
9020.0	1369622.7499999995
9030.0	1380388.4999999998
9040.0	1393082.25
9050.0	1406055.9999999998
9060.0	1417265.7499999998
9070.0	1429311.7499999998
9080.0	1441546.4999999995
9090.0	1453621.9999999995
9100.0	1466229.4999999995
9110.0	1479795.4999999998
9120.0	1493401.4999999998
9130.0	1506003.2499999995
9140.0	1519328.9999999998
9150.0	1529355.2499999998
9160.0	1541719.9999999998
9170.0	1554896.9999999995
9180.0	1571181.4999999995
9190.0	1581449.9999999995
9200.0	1593157.7499999998
9210.0	1606216.7499999998
9220.0	1622562.7499999998
9230.0	1639085.0
9240.0	1652633.2499999995
9250.0	1660758.9999999998
9260.0	1666265.7499999995
9270.0	1676667.9999999995
9280.0	1665924.9999999998
9290.0	1654292.9999999998
9300.0	1719522.9999999995
9310.0	1687171.2499999995
9320.0	1757523.4999999995
9330.0	1749854.2499999998
9340.0	1719048.9999999993
9350.0	1689563.2499999995
9360.0	1757017.4999999993
9370.0	1734539.5
9380.0	1833101.2500000002
9390.0	1853785.9999999993
9400.0	1872447.9999999995
9410.0	1890285.2499999998
9420.0	1900598.9999999995
9430.0	1922440.4999999995
9440.0	1938994.2499999995
9450.0	1951874.7499999995
9460.0	1960956.2499999993
9470.0	1912071.4999999998
9480.0	1994505.4999999993
9490.0	2008815.9999999998
9500.0	1947571.2499999998
9510.0	2034450.7499999995
9520.0	2046073.9999999998
9530.0	2064727.4999999995
9540.0	2091594.4999999995
9550.0	2098018.9999999995
9560.0	2038131.7499999993
9570.0	2138847.499999999
9580.0	2152942.499999999
9590.0	2174586.999999999
9600.0	2135683.9999999995
9610.0	2206060.9999999995
9620.0	2130664.9999999995
9630.0	2239657.999999999
9640.0	2244825.25
9650.0	2256597.2499999995
9660.0	2290500.7499999995
9670.0	2301076.5
9680.0	2327163.499999999
9690.0	2343292.9999999995
9700.0	2360219.9999999995
9710.0	2377124.5
9720.0	2391889.9999999995
9730.0	2402439.2499999995
9740.0	2422629.249999999
9750.0	2440733.2499999995
9760.0	2465780.4999999995
9770.0	2487014.999999999
9780.0	2505546.7499999995
9790.0	2518441.7499999995
9800.0	2534770.249999999
9810.0	2558905.2499999995
9820.0	2579895.9999999995
9830.0	2599120.2499999995
9840.0	2615331.5
9850.0	2633012.249999999
9860.0	2644575.7499999995
9870.0	2672104.2499999995
9880.0	2676685.749999999
9890.0	2702986.249999999
9900.0	2728203.749999999
9910.0	2751069.5
9920.0	2768390.7499999995
9930.0	2787250.9999999995
9940.0	2799802.5
9950.0	2830420.4999999995
9960.0	2847598.7499999995
9970.0	2871943.2499999995
9980.0	2888192.4999999995
9990.0	2905365.2499999995
10000.0	2922817.249999999
10010.0	2945618.999999999
10020.0	2966207.999999999
10030.0	2985387.9999999986
10040.0	3003321.999999999
10050.0	3029880.9999999995
10060.0	3049126.9999999995
10070.0	3069209.2499999995
10080.0	3088708.749999999
10090.0	3110475.749999999
10100.0	3133295.2499999995
10110.0	3153192.999999999
10120.0	3174333.4999999995
10130.0	3195959.2499999995
10140.0	3219405.249999999
10150.0	3238927.9999999986
10160.0	3261379.9999999995
10170.0	3282659.499999999
10180.0	3303705.2499999995
10190.0	3326601.4999999986
10200.0	3348117.2499999986
10210.0	3371327.2499999995
10220.0	3393126.9999999986
10230.0	3413505.499999999
10240.0	3438558.75
10250.0	3458005.7499999995
10260.0	3481572.249999999
10270.0	3504297.9999999986
10280.0	3528587.9999999995
10290.0	3549974.999999999
10300.0	3574379.4999999995
10310.0	3595635.4999999986
10320.0	3617439.9999999986
10330.0	3641042.2499999995
10340.0	3666071.499999999
10350.0	3687872.2499999986
10360.0	3711941.9999999995
10370.0	3734443.4999999986
10380.0	3758383.499999999
10390.0	3782472.999999999
10400.0	3805405.999999999
10410.0	3830237.2499999995
10420.0	3852792.749999999
10430.0	3874589.7499999995
10440.0	3897631.499999999
10450.0	3924422.7499999995
10460.0	3946623.7499999995
10470.0	3973524.249999999
10480.0	3993941.999999999
10490.0	4016293.4999999995
10500.0	4035066.4999999986
10510.0	4063986.749999999
10520.0	4092849.4999999986
10530.0	4114827.749999999
10540.0	4140243.2499999986
10550.0	4160802.749999999
10560.0	4188425.2499999986
10570.0	4212614.749999998
10580.0	4238389.999999999
10590.0	4259915.999999999
10600.0	4283773.749999998
10610.0	4317187.5
10620.0	4347362.249999999
10630.0	4376742.499999999
10640.0	4405054.999999999
10650.0	4426422.999999999
10660.0	4454772.999999999
10670.0	4478696.249999999
10680.0	4504808.999999999
10690.0	4536815.749999999
10700.0	4560637.499999999
10710.0	4587498.499999999
10720.0	4615576.499999998
10730.0	4642753.499999999
10740.0	4664719.499999999
10750.0	4696512.499999999
10760.0	4722809.999999999
10770.0	4746801.999999998
10780.0	4773375.749999998
10790.0	4805908.249999999
10800.0	4830877.249999998
10810.0	4861560.749999999
10820.0	4886525.999999999
10830.0	4913897.5
10840.0	4940556.499999999
10850.0	4968502.749999999
10860.0	4995459.25
10870.0	5021419.999999999
10880.0	5053307.999999998
10890.0	5076925.999999999
10900.0	5098015.999999998
10910.0	5131280.249999998
10920.0	5157039.499999999
10930.0	5172231.0
10940.0	5201299.25
10950.0	5236023.999999999
10960.0	5250980.499999999
10970.0	5269133.499999999
10980.0	5262599.249999999
10990.0	5285692.749999998
11000.0	5374122.749999998
11010.0	5265044.499999998
11020.0	5411198.999999998
11030.0	5347849.499999999
11040.0	5478658.499999998
11050.0	5486488.999999999
11060.0	5521556.249999999
11070.0	5547516.499999999
11080.0	5575600.749999999
11090.0	5651649.249999998
11100.0	5667709.749999998
11110.0	5659829.499999999
11120.0	5723398.749999999
11130.0	5744259.249999999
11140.0	5750518.749999998
11150.0	5251993.499999999
11160.0	5715683.749999998
11170.0	5712238.499999999
11180.0	5869131.999999999
11190.0	5789454.499999998
11200.0	5319488.999999999
11210.0	5915824.749999999
11220.0	5557957.249999998
11230.0	5975332.749999998
11240.0	5820393.499999998
11250.0	5691438.999999998
11260.0	5989397.749999998
11270.0	5946733.999999998
11280.0	6190395.249999998
11290.0	6242145.499999999
11300.0	6249682.499999998
11310.0	6143784.999999999
11320.0	6329659.499999997
11330.0	6364787.249999999
11340.0	6343249.999999997
11350.0	5716459.249999999
11360.0	6317984.499999998
11370.0	6462139.249999998
11380.0	6444741.999999998
11390.0	6508310.999999999
11400.0	6581269.249999998
11410.0	6574687.499999999
11420.0	6518918.499999998
11430.0	6604222.999999997
11440.0	6426176.249999999
11450.0	6684222.0
11460.0	6674330.749999998
11470.0	6797524.75
11480.0	6493515.999999999
11490.0	6830941.749999998
11500.0	6336990.999999999
11510.0	6957886.499999999
11520.0	6997643.749999999
11530.0	7013143.999999998
11540.0	6968558.999999997
11550.0	6966475.499999998
11560.0	7115373.499999999
11570.0	7026313.499999998
11580.0	7067651.249999998
11590.0	7231481.499999999
11600.0	6937148.499999998
11610.0	7245062.999999997
11620.0	7331649.999999999
11630.0	7323666.749999999
11640.0	6797114.499999999
11650.0	7376608.499999998
11660.0	7174471.749999998
11670.0	7489950.499999997
11680.0	7527075.249999997
11690.0	7508693.499999997
11700.0	7416913.249999998
11710.0	7576895.249999998
11720.0	7670695.999999998
11730.0	7079944.999999999
11740.0	7651254.749999998
11750.0	7715649.499999998
11760.0	7799411.249999999
11770.0	7800150.249999997
11780.0	7608489.999999999
11790.0	7903234.999999998
11800.0	7881112.999999998
11810.0	7920258.499999997
11820.0	7936285.249999998
11830.0	8063116.249999998
11840.0	8084517.749999998
11850.0	7969229.999999998
11860.0	8067444.249999997
11870.0	8139544.249999998
11880.0	8222018.999999998
11890.0	8259954.499999999
11900.0	8297253.999999998
11910.0	8350745.749999997
11920.0	8376282.249999999
11930.0	8429480.249999998
11940.0	8440681.999999998
11950.0	8492300.499999998
11960.0	8531511.749999998
11970.0	8568420.999999998
11980.0	8519503.5
11990.0	8592559.249999998
12000.0	8682610.749999998
12010.0	8729210.499999998
12020.0	8738900.999999996
12030.0	8781237.249999998
12040.0	8810513.499999998
12050.0	8879240.999999996
12060.0	8912517.999999996
12070.0	8940793.999999998
12080.0	8983110.0
12090.0	9012601.749999998
12100.0	9056336.249999996
12110.0	9104385.499999998
12120.0	9119613.499999998
12130.0	9153852.249999998
12140.0	9194545.249999998
12150.0	9235863.5
12160.0	9294491.499999998
12170.0	9327178.499999998
12180.0	9345499.999999998
12190.0	9409709.249999996
12200.0	9423822.749999998
12210.0	9484738.75
12220.0	9509893.250000002
12230.0	9554347.999999998
12240.0	9590158.249999996
12250.0	9646623.749999998
12260.0	9678335.999999998
12270.0	9718521.999999998
12280.0	9749915.999999998
12290.0	9777001.999999998
12300.0	9838422.749999996
12310.0	9857174.499999998
12320.0	9906624.749999994
12330.0	9940899.749999996
12340.0	9990803.749999998
12350.0	10032339.999999998
12360.0	10078002.499999998
12370.0	10106499.999999998
12380.0	10153724.999999996
12390.0	10190602.5
12400.0	10232332.499999998
12410.0	10271312.5
12420.0	10312787.499999998
12430.0	10351420.0
12440.0	10390239.999999998
12450.0	10432199.999999998
12460.0	10467082.5
12470.0	10504477.499999996
12480.0	10548759.999999998
12490.0	10592539.999999998
12500.0	10627374.999999998
12510.0	10670284.999999996
12520.0	10710259.999999996
12530.0	10750439.999999998
12540.0	10760399.999999998
12550.0	10828685.0
12560.0	10873675.0
12570.0	10914419.999999996
12580.0	10954719.999999998
12590.0	10990732.499999996
12600.0	11035087.499999996
12610.0	11076399.999999996
12620.0	11117299.999999998
12630.0	11158964.999999998
12640.0	11198915.0
12650.0	11241489.999999998
12660.0	11276549.999999996
12670.0	11309702.499999996
12680.0	11359932.499999998
12690.0	11412364.999999998
12700.0	11452489.999999998
12710.0	11473689.999999998
12720.0	11515969.999999998
12730.0	11569129.999999994
12740.0	11603839.999999996
12750.0	11657379.999999996
12760.0	11678919.999999996
12770.0	11738199.999999996
12780.0	11776099.999999998
12790.0	11814762.499999996
12800.0	11852239.999999998
12810.0	11891169.999999998
12820.0	11949527.499999996
12830.0	11946899.999999994
12840.0	12026819.999999996
12850.0	12023159.999999996
12860.0	12111579.999999996
12870.0	12145139.999999996
12880.0	12201139.999999998
12890.0	12232817.499999998
12900.0	12248442.499999996
12910.0	12285859.999999998
12920.0	12326839.999999996
12930.0	12398000.0
12940.0	12436824.999999998
12950.0	12342454.999999998
12960.0	12394657.499999998
12970.0	12556067.5
12980.0	12623394.999999994
12990.0	12513284.999999994
13000.0	12710107.499999996
13010.0	12752642.499999998
13020.0	12792349.999999998
13030.0	12777194.999999996
13040.0	12870679.999999998
13050.0	12918159.999999998
13060.0	12966587.5
13070.0	12977072.499999996
13080.0	13040739.999999996
13090.0	13059534.999999998
13100.0	13110024.999999996
13110.0	13182600.0
13120.0	13181159.999999998
13130.0	13238220.0
13140.0	13255192.499999998
13150.0	13314592.499999994
13160.0	13312734.999999994
13170.0	13423794.999999996
13180.0	13464882.499999996
13190.0	13420884.999999998
13200.0	13552877.499999998
13210.0	13591747.499999996
13220.0	13637192.499999994
13230.0	13205604.999999994
13240.0	13702974.999999998
13250.0	13753872.499999998
13260.0	13723489.999999998
13270.0	13783517.499999998
13280.0	13732729.999999994
13290.0	13856859.999999994
13300.0	13987079.999999996
13310.0	13953422.5
13320.0	13813229.999999996
13330.0	13850579.999999998
13340.0	14001102.5
13350.0	12548864.999999996
13360.0	13773151.999999996
13370.0	11638004.999999994
13380.0	12898167.499999998
13390.0	12891601.499999998
13400.0	14027774.499999994
13410.0	13933859.999999998
13420.0	12256249.999999996
13430.0	14165092.499999998
13440.0	12312509.5
13450.0	10618019.499999998
13460.0	14136215.749999998
13470.0	12005582.749999998
13480.0	13355886.499999996
13490.0	13425714.499999998
13500.0	12085706.524999999
13510.0	13530332.074999996
13520.0	9893701.499999998
13530.0	14470237.499999994
13540.0	11678496.499999996
13550.0	10463250.599999998
13560.0	12468373.999999996
13570.0	13716218.499999996
13580.0	12842216.999999996
13590.0	10119307.499999998
13600.0	14732754.999999996
13610.0	14704532.499999996
13620.0	12217053.499999994
13630.0	11254467.499999998
13640.0	12495120.499999998
13650.0	13652307.499999994
13660.0	14522882.499999993
13670.0	13875638.999999994
13680.0	13196863.499999998
13690.0	12259166.749999996
13700.0	13040415.749999996
13710.0	14419097.499999994
13720.0	14429072.499999994
13730.0	15655419.999999996
13740.0	12482644.499999994
13750.0	13595942.499999996
13760.0	14103502.499999996
13770.0	15063134.999999996
13780.0	15507849.999999994
13790.0	15801929.999999996
13800.0	15861964.999999994
13810.0	13825867.499999996
13820.0	15993864.999999996
13830.0	13741201.0
13840.0	15179177.499999998
13850.0	15699834.999999994
13860.0	13652994.749999998
13870.0	15099456.749999994
13880.0	15233097.499999998
13890.0	12727596.299999995
13900.0	13524378.499999994
13910.0	14286667.5
13920.0	16077689.999999996
13930.0	14512168.999999994
13940.0	15676434.999999996
13950.0	11242226.699999997
13960.0	14786735.499999994
13970.0	13383233.499999998
13980.0	15783424.999999996
13990.0	16684484.999999994
14000.0	14449082.499999998
14010.0	15615417.5
14020.0	16233872.499999998
14030.0	15919214.999999996
14040.0	12559568.249999998
14050.0	12414323.049999999
14060.0	16533407.499999993
14070.0	15887869.999999998
14080.0	13966939.999999994
14090.0	16282944.999999996
14100.0	15778264.999999998
14110.0	17314499.999999996
14120.0	14499756.999999996
14130.0	16475360.999999994
14140.0	16855810.749999996
14150.0	14430082.749999994
14160.0	14345695.999999998
14170.0	16991172.499999996
14180.0	11947835.499999996
14190.0	14536853.999999996
14200.0	13347801.999999996
14210.0	15458492.5
14220.0	15589304.999999996
14230.0	14831996.999999996
14240.0	13882092.999999996
14250.0	15698929.499999996
14260.0	13572829.749999996
14270.0	16252164.750000002
14280.0	14608879.249999996
14290.0	13596048.499999998
14300.0	16530914.749999996
14310.0	15348724.999999996
14320.0	17827279.999999996
14330.0	16647007.499999994
14340.0	17319489.999999996
14350.0	17873922.5
14360.0	17275317.499999996
14370.0	17776819.999999996
14380.0	15158191.999999998
14390.0	15331979.249999996
14400.0	17281402.749999996
14410.0	16899472.499999996
14420.0	16001909.999999993
14430.0	18466757.499999996
14440.0	17525812.499999996
14450.0	16374200.249999998
14460.0	17529553.249999996
14470.0	18269867.5
14480.0	18100939.999999996
14490.0	18853807.499999993
14500.0	18485135.249999993
14510.0	14513554.249999998
14520.0	18960959.999999993
14530.0	18676939.999999996
14540.0	17752514.999999993
14550.0	16840198.499999996
14560.0	17121948.499999996
14570.0	18585099.999999996
14580.0	19396647.499999993
14590.0	19042739.999999996
14600.0	19457829.999999996
14610.0	19430899.999999993
14620.0	17937167.499999996
14630.0	17513119.999999993
14640.0	19687572.499999993
14650.0	18256594.999999996
14660.0	18249672.499999996
14670.0	19259432.499999996
14680.0	18300362.5
14690.0	18090842.499999996
14700.0	19927947.499999996
14710.0	19619074.999999993
14720.0	20035952.499999996
14730.0	18808882.499999996
14740.0	19219472.499999996
14750.0	19256204.999999993
14760.0	18908532.499999996
14770.0	20026062.499999993
14780.0	20062314.999999996
14790.0	19550807.5
14800.0	20154552.499999993
14810.0	20548882.499999993
14820.0	20063130.0
14830.0	18685452.499999996
14840.0	20806909.999999993
14850.0	20305347.499999996
14860.0	20010397.499999993
14870.0	20687152.5
14880.0	19666919.999999996
14890.0	20542692.499999993
14900.0	19357499.999999993
14910.0	19672632.499999996
14920.0	20079022.499999996
14930.0	21058754.999999996
14940.0	20815894.999999996
14950.0	21426994.999999996
14960.0	20730737.499999996
14970.0	21223414.999999993
14980.0	18187382.499999996
14990.0	21538047.499999996
15000.0	21381054.999999996
15010.0	20622519.999999993
15020.0	20557549.999999996
15030.0	21720202.499999993
15040.0	21177784.999999993
15050.0	21566412.499999996
15060.0	21863307.499999996
15070.0	21230757.499999996
15080.0	21755722.5
15090.0	21646049.999999993
15100.0	21697577.499999993
15110.0	21452529.999999996
15120.0	22179217.499999996
15130.0	22040792.499999993
15140.0	21568952.499999996
15150.0	22321164.999999996
15160.0	22308374.999999993
15170.0	21979857.499999996
15180.0	22334777.499999996
15190.0	22413144.999999996
15200.0	22500172.499999996
15210.0	22703877.499999996
15220.0	22291714.999999996
15230.0	22874677.499999993
15240.0	22733274.999999993
15250.0	22505449.999999996
15260.0	22867072.499999993
15270.0	22568282.499999996
15280.0	22260634.999999993
15290.0	22958692.499999993
15300.0	22392132.5
15310.0	23059619.999999993
15320.0	22280714.999999996
15330.0	23259794.999999996
15340.0	23377659.999999996
15350.0	22978887.499999996
15360.0	23210427.499999996
15370.0	23348799.999999996
15380.0	23495107.499999996
15390.0	23569817.499999993
15400.0	23495362.499999993
15410.0	23679804.999999996
15420.0	23676087.5
15430.0	23707484.999999993
15440.0	23556817.499999993
15450.0	23788074.999999996
15460.0	23941544.999999996
15470.0	23912722.499999996
15480.0	23999804.999999996
15490.0	23937937.499999996
15500.0	24117417.499999993
15510.0	24047064.999999993
15520.0	24206375.0
15530.0	24195402.499999996
15540.0	24333469.999999993
15550.0	24270902.499999993
15560.0	24393594.999999993
15570.0	24400684.999999993
15580.0	24237089.999999996
15590.0	24519264.999999993
15600.0	24451189.999999996
15610.0	24571644.999999996
15620.0	24648902.499999996
15630.0	24455594.99999999
15640.0	24760354.999999993
15650.0	24734937.499999993
15660.0	24827244.999999996
15670.0	24979027.499999993
15680.0	25002119.999999993
15690.0	24927104.999999993
15700.0	25124709.999999996
15710.0	25126239.99999999
15720.0	24780012.499999996
15730.0	25195754.999999993
15740.0	25300377.499999996
15750.0	25189819.999999996
15760.0	25409779.999999993
15770.0	25480039.999999996
15780.0	25439369.999999993
15790.0	25426077.499999996
15800.0	25577122.499999993
15810.0	25485122.49999999
15820.0	25664187.49999999
15830.0	25727679.999999996
15840.0	25785479.999999996
15850.0	25833012.499999996
15860.0	25810839.999999996
15870.0	25848267.499999993
15880.0	25965739.999999993
15890.0	26012084.999999993
15900.0	26040592.499999993
15910.0	26045162.499999996
15920.0	26136719.999999993
15930.0	26169919.99999999
15940.0	26242199.999999996
15950.0	26301204.999999993
15960.0	26304354.999999993
15970.0	26376979.99999999
15980.0	26399822.499999996
15990.0	26459177.499999993
16000.0	26546099.999999996
16010.0	26546180.0
16020.0	26621112.499999996
16030.0	26604429.999999996
16040.0	26703967.499999996
16050.0	26745569.999999996
16060.0	26793242.499999993
16070.0	26767384.999999996
16080.0	26901372.499999996
16090.0	26921702.499999993
16100.0	26917075.0
16110.0	27019422.499999993
16120.0	27086327.499999996
16130.0	27092612.499999996
16140.0	27176919.999999996
16150.0	27189519.999999993
16160.0	27241129.99999999
16170.0	27300829.99999999
16180.0	27343267.499999993
16190.0	27412552.499999996
16200.0	27440979.999999993
16210.0	27467844.999999996
16220.0	27540714.999999996
16230.0	27580399.999999993
16240.0	27556789.999999993
16250.0	27653499.999999996
16260.0	27671129.999999996
16270.0	27725302.499999993
16280.0	27741497.499999996
16290.0	27824444.999999993
16300.0	27910954.99999999
16310.0	27899779.999999996
16320.0	27951199.999999993
16330.0	27989839.999999996
16340.0	27878242.499999996
16350.0	27946567.499999996
16360.0	28148489.999999996
16370.0	28222799.999999996
16380.0	28247192.499999993
16390.0	28302507.499999996
16400.0	28302672.499999993
16410.0	28379202.49999999
16420.0	28274525.0
16430.0	28446279.999999996
16440.0	28520057.499999993
16450.0	28473022.499999996
16460.0	28550019.99999999
16470.0	28651709.99999999
16480.0	28645169.999999993
16490.0	28760759.999999996
16500.0	28800519.999999996
16510.0	28840299.999999996
16520.0	28866899.999999996
16530.0	28908464.999999993
16540.0	28971734.999999996
16550.0	28975069.999999996
16560.0	29011809.999999985
16570.0	29080439.999999993
16580.0	29147459.999999993
16590.0	29122479.99999999
16600.0	29239820.0
16610.0	29268459.999999996
16620.0	29137369.999999993
16630.0	29374810.0
16640.0	29356367.499999993
16650.0	29430727.49999999
