# Flux units: erg / (cm m2 s)
# Wavelength units: Angstrom
wave	flux
9000.0	14221542499999.998
9010.0	14349049999999.996
9020.0	14618419999999.994
9030.0	14798274999999.996
9040.0	15016187499999.998
9050.0	15201077499999.996
9060.0	15403257499999.996
9070.0	15580794999999.996
9080.0	15769839999999.994
9090.0	15962177499999.998
9100.0	16170207499999.996
9110.0	16308442499999.998
9120.0	16603404999999.994
9130.0	16789627499999.994
9140.0	17008387499999.998
9150.0	17204989999999.998
9160.0	17323947499999.998
9170.0	17613007499999.996
9180.0	17845902499999.996
9190.0	18066624999999.992
9200.0	18232212499999.996
9210.0	18538162499999.992
9220.0	18714679999999.992
9230.0	19032764999999.992
9240.0	19216342500000.0
9250.0	19419274999999.996
9260.0	19506674999999.996
9270.0	19696517499999.992
9280.0	19186912499999.992
9290.0	19042529999999.996
9300.0	19567252499999.996
9310.0	19268529999999.996
9320.0	20165202499999.996
9330.0	20001427499999.992
9340.0	19487902500000.0
9350.0	19917949999999.992
9360.0	20910367499999.996
9370.0	20709162499999.992
9380.0	21876757500000.0
9390.0	22597927500000.0
9400.0	23082767499999.996
9410.0	23270492499999.992
9420.0	23457297499999.992
9430.0	23705244999999.996
9440.0	23643179999999.996
9450.0	24029607499999.992
9460.0	23944352499999.996
9470.0	24085604999999.992
9480.0	24641852499999.996
9490.0	25259422499999.992
9500.0	24173769999999.992
9510.0	25798802499999.996
9520.0	25728447499999.992
9530.0	26380384999999.992
9540.0	26910894999999.992
9550.0	26849142499999.992
9560.0	26076124999999.996
9570.0	27334212499999.99
9580.0	28004877499999.992
9590.0	27814259999999.992
9600.0	28143324999999.996
9610.0	28919979999999.992
9620.0	28307572499999.992
9630.0	29836169999999.992
9640.0	29596837499999.992
9650.0	30202899999999.992
9660.0	30916449999999.996
9670.0	30570332499999.99
9680.0	31653684999999.996
9690.0	31878994999999.996
9700.0	32177302499999.99
9710.0	32798657499999.99
9720.0	32878147499999.99
9730.0	33050019999999.996
9740.0	33764377499999.992
9750.0	33889894999999.996
9760.0	34375604999999.984
9770.0	34931284999999.992
9780.0	35292359999999.984
9790.0	35406404999999.99
9800.0	35862089999999.984
9810.0	36581787499999.99
9820.0	36883815000000.0
9830.0	37248797499999.99
9840.0	37769892499999.984
9850.0	38014082499999.984
9860.0	38544597499999.99
9870.0	38948682499999.99
9880.0	39316789999999.984
9890.0	39791074999999.99
9900.0	40204057499999.984
9910.0	40720359999999.99
9920.0	41081297499999.984
9930.0	41494754999999.984
9940.0	41919602499999.984
9950.0	42477289999999.984
9960.0	42823202499999.984
9970.0	43300529999999.99
9980.0	43758707499999.99
9990.0	44163259999999.984
10000.0	44575302499999.99
10010.0	45031050000000.0
10020.0	45475919999999.99
10030.0	45932187499999.99
10040.0	46388982499999.99
10050.0	46891222499999.984
10060.0	47314779999999.984
10070.0	47808974999999.984
10080.0	48235199999999.984
10090.0	48721322499999.984
10100.0	49226007499999.984
10110.0	49673174999999.984
10120.0	50155042499999.984
10130.0	50649974999999.984
10140.0	51136837499999.984
10150.0	51624919999999.984
10160.0	52123302499999.99
10170.0	52613394999999.99
10180.0	53092039999999.984
10190.0	53621849999999.99
10200.0	54122032499999.99
10210.0	54623817499999.984
10220.0	55144739999999.984
10230.0	55657547499999.984
10240.0	56179052499999.984
10250.0	56699857499999.98
10260.0	57219859999999.984
10270.0	57748624999999.99
10280.0	58295729999999.99
10290.0	58825659999999.98
10300.0	59366199999999.98
10310.0	59907194999999.984
10320.0	60443119999999.99
10330.0	60990777499999.984
10340.0	61560072499999.99
10350.0	62115704999999.98
10360.0	62675684999999.984
10370.0	63241422499999.984
10380.0	63811532499999.984
10390.0	64373034999999.984
10400.0	64950737499999.984
10410.0	65526827499999.98
10420.0	66109907499999.98
10430.0	66695884999999.984
10440.0	67282017499999.99
10450.0	67864697499999.98
10460.0	68473327499999.99
10470.0	69072284999999.99
10480.0	69665307499999.98
10490.0	70275914999999.99
10500.0	70885764999999.97
10510.0	71499224999999.98
10520.0	72120952499999.98
10530.0	72731324999999.98
10540.0	73370489999999.97
10550.0	74001202499999.98
10560.0	74635257499999.98
10570.0	75272932499999.98
10580.0	75896824999999.98
10590.0	76544522499999.98
10600.0	77130007499999.98
10610.0	77855042499999.98
10620.0	78574032499999.98
10630.0	79309314999999.98
10640.0	80014537499999.97
10650.0	80651334999999.97
10660.0	81358659999999.98
10670.0	81976469999999.97
10680.0	82646479999999.98
10690.0	83345254999999.95
10700.0	84023635000000.0
10710.0	84746907499999.97
10720.0	85424742499999.98
10730.0	86138997499999.98
10740.0	86854717499999.98
10750.0	87489514999999.98
10760.0	88313269999999.97
10770.0	88955077499999.97
10780.0	89635789999999.98
10790.0	90458824999999.97
10800.0	91091649999999.98
10810.0	91873599999999.95
10820.0	92633097499999.97
10830.0	93390702499999.98
10840.0	94094394999999.97
10850.0	94856272499999.97
10860.0	95550597499999.98
10870.0	96185234999999.98
10880.0	97112172499999.97
10890.0	97818422499999.97
10900.0	98349082500000.0
10910.0	99241159999999.98
10920.0	99886064999999.98
10930.0	100312607499999.97
10940.0	101148174999999.98
10950.0	101865499999999.98
10960.0	102061549999999.95
10970.0	103378174999999.98
10980.0	103410174999999.98
10990.0	104027949999999.98
11000.0	105039949999999.98
11010.0	103917684999999.98
11020.0	105501149999999.98
11030.0	105306374999999.98
11040.0	106308199999999.98
11050.0	107482339999999.95
11060.0	104822079999999.97
11070.0	108062524999999.95
11080.0	105604569999999.98
11090.0	110196049999999.98
11100.0	108777179999999.97
11110.0	103445779999999.98
11120.0	110811474999999.97
11130.0	107379174999999.98
11140.0	110003474999999.98
11150.0	100879404999999.98
11160.0	109574764999999.97
11170.0	105258999999999.95
11180.0	113736624999999.97
11190.0	108156624999999.98
11200.0	99813249999999.98
11210.0	117035154999999.95
11220.0	105367267499999.97
11230.0	113492587499999.95
11240.0	108663389999999.98
11250.0	113003154999999.97
11260.0	116890714999999.97
11270.0	121036474999999.97
11280.0	124712924999999.97
11290.0	127099599999999.98
11300.0	123728899999999.97
11310.0	127127474999999.97
11320.0	129577724999999.98
11330.0	124356074999999.95
11340.0	112435444999999.97
11350.0	101804979999999.97
11360.0	126936299999999.97
11370.0	133891099999999.97
11380.0	136577724999999.98
11390.0	137572224999999.97
11400.0	137753199999999.98
11410.0	139133549999999.98
11420.0	138019749999999.95
11430.0	139041249999999.98
11440.0	132673874999999.95
11450.0	139207899999999.97
11460.0	142916499999999.94
11470.0	140370569999999.95
11480.0	136968414999999.95
11490.0	145838824999999.94
11500.0	127863049999999.97
11510.0	147441349999999.97
11520.0	144024600000000.0
11530.0	141433374999999.94
11540.0	141427824999999.97
11550.0	148211849999999.97
11560.0	144963575000000.0
11570.0	149734749999999.97
11580.0	146999699999999.97
11590.0	150617599999999.97
11600.0	146465024999999.97
11610.0	154001299999999.94
11620.0	155197174999999.94
11630.0	162487324999999.97
11640.0	151168074999999.94
11650.0	160748924999999.94
11660.0	156486699999999.97
11670.0	164545774999999.94
11680.0	164677924999999.97
11690.0	162800399999999.97
11700.0	164441524999999.97
11710.0	169902849999999.97
11720.0	171855974999999.97
11730.0	163835449999999.94
11740.0	170246024999999.94
11750.0	173845599999999.94
11760.0	176438749999999.94
11770.0	177716249999999.97
11780.0	177019349999999.97
11790.0	181715499999999.9
11800.0	182097249999999.97
11810.0	183715824999999.94
11820.0	183283474999999.97
11830.0	187016049999999.97
11840.0	187946774999999.94
11850.0	188187124999999.97
11860.0	190346124999999.94
11870.0	192357149999999.94
11880.0	193944624999999.97
11890.0	194052649999999.94
11900.0	195407124999999.94
11910.0	197732249999999.94
11920.0	199287899999999.94
11930.0	201234124999999.97
11940.0	200588949999999.94
11950.0	202968349999999.97
11960.0	204857424999999.97
11970.0	206562924999999.97
11980.0	206814874999999.97
11990.0	207013349999999.94
12000.0	210003624999999.94
12010.0	211885049999999.97
12020.0	212267224999999.9
12030.0	213603574999999.97
12040.0	214762249999999.94
12050.0	217082774999999.94
12060.0	218525049999999.97
12070.0	218713774999999.94
12080.0	220700324999999.9
12090.0	221464749999999.97
12100.0	223296274999999.97
12110.0	225022124999999.97
12120.0	225736449999999.97
12130.0	227081424999999.94
12140.0	228417574999999.94
12150.0	229353549999999.94
12160.0	232087149999999.94
12170.0	233105199999999.97
12180.0	234410524999999.94
12190.0	235953224999999.97
12200.0	237220074999999.94
12210.0	238713399999999.94
12220.0	239925824999999.97
12230.0	241368074999999.94
12240.0	242996999999999.97
12250.0	244230999999999.94
12260.0	246052000000000.0
12270.0	247286049999999.97
12280.0	248872149999999.9
12290.0	249907949999999.9
12300.0	251536749999999.94
12310.0	253076499999999.97
12320.0	254538474999999.94
12330.0	255550249999999.94
12340.0	257602874999999.9
12350.0	259418799999999.97
12360.0	260600774999999.94
12370.0	261955024999999.97
12380.0	263649024999999.94
12390.0	265109749999999.97
12400.0	266655824999999.94
12410.0	267917399999999.97
12420.0	269541749999999.97
12430.0	271019499999999.94
12440.0	272521274999999.94
12450.0	274283924999999.94
12460.0	275581974999999.94
12470.0	277157174999999.94
12480.0	278596349999999.9
12490.0	280044249999999.97
12500.0	281579399999999.94
12510.0	283156149999999.9
12520.0	284692249999999.94
12530.0	286434949999999.9
12540.0	287459249999999.94
12550.0	289468199999999.9
12560.0	291189624999999.94
12570.0	292567974999999.94
12580.0	294188174999999.94
12590.0	295546574999999.9
12600.0	297424000000000.0
12610.0	299071649999999.94
12620.0	300746799999999.94
12630.0	302274199999999.94
12640.0	303808999999999.94
12650.0	305386649999999.94
12660.0	306585750000000.0
12670.0	308337599999999.94
12680.0	310295799999999.94
12690.0	311889399999999.94
12700.0	313455549999999.94
12710.0	314939449999999.94
12720.0	316155999999999.94
12730.0	318053999999999.94
12740.0	319044424999999.94
12750.0	321774374999999.94
12760.0	322850399999999.94
12770.0	324471449999999.94
12780.0	326607749999999.94
12790.0	327491999999999.94
12800.0	327982949999999.9
12810.0	330694299999999.94
12820.0	332604949999999.94
12830.0	332623874999999.9
12840.0	336223549999999.94
12850.0	336556899999999.9
12860.0	338379349999999.94
12870.0	340253049999999.8
12880.0	341195299999999.9
12890.0	343184224999999.9
12900.0	345484599999999.94
12910.0	347199849999999.94
12920.0	346002475000000.0
12930.0	349449624999999.9
12940.0	351611074999999.94
12950.0	350960349999999.94
12960.0	352190624999999.94
12970.0	353503324999999.94
12980.0	360250624999999.94
12990.0	359639124999999.9
13000.0	360589499999999.9
13010.0	360339574999999.94
13020.0	365680374999999.94
13030.0	363646599999999.94
13040.0	366824774999999.9
13050.0	371601799999999.94
13060.0	373509849999999.94
13070.0	368543299999999.9
13080.0	377031824999999.9
13090.0	377747599999999.8
13100.0	377967549999999.94
13110.0	382364999999999.94
13120.0	382002449999999.9
13130.0	383211824999999.9
13140.0	384744324999999.9
13150.0	379206949999999.94
13160.0	389600099999999.9
13170.0	391996799999999.9
13180.0	394436549999999.94
13190.0	388104949999999.94
13200.0	395247574999999.94
13210.0	399473924999999.9
13220.0	401447674999999.9
13230.0	387353174999999.94
13240.0	395110374999999.9
13250.0	402810924999999.9
13260.0	405230324999999.94
13270.0	404954999999999.94
13280.0	407774149999999.94
13290.0	400857199999999.94
13300.0	401983599999999.94
13310.0	401036524999999.9
13320.0	356181524999999.94
13330.0	388657799999999.9
13340.0	401319199999999.94
13350.0	382320274999999.9
13360.0	347850749999999.9
13370.0	295727974999999.9
13380.0	281099124999999.94
13390.0	303135324999999.9
13400.0	263642049999999.97
13410.0	314744949999999.9
13420.0	242072799999999.94
13430.0	245100374999999.94
13440.0	267451344999999.94
13450.0	198050174999999.94
13460.0	289762094999999.94
13470.0	219648314999999.94
13480.0	127053542499999.95
13490.0	226778972499999.9
13500.0	215964734749999.97
13510.0	204938824249999.94
13520.0	134527277500000.0
13530.0	220499827499999.94
13540.0	164073799999999.97
13550.0	109361772999999.97
13560.0	206396206999999.97
13570.0	179988209999999.94
13580.0	187499729999999.97
13590.0	155796712499999.94
13600.0	216663737499999.97
13610.0	165316289999999.97
13620.0	103495285749999.97
13630.0	237561567249999.94
13640.0	248633907499999.97
13650.0	171532782499999.97
13660.0	300282649999999.94
13670.0	287358949999999.94
13680.0	191876528249999.97
13690.0	262060222749999.9
13700.0	260478999999999.9
13710.0	248047974999999.97
13720.0	305923974999999.94
13730.0	304495824999999.9
13740.0	254777799999999.94
13750.0	331039374999999.9
13760.0	344978924999999.94
13770.0	313754449999999.94
13780.0	392288999999999.94
13790.0	329416949999999.9
13800.0	365887137499999.9
13810.0	205015962499999.94
13820.0	312329694999999.94
13830.0	164007074999999.94
13840.0	354188074999999.9
13850.0	210233249999999.94
13860.0	200205419999999.94
13870.0	355902609999999.9
13880.0	200479784999999.97
13890.0	293011909999999.94
13900.0	305364364999999.9
13910.0	267778074999999.94
13920.0	212305194999999.94
13930.0	275196035000000.0
13940.0	311160624999999.94
13950.0	186596995999999.94
13960.0	213016284999999.97
13970.0	247266904999999.94
13980.0	320666849999999.9
13990.0	366531099999999.94
14000.0	219954954999999.97
14010.0	175195309999999.97
14020.0	380968950000000.0
14030.0	403317299999999.9
14040.0	272939379999999.9
14050.0	180673804999999.94
14060.0	434838699999999.94
14070.0	279190549999999.9
14080.0	326921574999999.9
14090.0	220917109999999.97
14100.0	287420194999999.94
14110.0	387311299999999.9
14120.0	250183499999999.94
14130.0	401368549999999.9
14140.0	202339127499999.97
14150.0	278557762499999.9
14160.0	399986449999999.9
14170.0	343652969999999.9
14180.0	255989889999999.94
14190.0	193070734999999.97
14200.0	276085714999999.94
14210.0	340075149999999.9
14220.0	367752149999999.94
14230.0	241801374999999.94
14240.0	226937419999999.97
14250.0	374628674999999.8
14260.0	270727274999999.97
14270.0	413744899999999.94
14280.0	318198854999999.9
14290.0	198996629999999.94
14300.0	485563474999999.8
14310.0	431270124999999.9
14320.0	328812549999999.94
14330.0	396348199999999.94
14340.0	197862399999999.97
14350.0	410607324999999.94
14360.0	479104899999999.9
14370.0	436750699999999.8
14380.0	383965249999999.94
14390.0	356592797499999.9
14400.0	340719217499999.94
14410.0	416781574999999.9
14420.0	417441899999999.9
14430.0	508846899999999.9
14440.0	463895324999999.94
14450.0	303645524999999.94
14460.0	412915824999999.94
14470.0	470567074999999.94
14480.0	519360549999999.9
14490.0	538101749999999.94
14500.0	415252150000000.0
14510.0	301297649999999.94
14520.0	588948074999999.8
14530.0	585420699999999.9
14540.0	520229849999999.8
14550.0	528572874999999.94
14560.0	453767774999999.9
14570.0	438080449999999.94
14580.0	608066574999999.8
14590.0	637192374999999.9
14600.0	626751149999999.9
14610.0	596961424999999.9
14620.0	502381349999999.9
14630.0	435387999999999.94
14640.0	624320399999999.8
14650.0	574831249999999.9
14660.0	591344824999999.8
14670.0	617662249999999.9
14680.0	557317000000000.0
14690.0	521179049999999.8
14700.0	553599299999999.8
14710.0	571232524999999.9
14720.0	623252674999999.8
14730.0	622089649999999.9
14740.0	589388524999999.9
14750.0	617669749999999.9
14760.0	581794149999999.9
14770.0	601235924999999.8
14780.0	654098799999999.9
14790.0	658530174999999.9
14800.0	584505624999999.9
14810.0	655009849999999.9
14820.0	590318925000000.0
14830.0	630321649999999.9
14840.0	695226699999999.8
14850.0	661921749999999.9
14860.0	662365050000000.0
14870.0	649367324999999.9
14880.0	654709599999999.8
14890.0	688244349999999.8
14900.0	616700424999999.9
14910.0	673401249999999.9
14920.0	650398124999999.8
14930.0	729871549999999.6
14940.0	679311824999999.9
14950.0	715633024999999.8
14960.0	697035674999999.8
14970.0	693646599999999.9
14980.0	647522074999999.9
14990.0	741510849999999.8
15000.0	756321874999999.8
15010.0	725865574999999.9
15020.0	680216749999999.8
15030.0	743384649999999.8
15040.0	712260074999999.9
15050.0	759001724999999.8
15060.0	775564649999999.9
15070.0	725731324999999.8
15080.0	763044049999999.6
15090.0	764661149999999.9
15100.0	778524274999999.8
15110.0	763263649999999.9
15120.0	796679199999999.8
15130.0	763295499999999.8
15140.0	781013974999999.8
15150.0	822944199999999.9
15160.0	802508199999999.8
15170.0	807330899999999.8
15180.0	800792499999999.9
15190.0	801815824999999.9
15200.0	823345749999999.9
15210.0	827990699999999.9
15220.0	816886449999999.8
15230.0	844199399999999.9
15240.0	833350949999999.8
15250.0	832341124999999.8
15260.0	847950424999999.8
15270.0	842474324999999.8
15280.0	842629274999999.8
15290.0	865101449999999.9
15300.0	843388374999999.9
15310.0	853998049999999.8
15320.0	856307774999999.8
15330.0	872441299999999.9
15340.0	886865599999999.6
15350.0	878537249999999.8
15360.0	883646649999999.8
15370.0	882254274999999.8
15380.0	883766674999999.9
15390.0	897861899999999.9
15400.0	891899849999999.8
15410.0	903206199999999.8
15420.0	903824174999999.8
15430.0	901021350000000.0
15440.0	895539449999999.8
15450.0	910859849999999.6
15460.0	923376474999999.8
15470.0	927224174999999.8
15480.0	923755824999999.8
15490.0	916978149999999.9
15500.0	934341274999999.8
15510.0	923803874999999.8
15520.0	934615824999999.9
15530.0	943424224999999.8
15540.0	945421774999999.8
15550.0	946675874999999.9
15560.0	950668724999999.9
15570.0	948431474999999.8
15580.0	952516949999999.8
15590.0	962013124999999.9
15600.0	961003449999999.9
15610.0	961455699999999.6
15620.0	972925999999999.6
15630.0	973035099999999.6
15640.0	974062574999999.6
15650.0	968229374999999.6
15660.0	978657399999999.9
15670.0	987079499999999.8
15680.0	989244099999999.9
15690.0	979248249999999.8
15700.0	997589099999999.6
15710.0	996042774999999.9
15720.0	978632099999999.8
15730.0	999612349999999.8
15740.0	1004769599999999.8
15750.0	996161599999999.8
15760.0	1013508249999999.9
15770.0	1018648749999999.8
15780.0	1019357749999999.9
15790.0	1018597999999999.9
15800.0	1024831500000000.0
15810.0	1026161999999999.8
15820.0	1030401999999999.6
15830.0	1031813999999999.9
15840.0	1037472250000000.0
15850.0	1039445749999999.6
15860.0	1039228249999999.9
15870.0	1040323999999999.9
15880.0	1048039749999999.6
15890.0	1051357499999999.9
15900.0	1051120500000000.0
15910.0	1053544749999999.8
15920.0	1058118249999999.8
15930.0	1060802999999999.9
15940.0	1066477499999999.8
15950.0	1068134749999999.6
15960.0	1067123999999999.8
15970.0	1072263249999999.9
15980.0	1074438500000000.0
15990.0	1080376499999999.9
16000.0	1083867499999999.8
16010.0	1084504500000000.0
16020.0	1088932249999999.6
16030.0	1082453249999999.8
16040.0	1094716749999999.8
16050.0	1096239249999999.9
16060.0	1099136499999999.6
16070.0	1102431499999999.9
16080.0	1105095999999999.8
16090.0	1109235999999999.6
16100.0	1102859499999999.8
16110.0	1113920249999999.6
16120.0	1117574249999999.9
16130.0	1116300499999999.8
16140.0	1121955499999999.8
16150.0	1121914499999999.9
16160.0	1125968499999999.5
16170.0	1126576249999999.5
16180.0	1130132999999999.8
16190.0	1134167249999999.8
16200.0	1136910249999999.8
16210.0	1118703499999999.8
16220.0	1131161500000000.0
16230.0	1131038999999999.8
16240.0	1090880499999999.8
16250.0	1147479749999999.8
16260.0	1043078450000000.0
16270.0	1146794749999999.8
16280.0	985455549999999.8
16290.0	1137955249999999.8
16300.0	1122916174999999.8
16310.0	1072058724999999.9
16320.0	1155781249999999.8
16330.0	946704099999999.8
16340.0	1134393249999999.8
16350.0	981958799999999.5
16360.0	1132937899999999.8
16370.0	1179756749999999.8
16380.0	1150468999999999.5
16390.0	1177255249999999.5
16400.0	1125778924999999.6
16410.0	1185315274999999.8
16420.0	1193178999999999.8
16430.0	1170514499999999.8
16440.0	1207329499999999.5
16450.0	1194091999999999.8
16460.0	1158246749999999.5
16470.0	1206342999999999.5
16480.0	1128743949999999.5
16490.0	1180811749999999.8
16500.0	1208981749999999.8
16510.0	1172535249999999.8
16520.0	1226597000000000.0
