# Flux units: erg / (cm m2 s)
# Wavelength units: Angstrom
wave	flux
9000.0	1658829749999.9995
9010.0	1656535999999.9998
9020.0	1714799499999.9995
9030.0	1740711999999.9998
9040.0	1767892749999.9993
9050.0	1795059249999.9998
9060.0	1824130249999.9998
9070.0	1853409499999.9998
9080.0	1881185499999.9998
9090.0	1906886499999.9995
9100.0	1936500749999.9995
9110.0	1971384249999.9993
9120.0	2004808999999.9998
9130.0	2034688999999.9993
9140.0	2064731999999.9998
9150.0	2083676249999.9993
9160.0	2109175499999.9995
9170.0	2148840249999.9995
9180.0	2193852499999.9998
9190.0	2215803749999.999
9200.0	2236498749999.9995
9210.0	2278367499999.999
9220.0	2322470499999.9995
9230.0	2368711249999.9995
9240.0	2404378999999.999
9250.0	2425640999999.999
9260.0	2424040249999.9995
9270.0	2462148749999.9995
9280.0	2447597999999.9995
9290.0	2350488999999.9995
9300.0	2574966749999.999
9310.0	2346889749999.9995
9320.0	2683021249999.9995
9330.0	2570978749999.999
9340.0	2389139250000.0
9350.0	2271003099999.9995
9360.0	2439797749999.9995
9370.0	2348749449999.9995
9380.0	2864109099999.9985
9390.0	2943072749999.999
9400.0	3006214249999.9995
9410.0	3046974999999.9995
9420.0	3068728499999.999
9430.0	3158083499999.9995
9440.0	3209613999999.999
9450.0	3244471999999.9995
9460.0	3219566999999.9995
9470.0	2885975499999.9995
9480.0	3339662999999.9995
9490.0	3386618999999.9985
9500.0	2904127999999.9995
9510.0	3476926249999.9995
9520.0	3484167499999.9995
9530.0	3516056499999.999
9540.0	3679565749999.9985
9550.0	3672939999999.9985
9560.0	3272813749999.9995
9570.0	3798894499999.9985
9580.0	3843877749999.999
9590.0	3943348249999.9995
9600.0	3681397249999.999
9610.0	4060056499999.999
9620.0	3613113499999.999
9630.0	4158496249999.9985
9640.0	4125031999999.999
9650.0	4192716499999.9985
9660.0	4311258499999.999
9670.0	4346923499999.999
9680.0	4470928500000.0
9690.0	4510798499999.998
9700.0	4584525749999.999
9710.0	4626329999999.998
9720.0	4629915749999.999
9730.0	4710861249999.998
9740.0	4784919999999.998
9750.0	4774393999999.998
9760.0	4950612499999.998
9770.0	5021042999999.998
9780.0	5096479999999.999
9790.0	5133621249999.998
9800.0	5148914749999.999
9810.0	5288025999999.999
9820.0	5384342499999.998
9830.0	5448693499999.998
9840.0	5517530999999.999
9850.0	5567726999999.998
9860.0	5613405249999.999
9870.0	5736179749999.998
9880.0	5760970249999.998
9890.0	5850865499999.998
9900.0	5954646499999.998
9910.0	6055703249999.999
9920.0	6112691749999.999
9930.0	6192673749999.998
9940.0	6241102749999.998
9950.0	6367809999999.999
9960.0	6434956749999.998
9970.0	6532922249999.999
9980.0	6613426499999.998
9990.0	6689312749999.999
10000.0	6757193999999.998
10010.0	6839863249999.997
10020.0	6931324749999.997
10030.0	7014433749999.998
10040.0	7087235499999.998
10050.0	7192423249999.998
10060.0	7276555249999.999
10070.0	7367040249999.998
10080.0	7440830749999.997
10090.0	7538560249999.999
10100.0	7637614249999.998
10110.0	7724662250000.0
10120.0	7810238749999.997
10130.0	7909711249999.997
10140.0	8004338249999.998
10150.0	8101778249999.999
10160.0	8197243499999.999
10170.0	8294785499999.998
10180.0	8385563999999.998
10190.0	8489459499999.998
10200.0	8589645249999.998
10210.0	8690058749999.998
10220.0	8792297999999.997
10230.0	8894110749999.998
10240.0	8996536249999.996
10250.0	9098819250000.0
10260.0	9204559749999.998
10270.0	9312953249999.998
10280.0	9419764249999.996
10290.0	9528018500000.0
10300.0	9636956249999.998
10310.0	9745010249999.998
10320.0	9851580249999.998
10330.0	9967119499999.996
10340.0	10081714999999.998
10350.0	10194484999999.998
10360.0	10310527499999.998
10370.0	10426124999999.996
10380.0	10542344999999.998
10390.0	10659749999999.996
10400.0	10779524999999.998
10410.0	10898949999999.996
10420.0	11021065000000.0
10430.0	11142032499999.996
10440.0	11265177499999.998
10450.0	11388472499999.996
10460.0	11513772499999.998
10470.0	11640334999999.996
10480.0	11767514999999.996
10490.0	11895202499999.996
10500.0	12020299999999.998
10510.0	12156137499999.996
10520.0	12285194999999.998
10530.0	12417809999999.996
10540.0	12555744999999.996
10550.0	12689482499999.998
10560.0	12826307499999.996
10570.0	12964612499999.998
10580.0	13102072499999.996
10590.0	13237469999999.994
10600.0	13334709999999.998
10610.0	13524152499999.996
10620.0	13677024999999.998
10630.0	13864557499999.996
10640.0	14015927499999.996
10650.0	14158647499999.994
10660.0	14311489999999.994
10670.0	14423857499999.998
10680.0	14584149999999.996
10690.0	14760819999999.998
10700.0	14880614999999.998
10710.0	15063109999999.996
10720.0	15213564999999.996
10730.0	15384287500000.0
10740.0	15523927499999.998
10750.0	15701799999999.992
10760.0	15863867499999.998
10770.0	16006334999999.996
10780.0	16120994999999.996
10790.0	16345614999999.998
10800.0	16490417499999.996
10810.0	16683387499999.998
10820.0	16851924999999.998
10830.0	17022624999999.994
10840.0	17189069999999.994
10850.0	17364867499999.994
10860.0	17531794999999.994
10870.0	17657757499999.996
10880.0	17887187499999.996
10890.0	18062552499999.996
10900.0	18152097500000.0
10910.0	18392064999999.996
10920.0	18532742499999.996
10930.0	18659747499999.992
10940.0	18815797499999.996
10950.0	19075252499999.992
10960.0	19146909999999.996
10970.0	19316922499999.996
10980.0	19194554999999.996
10990.0	19383732499999.996
11000.0	19982099999999.996
11010.0	18841224999999.992
11020.0	20157009999999.996
11030.0	19457654999999.996
11040.0	20599462499999.992
11050.0	20639674999999.996
11060.0	20898082499999.992
11070.0	21027837499999.992
11080.0	21258377499999.996
11090.0	21853979999999.996
11100.0	22006359999999.996
11110.0	21961587499999.992
11120.0	22311397500000.0
11130.0	22384202499999.996
11140.0	22585577499999.992
11150.0	18452581499999.996
11160.0	20970357499999.992
11170.0	20750652499999.996
11180.0	23320739999999.996
11190.0	21382877499999.996
11200.0	16669996999999.998
11210.0	23515979999999.992
11220.0	20273582249999.992
11230.0	23851661749999.992
11240.0	21118962499999.996
11250.0	20803939749999.992
11260.0	22713711749999.992
11270.0	21634786249999.992
11280.0	25446721249999.996
11290.0	26078449999999.996
11300.0	25922139999999.99
11310.0	24777947499999.992
11320.0	26849342499999.992
11330.0	26973522499999.99
11340.0	26580262499999.99
11350.0	19474299999999.996
11360.0	25916962499999.992
11370.0	27675262499999.99
11380.0	27677962499999.992
11390.0	28245044999999.992
11400.0	28829074999999.992
11410.0	28787557499999.992
11420.0	26288134999999.992
11430.0	28331047499999.992
11440.0	27017332499999.992
11450.0	29277749999999.992
11460.0	29097147499999.992
11470.0	30261128999999.992
11480.0	25609955499999.996
11490.0	30176314999999.99
11500.0	22560742499999.996
11510.0	31830782499999.996
11520.0	32117055000000.0
11530.0	32103199999999.992
11540.0	30907632499999.992
11550.0	30796504999999.996
11560.0	32832654999999.996
11570.0	31078472499999.996
11580.0	31675864999999.992
11590.0	34032967499999.99
11600.0	29991534999999.992
11610.0	33905659999999.99
11620.0	34977460000000.0
11630.0	34699069999999.992
11640.0	27693594499999.992
11650.0	34908264999999.992
11660.0	32207757499999.992
11670.0	36257154999999.99
11680.0	36503014999999.99
11690.0	36275364999999.99
11700.0	34548839999999.99
11710.0	36840927499999.99
11720.0	37954457499999.99
11730.0	31156939499999.992
11740.0	37068327499999.984
11750.0	38165054999999.99
11760.0	39032212499999.99
11770.0	39411134999999.99
11780.0	38933134999999.99
11790.0	40184429999999.984
11800.0	39660372499999.99
11810.0	40174042499999.99
11820.0	39112907499999.99
11830.0	41547734999999.99
11840.0	41861537499999.984
11850.0	40514037500000.0
11860.0	41763060000000.0
11870.0	42611239999999.99
11880.0	43073837499999.984
11890.0	43502127499999.984
11900.0	43796630000000.0
11910.0	44363992500000.0
11920.0	44643562499999.99
11930.0	45060049999999.99
11940.0	45145504999999.99
11950.0	45791944999999.984
11960.0	46057517499999.99
11970.0	46439325000000.0
11980.0	45859987499999.99
11990.0	45965874999999.984
12000.0	47630854999999.984
12010.0	48018449999999.99
12020.0	47845394999999.99
12030.0	48544997499999.99
12040.0	48614962499999.99
12050.0	49512504999999.984
12060.0	49885752499999.98
12070.0	50224397500000.0
12080.0	50619984999999.984
12090.0	50903374999999.984
12100.0	51403229999999.984
12110.0	51771469999999.984
12120.0	51663499999999.984
12130.0	52388377499999.99
12140.0	52340964999999.99
12150.0	52954117500000.0
12160.0	53753497499999.99
12170.0	54227842499999.984
12180.0	54539734999999.99
12190.0	55067639999999.99
12200.0	55147302499999.99
12210.0	55826657499999.984
12220.0	56088657499999.984
12230.0	56622577499999.984
12240.0	56892422499999.984
12250.0	57517619999999.984
12260.0	57924197499999.99
12270.0	58385579999999.98
12280.0	58725122499999.984
12290.0	58740809999999.984
12300.0	59649849999999.98
12310.0	59836462499999.984
12320.0	60500494999999.97
12330.0	60821134999999.98
12340.0	61445932499999.99
12350.0	61920752499999.99
12360.0	62329949999999.97
12370.0	62680399999999.984
12380.0	63266109999999.99
12390.0	63650354999999.99
12400.0	64145909999999.97
12410.0	64567784999999.984
12420.0	65069322499999.984
12430.0	65516532499999.99
12440.0	66014752499999.984
12450.0	66481917499999.99
12460.0	66900269999999.99
12470.0	67376274999999.98
12480.0	67879887499999.98
12490.0	68341027499999.98
12500.0	68802802499999.99
12510.0	69295274999999.97
12520.0	69798022500000.0
12530.0	70291217499999.984
12540.0	70197002499999.99
12550.0	71231399999999.98
12560.0	71716457499999.98
12570.0	72229442499999.98
12580.0	72754255000000.0
12590.0	73214332499999.98
12600.0	73720117499999.97
12610.0	74259747499999.98
12620.0	74756872499999.97
12630.0	75269405000000.0
12640.0	75753632499999.98
12650.0	76268177499999.98
12660.0	76756247499999.98
12670.0	77263737500000.0
12680.0	77828047499999.98
12690.0	78381919999999.97
12700.0	78856054999999.98
12710.0	79124139999999.97
12720.0	79552807499999.98
12730.0	80358319999999.98
12740.0	80827807500000.0
12750.0	81545187499999.98
12760.0	81832019999999.98
12770.0	82627254999999.97
12780.0	83157472499999.98
12790.0	83702957499999.98
12800.0	84063552499999.98
12810.0	84635117499999.98
12820.0	85324097499999.97
12830.0	85143304999999.97
12840.0	86437924999999.98
12850.0	85988599999999.97
12860.0	87607854999999.98
12870.0	88014884999999.98
12880.0	88728009999999.98
12890.0	89080267499999.97
12900.0	89458599999999.98
12910.0	89890967499999.97
12920.0	90263747499999.97
12930.0	91171287499999.98
12940.0	91850704999999.98
12950.0	89083154999999.98
12960.0	90482935000000.0
12970.0	93339739999999.97
12980.0	94466014999999.97
12990.0	92603169999999.98
13000.0	95729034999999.97
13010.0	96129274999999.97
13020.0	96787834999999.98
13030.0	95594022499999.97
13040.0	97733569999999.97
13050.0	98628024999999.98
13060.0	99355787499999.97
13070.0	99257049999999.97
13080.0	100375982499999.97
13090.0	100256269999999.97
13100.0	101533824999999.97
13110.0	102299949999999.97
13120.0	102033374999999.98
13130.0	103238799999999.97
13140.0	102596359999999.98
13150.0	104094299999999.98
13160.0	103961824999999.95
13170.0	106035824999999.98
13180.0	106613024999999.97
13190.0	103105327499999.97
13200.0	107461407500000.0
13210.0	108203299999999.98
13220.0	109372049999999.98
13230.0	95718324999999.98
13240.0	109372874999999.97
13250.0	110981225000000.0
13260.0	110272799999999.98
13270.0	111727274999999.98
13280.0	111830849999999.98
13290.0	110686449999999.97
13300.0	114525174999999.97
13310.0	113514400000000.0
13320.0	108748144999999.97
13330.0	113796325000000.0
13340.0	114450204999999.98
13350.0	101872444999999.97
13360.0	112017819999999.95
13370.0	85576809999999.97
13380.0	95173582499999.95
13390.0	100146847499999.98
13400.0	114657274999999.95
13410.0	110410327499999.97
13420.0	81764297499999.98
13430.0	116914474999999.97
13440.0	94574651749999.98
13450.0	78116475249999.98
13460.0	119230841749999.97
13470.0	97258692249999.97
13480.0	102643364999999.97
13490.0	104732552499999.97
13500.0	98930594174999.97
13510.0	100616162024999.97
13520.0	64825777499999.97
13530.0	115451604999999.97
13540.0	75556637499999.97
13550.0	72932314839999.98
13560.0	99392593999999.98
13570.0	103741479999999.97
13580.0	86867271999999.98
13590.0	69550762999999.97
13600.0	123543019999999.97
13610.0	118233509999999.97
13620.0	79477058000000.0
13630.0	61642263999999.984
13640.0	104113622299999.98
13650.0	97173202499999.98
13660.0	117737829999999.97
13670.0	105281054999999.97
13680.0	90034394424999.98
13690.0	96786966974999.98
13700.0	95600064499999.97
13710.0	112936072499999.97
13720.0	113745744999999.95
13730.0	140771349999999.97
13740.0	76909546499999.98
13750.0	93559147499999.98
13760.0	104771079999999.98
13770.0	118067380000000.0
13780.0	138464924999999.95
13790.0	144361799999999.94
13800.0	144957289999999.97
13810.0	91080079999999.97
13820.0	147135142499999.94
13830.0	106294862499999.97
13840.0	129260014999999.98
13850.0	131475932499999.97
13860.0	108323018399999.95
13870.0	127015723699999.97
13880.0	125836272499999.97
13890.0	109384690099999.98
13900.0	123763849199999.98
13910.0	105526982499999.98
13920.0	142717937499999.97
13930.0	125461887999999.97
13940.0	138011534999999.95
13950.0	96201264199999.97
13960.0	110427767024999.98
13970.0	105520309174999.98
13980.0	131222979999999.97
13990.0	159550889999999.97
14000.0	109136087499999.97
14010.0	129651049999999.97
14020.0	144229237499999.97
14030.0	142618864999999.97
14040.0	84986557499999.98
14050.0	98119927799999.98
14060.0	148918452499999.97
14070.0	136863789999999.98
14080.0	105193722499999.97
14090.0	146884074999999.97
14100.0	133685382499999.97
14110.0	173677175000000.0
14120.0	113170387499999.98
14130.0	145701787499999.97
14140.0	164563628274999.97
14150.0	130584982924999.98
14160.0	110009938999999.97
14170.0	164447960499999.97
14180.0	77230413500000.0
14190.0	115037469999999.98
14200.0	118226628599999.97
14210.0	134930476000000.0
14220.0	129318119999999.97
14230.0	116954939999999.97
14240.0	109812687999999.98
14250.0	140852362499999.97
14260.0	104239434249999.98
14270.0	145844995249999.97
14280.0	101527281749999.97
14290.0	115072854749999.98
14300.0	155869582500000.0
14310.0	142101167999999.94
14320.0	175932149999999.97
14330.0	144103999999999.94
14340.0	154282119999999.97
14350.0	172890759999999.97
14360.0	158674574999999.94
14370.0	178882849999999.94
14380.0	132272249999999.98
14390.0	135432302749999.98
14400.0	163390593249999.97
14410.0	153210827499999.97
14420.0	143507332499999.97
14430.0	190036999999999.94
14440.0	171872554999999.94
14450.0	156675317499999.97
14460.0	155249857499999.97
14470.0	190389499999999.97
14480.0	176638174999999.94
14490.0	205879974999999.94
14500.0	189222228499999.94
14510.0	112934449499999.97
14520.0	205825000000000.0
14530.0	197767999999999.94
14540.0	174138599999999.97
14550.0	164456074999999.97
14560.0	166785144999999.97
14570.0	201338824999999.94
14580.0	215325024999999.97
14590.0	209386949999999.97
14600.0	215644074999999.97
14610.0	213636299999999.94
14620.0	184637409999999.94
14630.0	155819874999999.97
14640.0	221318574999999.9
14650.0	176506784999999.94
14660.0	174916494999999.97
14670.0	201469884999999.97
14680.0	192545424999999.94
14690.0	181817454999999.94
14700.0	221548474999999.94
14710.0	216256400000000.0
14720.0	223278039999999.94
14730.0	182208904999999.97
14740.0	208732224999999.97
14750.0	206535549999999.94
14760.0	178142874999999.94
14770.0	226696974999999.97
14780.0	233035349999999.9
14790.0	214957124999999.94
14800.0	224888249999999.97
14810.0	237326599999999.97
14820.0	230291399999999.94
14830.0	185990430000000.0
14840.0	243240499999999.9
14850.0	231582849999999.94
14860.0	224404324999999.97
14870.0	241480574999999.9
14880.0	228680874999999.97
14890.0	238852449999999.94
14900.0	202474839999999.94
14910.0	214846074999999.94
14920.0	210795024999999.94
14930.0	249904799999999.9
14940.0	238826474999999.97
14950.0	261132874999999.94
14960.0	245493524999999.94
14970.0	253108462499999.94
14980.0	159554692499999.97
14990.0	263406899999999.94
15000.0	263195474999999.94
15010.0	235524974999999.94
15020.0	225615399999999.94
15030.0	266490199999999.9
15040.0	251651649999999.9
15050.0	257625824999999.9
15060.0	272344824999999.9
15070.0	259158749999999.88
15080.0	267878874999999.94
15090.0	263302324999999.94
15100.0	264339274999999.94
15110.0	254178324999999.94
15120.0	279393774999999.94
15130.0	275117199999999.97
15140.0	263479349999999.94
15150.0	276894099999999.9
15160.0	282505849999999.9
15170.0	272305749999999.94
15180.0	282612899999999.9
15190.0	279792774999999.94
15200.0	284353874999999.94
15210.0	291341824999999.9
15220.0	277148149999999.9
15230.0	295457475000000.0
15240.0	292999149999999.94
15250.0	283549824999999.94
15260.0	295531124999999.9
15270.0	287978924999999.94
15280.0	279621174999999.94
15290.0	300004424999999.9
15300.0	281861799999999.9
15310.0	302354625000000.0
15320.0	284136549999999.94
15330.0	305573899999999.9
15340.0	308962049999999.94
15350.0	300818099999999.94
15360.0	307364749999999.94
15370.0	310294099999999.94
15380.0	311914574999999.9
15390.0	314075999999999.9
15400.0	313333099999999.94
15410.0	317652574999999.9
15420.0	314980574999999.94
15430.0	319883174999999.94
15440.0	316510724999999.9
15450.0	320888199999999.9
15460.0	324083949999999.8
15470.0	322760699999999.94
15480.0	326418624999999.94
15490.0	325847999999999.9
15500.0	328251899999999.94
15510.0	328023299999999.94
15520.0	330407724999999.9
15530.0	332078524999999.94
15540.0	334665299999999.94
15550.0	331563474999999.9
15560.0	336960374999999.94
15570.0	336185649999999.94
15580.0	339002199999999.94
15590.0	341292074999999.9
15600.0	340252699999999.9
15610.0	341207099999999.94
15620.0	344523324999999.94
15630.0	343949799999999.9
15640.0	347482199999999.94
15650.0	346527024999999.9
15660.0	350491249999999.9
15670.0	352513474999999.94
15680.0	353671849999999.94
15690.0	352954599999999.9
15700.0	356821649999999.94
15710.0	357563724999999.94
15720.0	351930099999999.94
15730.0	359502649999999.94
15740.0	361020399999999.94
15750.0	361283474999999.94
15760.0	364922599999999.94
15770.0	366438199999999.94
15780.0	366945199999999.94
15790.0	367771349999999.9
15800.0	370169724999999.94
15810.0	370219749999999.94
15820.0	372886174999999.9
15830.0	373402849999999.94
15840.0	375860149999999.9
15850.0	376877599999999.9
15860.0	377878624999999.94
15870.0	378343299999999.94
15880.0	381045074999999.9
15890.0	382450574999999.94
15900.0	383377024999999.94
15910.0	384526074999999.8
15920.0	386259524999999.9
15930.0	387793999999999.94
15940.0	389740174999999.94
15950.0	390864624999999.94
15960.0	391545374999999.94
15970.0	393256324999999.9
15980.0	394458824999999.8
15990.0	396803749999999.94
16000.0	398451324999999.94
16010.0	399232399999999.94
16020.0	401029199999999.9
16030.0	399797199999999.94
16040.0	403785324999999.9
16050.0	404972874999999.94
16060.0	406116174999999.9
16070.0	407544974999999.94
16080.0	409237649999999.94
16090.0	410629749999999.94
16100.0	410681349999999.94
16110.0	413644449999999.9
16120.0	415122074999999.94
16130.0	415624550000000.0
16140.0	417974824999999.9
16150.0	418748674999999.8
16160.0	420412974999999.8
16170.0	421675749999999.9
16180.0	423862824999999.9
16190.0	425182374999999.9
16200.0	426604774999999.9
16210.0	423511624999999.9
16220.0	429044274999999.94
16230.0	426449749999999.8
16240.0	404847699999999.94
16250.0	432952724999999.9
16260.0	393514249999999.94
16270.0	433992174999999.9
16280.0	372456274999999.9
16290.0	431931199999999.9
16300.0	433398849999999.8
16310.0	433887249999999.94
16320.0	441153849999999.94
16330.0	347368699999999.9
16340.0	418685974999999.94
16350.0	370928642499999.94
16360.0	437620177499999.94
16370.0	451701174999999.9
16380.0	449987949999999.9
16390.0	447956499999999.94
16400.0	452643974999999.94
16410.0	457199624999999.94
16420.0	453411524999999.9
16430.0	455387974999999.9
16440.0	462754299999999.8
16450.0	460084350000000.0
16460.0	458384074999999.94
16470.0	463232274999999.9
16480.0	447624849999999.9
16490.0	450263250000000.0
16500.0	463904349999999.9
16510.0	467819699999999.9
16520.0	474133949999999.94
16530.0	476020049999999.9
16540.0	477941949999999.9
