# Flux units: erg / (cm m2 s)
# Wavelength units: Angstrom
wave	flux
7000.0	1590199.989219705
7010.0	1616873.7717768536
7020.0	1640904.4254457883
7030.0	1673010.434004746
7040.0	1693230.8114839059
7050.0	1718968.0353491723
7060.0	1708977.0483078833
7070.0	1740618.5069783856
7080.0	1773881.5279847446
7090.0	1788946.5515026236
7100.0	1804349.676503847
7110.0	1838055.0499558393
7120.0	1873757.5457932414
7130.0	1876416.25375844
7140.0	1905286.3259799804
7150.0	1945744.9513969591
7160.0	1976523.6189913221
7170.0	2005178.2113671303
7180.0	2044632.9754760077
7190.0	2087964.8451098907
7200.0	2109360.6759516173
7210.0	2135818.9445100836
7220.0	2182106.8287142892
7230.0	2221847.925752161
7240.0	2263734.723715394
7250.0	2316712.2548880423
7260.0	2374952.4564281753
7270.0	2412457.257038466
7280.0	2439515.324688308
7290.0	2509103.8154963525
7300.0	2566551.6655796394
7310.0	2636202.00729559
7320.0	2690365.9650517437
7330.0	2773878.538050275
7340.0	2699024.2720919997
7350.0	2685092.8937435085
7360.0	2673459.8198392703
7370.0	2732131.7068796027
7380.0	2702124.654979621
7390.0	2731740.5937148384
7400.0	2652118.9938717256
7410.0	2714832.7201256515
7420.0	2675542.16730881
7430.0	2754793.7135276566
7440.0	2742719.068593122
7450.0	2742691.180939217
7460.0	2743652.8560478757
7470.0	2785856.7174567874
7480.0	2823393.2264787545
7490.0	2878817.720335031
7500.0	2897198.802255746
7510.0	2929949.4192217994
7520.0	2959854.4723722874
7530.0	3033449.55137778
7540.0	3077519.214650818
7550.0	3143619.897528507
7560.0	3178577.829794685
7570.0	3218356.81288662
7580.0	3256748.616421614
7590.0	3294111.725608122
7600.0	3326425.567853078
7610.0	3384009.54704844
7620.0	3433326.801249221
7630.0	3442974.036433455
7640.0	3451229.0071190097
7650.0	3426286.9586850693
7660.0	3308829.0988851856
7670.0	2756168.6402668864
7680.0	3481374.5432239566
7690.0	3524820.5682388917
7700.0	3086964.213836778
7710.0	3610535.0800529458
7720.0	3733917.2695236015
7730.0	3826049.8461763244
7740.0	3940417.5336715933
7750.0	4014367.6621984304
7760.0	4087681.274306921
7770.0	4185347.865031409
7780.0	4255246.098309558
7790.0	4295520.519180306
7800.0	4127101.8024778
7810.0	4465784.010697787
7820.0	4580067.586199487
7830.0	4559071.483690211
7840.0	4616867.141163385
7850.0	4627243.189782978
7860.0	4589260.560298343
7870.0	4534390.606638464
7880.0	4526913.042090672
7890.0	4721894.559111873
7900.0	4563123.252117644
7910.0	4554055.788096185
7920.0	4512924.279180854
7930.0	4601418.310361597
7940.0	4584566.256158626
7950.0	4517727.594802623
7960.0	4660280.170157706
7970.0	4702491.902219474
7980.0	4745448.3481515935
7990.0	4710923.281121521
8000.0	4837839.068661354
8010.0	4933878.558886717
8020.0	5009982.348757539
8030.0	5061686.230481428
8040.0	5194045.376739029
8050.0	5255836.634286554
8060.0	5295282.551205502
8070.0	5370151.474718778
8080.0	5611940.608931878
8090.0	5729829.921251138
8100.0	5951248.812475839
8110.0	6152633.387291907
8120.0	6441935.748533474
8130.0	6434305.8569511855
8140.0	6764925.440322594
8150.0	6961684.400312567
8160.0	7287094.207165133
8170.0	7493068.837325878
8180.0	7542075.5249818275
8190.0	7393170.578832842
8200.0	7260791.845831531
8210.0	7180069.5262926
8220.0	7373011.235668072
8230.0	7646273.755026503
8240.0	8025041.142889626
8250.0	7988155.54489644
8260.0	8080155.725816949
8270.0	8399847.744574402
8280.0	8099959.892734607
8290.0	8058298.927343863
8300.0	8071352.466694088
8310.0	8210708.293701535
8320.0	8525462.37026555
8330.0	8757589.591040984
8340.0	8602468.927802248
8350.0	8673157.256523902
8360.0	8849828.784890603
8370.0	9170068.10703338
8380.0	9053662.49336588
8390.0	9013756.529167548
8400.0	9258502.674706789
8410.0	9553944.991179118
8420.0	9674385.789702682
8430.0	9544996.807654062
8440.0	8595940.207974322
8450.0	8421963.114158189
8460.0	8403894.439095076
8470.0	8461220.140780794
8480.0	8690136.957036285
8490.0	8943774.06524871
8500.0	8956208.66664154
8510.0	8981341.438131945
8520.0	8621151.037978785
8530.0	9003034.898773303
8540.0	9095001.74551441
8550.0	8983824.737814352
8560.0	9198786.71264778
8570.0	9222811.34339997
8580.0	9003522.609097498
8590.0	9001384.169756342
8600.0	9016294.486437589
8610.0	9041472.209998365
8620.0	9079004.302116714
8630.0	9021993.958811045
8640.0	9133378.55949887
8650.0	9269319.348640902
8660.0	9119515.671646396
8670.0	9275317.284288872
8680.0	9206656.229741067
8690.0	9240552.062812895
8700.0	9440258.125858732
8710.0	9448600.580976408
8720.0	9580552.177166577
8730.0	9798907.920347402
8740.0	9753867.30446498
8750.0	9855494.03078978
8760.0	10047194.6601096
8770.0	10217616.528285455
8780.0	10449031.577188937
8790.0	10672153.989548776
8800.0	10762756.551797405
8810.0	11018811.549601221
8820.0	11082861.086349916
8830.0	11166551.111476272
8840.0	11559546.108673034
8850.0	11799815.302815514
8860.0	11727861.409293326
8870.0	11311135.74409378
8880.0	11521202.050323794
8890.0	11666107.272197574
8900.0	11938824.658555573
8910.0	12466963.463651927
8920.0	12582596.176766874
8930.0	12899922.785001004
8940.0	12845931.769129848
8950.0	12596309.101137534
8960.0	13419140.563697029
8970.0	13630718.119793449
8980.0	14322052.042264061
8990.0	14816408.189137187
9000.0	15287747.336284213
9010.0	16146437.064190751
9020.0	15651373.73610514
9030.0	15881931.715415156
9040.0	16632395.327534636
9050.0	17442316.544478633
9060.0	17326742.746372826
9070.0	18424493.29701073
9080.0	19164646.894102603
9090.0	19735647.627912097
9100.0	20622147.570921317
9110.0	20868984.776774056
9120.0	22057600.432382938
9130.0	22044028.48822586
9140.0	22599929.705229208
9150.0	24129414.70503255
9160.0	24824594.18402021
9170.0	26123668.13207705
9180.0	25131773.23075973
9190.0	27564368.81691289
9200.0	27447040.08538229
9210.0	22170403.809086837
9220.0	20356719.989259046
9230.0	19083839.69243385
9240.0	18976455.763865143
9250.0	19591783.357187606
9260.0	20433014.923288863
9270.0	20122403.729274698
9280.0	17994146.48458942
9290.0	18429980.541666992
9300.0	18068874.438285388
9310.0	18964988.65733053
9320.0	18770215.91763183
9330.0	19457150.956486017
9340.0	19379567.647419337
9350.0	19469296.04791079
9360.0	20056879.463696755
9370.0	19183461.149148777
9380.0	20419835.93961959
9390.0	20433095.175848987
9400.0	20589806.1588048
9410.0	20728686.99072128
9420.0	20970640.657324452
9430.0	21052961.815249797
9440.0	20493123.195363786
9450.0	21427326.065470643
9460.0	21518895.90976073
9470.0	21558410.84031789
9480.0	21814169.55617177
9490.0	22210708.75780962
9500.0	21392649.459722925
9510.0	21501787.7511984
9520.0	20928681.90074731
9530.0	21322623.545026965
9540.0	20739835.7577606
9550.0	20211869.11448195
9560.0	21287725.3528322
9570.0	20240851.205072463
9580.0	20157139.61042652
9590.0	19685912.634868875
9600.0	20198634.382191215
9610.0	19759633.129421335
9620.0	19933659.044194374
9630.0	20646664.196091462
9640.0	20106297.710363634
9650.0	20867049.053333394
9660.0	20916284.59637963
9670.0	21005640.84057034
9680.0	22006292.956940968
9690.0	22164987.116559487
9700.0	22734145.278377224
9710.0	23387832.250054836
9720.0	23426279.276654605
9730.0	22595143.383053586
9740.0	23244396.088451404
9750.0	24250138.682614215
9760.0	24708131.628288776
9770.0	25786276.550785296
9780.0	26407169.544592224
9790.0	26900321.215819396
9800.0	28193799.26195785
9810.0	27411879.45018757
9820.0	27667222.039309353
9830.0	28494513.536884684
9840.0	29234904.550409935
9850.0	30727748.120339286
9860.0	33175635.53108663
9870.0	33071142.798817173
9880.0	34768809.69874033
9890.0	36375372.89451202
9900.0	31707310.89529005
9910.0	29645572.81427724
9920.0	29015300.121222127
9930.0	31823310.545659993
9940.0	33594379.556602515
9950.0	37368650.93597256
9960.0	36563880.2308263
9970.0	38026747.50921774
9980.0	36993245.15433216
9990.0	33117357.41650087
10000.0	36393674.32607853
10010.0	36219947.65200199
10020.0	36894634.412968904
10030.0	38031685.405014716
10040.0	35357160.51900589
10050.0	36976239.67554783
10060.0	34740917.6876187
10070.0	38121976.77112578
10080.0	40680207.7180446
10090.0	39509315.72780747
10100.0	43028077.53763712
10110.0	41437960.2016518
10120.0	44094790.62632761
10130.0	47171452.71934741
10140.0	43393678.61991711
10150.0	43178306.80219416
10160.0	43294344.29410873
10170.0	43742646.16158837
10180.0	46705213.06630355
10190.0	45565719.81763519
10200.0	46429199.117619365
10210.0	49783083.36018189
10220.0	46573482.495075926
10230.0	48765012.99055556
10240.0	53066870.41477423
10250.0	50141201.09851059
10260.0	44195691.51539471
10270.0	45022459.22231034
10280.0	45765611.235496484
10290.0	46889215.71496697
10300.0	49519480.75003914
10310.0	53915422.317711435
10320.0	53270892.70722227
10330.0	50461667.345901
10340.0	54783477.10039027
10350.0	49953633.401134714
10360.0	58560381.87567227
10370.0	57643871.752201475
10380.0	56215795.804960035
10390.0	57070601.39088438
10400.0	57810438.13466433
10410.0	63210808.57691217
10420.0	56349126.5414281
10430.0	52838576.162690386
10440.0	60179567.99581714
10450.0	61355849.53002776
10460.0	56809043.48400809
10470.0	46214590.154714115
10480.0	40954030.73874818
10490.0	43017159.50356142
10500.0	43764400.311191864
10510.0	41104702.5787142
10520.0	42199281.10024326
10530.0	36432005.59332154
10540.0	38987120.79298324
10550.0	35184732.832091145
10560.0	35381024.43481197
10570.0	35975862.857034974
10580.0	35420212.55289564
10590.0	34235618.74568942
10600.0	36469082.732408345
10610.0	36575878.24321088
10620.0	39319696.751284376
10630.0	40067256.703638986
10640.0	40759348.20954422
10650.0	40955542.014582455
10660.0	44277078.094895154
10670.0	42356935.93824454
10680.0	46341524.43798008
10690.0	48087039.12739566
10700.0	52723686.78503191
10710.0	49423895.5901429
10720.0	55747812.372287236
10730.0	55939242.25013053
10740.0	57343525.7128238
10750.0	59421877.28213123
10760.0	61045884.39002703
10770.0	64471672.12947499
10780.0	69207432.96660116
10790.0	67396579.14092731
10800.0	69851764.50306983
10810.0	70159501.87110971
10820.0	72055657.08989684
10830.0	78292777.08414873
10840.0	83379608.70147131
10850.0	77582802.05154726
10860.0	77343568.15394461
10870.0	79322714.96325299
10880.0	83072374.41179836
10890.0	78400273.03052828
10900.0	80345134.82957649
10910.0	78817034.10724829
10920.0	81109688.21106307
10930.0	78836720.8480179
10940.0	80864252.45149438
10950.0	76999111.43671025
10960.0	72769548.46213861
10970.0	78916417.2382249
10980.0	77817026.4486971
10990.0	77632760.99812648
11000.0	77760852.98993813
11010.0	81451947.10742888
11020.0	80143863.70053667
11030.0	74469836.87893488
11040.0	65302275.665113755
11050.0	66810592.7857381
11060.0	66362542.09314428
11070.0	69821876.31734647
11080.0	69099384.73291728
11090.0	73953257.27299844
11100.0	69815159.8450335
11110.0	66827219.74005214
11120.0	77431712.5123563
11130.0	72827572.65000586
11140.0	78930422.66579579
11150.0	75670280.51084748
11160.0	77104860.68754
11170.0	68189162.73219466
11180.0	78652545.32188965
11190.0	75022026.89978668
11200.0	70923112.52892128
11210.0	77702111.344181
11220.0	77679299.89906009
11230.0	81989174.36738323
11240.0	81916416.45553535
11250.0	85424226.45286913
11260.0	84898614.06916086
11270.0	90030891.5656086
11280.0	84984415.30326283
11290.0	89810210.1190748
11300.0	82596650.41771908
11310.0	84396408.47170705
11320.0	86039139.80109039
11330.0	86046368.63778922
11340.0	78014910.98719338
11350.0	70073972.37342723
11360.0	85623498.54037973
11370.0	79382255.68837371
11380.0	73184363.69463633
11390.0	76246568.70715685
11400.0	79714800.40833437
11410.0	67684048.10695238
11420.0	85537497.00145762
11430.0	85340542.32061966
11440.0	77413974.89402886
11450.0	87174872.80535015
11460.0	88580083.15941127
11470.0	94340232.9688873
11480.0	89121250.81918342
11490.0	99722761.19089612
11500.0	95816744.93898253
11510.0	95837689.2310582
11520.0	91667581.66514772
11530.0	91338650.4557244
11540.0	89546014.41013247
11550.0	98316481.96490847
11560.0	96038503.51876925
11570.0	92340452.98941268
11580.0	94770101.63198817
11590.0	102814566.26121712
11600.0	92773711.38717906
11610.0	94993643.74199782
11620.0	96250845.39879796
11630.0	103962426.81599036
11640.0	95343925.5536205
11650.0	104445314.4579283
11660.0	94797176.8135208
11670.0	99116825.25178047
11680.0	94443411.57275508
11690.0	65124389.63904359
11700.0	78588179.15453713
11710.0	88468282.72194318
11720.0	89661808.38139892
11730.0	94277007.36460257
11740.0	75126984.93304923
11750.0	79675866.92070308
11760.0	74271825.64731866
11770.0	61755009.7108004
11780.0	60504568.03896526
11790.0	71967192.25898062
11800.0	69944229.76325521
11810.0	75930712.2611352
11820.0	71126038.38071717
11830.0	72845363.90012246
11840.0	72774579.00569196
11850.0	69852942.42439604
11860.0	74285625.42734481
11870.0	79682809.86385301
11880.0	72017936.98554173
11890.0	73763600.26560892
11900.0	77191706.50587578
11910.0	76364689.78610326
11920.0	78199627.94402327
11930.0	84271593.44988854
11940.0	79798948.34524009
11950.0	82912854.47528929
11960.0	84082464.62741214
11970.0	84256738.2944904
11980.0	83740551.66967878
11990.0	89678463.03921899
12000.0	87620481.52251135
12010.0	92942319.58450319
12020.0	94274332.19182351
12030.0	93648471.10908099
12040.0	99369368.31513888
12050.0	100596918.7235819
12060.0	109860732.67321424
12070.0	101181558.66996874
12080.0	105862271.60954109
12090.0	105147874.21347266
12100.0	116064350.77968934
12110.0	107302487.52595292
12120.0	111370238.20250049
12130.0	111036489.7666429
12140.0	125432730.3921916
12150.0	124726683.16333917
12160.0	124116077.6326572
12170.0	122877059.86152041
12180.0	132664256.06493574
12190.0	129893003.4500218
12200.0	130330520.82128024
12210.0	130092088.55195569
12220.0	131226835.11040579
12230.0	134429526.36064786
12240.0	136552267.77057597
12250.0	141747459.48295835
12260.0	141326692.3140685
12270.0	145890696.94775477
12280.0	145047725.29519928
12290.0	150029965.59903803
12300.0	144818078.3384033
12310.0	152119970.81445816
12320.0	145022071.70449913
12330.0	149861968.20780456
12340.0	153109879.66026938
12350.0	151570269.15036216
12360.0	155073507.94718295
12370.0	157323221.70556632
12380.0	158635560.2813168
12390.0	153479077.41531867
12400.0	159913842.56726626
12410.0	137269521.10457003
12420.0	135101353.9297743
12430.0	131043431.08903451
12440.0	120832824.89971615
12450.0	153618209.69663444
12460.0	148823281.39146864
12470.0	157299930.69813094
12480.0	151793732.09918472
12490.0	157231952.05124256
12500.0	156870965.39334863
12510.0	160266889.27974257
12520.0	132810594.29857649
12530.0	128421486.25346726
12540.0	162164761.40577066
12550.0	153843045.21297896
12560.0	162532840.48051482
12570.0	156668771.74988672
12580.0	157687532.33906257
12590.0	159372962.51965788
12600.0	158948826.87160602
12610.0	166175957.23186973
12620.0	164710668.83633608
12630.0	166491486.72907573
12640.0	155544488.67554715
12650.0	169432028.979952
12660.0	166820645.46954048
12670.0	175258036.66883639
12680.0	171048866.42573208
12690.0	178113678.94207147
12700.0	166989127.94184482
12710.0	167660929.45386946
12720.0	178518105.88892534
12730.0	175814268.1466352
12740.0	174774921.94268072
12750.0	171650031.21787876
12760.0	179911090.49248543
12770.0	183865122.5914445
12780.0	182959762.91620132
12790.0	183331738.33712018
12800.0	178890798.91902497
12810.0	185992241.07159975
12820.0	196045974.18067846
12830.0	176416950.33562937
12840.0	183387784.0777788
12850.0	186524205.86211625
12860.0	176408323.07676333
12870.0	186194356.71116748
12880.0	182412693.9759735
12890.0	182434524.28073016
12900.0	183075693.91216883
12910.0	184509194.78984103
12920.0	183782327.81339633
12930.0	188242129.8027736
12940.0	205584525.38034794
12950.0	186069713.2799014
12960.0	194774707.5505701
12970.0	189199900.47555023
12980.0	197450520.0054126
12990.0	192742636.25654864
13000.0	195024289.51789498
13010.0	192572853.70378423
13020.0	199992545.08342844
13030.0	197946930.3741858
13040.0	201773551.0853895
13050.0	201676458.08848664
13060.0	203457530.29018763
13070.0	186944363.41019344
13080.0	198657960.01072615
13090.0	190112749.430706
13100.0	188219237.19479036
13110.0	199962563.47391346
13120.0	193207590.1907745
13130.0	184422278.0333822
13140.0	190448557.39034197
13150.0	187217154.83963922
13160.0	189011604.55136305
13170.0	190732572.5966641
13180.0	185658194.3460279
13190.0	190614867.49182385
13200.0	189240312.9045967
13210.0	189175384.91168937
13220.0	179017994.18903628
13230.0	182699377.53164223
13240.0	180418559.1475882
13250.0	167075961.95224082
13260.0	184773787.24374688
13270.0	165731176.23267788
13280.0	169997974.41733798
13290.0	166674612.07497182
13300.0	152881012.51336733
13310.0	141218896.250024
13320.0	123880938.67237774
13330.0	126158599.89981936
13340.0	124206436.05317165
13350.0	92645284.91737087
13360.0	105952547.14910533
13370.0	92834971.40260331
13380.0	102124334.80841504
13390.0	99780832.96148643
13400.0	115237397.94662546
13410.0	102542935.64594823
13420.0	90744629.78575772
13430.0	85696228.71086551
13440.0	102476379.49956416
13450.0	91043103.52399929
13460.0	104196900.76499017
13470.0	90698896.64112821
13480.0	87633746.72245744
13490.0	108122964.77676706
13500.0	93852467.3260824
13510.0	90328063.26731727
13520.0	90998914.75661723
13530.0	96622674.62599146
13540.0	86537894.47627988
13550.0	87899486.0291403
13560.0	98819566.62687685
13570.0	92271428.95366544
13580.0	86275209.9185674
13590.0	91779398.20218262
13600.0	93120582.56535825
13610.0	92344841.92240153
13620.0	81152884.45130588
13630.0	97847075.17811984
13640.0	94057766.62924498
13650.0	89514339.60233343
13660.0	99164769.39508958
13670.0	91497005.79817899
13680.0	91296952.84008531
13690.0	90928566.51770346
13700.0	91092716.92647837
13710.0	86345755.8944477
13720.0	90012421.75692047
13730.0	90684923.62131977
13740.0	85137630.02842268
13750.0	93209999.45317091
13760.0	93547465.02462725
13770.0	92110782.01057169
13780.0	99570717.57497431
13790.0	93015667.15974791
13800.0	97124581.48299915
13810.0	95067862.56803407
13820.0	102365036.21448724
13830.0	90596779.6476778
13840.0	98093498.11171295
13850.0	99883925.07479994
13860.0	95184340.75183624
13870.0	98646198.50938968
13880.0	94199504.54822299
13890.0	105162282.76570666
13900.0	94514279.25967184
13910.0	92391935.58657458
13920.0	95418138.72020067
13930.0	92520208.8689726
13940.0	94267551.72888145
13950.0	94319407.55641423
13960.0	99370165.90036663
13970.0	95252520.00139782
13980.0	90317294.91825321
13990.0	94822764.09196268
14000.0	92932691.20562321
14010.0	87013714.07201949
14020.0	101974219.94110097
14030.0	98405920.28727058
14040.0	93166947.6120074
14050.0	92751198.7322428
14060.0	99686641.02993043
14070.0	88454422.54875241
14080.0	91800719.50945649
14090.0	89884682.01925802
14100.0	90780541.30713573
14110.0	92488313.03018801
14120.0	88006780.50276454
14130.0	98604231.18220082
14140.0	90885362.0959171
14150.0	85621351.31242712
14160.0	95273011.62805921
14170.0	87941995.69502257
14180.0	85785622.88198891
14190.0	87773241.52908301
14200.0	96695425.54124631
14210.0	92103576.89913031
14220.0	89264134.67419384
14230.0	91670206.03755432
14240.0	89175335.52463028
14250.0	89562216.14760411
14260.0	87060159.80859944
14270.0	92145890.25354335
14280.0	89635477.73374858
14290.0	81463976.67778237
14300.0	99816674.2356029
14310.0	98523371.77276742
14320.0	87551153.91215916
14330.0	91447548.83562542
14340.0	84306450.75313085
14350.0	98253844.89583085
14360.0	94331535.3295999
14370.0	91293952.20753433
14380.0	96406892.37303938
14390.0	95632014.46317582
14400.0	94571332.08367068
14410.0	92486683.19515543
14420.0	94495249.69749203
14430.0	101272873.79921186
14440.0	99458501.58187817
14450.0	91400576.47549093
14460.0	98384874.72798717
14470.0	92551058.77449119
14480.0	99715762.9936871
14490.0	108335959.62707202
14500.0	96389386.6874904
14510.0	94222849.30097756
14520.0	109729171.1844701
14530.0	103799369.29593055
14540.0	96707595.87557338
14550.0	112557951.19814876
14560.0	98533416.83485919
14570.0	102654006.49723598
14580.0	104912416.8203726
14590.0	106555073.24674398
14600.0	106344100.3981633
14610.0	102763836.14676714
14620.0	103241805.37663278
14630.0	95448771.11338757
14640.0	108457392.16137879
14650.0	105069210.01938938
14660.0	109288711.40032133
14670.0	105840164.80153458
14680.0	99670968.60194354
14690.0	97486075.35911952
