# Flux units: erg / (cm m2 s)
# Wavelength units: Angstrom
wave	flux
14000.0	1.5425935285157885e+18
14001.0	1.542400716360909e+18
14002.0	1.542435904893747e+18
14003.0	1.5421886976491523e+18
14004.0	1.541930950957465e+18
14005.0	1.5416720265052157e+18
14006.0	1.5414016784465912e+18
14007.0	1.5411319243014141e+18
14008.0	1.54076847276032e+18
14009.0	1.5405932850708475e+18
14010.0	1.5402970044694525e+18
14011.0	1.5395718680281085e+18
14012.0	1.539754285019955e+18
14013.0	1.5395723176574976e+18
14014.0	1.5393171345244157e+18
14015.0	1.539064798484889e+18
14016.0	1.538806154212147e+18
14017.0	1.53854670798848e+18
14018.0	1.5382193224286203e+18
14019.0	1.538025904616243e+18
14020.0	1.537764854490726e+18
14021.0	1.5375037959766013e+18
14022.0	1.5372428716802048e+18
14023.0	1.5369719548739581e+18
14024.0	1.5367143474331643e+18
14025.0	1.5364600316821501e+18
14026.0	1.5361984648183803e+18
14027.0	1.5359355205451773e+18
14028.0	1.5356612684283896e+18
14029.0	1.5353694908317693e+18
14030.0	1.534810329710592e+18
14031.0	1.5347210245898237e+18
14032.0	1.534610890555392e+18
14033.0	1.5343318804201475e+18
14034.0	1.5341173132492797e+18
14035.0	1.5338573754531837e+18
14036.0	1.5335711729254395e+18
14037.0	1.533332545549107e+18
14038.0	1.5330843803254781e+18
14039.0	1.5328211139297277e+18
14040.0	1.532564635595571e+18
14041.0	1.532304613913395e+18
14042.0	1.5320354973024253e+18
14043.0	1.53175617175552e+18
14044.0	1.5314804180779003e+18
14045.0	1.5312241981128704e+18
14046.0	1.5310063811952637e+18
14047.0	1.5307446281043965e+18
14048.0	1.530489047351296e+18
14049.0	1.530233907838976e+18
14050.0	1.5299746495201277e+18
14051.0	1.5297104519888893e+18
14052.0	1.529452336198451e+18
14053.0	1.5291978711302144e+18
14054.0	1.5289404650160123e+18
14055.0	1.5286819448946685e+18
14056.0	1.5284234012852221e+18
14057.0	1.5281648912302075e+18
14058.0	1.527906248635187e+18
14059.0	1.5275867886321664e+18
14060.0	1.5273885926686715e+18
14061.0	1.527124561231872e+18
14062.0	1.5268674000650237e+18
14063.0	1.526588418451046e+18
14064.0	1.526237469291315e+18
14065.0	1.526084429204684e+18
14066.0	1.5258362253934587e+18
14067.0	1.5255820639928315e+18
14068.0	1.5253245689593853e+18
14069.0	1.5250666846945277e+18
14070.0	1.524808988334489e+18
14071.0	1.524549228376883e+18
14072.0	1.5242935654154237e+18
14073.0	1.5240359109984253e+18
14074.0	1.5237776341467128e+18
14075.0	1.52350106845184e+18
14076.0	1.5232516248043515e+18
14077.0	1.5229237107621885e+18
14078.0	1.5227184314580984e+18
14079.0	1.5224792168792064e+18
14080.0	1.5222040386600952e+18
14081.0	1.5219698002034688e+18
14082.0	1.521715875361587e+18
14083.0	1.5214526660083707e+18
14084.0	1.5211720838479867e+18
14085.0	1.5207933952393216e+18
14086.0	1.5206160214786048e+18
14087.0	1.5203804962095104e+18
14088.0	1.5201629796040701e+18
14089.0	1.5199205052121085e+18
14090.0	1.5196652147048443e+18
14091.0	1.5194094611464192e+18
14092.0	1.519153306612531e+18
14093.0	1.5188968098234363e+18
14094.0	1.5186398550163453e+18
14095.0	1.5183820814811136e+18
14096.0	1.5181215514492928e+18
14097.0	1.5178507504058365e+18
14098.0	1.5176118227173373e+18
14099.0	1.5173561060687867e+18
14100.0	1.5170936919556093e+18
14101.0	1.5168469628616696e+18
14102.0	1.5165876290453501e+18
14103.0	1.516320705216512e+18
14104.0	1.5160769037467643e+18
14105.0	1.5158250911563773e+18
14106.0	1.515569399673651e+18
14107.0	1.5152616937881597e+18
14108.0	1.515041546515251e+18
14109.0	1.5147991828529147e+18
14110.0	1.5145436624977915e+18
14111.0	1.5142830687125501e+18
14112.0	1.5140190607638528e+18
14113.0	1.5137694308892672e+18
14114.0	1.5134927360098301e+18
14115.0	1.5132219181891581e+18
14116.0	1.512814891184947e+18
14117.0	1.5120763732361216e+18
14118.0	1.512378893284147e+18
14119.0	1.5122031435579387e+18
14120.0	1.5119690862952443e+18
14121.0	1.511712342881075e+18
14122.0	1.5114669777747965e+18
14123.0	1.5112034412658685e+18
14124.0	1.5108933714706432e+18
14125.0	1.5104445960421376e+18
14126.0	1.5104023996661757e+18
14127.0	1.5101925552816125e+18
14128.0	1.5099468546310141e+18
14129.0	1.5096838449266688e+18
14130.0	1.5094054152830973e+18
14131.0	1.5091594159980541e+18
14132.0	1.508854939726643e+18
14133.0	1.5083675012038653e+18
14134.0	1.5083014291718144e+18
14135.0	1.508150883857203e+18
14136.0	1.5079134795399165e+18
14137.0	1.507664155010662e+18
14138.0	1.507410907968307e+18
14139.0	1.507158850430566e+18
14140.0	1.506903585089126e+18
14141.0	1.506644189197107e+18
14142.0	1.5063874793373693e+18
14143.0	1.5061430218784765e+18
14144.0	1.5058926269628416e+18
14145.0	1.505639868137472e+18
14146.0	1.5053869667057664e+18
14147.0	1.5051377344511997e+18
14148.0	1.5048853145255936e+18
14149.0	1.5046326748184576e+18
14150.0	1.5043793875107837e+18
14151.0	1.5041244040265723e+18
14152.0	1.5038720746979328e+18
14153.0	1.5036211613663232e+18
14154.0	1.503343045456691e+18
14155.0	1.5031015911194621e+18
14156.0	1.5028613799739387e+18
14157.0	1.5026079651594235e+18
14158.0	1.502353164546867e+18
14159.0	1.5020981475082235e+18
14160.0	1.5018269689774083e+18
14161.0	1.5015527218937853e+18
14162.0	1.5012825114083325e+18
14163.0	1.5010286553530365e+18
14164.0	1.500818228799078e+18
14165.0	1.500578705519411e+18
14166.0	1.500332073733324e+18
14167.0	1.5000698492026877e+18
14168.0	1.4998304953729021e+18
14169.0	1.499581383914291e+18
14170.0	1.4993270161539072e+18
14171.0	1.4990727205355515e+18
14172.0	1.498824429482803e+18
14173.0	1.4985668035870715e+18
14174.0	1.4983159523311613e+18
14175.0	1.498069491672678e+18
14176.0	1.4978193500930048e+18
14177.0	1.4975679938428925e+18
14178.0	1.4973159715373053e+18
14179.0	1.497062660741529e+18
14180.0	1.4968129050378237e+18
14181.0	1.496561105869209e+18
14182.0	1.4963084795838464e+18
14183.0	1.4960551973093376e+18
14184.0	1.4957972492910592e+18
14185.0	1.4955323185954813e+18
14186.0	1.4951797722447867e+18
14187.0	1.4949934478393341e+18
14188.0	1.4947752668561405e+18
14189.0	1.4945391409627136e+18
14190.0	1.4942970339917821e+18
14191.0	1.4940453489082363e+18
14192.0	1.4937831596097536e+18
14193.0	1.493534195790643e+18
14194.0	1.493293823583846e+18
14195.0	1.4930464250789888e+18
14196.0	1.4927964982476795e+18
14197.0	1.4925454725087232e+18
14198.0	1.4922903346741245e+18
14199.0	1.492031640069734e+18
14200.0	1.4917295931392e+18
14201.0	1.491505150898995e+18
14202.0	1.491283963438694e+18
14203.0	1.491037665519206e+18
14204.0	1.490786292491878e+18
14205.0	1.490524827969126e+18
14206.0	1.4902198081159165e+18
14207.0	1.4900168893661181e+18
14208.0	1.4897733580095485e+18
14209.0	1.489450562695987e+18
14210.0	1.4892114219368445e+18
14211.0	1.489022809119129e+18
14212.0	1.4887903943458813e+18
14213.0	1.4885441417248765e+18
14214.0	1.4882936193023997e+18
14215.0	1.4880366275854339e+18
14216.0	1.4877959634550781e+18
14217.0	1.4875490129018877e+18
14218.0	1.4872875416682493e+18
14219.0	1.4870477885407224e+18
14220.0	1.4867978197663741e+18
14221.0	1.4865495421353981e+18
14222.0	1.486290767000371e+18
14223.0	1.4860405868331003e+18
14224.0	1.4857709065076736e+18
14225.0	1.485279609225216e+18
14226.0	1.4852064370753536e+18
14227.0	1.4849685025980413e+18
14228.0	1.4839069628432381e+18
14229.0	1.484088750689484e+18
14230.0	1.4842699613995003e+18
14231.0	1.484046076162867e+18
14232.0	1.4838056653684736e+18
14233.0	1.483558854066176e+18
14234.0	1.4833114538835965e+18
14235.0	1.483060815698329e+18
14236.0	1.4828105164128256e+18
14237.0	1.4825537813872637e+18
14238.0	1.4822835004375037e+18
14239.0	1.4819135242371072e+18
14240.0	1.480357140496384e+18
14241.0	1.4813097172664315e+18
14242.0	1.4812472875679741e+18
14243.0	1.4809796356079613e+18
14244.0	1.4808077094092797e+18
14245.0	1.4805706825793536e+18
14246.0	1.4803290285932544e+18
14247.0	1.4800798449926141e+18
14248.0	1.4798241954529277e+18
14249.0	1.4795881920331773e+18
14250.0	1.4793434980155387e+18
14251.0	1.4790948126982144e+18
14252.0	1.478843298742272e+18
14253.0	1.4785821747970048e+18
14254.0	1.4783236194435067e+18
14255.0	1.4780143767650301e+18
14256.0	1.4776230482018301e+18
14257.0	1.477445147636531e+18
14258.0	1.477313223353958e+18
14259.0	1.4770680142757885e+18
14260.0	1.4768259307929595e+18
14261.0	1.4765580221415421e+18
14262.0	1.4762865281990653e+18
14263.0	1.475783773755801e+18
14264.0	1.4756141695238141e+18
14265.0	1.4755619839934464e+18
14266.0	1.4753692339142656e+18
14267.0	1.4751404010766336e+18
14268.0	1.474896968705638e+18
14269.0	1.4746422704340992e+18
14270.0	1.4743983515238397e+18
14271.0	1.474137589966438e+18
14272.0	1.4738578600886272e+18
14273.0	1.473493170388992e+18
14274.0	1.4728615853817853e+18
14275.0	1.4728823421534203e+18
14276.0	1.4728337050042363e+18
14277.0	1.472651081652633e+18
14278.0	1.4724272568139773e+18
14279.0	1.472189339113881e+18
14280.0	1.4719474435358715e+18
14281.0	1.4717075041812475e+18
14282.0	1.4714637714980864e+18
14283.0	1.4712185741639677e+18
14284.0	1.4709723014103035e+18
14285.0	1.470724471730995e+18
14286.0	1.4704722782978048e+18
14287.0	1.470206985214361e+18
14288.0	1.4698569806118907e+18
14289.0	1.4688023144824824e+18
14290.0	1.469373234754355e+18
14291.0	1.4692216911953915e+18
14292.0	1.4689840855515136e+18
14293.0	1.4687318132654075e+18
14294.0	1.4684209331306493e+18
14295.0	1.4681586398134267e+18
14296.0	1.4673173194735616e+18
14297.0	1.467555225429606e+18
14298.0	1.4673517530316797e+18
14299.0	1.467227180525158e+18
14300.0	1.4670243943153664e+18
14301.0	1.4667916658081792e+18
14302.0	1.466549968201318e+18
14303.0	1.466270993298227e+18
14304.0	1.4660518677577725e+18
14305.0	1.4658172551692285e+18
14306.0	1.4655723833131003e+18
14307.0	1.4653236493418493e+18
14308.0	1.465078970423705e+18
14309.0	1.4648322178416637e+18
14310.0	1.464583109738496e+18
14311.0	1.4643231148998653e+18
14312.0	1.464044027589427e+18
14313.0	1.4636755596607485e+18
14314.0	1.463607274713907e+18
14315.0	1.463357814289203e+18
14316.0	1.4631000139104253e+18
14317.0	1.4628741405736957e+18
14318.0	1.4626410597449725e+18
14319.0	1.462399793312563e+18
14320.0	1.4621565186473981e+18
14321.0	1.461907437387776e+18
14322.0	1.461649331663667e+18
14323.0	1.4614103519657981e+18
14324.0	1.4611783935328253e+18
14325.0	1.4609278492999677e+18
14326.0	1.4606956291424253e+18
14327.0	1.4604460412108797e+18
14328.0	1.460206999437312e+18
14329.0	1.4599683150184445e+18
14330.0	1.4597231009071101e+18
14331.0	1.4594798262419453e+18
14332.0	1.4592357177491453e+18
14333.0	1.4589928792915965e+18
14334.0	1.4587485610835965e+18
14335.0	1.4584913948835837e+18
14336.0	1.4582386863898621e+18
14337.0	1.4580142206615547e+18
14338.0	1.4577754859110395e+18
14339.0	1.4575248041050107e+18
14340.0	1.4572920688869373e+18
14341.0	1.4570480811900925e+18
14342.0	1.456791596145049e+18
14343.0	1.456563922613043e+18
14344.0	1.4562880481394685e+18
14345.0	1.456061386273587e+18
14346.0	1.455833529869926e+18
14347.0	1.4555870625005565e+18
14348.0	1.45534740332544e+18
14349.0	1.4551034978369536e+18
14350.0	1.4548420047929344e+18
14351.0	1.4545944854921216e+18
14352.0	1.4543609583894525e+18
14353.0	1.4541311524732928e+18
14354.0	1.4538926828027904e+18
14355.0	1.453644267598643e+18
14356.0	1.4533896112701435e+18
14357.0	1.4531488431210493e+18
14358.0	1.4529243102838781e+18
14359.0	1.452669699253862e+18
14360.0	1.4524375646601213e+18
14361.0	1.4521982963941373e+18
14362.0	1.4519544882135037e+18
14363.0	1.4517033349677053e+18
14364.0	1.4514163338444797e+18
14365.0	1.4511862578151421e+18
14366.0	1.4509673554116608e+18
14367.0	1.4507470152007675e+18
14368.0	1.450503807644467e+18
14369.0	1.4502680810487803e+18
14370.0	1.4500270696300541e+18
14371.0	1.4497883030028285e+18
14372.0	1.4495381815558141e+18
14373.0	1.4493014718152701e+18
14374.0	1.4490578414731264e+18
14375.0	1.448807721703833e+18
14376.0	1.4485824221478907e+18
14377.0	1.448341669098291e+18
14378.0	1.4480996678238208e+18
14379.0	1.4478582889840637e+18
14380.0	1.4476168715567104e+18
14381.0	1.4473677215105021e+18
14382.0	1.4471358620631037e+18
14383.0	1.4468927618809853e+18
14384.0	1.446634443086233e+18
14385.0	1.4464120661213181e+18
14386.0	1.4461532641427453e+18
14387.0	1.445930464391987e+18
14388.0	1.4456877064650747e+18
14389.0	1.445448408000102e+18
14390.0	1.4452074536239104e+18
14391.0	1.4449681165713403e+18
14392.0	1.444725491184435e+18
14393.0	1.4444857028247547e+18
14394.0	1.4442048203522045e+18
14395.0	1.443994751152947e+18
14396.0	1.443756976059187e+18
14397.0	1.443521809822515e+18
14398.0	1.4432786492424187e+18
14399.0	1.4430262276390912e+18
14400.0	1.4427717038505981e+18
14401.0	1.4425206445572093e+18
14402.0	1.4422419900989437e+18
14403.0	1.4418006520102907e+18
14404.0	1.4394844952657915e+18
14405.0	1.4394055551090683e+18
14406.0	1.4411249697685501e+18
14407.0	1.440980346811187e+18
14408.0	1.4408292394598397e+18
14409.0	1.440608256681574e+18
14410.0	1.4403888794828797e+18
14411.0	1.4401591339646973e+18
14412.0	1.4399229107634173e+18
14413.0	1.4396888904105981e+18
14414.0	1.4394504425504765e+18
14415.0	1.4392082886033408e+18
14416.0	1.4389684012580864e+18
14417.0	1.438730611064832e+18
14418.0	1.4384904418623485e+18
14419.0	1.4382505226403837e+18
14420.0	1.438007234553446e+18
14421.0	1.4377676307431421e+18
14422.0	1.4375180847546365e+18
14423.0	1.4372418076278781e+18
14424.0	1.436793298957107e+18
14425.0	1.436758024860467e+18
14426.0	1.4365692778250237e+18
14427.0	1.4363365929385981e+18
14428.0	1.4360756820639741e+18
14429.0	1.4358528621805563e+18
14430.0	1.4355965063200765e+18
14431.0	1.4352808446787581e+18
14432.0	1.4351208135262203e+18
14433.0	1.4348427194269693e+18
14434.0	1.4346498284191741e+18
14435.0	1.4344222287069181e+18
14436.0	1.434195145732915e+18
14437.0	1.4339591037255677e+18
14438.0	1.4337118797037565e+18
14439.0	1.4334752219725821e+18
14440.0	1.433245986481766e+18
14441.0	1.432992147203686e+18
14442.0	1.4327455724601341e+18
14443.0	1.4324795311128573e+18
14444.0	1.432261336707891e+18
14445.0	1.431988203631411e+18
14446.0	1.431115122343936e+18
14447.0	1.4314033482039293e+18
14448.0	1.431318378315776e+18
14449.0	1.4311005681090557e+18
14450.0	1.4308627158401021e+18
14451.0	1.4306300544417787e+18
14452.0	1.4303934520754173e+18
14453.0	1.4301561886867453e+18
14454.0	1.429916870089113e+18
14455.0	1.4296747916394493e+18
14456.0	1.4294395280949248e+18
14457.0	1.429200278283878e+18
14458.0	1.4289649006542848e+18
14459.0	1.4287247381626875e+18
14460.0	1.4284863406342141e+18
14461.0	1.428240240685875e+18
14462.0	1.4280036014096381e+18
14463.0	1.4277731747364864e+18
14464.0	1.4275332001497085e+18
14465.0	1.427278671328051e+18
14466.0	1.427065726513971e+18
14467.0	1.4268189621878781e+18
14468.0	1.4265916594323453e+18
14469.0	1.4263114514038781e+18
14470.0	1.4261018620329981e+18
14471.0	1.4258792384430075e+18
14472.0	1.4256497076731901e+18
14473.0	1.4254196568096765e+18
14474.0	1.4251877369643008e+18
14475.0	1.4249512788819965e+18
14476.0	1.4247131598553085e+18
14477.0	1.424479225066291e+18
14478.0	1.424240795661107e+18
14479.0	1.4240045087064064e+18
14480.0	1.4237527900684285e+18
14481.0	1.4235325438099453e+18
14482.0	1.4232913579081725e+18
14483.0	1.423049079809638e+18
14484.0	1.4227969518075901e+18
14485.0	1.4225091336339453e+18
14486.0	1.4221639491256317e+18
14487.0	1.4220790463463421e+18
14488.0	1.4218704300539901e+18
14489.0	1.4216362318626813e+18
14490.0	1.4214056357396477e+18
14491.0	1.4211766904946688e+18
14492.0	1.4209407457951741e+18
14493.0	1.420692434609766e+18
14494.0	1.420437633997209e+18
14495.0	1.4202034794266621e+18
14496.0	1.4199208168914941e+18
14497.0	1.4197415087177725e+18
14498.0	1.419518536161689e+18
14499.0	1.4192873192816637e+18
14500.0	1.4190491818000381e+18
14501.0	1.4187656871149563e+18
14502.0	1.4183960313593856e+18
14503.0	1.4183181632667645e+18
14504.0	1.4180993833369597e+18
14505.0	1.4178648680562685e+18
14506.0	1.4175930184368125e+18
14507.0	1.4172555262820347e+18
14508.0	1.417138354205491e+18
14509.0	1.4169297664344064e+18
14510.0	1.416694429070131e+18
14511.0	1.4164609288110077e+18
14512.0	1.4162168790384637e+18
14513.0	1.4159682776072187e+18
14514.0	1.4156923662237693e+18
14515.0	1.415292650730291e+18
14516.0	1.4128819141083139e+18
14517.0	1.414545049596723e+18
14518.0	1.4147427992862717e+18
14519.0	1.4145277808082941e+18
14520.0	1.4143472025993213e+18
14521.0	1.414122342606438e+18
14522.0	1.4138911659917307e+18
14523.0	1.4136555434147837e+18
14524.0	1.413420880494592e+18
14525.0	1.4131882610393085e+18
14526.0	1.412948370338611e+18
14527.0	1.4126604800229373e+18
14528.0	1.4123877445664765e+18
14529.0	1.4122426182926336e+18
14530.0	1.4120121194774525e+18
14531.0	1.4117907743113213e+18
14532.0	1.4115585575092221e+18
14533.0	1.411324478436147e+18
14534.0	1.4110928706469885e+18
14535.0	1.410850626102886e+18
14536.0	1.4106232730157053e+18
14537.0	1.410384875487232e+18
14538.0	1.4101606865829885e+18
14539.0	1.4099268860116987e+18
14540.0	1.4096937246523392e+18
14541.0	1.409433501643571e+18
14542.0	1.4092204108677117e+18
14543.0	1.4089689807978493e+18
14544.0	1.4087369804218365e+18
14545.0	1.4084677363040253e+18
14546.0	1.407633649460838e+18
14547.0	1.4073461617983483e+18
14548.0	1.4077279281872893e+18
14549.0	1.4074898259378173e+18
14550.0	1.407317705962291e+18
14551.0	1.4071154406850557e+18
14552.0	1.4068799867191293e+18
14553.0	1.4066458279542781e+18
14554.0	1.406421567746867e+18
14555.0	1.4061848210964477e+18
14556.0	1.4059391338676221e+18
14557.0	1.4056758607609853e+18
14558.0	1.4052493864468477e+18
14559.0	1.403448513370521e+18
14560.0	1.4047698692866045e+18
14561.0	1.4047391644647421e+18
14562.0	1.404515998970675e+18
14563.0	1.404321352227225e+18
14564.0	1.4040447311675387e+18
14565.0	1.4038669488816125e+18
14566.0	1.4036356757979133e+18
14567.0	1.403399643018035e+18
14568.0	1.4031544322621437e+18
14569.0	1.4028578597371901e+18
14570.0	1.4022230887366653e+18
14571.0	1.4024148229554176e+18
14572.0	1.4022028973572093e+18
14573.0	1.4019648588611581e+18
14574.0	1.4017749969797117e+18
14575.0	1.401549206690201e+18
14576.0	1.401312293945344e+18
14577.0	1.4010813933158397e+18
14578.0	1.4008569066160123e+18
14579.0	1.4006294880976893e+18
14580.0	1.4003984859660285e+18
14581.0	1.400165426108825e+18
14582.0	1.399931595338547e+18
14583.0	1.3997021576822781e+18
14584.0	1.3994656232636413e+18
14585.0	1.3992389009997821e+18
14586.0	1.3990091655479293e+18
14587.0	1.3987788848365565e+18
14588.0	1.398548536177459e+18
14589.0	1.3983170726723581e+18
14590.0	1.3980847107473405e+18
14591.0	1.3978463148965883e+18
14592.0	1.3975935225167872e+18
14593.0	1.3973214891868157e+18
14594.0	1.3971368945123325e+18
14595.0	1.3969093879136256e+18
14596.0	1.396603163456307e+18
14597.0	1.3963651132162045e+18
14598.0	1.396212974904934e+18
14599.0	1.3959975588069373e+18
14600.0	1.3957708130549757e+18
14601.0	1.3955409828118528e+18
14602.0	1.3953058845229053e+18
14603.0	1.395073962160947e+18
14604.0	1.3948162867724285e+18
14605.0	1.3945537292140541e+18
14606.0	1.3942727636942848e+18
14607.0	1.3941529894715387e+18
14608.0	1.3938863055568893e+18
14609.0	1.3936280144445437e+18
14610.0	1.3933957095620608e+18
14611.0	1.3931402311499773e+18
14612.0	1.3930070963912701e+18
14613.0	1.3927791208693757e+18
14614.0	1.3924984959270907e+18
14615.0	1.3922822057361405e+18
14616.0	1.3920855130112e+18
14617.0	1.3917423182807037e+18
14618.0	1.3915200713392128e+18
14619.0	1.3912706453078013e+18
14620.0	1.391015331312435e+18
14621.0	1.390902356056473e+18
14622.0	1.3906932507082747e+18
14623.0	1.3904691012304893e+18
14624.0	1.3902212379967485e+18
14625.0	1.3900085356134395e+18
14626.0	1.3897471063228413e+18
14627.0	1.3895214393458685e+18
14628.0	1.3893364839612413e+18
14629.0	1.3891077610143741e+18
14630.0	1.3888397818986493e+18
14631.0	1.3886072983388155e+18
14632.0	1.388316534086041e+18
14633.0	1.388158527943475e+18
14634.0	1.3879588799119357e+18
14635.0	1.3877201535500283e+18
14636.0	1.3874571430068221e+18
14637.0	1.3872712506146813e+18
14638.0	1.3870351893135357e+18
14639.0	1.386801792234291e+18
14640.0	1.386563828396851e+18
14641.0	1.3862712161337341e+18
14642.0	1.386106295261593e+18
14643.0	1.3858913942241277e+18
14644.0	1.3856510740267003e+18
14645.0	1.3853808333422587e+18
14646.0	1.3851549465837565e+18
14647.0	1.384969764706713e+18
