# Flux units: erg / (cm m2 s)
# Wavelength units: Angstrom
wave	flux
14000.0	1.7975479109681147e+18
14001.0	1.7971481703088125e+18
14002.0	1.7968802264252413e+18
14003.0	1.796525780893696e+18
14004.0	1.796167035361689e+18
14005.0	1.7958082042658808e+18
14006.0	1.7954427763687421e+18
14007.0	1.7950834771886077e+18
14008.0	1.794648321504051e+18
14009.0	1.7943713498005504e+18
14010.0	1.794004000912179e+18
14011.0	1.7931084364775421e+18
14012.0	1.793298366306713e+18
14013.0	1.7929404294365181e+18
14014.0	1.7925775013445627e+18
14015.0	1.7922223343927296e+18
14016.0	1.79186635374592e+18
14017.0	1.7915086098137085e+18
14018.0	1.7911506595217403e+18
14019.0	1.790793177314099e+18
14020.0	1.7904349720084475e+18
14021.0	1.7900768220676093e+18
14022.0	1.7897157830901755e+18
14023.0	1.7893426225741821e+18
14024.0	1.7889868180881405e+18
14025.0	1.7886478260502525e+18
14026.0	1.7882900686962685e+18
14027.0	1.787934715517337e+18
14028.0	1.7875778138013693e+18
14029.0	1.7872205681524728e+18
14030.0	1.7856942877704197e+18
14031.0	1.7864490628415485e+18
14032.0	1.786147366554828e+18
14033.0	1.7857491727548416e+18
14034.0	1.7854358230138877e+18
14035.0	1.7850816090079232e+18
14036.0	1.7847254991765504e+18
14037.0	1.7843693809565693e+18
14038.0	1.7840133130682365e+18
14039.0	1.7836538343718907e+18
14040.0	1.7832940184535035e+18
14041.0	1.7829417707372536e+18
14042.0	1.7825784601247744e+18
14043.0	1.7821993856401403e+18
14044.0	1.7818681195102203e+18
14045.0	1.781519410108825e+18
14046.0	1.781164119005593e+18
14047.0	1.7808032914210813e+18
14048.0	1.7804537716801533e+18
14049.0	1.780101804143411e+18
14050.0	1.779746773087027e+18
14051.0	1.7793843164348416e+18
14052.0	1.7790366707089405e+18
14053.0	1.7786819802300416e+18
14054.0	1.778327303172915e+18
14055.0	1.777972636182118e+18
14056.0	1.777618034622464e+18
14057.0	1.7772635689582587e+18
14058.0	1.7769091519479808e+18
14059.0	1.776554813790617e+18
14060.0	1.776200564552499e+18
14061.0	1.775840461743718e+18
14062.0	1.7754922858577915e+18
14063.0	1.7751246920220672e+18
14064.0	1.774567520678707e+18
14065.0	1.774423010128691e+18
14066.0	1.774076751878553e+18
14067.0	1.7737084634660861e+18
14068.0	1.7733695133712381e+18
14069.0	1.7730129572659197e+18
14070.0	1.7726617916801024e+18
14071.0	1.7723067035811837e+18
14072.0	1.7719559557480443e+18
14073.0	1.771602776896307e+18
14074.0	1.7712497221959677e+18
14075.0	1.770881364996915e+18
14076.0	1.7705258910220288e+18
14077.0	1.7699171431612416e+18
14078.0	1.769817647559475e+18
14079.0	1.769476860359475e+18
14080.0	1.7691329039433725e+18
14081.0	1.768780411279769e+18
14082.0	1.768423350180249e+18
14083.0	1.7680743522107387e+18
14084.0	1.7677231631368187e+18
14085.0	1.767035582493491e+18
14086.0	1.7669970452283387e+18
14087.0	1.7666669803470843e+18
14088.0	1.766302040666931e+18
14089.0	1.7659503314993147e+18
14090.0	1.7656054909239293e+18
14091.0	1.7652597359902717e+18
14092.0	1.7649081727844347e+18
14093.0	1.764556639777587e+18
14094.0	1.7642051671687165e+18
14095.0	1.763853699593011e+18
14096.0	1.763446362210304e+18
14097.0	1.7631313364254715e+18
14098.0	1.7627752131723267e+18
14099.0	1.7624490573823997e+18
14100.0	1.7620875738087421e+18
14101.0	1.7617474090434557e+18
14102.0	1.7613964162629627e+18
14103.0	1.7610326425993216e+18
14104.0	1.7606952813068288e+18
14105.0	1.7603442096734205e+18
14106.0	1.7599941497061376e+18
14107.0	1.7596422928990203e+18
14108.0	1.7592838543900672e+18
14109.0	1.7589388410093565e+18
14110.0	1.7585864557199357e+18
14111.0	1.758230402931097e+18
14112.0	1.7578865572446205e+18
14113.0	1.7575390692245504e+18
14114.0	1.757182003091865e+18
14115.0	1.7568419440230397e+18
14116.0	1.756443939805593e+18
14117.0	1.7541070715879421e+18
14118.0	1.7557936465248256e+18
14119.0	1.7554089130852347e+18
14120.0	1.7550686375903224e+18
14121.0	1.7547329271758843e+18
14122.0	1.754349993931571e+18
14123.0	1.7540152884723707e+18
14124.0	1.7536605694722048e+18
14125.0	1.752949066196582e+18
14126.0	1.752994420044595e+18
14127.0	1.7526529533673464e+18
14128.0	1.7522829335461885e+18
14129.0	1.7519202940223485e+18
14130.0	1.7515648938672125e+18
14131.0	1.7512336831021053e+18
14132.0	1.7508807022215165e+18
14133.0	1.7500675390832627e+18
14134.0	1.7501882175979515e+18
14135.0	1.7498204811558907e+18
14136.0	1.7494295804116987e+18
14137.0	1.7491393446412285e+18
14138.0	1.7487724537708541e+18
14139.0	1.7484478163189757e+18
14140.0	1.7480912853794808e+18
14141.0	1.747740735517491e+18
14142.0	1.7472454620348413e+18
14143.0	1.7470501282643963e+18
14144.0	1.7467099886649344e+18
14145.0	1.7463615678316544e+18
14146.0	1.745884667078246e+18
14147.0	1.7455201803829243e+18
14148.0	1.745168655764684e+18
14149.0	1.744822085458329e+18
14150.0	1.7444816321249277e+18
14151.0	1.744122502394675e+18
14152.0	1.7437879479304184e+18
14153.0	1.7434410622124032e+18
14154.0	1.7430731932303357e+18
14155.0	1.7425528696864768e+18
14156.0	1.742359820972851e+18
14157.0	1.7420548464181243e+18
14158.0	1.7417049022136315e+18
14159.0	1.7413618433785853e+18
14160.0	1.7410073106055165e+18
14161.0	1.740499528030617e+18
14162.0	1.739789420619366e+18
14163.0	1.7395241745121277e+18
14164.0	1.7391092974485504e+18
14165.0	1.738734660537548e+18
14166.0	1.7384602591035387e+18
14167.0	1.7381053807198205e+18
14168.0	1.7377645800980475e+18
14169.0	1.7374261651963904e+18
14170.0	1.737074439251558e+18
14171.0	1.7367326806507517e+18
14172.0	1.7363898197868541e+18
14173.0	1.7359921980899325e+18
14174.0	1.7356930301296635e+18
14175.0	1.7353542125748221e+18
14176.0	1.7350080751206397e+18
14177.0	1.7346636590088187e+18
14178.0	1.7343176725495805e+18
14179.0	1.7339638494527485e+18
14180.0	1.7336297513287677e+18
14181.0	1.7332850701369341e+18
14182.0	1.7329397816098813e+18
14183.0	1.7325959459897341e+18
14184.0	1.732247073849344e+18
14185.0	1.7319068419751933e+18
14186.0	1.7311901495066621e+18
14187.0	1.731197268079411e+18
14188.0	1.7308634199359485e+18
14189.0	1.7305017048367104e+18
14190.0	1.7301586627788797e+18
14191.0	1.729813280299417e+18
14192.0	1.7294665606758397e+18
14193.0	1.7290686923538427e+18
14194.0	1.728782246556467e+18
14195.0	1.7284426840932352e+18
14196.0	1.7280988971270141e+18
14197.0	1.7277553634967547e+18
14198.0	1.7274079006425085e+18
14199.0	1.7270658668953597e+18
14200.0	1.726505603511091e+18
14201.0	1.7263633243308027e+18
14202.0	1.7260389905465336e+18
14203.0	1.725684088674713e+18
14204.0	1.7253504015925243e+18
14205.0	1.725007666557747e+18
14206.0	1.724558741812019e+18
14207.0	1.7243242600857597e+18
14208.0	1.7239817850978304e+18
14209.0	1.7235275721736187e+18
14210.0	1.723212860122726e+18
14211.0	1.722950192673587e+18
14212.0	1.7226111654035453e+18
14213.0	1.722258384171827e+18
14214.0	1.7219024488235005e+18
14215.0	1.7215502229176315e+18
14216.0	1.7212191144935421e+18
14217.0	1.720876864320307e+18
14218.0	1.7205252759486456e+18
14219.0	1.720193014929817e+18
14220.0	1.7198491323334653e+18
14221.0	1.7195047883636733e+18
14222.0	1.719138358866739e+18
14223.0	1.7188250879787005e+18
14224.0	1.7184845222379515e+18
14225.0	1.7174473497116675e+18
14226.0	1.7177953729249277e+18
14227.0	1.7174603453431803e+18
14228.0	1.7154380834799616e+18
14229.0	1.7163310541570028e+18
14230.0	1.7164369385226237e+18
14231.0	1.7160717673168893e+18
14232.0	1.7157548759056381e+18
14233.0	1.7154097249517565e+18
14234.0	1.715073524642611e+18
14235.0	1.7147306201579512e+18
14236.0	1.71439205426135e+18
14237.0	1.7140504365891581e+18
14238.0	1.7137107382304763e+18
14239.0	1.7133642501324797e+18
14240.0	1.7116280079253504e+18
14241.0	1.7126671735848952e+18
14242.0	1.7123231450267648e+18
14243.0	1.7118517337784315e+18
14244.0	1.7116455686373368e+18
14245.0	1.7112893715644408e+18
14246.0	1.7109454839349243e+18
14247.0	1.710621906803097e+18
14248.0	1.710271558267699e+18
14249.0	1.7099445099298808e+18
14250.0	1.7096046689648635e+18
14251.0	1.7092672221085693e+18
14252.0	1.7089276042805243e+18
14253.0	1.708587375761817e+18
14254.0	1.7082467127132157e+18
14255.0	1.7078799778709496e+18
14256.0	1.7068852114358272e+18
14257.0	1.7071790895398907e+18
14258.0	1.706891838436147e+18
14259.0	1.7065364953235453e+18
14260.0	1.7061893109710843e+18
14261.0	1.7058589608771581e+18
14262.0	1.7055525518704637e+18
14263.0	1.7042235145060357e+18
14264.0	1.7046444515000312e+18
14265.0	1.7045323880857597e+18
14266.0	1.7041979779055613e+18
14267.0	1.7038611115409403e+18
14268.0	1.7035228342124541e+18
14269.0	1.7031795505627133e+18
14270.0	1.7028462946549757e+18
14271.0	1.702506705348198e+18
14272.0	1.7021697920073728e+18
14273.0	1.701809643900108e+18
14274.0	1.699917628597863e+18
14275.0	1.700992462618624e+18
14276.0	1.7007781856935933e+18
14277.0	1.7004415441436667e+18
14278.0	1.70011917329367e+18
14279.0	1.6997803960041472e+18
14280.0	1.6994383773564928e+18
14281.0	1.6991066834075643e+18
14282.0	1.6987695116976125e+18
14283.0	1.698432145371955e+18
14284.0	1.6980948277002237e+18
14285.0	1.6977572717920253e+18
14286.0	1.6974174442487803e+18
14287.0	1.6970833008263165e+18
14288.0	1.6967461492490235e+18
14289.0	1.6955109049106422e+18
14290.0	1.6960704468746235e+18
14291.0	1.6957348857774077e+18
14292.0	1.6953990562447357e+18
14293.0	1.6950604215615485e+18
14294.0	1.69460605428695e+18
14295.0	1.6943780452106237e+18
14296.0	1.693330024536474e+18
14297.0	1.693712100465049e+18
14298.0	1.6930831008268285e+18
14299.0	1.6930291352338432e+18
14300.0	1.692700734652416e+18
14301.0	1.6923679870943232e+18
14302.0	1.6920338369609728e+18
14303.0	1.6916697831178237e+18
14304.0	1.6913481638871037e+18
14305.0	1.691025631975833e+18
14306.0	1.6906609439539197e+18
14307.0	1.690339148562432e+18
14308.0	1.6900168968306685e+18
14309.0	1.6896656205152253e+18
14310.0	1.689188125848371e+18
14311.0	1.6886942683627515e+18
14312.0	1.6885800725643261e+18
14313.0	1.688221338776371e+18
14314.0	1.6879730561122296e+18
14315.0	1.6876489018441725e+18
14316.0	1.6872695404691453e+18
14317.0	1.6869486544027643e+18
14318.0	1.686645731701555e+18
14319.0	1.686311594989977e+18
14320.0	1.6859763073613821e+18
14321.0	1.685640008066662e+18
14322.0	1.6852747361976312e+18
14323.0	1.6849549926596605e+18
14324.0	1.6846387203276797e+18
14325.0	1.6842962637946877e+18
14326.0	1.683969950298931e+18
14327.0	1.683630069068595e+18
14328.0	1.6832956169453565e+18
14329.0	1.682967276761907e+18
14330.0	1.682633175282483e+18
14331.0	1.6822988590546944e+18
14332.0	1.6819651216408576e+18
14333.0	1.6816312432984061e+18
14334.0	1.6812974102544381e+18
14335.0	1.680950286299955e+18
14336.0	1.680553753444352e+18
14337.0	1.68029576012759e+18
14338.0	1.679960841597747e+18
14339.0	1.6796198346162168e+18
14340.0	1.6792949505392637e+18
14341.0	1.6789571127738365e+18
14342.0	1.6786273029062653e+18
14343.0	1.6782904868732925e+18
14344.0	1.677957239354163e+18
14345.0	1.677629471273779e+18
14346.0	1.677292366672691e+18
14347.0	1.6769241856344061e+18
14348.0	1.67662906769408e+18
14349.0	1.6762977394884605e+18
14350.0	1.675506702142668e+18
14351.0	1.675001013364326e+18
14352.0	1.674725123791257e+18
14353.0	1.674398103974707e+18
14354.0	1.6740595095568381e+18
14355.0	1.6737143451811835e+18
14356.0	1.6733863254425597e+18
14357.0	1.6730698970824704e+18
14358.0	1.672737025372979e+18
14359.0	1.6723930219806715e+18
14360.0	1.6720677973262339e+18
14361.0	1.6717384270217213e+18
14362.0	1.6714085383012347e+18
14363.0	1.6710761816522747e+18
14364.0	1.6705758750048253e+18
14365.0	1.6703700638629885e+18
14366.0	1.6700478909841405e+18
14367.0	1.6697490736676861e+18
14368.0	1.6694168596250621e+18
14369.0	1.669085630405017e+18
14370.0	1.6687541411381243e+18
14371.0	1.6684228078993405e+18
14372.0	1.6680862032592893e+18
14373.0	1.6677582237859835e+18
14374.0	1.6674278720143357e+18
14375.0	1.6670954751000576e+18
14376.0	1.666765903468953e+18
14377.0	1.6664341491220477e+18
14378.0	1.666101206948249e+18
14379.0	1.6657724775333885e+18
14380.0	1.6654398809702397e+18
14381.0	1.6651012580311035e+18
14382.0	1.6647781842157563e+18
14383.0	1.664442150001049e+18
14384.0	1.6641018644398077e+18
14385.0	1.663787253052211e+18
14386.0	1.663444351922995e+18
14387.0	1.663125942173696e+18
14388.0	1.662793751619174e+18
14389.0	1.662464770546073e+18
14390.0	1.6621330463981565e+18
14391.0	1.6618040703582205e+18
14392.0	1.661472067708518e+18
14393.0	1.661144108367872e+18
14394.0	1.660781920151142e+18
14395.0	1.6604692314324992e+18
14396.0	1.660153459061555e+18
14397.0	1.6598238471651325e+18
14398.0	1.6594928763142144e+18
14399.0	1.659151142879232e+18
14400.0	1.6587930818576381e+18
14401.0	1.6584751401926653e+18
14402.0	1.6581501789405181e+18
14403.0	1.6559421026992102e+18
14404.0	1.651921964656229e+18
14405.0	1.6555823387901924e+18
14406.0	1.6568320450887675e+18
14407.0	1.653992338541773e+18
14408.0	1.656134659840409e+18
14409.0	1.655827069717708e+18
14410.0	1.655501818219724e+18
14411.0	1.6551851247796221e+18
14412.0	1.654854049909964e+18
14413.0	1.654528375626137e+18
14414.0	1.6541970222546944e+18
14415.0	1.653869061236326e+18
14416.0	1.6535348188282877e+18
14417.0	1.653193800102707e+18
14418.0	1.6528497480564733e+18
14419.0	1.652552897029734e+18
14420.0	1.6522208507592704e+18
14421.0	1.6518963525582848e+18
14422.0	1.651563955644006e+18
14423.0	1.6512273224826877e+18
14424.0	1.6406623455018962e+18
14425.0	1.6505727308791805e+18
14426.0	1.6502542104002557e+18
14427.0	1.6499255766155261e+18
14428.0	1.649580509547724e+18
14429.0	1.6492643865329661e+18
14430.0	1.6489417908682747e+18
14431.0	1.6483006898241533e+18
14432.0	1.6482779113979896e+18
14433.0	1.646056483848191e+18
14434.0	1.6476134430474237e+18
14435.0	1.6472534761340925e+18
14436.0	1.6469742646722557e+18
14437.0	1.64664674657239e+18
14438.0	1.6462457224560637e+18
14439.0	1.645974205025484e+18
14440.0	1.6456630447112187e+18
14441.0	1.645327305775513e+18
14442.0	1.6449959406600187e+18
14443.0	1.6446319186935805e+18
14444.0	1.6443487058657277e+18
14445.0	1.644026132011417e+18
14446.0	1.6411723980341256e+18
14447.0	1.6433511695122432e+18
14448.0	1.6430448980787197e+18
14449.0	1.642717796053811e+18
14450.0	1.6423863051091965e+18
14451.0	1.642043351970611e+18
14452.0	1.6416839152173053e+18
14453.0	1.6413279110823933e+18
14454.0	1.6410313234579456e+18
14455.0	1.6406851423830016e+18
14456.0	1.6403460312268797e+18
14457.0	1.640018383942451e+18
14458.0	1.6396980246806525e+18
14459.0	1.63936954524631e+18
14460.0	1.639040517197004e+18
14461.0	1.6386679774380032e+18
14462.0	1.6381265531895805e+18
14463.0	1.6380479066341368e+18
14464.0	1.6377373251338235e+18
14465.0	1.637392519790592e+18
14466.0	1.6370890434412541e+18
14467.0	1.6367262931877885e+18
14468.0	1.636430525969203e+18
14469.0	1.6360678193364987e+18
14470.0	1.6357577193422843e+18
14471.0	1.6354472603156475e+18
14472.0	1.6351259229421565e+18
14473.0	1.6348043288772603e+18
14474.0	1.6344797602119677e+18
14475.0	1.6341485947453437e+18
14476.0	1.6337077146746877e+18
14477.0	1.633501784414617e+18
14478.0	1.6331746941337597e+18
14479.0	1.632848551765606e+18
14480.0	1.6325099137269757e+18
14481.0	1.632200619039129e+18
14482.0	1.6318711430381565e+18
14483.0	1.631540168831795e+18
14484.0	1.631212362163814e+18
14485.0	1.6308661794111485e+18
14486.0	1.6302978612854781e+18
14487.0	1.6296149228978179e+18
14488.0	1.6292448309346304e+18
14489.0	1.6289180627763197e+18
14490.0	1.628614222361395e+18
14491.0	1.628296070981222e+18
14492.0	1.6279716935761915e+18
14493.0	1.627642551441817e+18
14494.0	1.6273015293607933e+18
14495.0	1.626996038067814e+18
14496.0	1.6265477911216125e+18
14497.0	1.6263445217279997e+18
14498.0	1.6260204228247547e+18
14499.0	1.6256957149085693e+18
14500.0	1.6253702956384256e+18
14501.0	1.6249890401157115e+18
14502.0	1.6244677787254781e+18
14503.0	1.6243696471113725e+18
14504.0	1.6240643554672637e+18
14505.0	1.6236916915568635e+18
14506.0	1.6233156134830075e+18
14507.0	1.622869844531609e+18
14508.0	1.6227707213840381e+18
14509.0	1.622445981591142e+18
14510.0	1.6221183661834237e+18
14511.0	1.6217959919779837e+18
14512.0	1.621457179456307e+18
14513.0	1.6211467757944824e+18
14514.0	1.6207881376366587e+18
14515.0	1.6204961134149624e+18
14516.0	1.6178936518017034e+18
14517.0	1.6198463066734587e+18
14518.0	1.619523700942438e+18
14519.0	1.619195406057472e+18
14520.0	1.6188515805036541e+18
14521.0	1.6185265622089725e+18
14522.0	1.618200290656256e+18
14523.0	1.6177352044183547e+18
14524.0	1.6174323102384125e+18
14525.0	1.6172247542661115e+18
14526.0	1.6169032356986877e+18
14527.0	1.6165500987899904e+18
14528.0	1.6161379329245181e+18
14529.0	1.6159212585353216e+18
14530.0	1.6155922288082941e+18
14531.0	1.6152812144558075e+18
14532.0	1.6147900782346235e+18
14533.0	1.6146325888303104e+18
14534.0	1.6143112699117565e+18
14535.0	1.6139771332001787e+18
14536.0	1.6136624714809341e+18
14537.0	1.6133273331695613e+18
14538.0	1.613014513588633e+18
14539.0	1.6126905338036221e+18
14540.0	1.6123664214786048e+18
14541.0	1.6120240823861243e+18
14542.0	1.6117181246865403e+18
14543.0	1.6113107654934525e+18
14544.0	1.6110694856392704e+18
14545.0	1.6107382094430203e+18
14546.0	1.59732765053419e+18
14547.0	1.5980984646238144e+18
14548.0	1.6097607856160763e+18
14549.0	1.6093392513531904e+18
14550.0	1.6091211576115197e+18
14551.0	1.6088028669804541e+18
14552.0	1.608476946071552e+18
14553.0	1.608147825747558e+18
14554.0	1.6078315081170941e+18
14555.0	1.6075071156125693e+18
14556.0	1.6071807903727613e+18
14557.0	1.6068598120316928e+18
14558.0	1.6065352483995643e+18
14559.0	1.6045243061239788e+18
14560.0	1.6058719812976637e+18
14561.0	1.6055578061176832e+18
14562.0	1.6052137339387904e+18
14563.0	1.604913866368614e+18
14564.0	1.6045645932527608e+18
14565.0	1.6042692890853376e+18
14566.0	1.6039455173378048e+18
14567.0	1.6036200729018365e+18
14568.0	1.6032594281889792e+18
14569.0	1.602973234049843e+18
14570.0	1.6021624935415803e+18
14571.0	1.602323111896678e+18
14572.0	1.6019521005420541e+18
14573.0	1.6016303638708221e+18
14574.0	1.6012845921599485e+18
14575.0	1.6010216965406723e+18
14576.0	1.6005239551295485e+18
14577.0	1.5999945500786685e+18
14578.0	1.599673254648217e+18
14579.0	1.5993526017851392e+18
14580.0	1.5990287813836797e+18
14581.0	1.598698345725952e+18
14582.0	1.5983757685161984e+18
14583.0	1.5980558488174587e+18
14584.0	1.5977125836226557e+18
14585.0	1.5974077583851515e+18
14586.0	1.5970809382174715e+18
14587.0	1.596757619454771e+18
14588.0	1.5964355992485885e+18
14589.0	1.596120068469555e+18
14590.0	1.5958046584864765e+18
14591.0	1.5954855004733437e+18
14592.0	1.595167523576217e+18
14593.0	1.5947493162352635e+18
14594.0	1.59454112776192e+18
14595.0	1.594220459799347e+18
14596.0	1.5937369739886592e+18
14597.0	1.5933965877641216e+18
14598.0	1.5932379189215232e+18
14599.0	1.592940039451443e+18
14600.0	1.5926189201817597e+18
14601.0	1.592306077112729e+18
14602.0	1.5919751381385216e+18
14603.0	1.5916738008842237e+18
14604.0	1.591305634945433e+18
14605.0	1.5910007979638781e+18
14606.0	1.5906620223520765e+18
14607.0	1.590395732702003e+18
14608.0	1.5900909024313344e+18
14609.0	1.5897656542887933e+18
14610.0	1.589387311290777e+18
14611.0	1.589133020705587e+18
14612.0	1.5888279756865533e+18
14613.0	1.5885130253991933e+18
14614.0	1.5881936056614907e+18
14615.0	1.5878771622019067e+18
14616.0	1.5875637017313275e+18
14617.0	1.5872467432112125e+18
14618.0	1.5869164333826043e+18
14619.0	1.586477455848243e+18
14620.0	1.5858956152864765e+18
14621.0	1.585979523176857e+18
14622.0	1.585659970899148e+18
14623.0	1.585345705122201e+18
14624.0	1.5849745041850365e+18
14625.0	1.5847088000598013e+18
14626.0	1.584390937247744e+18
14627.0	1.5840690277711872e+18
14628.0	1.5837595435007997e+18
14629.0	1.5834419189252093e+18
14630.0	1.5831199742164992e+18
14631.0	1.5828057889701888e+18
14632.0	1.581683451940045e+18
14633.0	1.5820320657113085e+18
14634.0	1.581844900767334e+18
14635.0	1.5811980921143288e+18
14636.0	1.5805480202928123e+18
14637.0	1.5808980735492093e+18
14638.0	1.5805702685589504e+18
14639.0	1.5802436312629248e+18
14640.0	1.5799381970124797e+18
14641.0	1.576390726831307e+18
14642.0	1.579299147821875e+18
14643.0	1.5789837982367741e+18
14644.0	1.5786540839993341e+18
14645.0	1.5783234520481787e+18
14646.0	1.5780062502584315e+18
14647.0	1.5776692479983613e+18
14648.0	1.5773806094188541e+18
