# Flux units: erg / (cm m2 s)
# Wavelength units: Angstrom
wave	flux
14000.0	1.9394909463117821e+18
14001.0	1.9390978326528e+18
14002.0	1.9388405842444283e+18
14003.0	1.9384777433939965e+18
14004.0	1.9381139143655421e+18
14005.0	1.937749501489971e+18
14006.0	1.9373782636429312e+18
14007.0	1.9370112788201464e+18
14008.0	1.9365775139667965e+18
14009.0	1.936278651351859e+18
14010.0	1.9359064823693312e+18
14011.0	1.9349873375576061e+18
14012.0	1.9351848540438528e+18
14013.0	1.9348369700814845e+18
14014.0	1.9344695742169088e+18
14015.0	1.934110597159321e+18
14016.0	1.9337491085524987e+18
14017.0	1.9333863901757437e+18
14018.0	1.9330233211551741e+18
14019.0	1.9326603058216955e+18
14020.0	1.9322966412099581e+18
14021.0	1.931933159469875e+18
14022.0	1.931570729661235e+18
14023.0	1.9311973661409277e+18
14024.0	1.9308348121808893e+18
14025.0	1.9304831013355515e+18
14026.0	1.9301195122212861e+18
14027.0	1.9297581075005437e+18
14028.0	1.9293890892791803e+18
14029.0	1.9290262131965947e+18
14030.0	1.9284081137156096e+18
14031.0	1.9282567312179197e+18
14032.0	1.9279442220154877e+18
14033.0	1.9275457597800445e+18
14034.0	1.927223685886771e+18
14035.0	1.92686271234048e+18
14036.0	1.9265013663399933e+18
14037.0	1.9261399683301373e+18
14038.0	1.925778597163827e+18
14039.0	1.9254130518261755e+18
14040.0	1.9250529523728381e+18
14041.0	1.9246932891271163e+18
14042.0	1.9243235226419197e+18
14043.0	1.9239368967323643e+18
14044.0	1.923600594082201e+18
14045.0	1.9232470629089277e+18
14046.0	1.922885213591961e+18
14047.0	1.9225224599830528e+18
14048.0	1.9221681503469565e+18
14049.0	1.921808336106291e+18
14050.0	1.9214477870235645e+18
14051.0	1.921080449879245e+18
14052.0	1.9207222009528315e+18
14053.0	1.920367005479731e+18
14054.0	1.9200070771539965e+18
14055.0	1.9196470682976253e+18
14056.0	1.91928711816151e+18
14057.0	1.9189272787550205e+18
14058.0	1.9185674930356221e+18
14059.0	1.9182077744250877e+18
14060.0	1.9178480356818941e+18
14061.0	1.9174823410270203e+18
14062.0	1.9171281924521981e+18
14063.0	1.91675539432407e+18
14064.0	1.91635652608e+18
14065.0	1.9160429649461245e+18
14066.0	1.9156919788765181e+18
14067.0	1.9153331712688125e+18
14068.0	1.914974169045401e+18
14069.0	1.914614582974873e+18
14070.0	1.9142563776692221e+18
14071.0	1.9138952229289981e+18
14072.0	1.9135392171163643e+18
14073.0	1.9131806963990525e+18
14074.0	1.9128222176247805e+18
14075.0	1.9124464046309373e+18
14076.0	1.9121042567987197e+18
14077.0	1.9116866031058941e+18
14078.0	1.9113813987033083e+18
14079.0	1.9110215727185917e+18
14080.0	1.9106726854787072e+18
14081.0	1.9103150002667517e+18
14082.0	1.9099563503648768e+18
14083.0	1.9095969622654973e+18
14084.0	1.9092344804474875e+18
14085.0	1.908659117568819e+18
14086.0	1.9085075689766907e+18
14087.0	1.9081672901263355e+18
14088.0	1.90780073312256e+18
14089.0	1.9074550184542203e+18
14090.0	1.907097700663296e+18
14091.0	1.906741221733171e+18
14092.0	1.9063843888037883e+18
14093.0	1.906027492120985e+18
14094.0	1.9056705098743803e+18
14095.0	1.9053129874014203e+18
14096.0	1.9049477205655547e+18
14097.0	1.904582623179571e+18
14098.0	1.9042399317655547e+18
14099.0	1.9038868116340733e+18
14100.0	1.9035203838148608e+18
14101.0	1.9031753637232635e+18
14102.0	1.9028190072668155e+18
14103.0	1.9024493179568125e+18
14104.0	1.9021043532300283e+18
14105.0	1.9017514595909624e+18
14106.0	1.9013956416831483e+18
14107.0	1.9010396862021632e+18
14108.0	1.900672466498355e+18
14109.0	1.9003245154271227e+18
14110.0	1.8999711318933504e+18
14111.0	1.8996102623657981e+18
14112.0	1.8992532432093181e+18
14113.0	1.8989059481272312e+18
14114.0	1.8985369533939712e+18
14115.0	1.8981910373990397e+18
14116.0	1.8978072099291133e+18
14117.0	1.8969965633732605e+18
14118.0	1.8971167855476733e+18
14119.0	1.8967618266333184e+18
14120.0	1.8964147546882045e+18
14121.0	1.8960541703733245e+18
14122.0	1.895706452505395e+18
14123.0	1.8953505255456765e+18
14124.0	1.8949788464578555e+18
14125.0	1.894234704786227e+18
14126.0	1.894280070378291e+18
14127.0	1.8939383084220413e+18
14128.0	1.8935850641391613e+18
14129.0	1.893221006940569e+18
14130.0	1.8928567551262717e+18
14131.0	1.8925223734673405e+18
14132.0	1.8921459212615675e+18
14133.0	1.8913329930043384e+18
14134.0	1.8914433686306813e+18
14135.0	1.8910966389407744e+18
14136.0	1.8907543099146237e+18
14137.0	1.8904024346525693e+18
14138.0	1.8900482005139453e+18
14139.0	1.8896974895906813e+18
14140.0	1.8893428846755835e+18
14141.0	1.8889823070715904e+18
14142.0	1.8886167130800125e+18
14143.0	1.888283700441907e+18
14144.0	1.88793427633111e+18
14145.0	1.8875805270540283e+18
14146.0	1.887228641725644e+18
14147.0	1.8868768604159997e+18
14148.0	1.8865249851539453e+18
14149.0	1.8861732021665784e+18
14150.0	1.885820837009817e+18
14151.0	1.8854667605770237e+18
14152.0	1.885116866704179e+18
14153.0	1.8847647817269243e+18
14154.0	1.8843873228881915e+18
14155.0	1.8840543270273021e+18
14156.0	1.8837082399047677e+18
14157.0	1.8833569719779325e+18
14158.0	1.8830022429114363e+18
14159.0	1.8826531878993915e+18
14160.0	1.882286458090291e+18
14161.0	1.881900481458995e+18
14162.0	1.8815049787244541e+18
14163.0	1.881240105071411e+18
14164.0	1.8808753834950656e+18
14165.0	1.8805254627786752e+18
14166.0	1.8801924501405693e+18
14167.0	1.879830176360038e+18
14168.0	1.8794934224027645e+18
14169.0	1.8791437114015741e+18
14170.0	1.8787905342275581e+18
14171.0	1.8784397343850496e+18
14172.0	1.87809146119127e+18
14173.0	1.877722976485376e+18
14174.0	1.8773836220596221e+18
14175.0	1.8770409222569981e+18
14176.0	1.8766911508578296e+18
14177.0	1.8763411647102968e+18
14178.0	1.875990640014131e+18
14179.0	1.8756373202337795e+18
14180.0	1.875291360618086e+18
14181.0	1.874941609351577e+18
14182.0	1.874591183640985e+18
14183.0	1.874241892070195e+18
14184.0	1.8738874297614333e+18
14185.0	1.8735386280853496e+18
14186.0	1.87309482877911e+18
14187.0	1.8728104096694264e+18
14188.0	1.8724900789288955e+18
14189.0	1.8721450252828664e+18
14190.0	1.8717960071806976e+18
14191.0	1.8714464203309053e+18
14192.0	1.871090597389926e+18
14193.0	1.870737079638425e+18
14194.0	1.8704000018808827e+18
14195.0	1.8700530473762816e+18
14196.0	1.8697044705148925e+18
14197.0	1.869355897008947e+18
14198.0	1.8690030486683645e+18
14199.0	1.868653634623897e+18
14200.0	1.8682602793730045e+18
14201.0	1.8679526942834683e+18
14202.0	1.8676118903062528e+18
14203.0	1.8672613807095805e+18
14204.0	1.8669151727910907e+18
14205.0	1.8665645893746683e+18
14206.0	1.8661102539767803e+18
14207.0	1.8658669642121213e+18
14208.0	1.8655233601175547e+18
14209.0	1.8650589265133568e+18
14210.0	1.864736080868147e+18
14211.0	1.8644748545818621e+18
14212.0	1.8641363826376704e+18
14213.0	1.8637905639505915e+18
14214.0	1.8634424971165696e+18
14215.0	1.8630854779600893e+18
14216.0	1.8627499202183165e+18
14217.0	1.8624031653625853e+18
14218.0	1.8620442050822144e+18
14219.0	1.8617094442582013e+18
14220.0	1.8613628018098176e+18
14221.0	1.8610157634191352e+18
14222.0	1.8606609907318781e+18
14223.0	1.860322268807168e+18
14224.0	1.859973868106547e+18
14225.0	1.8594626009038845e+18
14226.0	1.8592713339305981e+18
14227.0	1.8589334894542845e+18
14228.0	1.8581396570243072e+18
14229.0	1.8580868373151741e+18
14230.0	1.8578472939028475e+18
14231.0	1.857501518836531e+18
14232.0	1.8571576664391675e+18
14233.0	1.8568100844666877e+18
14234.0	1.856465968667033e+18
14235.0	1.8561179286765563e+18
14236.0	1.855774017558937e+18
14237.0	1.8554261990277117e+18
14238.0	1.8550781942693883e+18
14239.0	1.8547090032427008e+18
14240.0	1.8528795669561347e+18
14241.0	1.8540001826439163e+18
14242.0	1.8536832291569661e+18
14243.0	1.8532199682801661e+18
14244.0	1.8530076559671296e+18
14245.0	1.8526581563588605e+18
14246.0	1.8522953876504576e+18
14247.0	1.85192097555415e+18
14248.0	1.8515661273694205e+18
14249.0	1.8512320896434176e+18
14250.0	1.8508903796965376e+18
14251.0	1.8505478090784763e+18
14252.0	1.850203018834739e+18
14253.0	1.8498570961289213e+18
14254.0	1.8495101282025472e+18
14255.0	1.8491318271475707e+18
14256.0	1.848660142430617e+18
14257.0	1.8484295412744187e+18
14258.0	1.8481330325028861e+18
14259.0	1.8477714700763133e+18
14260.0	1.8474381386711037e+18
14261.0	1.8470815188123645e+18
14262.0	1.8467749789433853e+18
14263.0	1.8461966196539387e+18
14264.0	1.84598137971671e+18
14265.0	1.8457420091097083e+18
14266.0	1.8453834984587261e+18
14267.0	1.8450143124652032e+18
14268.0	1.8446712603410424e+18
14269.0	1.8443188884733947e+18
14270.0	1.843983948133171e+18
14271.0	1.8436396259737597e+18
14272.0	1.8432932670603261e+18
14273.0	1.8429311274975227e+18
14274.0	1.8422014444306427e+18
14275.0	1.842186277827379e+18
14276.0	1.8419056788897787e+18
14277.0	1.841573350762086e+18
14278.0	1.8412389305155581e+18
14279.0	1.8408955042594813e+18
14280.0	1.8405496318853115e+18
14281.0	1.840213025567539e+18
14282.0	1.8398709985312765e+18
14283.0	1.8395285923299323e+18
14284.0	1.8391860972093437e+18
14285.0	1.8388433990844413e+18
14286.0	1.8385002278420475e+18
14287.0	1.8381557697871872e+18
14288.0	1.8377950646763515e+18
14289.0	1.8364704917290993e+18
14290.0	1.8370572983468027e+18
14291.0	1.83673117778903e+18
14292.0	1.836389303425433e+18
14293.0	1.8360452010475515e+18
14294.0	1.8355872837140477e+18
14295.0	1.8353330401050621e+18
14296.0	1.8342583889559557e+18
14297.0	1.834635941747097e+18
14298.0	1.8341804554321917e+18
14299.0	1.833978316822937e+18
14300.0	1.8336513406271485e+18
14301.0	1.8333149943562237e+18
14302.0	1.8329762220998653e+18
14303.0	1.8326003956842496e+18
14304.0	1.8322795817598976e+18
14305.0	1.8319531894112253e+18
14306.0	1.8316087900766205e+18
14307.0	1.8312673821196285e+18
14308.0	1.8309295661645821e+18
14309.0	1.8305855795494907e+18
14310.0	1.8302261964832765e+18
14311.0	1.8298854461931515e+18
14312.0	1.8295393741701117e+18
14313.0	1.8291254299197437e+18
14314.0	1.8288654971568125e+18
14315.0	1.8284868572020733e+18
14316.0	1.8281064237629437e+18
14317.0	1.8278059639570427e+18
14318.0	1.8274715369996285e+18
14319.0	1.8271328385630203e+18
14320.0	1.8267926922526717e+18
14321.0	1.8264494488682493e+18
14322.0	1.8260805044666365e+18
14323.0	1.8257512935456768e+18
14324.0	1.8254336219938808e+18
14325.0	1.8250847095881725e+18
14326.0	1.824755429880627e+18
14327.0	1.8244088109203453e+18
14328.0	1.8240705939898363e+18
14329.0	1.823737178698547e+18
14330.0	1.8233979618459643e+18
14331.0	1.8230584430034944e+18
14332.0	1.8227194408992763e+18
14333.0	1.8223802978664445e+18
14334.0	1.8220410390708221e+18
14335.0	1.8216907291230205e+18
14336.0	1.8213451889377275e+18
14337.0	1.8210207310020605e+18
14338.0	1.8206825811804152e+18
14339.0	1.8203349857861632e+18
14340.0	1.820007593515417e+18
14341.0	1.8196688044818427e+18
14342.0	1.819296492892979e+18
14343.0	1.8189330497404925e+18
14344.0	1.8185914941439997e+18
14345.0	1.8182569866559485e+18
14346.0	1.8179160585273341e+18
14347.0	1.8175709109288955e+18
14348.0	1.8172405558018043e+18
14349.0	1.8169031794098176e+18
14350.0	1.81655067164672e+18
14351.0	1.816206997087846e+18
14352.0	1.8158791233110013e+18
14353.0	1.8155496053669888e+18
14354.0	1.8152111451668477e+18
14355.0	1.8148706649899005e+18
14356.0	1.81453374661591e+18
14357.0	1.814200428632473e+18
14358.0	1.8138630472073213e+18
14359.0	1.8135095948869632e+18
14360.0	1.8131865764364285e+18
14361.0	1.8128497268490237e+18
14362.0	1.8125127900200955e+18
14363.0	1.8121742107017216e+18
14364.0	1.8117969615781885e+18
14365.0	1.8114826286923768e+18
14366.0	1.811155315274547e+18
14367.0	1.8108270640103421e+18
14368.0	1.8104900432953336e+18
14369.0	1.810153693668966e+18
14370.0	1.8098169732661245e+18
14371.0	1.8094802998394877e+18
14372.0	1.8091365430722555e+18
14373.0	1.80880088802263e+18
14374.0	1.808436569099468e+18
14375.0	1.8080669603201021e+18
14376.0	1.8077323253252096e+18
14377.0	1.807395088184115e+18
14378.0	1.807056733680435e+18
14379.0	1.8067225600589821e+18
14380.0	1.8063852088328187e+18
14381.0	1.8060379389165565e+18
14382.0	1.805712007941324e+18
14383.0	1.8053759166840832e+18
14384.0	1.8050224509419515e+18
14385.0	1.80470535988183e+18
14386.0	1.804350568739635e+18
14387.0	1.8040329894625277e+18
14388.0	1.8036961314865147e+18
14389.0	1.8033606324649981e+18
14390.0	1.8030238516641787e+18
14391.0	1.8026899364118528e+18
14392.0	1.8023537042259965e+18
14393.0	1.8020187924070397e+18
14394.0	1.8016433283792893e+18
14395.0	1.801337103921971e+18
14396.0	1.8010118272581632e+18
14397.0	1.8006762242179072e+18
14398.0	1.800340183292313e+18
14399.0	1.800003942717849e+18
14400.0	1.7996500055359488e+18
14401.0	1.799321195590451e+18
14402.0	1.7989769204072443e+18
14403.0	1.7982613184577528e+18
14404.0	1.7955459059154929e+18
14405.0	1.7962388166803423e+18
14406.0	1.7976137481191424e+18
14407.0	1.7968637344219139e+18
14408.0	1.7969552189030397e+18
14409.0	1.7966322709168125e+18
14410.0	1.7963160455610363e+18
14411.0	1.79594224247767e+18
14412.0	1.795590259841433e+18
14413.0	1.7952597319090176e+18
14414.0	1.7949232916856827e+18
14415.0	1.7945898361290747e+18
14416.0	1.794256279909171e+18
14417.0	1.7939196031270907e+18
14418.0	1.7935829615771643e+18
14419.0	1.7932507945107453e+18
14420.0	1.7929123913531387e+18
14421.0	1.792580781290291e+18
14422.0	1.792235685701222e+18
14423.0	1.7918537003696125e+18
14424.0	1.7897495673700342e+18
14425.0	1.7911772128215037e+18
14426.0	1.7909048967954427e+18
14427.0	1.790577816580915e+18
14428.0	1.7902226211078144e+18
14429.0	1.789910836681113e+18
14430.0	1.789577109333606e+18
14431.0	1.7891704212291581e+18
14432.0	1.78889988023255e+18
14433.0	1.788226692762828e+18
14434.0	1.7882213341200384e+18
14435.0	1.7878987065786368e+18
14436.0	1.7875810635481085e+18
14437.0	1.7872491246518264e+18
14438.0	1.7869041028825085e+18
14439.0	1.7865788916498432e+18
14440.0	1.786250108547891e+18
14441.0	1.7859089807704061e+18
14442.0	1.7855701296611325e+18
14443.0	1.7851986267340797e+18
14444.0	1.78490828694487e+18
14445.0	1.7845706588946427e+18
14446.0	1.7832184941379584e+18
14447.0	1.7838609876910077e+18
14448.0	1.7835843582427133e+18
14449.0	1.783256313338265e+18
14450.0	1.7829187926622203e+18
14451.0	1.782589076747059e+18
14452.0	1.782213408037273e+18
14453.0	1.7818629806489597e+18
14454.0	1.781533638865715e+18
14455.0	1.7811931083571197e+18
14456.0	1.7808684407062525e+18
14457.0	1.7805356948258813e+18
14458.0	1.7802032190586875e+18
14459.0	1.779869068925337e+18
14460.0	1.7795348919484416e+18
14461.0	1.7791857765384187e+18
14462.0	1.7788581275762685e+18
14463.0	1.7785347115057147e+18
14464.0	1.7782085305499648e+18
14465.0	1.7778567945388027e+18
14466.0	1.7775454110875643e+18
14467.0	1.777196236957286e+18
14468.0	1.7768803723116541e+18
14469.0	1.776530706608947e+18
14470.0	1.776193987883827e+18
14471.0	1.7758827722047485e+18
14472.0	1.7755554118107133e+18
14473.0	1.7752288315572221e+18
14474.0	1.7749005685489661e+18
14475.0	1.7745669854855163e+18
14476.0	1.774217883497267e+18
14477.0	1.773907159390617e+18
14478.0	1.7735738128859133e+18
14479.0	1.7732431020818432e+18
14480.0	1.772896085501542e+18
14481.0	1.7725838262796288e+18
14482.0	1.772247651136307e+18
14483.0	1.7719119021342715e+18
14484.0	1.7715717642125307e+18
14485.0	1.771210143065702e+18
14486.0	1.7706403854548987e+18
14487.0	1.7705905168580608e+18
14488.0	1.7702655757385723e+18
14489.0	1.7699319909974013e+18
14490.0	1.769606321746739e+18
14491.0	1.769277109148057e+18
14492.0	1.7689487505096696e+18
14493.0	1.7686110251515904e+18
14494.0	1.7682647249584125e+18
14495.0	1.7679475315572728e+18
14496.0	1.7675007442288637e+18
14497.0	1.7672925373005821e+18
14498.0	1.7669676280578043e+18
14499.0	1.7666380228722685e+18
14500.0	1.7663069547134976e+18
14501.0	1.765938213316198e+18
14502.0	1.7653773291749376e+18
14503.0	1.7652392812085243e+18
14504.0	1.7649201785602043e+18
14505.0	1.7645855016222717e+18
14506.0	1.7642369935474685e+18
14507.0	1.7637007333261312e+18
14508.0	1.7636024054185981e+18
14509.0	1.763279244361728e+18
14510.0	1.7629467216183293e+18
14511.0	1.7626187840880637e+18
14512.0	1.762276733563699e+18
14513.0	1.7619553676689405e+18
14514.0	1.761596392289075e+18
14515.0	1.761265897911091e+18
14516.0	1.7584803096297485e+18
14517.0	1.7605463533158397e+18
14518.0	1.7603039275778048e+18
14519.0	1.7599829962129405e+18
14520.0	1.7596552465874941e+18
14521.0	1.7593277804969981e+18
14522.0	1.7589980528377853e+18
14523.0	1.7586460249030653e+18
14524.0	1.7583180789841915e+18
14525.0	1.7580064522633213e+18
14526.0	1.7576798736875517e+18
14527.0	1.7573186468052987e+18
14528.0	1.7569000904982528e+18
14529.0	1.7566840720982013e+18
14530.0	1.7563505896980477e+18
14531.0	1.7560367970385915e+18
14532.0	1.75568573211607e+18
14533.0	1.7553808515137533e+18
14534.0	1.7550554792198136e+18
14535.0	1.7547150929952763e+18
14536.0	1.754393530807091e+18
14537.0	1.7540565923004413e+18
14538.0	1.7537413417009147e+18
14539.0	1.7534134746349565e+18
14540.0	1.7530848458833917e+18
14541.0	1.752731663676211e+18
14542.0	1.7524235266162688e+18
14543.0	1.752071396340531e+18
14544.0	1.7517625059835904e+18
14545.0	1.7514102096134141e+18
14546.0	1.748603686721944e+18
14547.0	1.74835048330035e+18
14548.0	1.7504087054483453e+18
14549.0	1.7500033444216832e+18
14550.0	1.749784410141491e+18
14551.0	1.7494741776072696e+18
14552.0	1.7491466108534781e+18
14553.0	1.7488128734396413e+18
14554.0	1.748493411758899e+18
14555.0	1.7481652175372285e+18
14556.0	1.747835927763353e+18
14557.0	1.7475040811417595e+18
14558.0	1.7470850349400061e+18
14559.0	1.7449437253074916e+18
14560.0	1.7464242709987325e+18
14561.0	1.7461268646461435e+18
14562.0	1.7457840574693376e+18
14563.0	1.7454829869727741e+18
14564.0	1.745154304534118e+18
14565.0	1.7448307961888765e+18
14566.0	1.7445037696614397e+18
14567.0	1.7441757348233213e+18
14568.0	1.7438410159423488e+18
14569.0	1.743506723202662e+18
14570.0	1.7426839299424256e+18
14571.0	1.7428540223913981e+18
14572.0	1.7425000415887357e+18
14573.0	1.7421551406153725e+18
14574.0	1.7418723925164032e+18
14575.0	1.7415500686426107e+18
14576.0	1.741221277152051e+18
14577.0	1.7408920645533693e+18
14578.0	1.7405713731026941e+18
14579.0	1.740246477281689e+18
14580.0	1.7399198265638907e+18
14581.0	1.7395901844684795e+18
14582.0	1.739265555405209e+18
14583.0	1.7389385238446075e+18
14584.0	1.7386017598210043e+18
14585.0	1.7382843550269435e+18
14586.0	1.737955649100185e+18
14587.0	1.7376313539035133e+18
14588.0	1.7373052434120704e+18
14589.0	1.7369801278095357e+18
14590.0	1.7366548813447165e+18
14591.0	1.7363286366355456e+18
14592.0	1.7359895338680315e+18
14593.0	1.73556540416983e+18
14594.0	1.7353485653639165e+18
14595.0	1.7350202100809725e+18
14596.0	1.734660001575731e+18
14597.0	1.734327165098393e+18
14598.0	1.7340473597231104e+18
14599.0	1.7337301260566525e+18
14600.0	1.7334055607468032e+18
14601.0	1.7330808159207421e+18
14602.0	1.7327530042195965e+18
14603.0	1.7324295764049915e+18
14604.0	1.7320667590426624e+18
14605.0	1.7317737617424381e+18
14606.0	1.7313756786720768e+18
14607.0	1.7311262803230712e+18
14608.0	1.7308052281622525e+18
14609.0	1.730481593987891e+18
14610.0	1.7301547922751485e+18
14611.0	1.7298303611830272e+18
14612.0	1.7295101529161725e+18
14613.0	1.7291867251015677e+18
14614.0	1.7288592271343608e+18
14615.0	1.7285375223398397e+18
14616.0	1.7282139368194043e+18
14617.0	1.7278888900034557e+18
14618.0	1.7275602646073341e+18
14619.0	1.7271875956637693e+18
14620.0	1.726813322818355e+18
14621.0	1.7265889124548605e+18
14622.0	1.7262632952135677e+18
14623.0	1.7258792529952763e+18
14624.0	1.7255023310274552e+18
14625.0	1.725224929827225e+18
14626.0	1.7249055419662333e+18
14627.0	1.7245816024465405e+18
14628.0	1.7242598389317627e+18
14629.0	1.723935644398387e+18
14630.0	1.7236104700755963e+18
14631.0	1.7232845827211261e+18
14632.0	1.7228133090459648e+18
14633.0	1.722604122328268e+18
14634.0	1.72231102604247e+18
14635.0	1.7219817765339133e+18
14636.0	1.721641152072908e+18
14637.0	1.721340690589286e+18
14638.0	1.7210131523567616e+18
14639.0	1.72067869687808e+18
14640.0	1.720345806713651e+18
14641.0	1.7194597868371963e+18
14642.0	1.7196953842483197e+18
14643.0	1.7193908224131072e+18
14644.0	1.71905603642327e+18
14645.0	1.7187242652991485e+18
14646.0	1.7184121788825597e+18
14647.0	1.7180870498582525e+18
