# Flux units: erg / (cm m2 s)
# Wavelength units: Angstrom
wave	flux
14000.0	2.0360383449530363e+18
14001.0	2.0356397585661947e+18
14002.0	2.0352555200544763e+18
14003.0	2.034862535580057e+18
14004.0	2.0344695863377917e+18
14005.0	2.0340766974935037e+18
14006.0	2.0336831895699456e+18
14007.0	2.033290678213017e+18
14008.0	2.032889655774412e+18
14009.0	2.0325053451206648e+18
14010.0	2.0321132481609725e+18
14011.0	2.0316627312574461e+18
14012.0	2.0313283999301627e+18
14013.0	2.030936861651763e+18
14014.0	2.0305448603222016e+18
14015.0	2.0301527163863037e+18
14016.0	2.029761050601062e+18
14017.0	2.0293692942188536e+18
14018.0	2.0289776049455101e+18
14019.0	2.028586007946854e+18
14020.0	2.0281944394694653e+18
14021.0	2.0278029431341053e+18
14022.0	2.02741166154711e+18
14023.0	2.0270202960740347e+18
14024.0	2.026628521236889e+18
14025.0	2.0262383066808315e+18
14026.0	2.0258471978991616e+18
14027.0	2.0254564951261181e+18
14028.0	2.0250657067892733e+18
14029.0	2.024674858054451e+18
14030.0	2.0242542096285693e+18
14031.0	2.0238920801320955e+18
14032.0	2.0235034208239616e+18
14033.0	2.023109090816819e+18
14034.0	2.022722938024755e+18
14035.0	2.0223328727859197e+18
14036.0	2.0219428662673403e+18
14037.0	2.0215529285353464e+18
14038.0	2.0211630713339901e+18
14039.0	2.020773306407321e+18
14040.0	2.020383630399897e+18
14041.0	2.0199940248567803e+18
14042.0	2.0196039562625021e+18
14043.0	2.019212666286899e+18
14044.0	2.0188247418208253e+18
14045.0	2.0184366143504381e+18
14046.0	2.0180474785693693e+18
14047.0	2.0176583209779197e+18
14048.0	2.0172694737649661e+18
14049.0	2.0168806366183421e+18
14050.0	2.0164918682583037e+18
14051.0	2.0161023986106365e+18
14052.0	2.015714561386086e+18
14053.0	2.015326113470873e+18
14054.0	2.0149377175650301e+18
14055.0	2.0145494005121021e+18
14056.0	2.0141611824447483e+18
14057.0	2.0137730432303096e+18
14058.0	2.0133850080346112e+18
14059.0	2.0129970533695483e+18
14060.0	2.0126091842682877e+18
14061.0	2.0122207799738365e+18
14062.0	2.011833692690841e+18
14063.0	2.0114446273740797e+18
14064.0	2.0110531612377083e+18
14065.0	2.0106704041541624e+18
14066.0	2.0102839007182843e+18
14067.0	2.0098966825730043e+18
14068.0	2.0095095382474747e+18
14069.0	2.0091223922442237e+18
14070.0	2.0087355029323773e+18
14071.0	2.0083483804172283e+18
14072.0	2.0079618786590712e+18
14073.0	2.0075751839629312e+18
14074.0	2.0071885882523643e+18
14075.0	2.006802052939776e+18
14076.0	2.006415591446937e+18
14077.0	2.0060227193798653e+18
14078.0	2.005642452035174e+18
14079.0	2.0052563126648824e+18
14080.0	2.0048708443832317e+18
14081.0	2.0044848929177597e+18
14082.0	2.0040988625993725e+18
14083.0	2.0037130268966907e+18
14084.0	2.003327182805401e+18
14085.0	2.0029178388676603e+18
14086.0	2.002555172500275e+18
14087.0	2.0021708417138683e+18
14088.0	2.0017854824841208e+18
14089.0	2.0014003279364093e+18
14090.0	2.0010151129907192e+18
14091.0	2.00063010776023e+18
14092.0	2.0002451327287293e+18
14093.0	1.9998602298392573e+18
14094.0	1.9994754074804221e+18
14095.0	1.9990906371309565e+18
14096.0	1.998704945712332e+18
14097.0	1.9983211585077243e+18
14098.0	1.9979364972101627e+18
14099.0	1.9975526563184637e+18
14100.0	1.9971672853446653e+18
14101.0	1.9967842598256637e+18
14102.0	1.9964001471430653e+18
14103.0	1.9960147812024315e+18
14104.0	1.9956322405449725e+18
14105.0	1.995248401330995e+18
14106.0	1.9948646694911997e+18
14107.0	1.994480976239001e+18
14108.0	1.9940974541144061e+18
14109.0	1.993713512559411e+18
14110.0	1.993330327656857e+18
14111.0	1.99294668809175e+18
14112.0	1.9925638454444027e+18
14113.0	1.992180908844646e+18
14114.0	1.991797849771212e+18
14115.0	1.9914146262810621e+18
14116.0	1.991030318982758e+18
14117.0	1.990594421745254e+18
14118.0	1.990265962443571e+18
14119.0	1.9898830912749565e+18
14120.0	1.9895007871762427e+18
14121.0	1.989118778356531e+18
14122.0	1.9887361252917243e+18
14123.0	1.9883538362925056e+18
14124.0	1.9879709869342715e+18
14125.0	1.9875457348403197e+18
14126.0	1.987207746079948e+18
14127.0	1.9868264033157117e+18
14128.0	1.9864445454909435e+18
14129.0	1.986061785051955e+18
14130.0	1.9856798064312315e+18
14131.0	1.9852997555126272e+18
14132.0	1.984917553754931e+18
14133.0	1.9844848844537853e+18
14134.0	1.984154890036838e+18
14135.0	1.9837731647520765e+18
14136.0	1.9833929460613112e+18
14137.0	1.9830122777411581e+18
14138.0	1.9826310993936384e+18
14139.0	1.982250676020838e+18
14140.0	1.9818696553791483e+18
14141.0	1.9814883897901053e+18
14142.0	1.9811054615789565e+18
14143.0	1.980727959119462e+18
14144.0	1.9803479568547835e+18
14145.0	1.9799676676997115e+18
14146.0	1.9795873248575483e+18
14147.0	1.979207263872614e+18
14148.0	1.978827273351987e+18
14149.0	1.9784473834946555e+18
14150.0	1.9780675188031483e+18
14151.0	1.977687519893913e+18
14152.0	1.9773080595333115e+18
14153.0	1.976928451533209e+18
14154.0	1.9765463336615933e+18
14155.0	1.976168527534489e+18
14156.0	1.9757900033425403e+18
14157.0	1.975410871815372e+18
14158.0	1.9750313393127421e+18
14159.0	1.9746525953392637e+18
14160.0	1.9742725494538235e+18
14161.0	1.973889109537587e+18
14162.0	1.973505647810969e+18
14163.0	1.9731366614663165e+18
14164.0	1.972756977968742e+18
14165.0	1.9723762509283325e+18
14166.0	1.9720011392221181e+18
14167.0	1.9716230730481656e+18
14168.0	1.9712446830739453e+18
14169.0	1.970866593411891e+18
14170.0	1.9704881967267835e+18
14171.0	1.970110149007769e+18
14172.0	1.9697324452216824e+18
14173.0	1.969351785290137e+18
14174.0	1.9689761669119992e+18
14175.0	1.9685990989824e+18
14176.0	1.9682215327694843e+18
14177.0	1.9678439564902397e+18
14178.0	1.9674665161064443e+18
14179.0	1.967088689846681e+18
14180.0	1.9667119675277312e+18
14181.0	1.9663347955793917e+18
14182.0	1.9659576202756093e+18
14183.0	1.9655806815305728e+18
14184.0	1.965203257923993e+18
14185.0	1.964826694988595e+18
14186.0	1.9644385356414973e+18
14187.0	1.9640705777401856e+18
14188.0	1.9636967880785917e+18
14189.0	1.96332034761687e+18
14190.0	1.9629439457427453e+18
14191.0	1.962567599233433e+18
14192.0	1.9621906370002941e+18
14193.0	1.9618137435537405e+18
14194.0	1.9614391334862843e+18
14195.0	1.961063342302822e+18
14196.0	1.9606874437451768e+18
14197.0	1.960311634106777e+18
14198.0	1.9599354469810173e+18
14199.0	1.959560073550233e+18
14200.0	1.959178762662707e+18
14201.0	1.9588086706995192e+18
14202.0	1.9584338760826875e+18
14203.0	1.958058022823526e+18
14204.0	1.9576830872780797e+18
14205.0	1.957307881619456e+18
14206.0	1.9569216868843515e+18
14207.0	1.9565579719409661e+18
14208.0	1.956183298120089e+18
14209.0	1.9557961185624061e+18
14210.0	1.9554244495409147e+18
14211.0	1.9550591994822653e+18
14212.0	1.9546847605424125e+18
14213.0	1.9543104138772477e+18
14214.0	1.9539359782928384e+18
14215.0	1.9535194419625981e+18
14216.0	1.9530915592011773e+18
14217.0	1.9527171873701883e+18
14218.0	1.952342869226291e+18
14219.0	1.9519686483902461e+18
14220.0	1.951594528217497e+18
14221.0	1.951220431532851e+18
14222.0	1.950846472421376e+18
14223.0	1.9504725854519293e+18
14224.0	1.9500987035156477e+18
14225.0	1.949706682053427e+18
14226.0	1.9493509027332093e+18
14227.0	1.9489777539612664e+18
14228.0	1.948558902375219e+18
14229.0	1.948222151773388e+18
14230.0	1.9478576935993341e+18
14231.0	1.947484548182835e+18
14232.0	1.947111429609881e+18
14233.0	1.9466941315940352e+18
14234.0	1.9462517214412792e+18
14235.0	1.9458782857789437e+18
14236.0	1.9455053752434683e+18
14237.0	1.9451321761398781e+18
14238.0	1.9447591817183227e+18
14239.0	1.9443851504648184e+18
14240.0	1.943862228130201e+18
14241.0	1.9436392002093053e+18
14242.0	1.9432675899080696e+18
14243.0	1.9428808918564861e+18
14244.0	1.9425232049668093e+18
14245.0	1.9421503212748797e+18
14246.0	1.9417774862368763e+18
14247.0	1.941406505081241e+18
14248.0	1.9410328479596541e+18
14249.0	1.9406621134290941e+18
14250.0	1.9402901390622717e+18
14251.0	1.939918471718502e+18
14252.0	1.9395466483466237e+18
14253.0	1.9391214600060928e+18
14254.0	1.9387020463833083e+18
14255.0	1.9383270034636797e+18
14256.0	1.9379392702578683e+18
14257.0	1.937583928822988e+18
14258.0	1.9372150733406205e+18
14259.0	1.936843615712051e+18
14260.0	1.936471522226995e+18
14261.0	1.936101727220531e+18
14262.0	1.935755386762035e+18
14263.0	1.9353559514480637e+18
14264.0	1.9350039168024573e+18
14265.0	1.9346419534004221e+18
14266.0	1.9342711786045437e+18
14267.0	1.9339002997899261e+18
14268.0	1.933529444463411e+18
14269.0	1.933158414653849e+18
14270.0	1.93278791164887e+18
14271.0	1.932417193895526e+18
14272.0	1.9320465298292733e+18
14273.0	1.931675140987289e+18
14274.0	1.9312603226439675e+18
14275.0	1.9309292846841853e+18
14276.0	1.9304844921667581e+18
14277.0	1.930074638201651e+18
14278.0	1.9297046485794816e+18
14279.0	1.9293342143610877e+18
14280.0	1.9289634546647037e+18
14281.0	1.928593934804582e+18
14282.0	1.9282238629740536e+18
14283.0	1.927853833086566e+18
14284.0	1.9274838619193344e+18
14285.0	1.9271139545055227e+18
14286.0	1.926744095745638e+18
14287.0	1.9263743040946173e+18
14288.0	1.926003938662809e+18
14289.0	1.925537775327641e+18
14290.0	1.9252648502886397e+18
14291.0	1.924896009905766e+18
14292.0	1.92452681049047e+18
14293.0	1.924157211777433e+18
14294.0	1.9237750435741688e+18
14295.0	1.9234183834501117e+18
14296.0	1.9229720642060283e+18
14297.0	1.9226793017868283e+18
14298.0	1.9222961487609853e+18
14299.0	1.9219429229330427e+18
14300.0	1.921574772093747e+18
14301.0	1.921161472088473e+18
14302.0	1.9207331229204477e+18
14303.0	1.920360809653862e+18
14304.0	1.919994407000473e+18
14305.0	1.919626734311833e+18
14306.0	1.9192573067264e+18
14307.0	1.9188889411387387e+18
14308.0	1.9185208959959037e+18
14309.0	1.918152092522905e+18
14310.0	1.917779931928985e+18
14311.0	1.9174133279490045e+18
14312.0	1.9170451804651517e+18
14313.0	1.9166704546349053e+18
14314.0	1.9163113064497147e+18
14315.0	1.9159434039132155e+18
14316.0	1.9155707802681344e+18
14317.0	1.9152072616181755e+18
14318.0	1.9148402348523517e+18
14319.0	1.9144726577938432e+18
14320.0	1.914105022015078e+18
14321.0	1.9137374969659387e+18
14322.0	1.91336627086295e+18
14323.0	1.9130005376204797e+18
14324.0	1.912635317760819e+18
14325.0	1.912268093023846e+18
14326.0	1.911900915263078e+18
14327.0	1.9115337878339581e+18
14328.0	1.9111661201784827e+18
14329.0	1.9107299259842555e+18
14330.0	1.9103283096322043e+18
14331.0	1.9099610932838397e+18
14332.0	1.9095939960537088e+18
14333.0	1.9092269424443387e+18
14334.0	1.908859955943833e+18
14335.0	1.9084919544217597e+18
14336.0	1.9081242397900797e+18
14337.0	1.90775937728512e+18
14338.0	1.9073925518458877e+18
14339.0	1.907025921022361e+18
14340.0	1.9066595301130237e+18
14341.0	1.9062929714315261e+18
14342.0	1.9059266509864955e+18
14343.0	1.9055602114232315e+18
14344.0	1.905193951376179e+18
14345.0	1.9048278121250813e+18
14346.0	1.9044613809504253e+18
14347.0	1.9040944800137208e+18
14348.0	1.9037294983905275e+18
14349.0	1.9033636544184315e+18
14350.0	1.9029962048667643e+18
14351.0	1.9026304129040381e+18
14352.0	1.902266300340633e+18
14353.0	1.901900654339686e+18
14354.0	1.9015347684245504e+18
14355.0	1.9011689210970112e+18
14356.0	1.9008035468869624e+18
14357.0	1.9004386189508605e+18
14358.0	1.9000732866838525e+18
14359.0	1.8997079510614013e+18
14360.0	1.8993426288607224e+18
14361.0	1.8989131858182141e+18
14362.0	1.898506719173017e+18
14363.0	1.8981412812095483e+18
14364.0	1.897771180857753e+18
14365.0	1.8974093382516733e+18
14366.0	1.8970447676702717e+18
14367.0	1.896680569543065e+18
14368.0	1.8963154956451837e+18
14369.0	1.8959506079743997e+18
14370.0	1.8955857068818427e+18
14371.0	1.895220901419417e+18
14372.0	1.8948561160896512e+18
14373.0	1.8944914129682427e+18
14374.0	1.8941268138655741e+18
14375.0	1.8937622550282237e+18
14376.0	1.8933977549111293e+18
14377.0	1.8930332749266936e+18
14378.0	1.8926686858903547e+18
14379.0	1.892304643791257e+18
14380.0	1.8919403617779707e+18
14381.0	1.8915759455469565e+18
14382.0	1.891211933646848e+18
14383.0	1.8908477673963515e+18
14384.0	1.8904839954104317e+18
14385.0	1.8901201026285565e+18
14386.0	1.8897562182352893e+18
14387.0	1.8893923489415168e+18
14388.0	1.8890284477710333e+18
14389.0	1.8886648720785403e+18
14390.0	1.8883010799599616e+18
14391.0	1.8879377341153275e+18
14392.0	1.8875741466787835e+18
14393.0	1.8872108142559232e+18
14394.0	1.8868434586566653e+18
14395.0	1.8864830488248317e+18
14396.0	1.886120874029875e+18
14397.0	1.8857576909242368e+18
14398.0	1.8853008792092672e+18
14399.0	1.8849258094460925e+18
14400.0	1.8845605275107325e+18
14401.0	1.8841981128015864e+18
14402.0	1.883834641127833e+18
14403.0	1.883407150953267e+18
14404.0	1.8827642648133627e+18
14405.0	1.8825817505136635e+18
14406.0	1.8823809423376381e+18
14407.0	1.8819340493127677e+18
14408.0	1.8816543932547072e+18
14409.0	1.881291958412902e+18
14410.0	1.8809307684405243e+18
14411.0	1.880568326887833e+18
14412.0	1.8802053602082813e+18
14413.0	1.8798430310629373e+18
14414.0	1.879480128136806e+18
14415.0	1.8791176412856317e+18
14416.0	1.8787552198655997e+18
14417.0	1.8783925216215035e+18
14418.0	1.8780294844776443e+18
14419.0	1.8776676620042235e+18
14420.0	1.8773049268502525e+18
14421.0	1.8769430020358141e+18
14422.0	1.876580318891212e+18
14423.0	1.8762141930618877e+18
14424.0	1.8755045772230653e+18
14425.0	1.8754894810841083e+18
14426.0	1.8751321834258432e+18
14427.0	1.874770850847129e+18
14428.0	1.8744067282173947e+18
14429.0	1.8740470381281277e+18
14430.0	1.8736855780425728e+18
14431.0	1.8733155146006525e+18
14432.0	1.8729613559595003e+18
14433.0	1.8725355015634941e+18
14434.0	1.872237216084787e+18
14435.0	1.8718761385197563e+18
14436.0	1.871516528961126e+18
14437.0	1.8711552165150715e+18
14438.0	1.8707918371160061e+18
14439.0	1.870332495396864e+18
14440.0	1.8699684885299197e+18
14441.0	1.8696062298488827e+18
14442.0	1.8692441724944381e+18
14443.0	1.8688787076874237e+18
14444.0	1.8685219452223483e+18
14445.0	1.8681605723783165e+18
14446.0	1.8676668457549821e+18
14447.0	1.8674352597762043e+18
14448.0	1.8670774806118397e+18
14449.0	1.8667165523640315e+18
14450.0	1.866355508353433e+18
14451.0	1.8659944626651133e+18
14452.0	1.8656333196689405e+18
14453.0	1.8652716817448955e+18
14454.0	1.8649116477227005e+18
14455.0	1.86455031849943e+18
14456.0	1.864189814715187e+18
14457.0	1.8638289820975104e+18
14458.0	1.863468414559846e+18
14459.0	1.8631074947006461e+18
14460.0	1.8627466906042368e+18
14461.0	1.862384029270016e+18
14462.0	1.8620233929457661e+18
14463.0	1.861664514873753e+18
14464.0	1.8613048331730941e+18
14465.0	1.860942394975846e+18
14466.0	1.8605844396507133e+18
14467.0	1.860222716162867e+18
14468.0	1.8598637240057853e+18
14469.0	1.859501326073856e+18
14470.0	1.859140525332889e+18
14471.0	1.8587825465196541e+18
14472.0	1.8584236046942203e+18
14473.0	1.8580636579135483e+18
14474.0	1.8577037144883197e+18
14475.0	1.8573435881914365e+18
14476.0	1.856979826271846e+18
14477.0	1.8566240251412477e+18
14478.0	1.856264298142105e+18
14479.0	1.8559045291999227e+18
14480.0	1.8555439868280827e+18
14481.0	1.8551851859312635e+18
14482.0	1.854825091511091e+18
14483.0	1.8544648460959741e+18
14484.0	1.8541048003297275e+18
14485.0	1.8537423050899453e+18
14486.0	1.8533561388761083e+18
14487.0	1.853027375906816e+18
14488.0	1.852605608440627e+18
14489.0	1.852185043900825e+18
14490.0	1.851825784986009e+18
14491.0	1.8514661955600381e+18
14492.0	1.8511067319631864e+18
14493.0	1.8507470636843005e+18
14494.0	1.8503852110118907e+18
14495.0	1.850027485534617e+18
14496.0	1.8496545380892672e+18
14497.0	1.8493086975918075e+18
14498.0	1.8489495376625661e+18
14499.0	1.84859015291863e+18
14500.0	1.8482307060989947e+18
14501.0	1.8478693567430653e+18
14502.0	1.8474899198705661e+18
14503.0	1.8471512281448443e+18
14504.0	1.8467929020432381e+18
14505.0	1.8464323210838013e+18
14506.0	1.8460711193673725e+18
14507.0	1.8456906355965947e+18
14508.0	1.8453569065713661e+18
14509.0	1.844998144262144e+18
14510.0	1.8446391823040507e+18
14511.0	1.8442800995500027e+18
14512.0	1.843919614220697e+18
14513.0	1.8435620347052027e+18
14514.0	1.843199836422144e+18
14515.0	1.8428431075115005e+18
14516.0	1.842236377949798e+18
14517.0	1.842123109931417e+18
14518.0	1.841767689643622e+18
14519.0	1.841409257845555e+18
14520.0	1.841050619687731e+18
14521.0	1.840691939586867e+18
14522.0	1.8403331806330877e+18
14523.0	1.839970004238336e+18
14524.0	1.8396115137200125e+18
14525.0	1.8392567678763003e+18
14526.0	1.8388988091957243e+18
14527.0	1.8385188690067453e+18
14528.0	1.8381439569494016e+18
14529.0	1.837797619846348e+18
14530.0	1.8374388608925693e+18
14531.0	1.8370817779826683e+18
14532.0	1.836718130148147e+18
14533.0	1.8363650435710976e+18
14534.0	1.8360070244925437e+18
14535.0	1.835648658125619e+18
14536.0	1.8352903404126203e+18
14537.0	1.8349308315172861e+18
14538.0	1.8345737972613117e+18
14539.0	1.834215563434393e+18
14540.0	1.8338573094748155e+18
14541.0	1.833498577364582e+18
14542.0	1.8331407394799613e+18
14543.0	1.8327800528240637e+18
14544.0	1.832395421725491e+18
14545.0	1.831966025659187e+18
14546.0	1.831165249139507e+18
14547.0	1.830836081839308e+18
14548.0	1.8308895860588541e+18
14549.0	1.8305217808302077e+18
14550.0	1.8301755662008315e+18
14551.0	1.8298177081835515e+18
14552.0	1.8294593770487805e+18
14553.0	1.829100446967398e+18
14554.0	1.8287429429493755e+18
14555.0	1.8283846285918203e+18
14556.0	1.8280262471254013e+18
14557.0	1.8276679126351872e+18
14558.0	1.8273083735408637e+18
14559.0	1.826767239538278e+18
14560.0	1.8265916894609403e+18
14561.0	1.8262342676512768e+18
14562.0	1.8258742738943992e+18
14563.0	1.8255186204033021e+18
14564.0	1.825160092975104e+18
14565.0	1.8248024916492285e+18
14566.0	1.8244443282866176e+18
14567.0	1.8240860659384315e+18
14568.0	1.8237276593061888e+18
14569.0	1.8233690798686205e+18
14570.0	1.8229605009719296e+18
14571.0	1.8226525065183224e+18
14572.0	1.8222910413996027e+18
14573.0	1.8219331934486525e+18
14574.0	1.8215775181471741e+18
14575.0	1.8212201181478912e+18
14576.0	1.8208620940361725e+18
14577.0	1.8205041420664827e+18
14578.0	1.8201457907990525e+18
14579.0	1.819787813663539e+18
14580.0	1.8194296486232061e+18
14581.0	1.819071099384627e+18
14582.0	1.8187131776139261e+18
14583.0	1.8183549991518205e+18
14584.0	1.8179956244742141e+18
14585.0	1.81763858015191e+18
14586.0	1.817280121510297e+18
14587.0	1.8169222265831421e+18
14588.0	1.8165644792954877e+18
14589.0	1.8162093375094781e+18
14590.0	1.8158546268979197e+18
14591.0	1.8154998022012923e+18
14592.0	1.8151447141023741e+18
14593.0	1.8147780295917565e+18
14594.0	1.814435334822297e+18
14595.0	1.8140801695481853e+18
14596.0	1.8137212528885755e+18
14597.0	1.813365661473177e+18
14598.0	1.8130157072023552e+18
14599.0	1.8126615955374077e+18
14600.0	1.8123067473526781e+18
14601.0	1.8119519545327613e+18
14602.0	1.8115969972961277e+18
14603.0	1.8112421809881088e+18
14604.0	1.8108829891821565e+18
14605.0	1.810531612203417e+18
14606.0	1.8101699222700024e+18
14607.0	1.8098217916825592e+18
14608.0	1.8094674602360824e+18
14609.0	1.8090769051025405e+18
14610.0	1.8086612898414584e+18
14611.0	1.8083060624916475e+18
14612.0	1.807951202562867e+18
14613.0	1.8075959148150781e+18
14614.0	1.807240130461696e+18
14615.0	1.8068849819647997e+18
14616.0	1.8065295381889021e+18
14617.0	1.806173983683379e+18
14618.0	1.8058183687798781e+18
14619.0	1.805458383411609e+18
14620.0	1.8050954284761085e+18
14621.0	1.8047516347990016e+18
14622.0	1.8043961339805693e+18
14623.0	1.804040416736051e+18
14624.0	1.8036786966036475e+18
14625.0	1.803328839640678e+18
14626.0	1.8029730418655227e+18
14627.0	1.8026168900911104e+18
14628.0	1.802261399339008e+18
14629.0	1.8019054723792893e+18
14630.0	1.8015493793251325e+18
14631.0	1.8011932762046461e+18
14632.0	1.8008089605177341e+18
14633.0	1.8004766407786493e+18
14634.0	1.8001248074596347e+18
14635.0	1.799767769848217e+18
14636.0	1.7994092440977403e+18
14637.0	1.799056420922982e+18
14638.0	1.798699809452851e+18
14639.0	1.798342454752051e+18
14640.0	1.7979857241636861e+18
14641.0	1.7975202084290555e+18
14642.0	1.7972725716877312e+18
14643.0	1.7969176245174272e+18
14644.0	1.7965611690754043e+18
14645.0	1.7962022457049085e+18
14646.0	1.7958471307624448e+18
14647.0	1.7954904035295227e+18
14648.0	1.7951339078221821e+18
