# Flux units: erg / (cm m2 s)
# Wavelength units: Angstrom
wave	flux
14000.0	1.9038582014476283e+18
14001.0	1.903293331039846e+18
14002.0	1.9029721262063613e+18
14003.0	1.902529897247539e+18
14004.0	1.9020839286472704e+18
14005.0	1.9016385539604477e+18
14006.0	1.9011780797792253e+18
14007.0	1.9007274857005053e+18
14008.0	1.9001025109164027e+18
14009.0	1.899854652715827e+18
14010.0	1.8993812600782845e+18
14011.0	1.8978390547628037e+18
14012.0	1.8985136347414525e+18
14013.0	1.8980726791733245e+18
14014.0	1.8976135505248253e+18
14015.0	1.897177616377446e+18
14016.0	1.8967368873017344e+18
14017.0	1.896290004343193e+18
14018.0	1.8958432388251645e+18
14019.0	1.8953962468147197e+18
14020.0	1.8949478471958525e+18
14021.0	1.8945045814050808e+18
14022.0	1.8940590641119227e+18
14023.0	1.8935736086560763e+18
14024.0	1.8931392683442173e+18
14025.0	1.892728471499571e+18
14026.0	1.8922803470270461e+18
14027.0	1.8918359168974843e+18
14028.0	1.8913826804072443e+18
14029.0	1.8909417701376e+18
14030.0	1.8893435775746053e+18
14031.0	1.8900249019940861e+18
14032.0	1.8896190712053752e+18
14033.0	1.8890835743473661e+18
14034.0	1.8887358195695613e+18
14035.0	1.888286678397747e+18
14036.0	1.8878463167430653e+18
14037.0	1.8873933386219515e+18
14038.0	1.8869600317865981e+18
14039.0	1.8865094880395256e+18
14040.0	1.8860474820984827e+18
14041.0	1.8856260300439547e+18
14042.0	1.885173593826918e+18
14043.0	1.8846719684902912e+18
14044.0	1.8842888557297661e+18
14045.0	1.883860155917926e+18
14046.0	1.8834156368691197e+18
14047.0	1.882965103188377e+18
14048.0	1.8825387068882941e+18
14049.0	1.8821037340753915e+18
14050.0	1.881661070586675e+18
14051.0	1.8811965497409533e+18
14052.0	1.8807727438430203e+18
14053.0	1.88033885316055e+18
14054.0	1.87990113559511e+18
14055.0	1.8794557189652477e+18
14056.0	1.8790164897726461e+18
14057.0	1.8785701503959037e+18
14058.0	1.87813407531991e+18
14059.0	1.8776932673912832e+18
14060.0	1.8772552310587387e+18
14061.0	1.8768026606239741e+18
14062.0	1.8763758566375421e+18
14063.0	1.875905980504473e+18
14064.0	1.8753285120851968e+18
14065.0	1.8750436383129597e+18
14066.0	1.874615386452787e+18
14067.0	1.8741489781702653e+18
14068.0	1.8737434208501752e+18
14069.0	1.8733006281768955e+18
14070.0	1.8728662375333883e+18
14071.0	1.8724220875833341e+18
14072.0	1.8719875979542525e+18
14073.0	1.8715515866316797e+18
14074.0	1.871111951430451e+18
14075.0	1.8706412028821504e+18
14076.0	1.870202542437171e+18
14077.0	1.8695159701045245e+18
14078.0	1.8693372692660224e+18
14079.0	1.8688994728476664e+18
14080.0	1.8684838307430397e+18
14081.0	1.8680453380702203e+18
14082.0	1.8675659324784637e+18
14083.0	1.8671675222523904e+18
14084.0	1.8667366128812027e+18
14085.0	1.865674083270656e+18
14086.0	1.8658380486803456e+18
14087.0	1.865427771929395e+18
14088.0	1.8649676316147707e+18
14089.0	1.8645222502170621e+18
14090.0	1.8641104215736317e+18
14091.0	1.8636841376808955e+18
14092.0	1.8632445108682747e+18
14093.0	1.862812677072486e+18
14094.0	1.8623776388284413e+18
14095.0	1.8619425502527483e+18
14096.0	1.8614478421622784e+18
14097.0	1.8610212395024381e+18
14098.0	1.8606067701252093e+18
14099.0	1.8602021472960507e+18
14100.0	1.8597378344878075e+18
14101.0	1.8593338441596925e+18
14102.0	1.8588948146159616e+18
14103.0	1.8584377696976893e+18
14104.0	1.8580186328989693e+18
14105.0	1.8575814471712765e+18
14106.0	1.8571562756079613e+18
14107.0	1.8566956302991355e+18
14108.0	1.8562595820666875e+18
14109.0	1.8558457233801213e+18
14110.0	1.855373479981875e+18
14111.0	1.8548821004910587e+18
14112.0	1.8545371256979453e+18
14113.0	1.8540999903019005e+18
14114.0	1.8536584475312125e+18
14115.0	1.8532486136987643e+18
14116.0	1.8526519588552704e+18
14117.0	1.850528189802087e+18
14118.0	1.8519552564396027e+18
14119.0	1.851486735905587e+18
14120.0	1.8510645305540603e+18
14121.0	1.8506193890705403e+18
14122.0	1.8501840521920512e+18
14123.0	1.849737353782886e+18
14124.0	1.8492974954446845e+18
14125.0	1.84804022765486e+18
14126.0	1.848489108779827e+18
14127.0	1.8480730556334077e+18
14128.0	1.8476391800504317e+18
14129.0	1.8471881833185277e+18
14130.0	1.8467325057433592e+18
14131.0	1.846340390328729e+18
14132.0	1.845898654620057e+18
14133.0	1.844439996484809e+18
14134.0	1.8450496670924797e+18
14135.0	1.844588333917798e+18
14136.0	1.8440508523151355e+18
14137.0	1.8437572762009597e+18
14138.0	1.8433018033078272e+18
14139.0	1.84289902765015e+18
14140.0	1.8423887318482941e+18
14141.0	1.8420379806597115e+18
14142.0	1.8414113029881853e+18
14143.0	1.8410709603844093e+18
14144.0	1.8407525640568832e+18
14145.0	1.8403211077484541e+18
14146.0	1.8398884921343997e+18
14147.0	1.8394612536180733e+18
14148.0	1.8390266062831613e+18
14149.0	1.8385923767009275e+18
14150.0	1.8381786019004413e+18
14151.0	1.8377224981839864e+18
14152.0	1.8373190329827328e+18
14153.0	1.836894406678937e+18
14154.0	1.836415786260889e+18
14155.0	1.8353781053849603e+18
14156.0	1.8355844785635323e+18
14157.0	1.835180026861977e+18
14158.0	1.8347396366860285e+18
14159.0	1.8343252444839933e+18
14160.0	1.8338981838061565e+18
14161.0	1.8333417103949821e+18
14162.0	1.8328367279374328e+18
14163.0	1.8326100392280061e+18
14164.0	1.8321004765904893e+18
14165.0	1.830927373382452e+18
14166.0	1.8313201498193915e+18
14167.0	1.830877670880051e+18
14168.0	1.8304597772730365e+18
14169.0	1.8300520825356285e+18
14170.0	1.8296135512752125e+18
14171.0	1.8291849940697085e+18
14172.0	1.8287754102177787e+18
14173.0	1.8279695720120323e+18
14174.0	1.8279147105157112e+18
14175.0	1.8274980785553403e+18
14176.0	1.8270651945058304e+18
14177.0	1.82664345723863e+18
14178.0	1.8262132323778555e+18
14179.0	1.8257154993553405e+18
14180.0	1.8253723448901627e+18
14181.0	1.8249457371971584e+18
14182.0	1.8245208676237312e+18
14183.0	1.8240969946169344e+18
14184.0	1.8236622399078397e+18
14185.0	1.8232452640145403e+18
14186.0	1.82243661226967e+18
14187.0	1.8223536204152827e+18
14188.0	1.8219670448373755e+18
14189.0	1.8215385513852923e+18
14190.0	1.8211244494290941e+18
14191.0	1.820699663741747e+18
14192.0	1.8202616911626237e+18
14193.0	1.8197984386744315e+18
14194.0	1.819429648623206e+18
14195.0	1.8190117097177085e+18
14196.0	1.8185869223526397e+18
14197.0	1.818161734012108e+18
14198.0	1.8177318564397053e+18
14199.0	1.817291959513907e+18
14200.0	1.816674876732211e+18
14201.0	1.816465903085158e+18
14202.0	1.8160420736991227e+18
14203.0	1.815532036266393e+18
14204.0	1.8151922271780861e+18
14205.0	1.814773753079398e+18
14206.0	1.8141139118850045e+18
14207.0	1.813935222790553e+18
14208.0	1.813513532499558e+18
14209.0	1.8128131122528246e+18
14210.0	1.812512392400076e+18
14211.0	1.812234919057817e+18
14212.0	1.8118257428922365e+18
14213.0	1.811397346748006e+18
14214.0	1.8109837145538555e+18
14215.0	1.8105366705340408e+18
14216.0	1.8101404178579453e+18
14217.0	1.8097239704469504e+18
14218.0	1.8092800486670339e+18
14219.0	1.808879695639347e+18
14220.0	1.808461137654579e+18
14221.0	1.8080349594583037e+18
14222.0	1.8075496868741117e+18
14223.0	1.807199678916198e+18
14224.0	1.8067831744626685e+18
14225.0	1.805760497451008e+18
14226.0	1.8059439210758144e+18
14227.0	1.805522415334195e+18
14228.0	1.803636943146189e+18
14229.0	1.8045214312628209e+18
14230.0	1.8042653606150144e+18
14231.0	1.803793977887949e+18
14232.0	1.8034292697333755e+18
14233.0	1.8029919112003581e+18
14234.0	1.8025917427220477e+18
14235.0	1.8021678797815803e+18
14236.0	1.8017505398226944e+18
14237.0	1.8013298460983293e+18
14238.0	1.8009140345438203e+18
14239.0	1.8004797697294333e+18
14240.0	1.7973581388447762e+18
14241.0	1.799653174752051e+18
14242.0	1.7992380728737787e+18
14243.0	1.7985217981579267e+18
14244.0	1.7984059833581565e+18
14245.0	1.7979464738668536e+18
14246.0	1.7975028691763197e+18
14247.0	1.797143059968819e+18
14248.0	1.796709134054195e+18
14249.0	1.7963104335822848e+18
14250.0	1.795898554607206e+18
14251.0	1.7954837698183165e+18
14252.0	1.7950679247093755e+18
14253.0	1.7946523681685504e+18
14254.0	1.7942324445184e+18
14255.0	1.7937622714286077e+18
14256.0	1.7928682270097408e+18
14257.0	1.792975644812902e+18
14258.0	1.7925731963109376e+18
14259.0	1.7921148461252605e+18
14260.0	1.7917201671520256e+18
14261.0	1.7912824495865856e+18
14262.0	1.7909143323017216e+18
14263.0	1.78970336123945e+18
14264.0	1.7899648156958715e+18
14265.0	1.7896494694662141e+18
14266.0	1.7892513863958525e+18
14267.0	1.788839007459737e+18
14268.0	1.788419570348851e+18
14269.0	1.7879923502874621e+18
14270.0	1.78759670997975e+18
14271.0	1.7871657351774203e+18
14272.0	1.7867672695865341e+18
14273.0	1.7863521056325632e+18
14274.0	1.784776146236212e+18
14275.0	1.7854225790795776e+18
14276.0	1.7850211036561403e+18
14277.0	1.7846415677980672e+18
14278.0	1.7842838372876285e+18
14279.0	1.7838700322881533e+18
14280.0	1.7834418592808955e+18
14281.0	1.78304408658903e+18
14282.0	1.7826304644612093e+18
14283.0	1.7822185468985341e+18
14284.0	1.7818040221564925e+18
14285.0	1.7813926800523256e+18
14286.0	1.7809747528908797e+18
14287.0	1.7805648871817208e+18
14288.0	1.7801469684088832e+18
14289.0	1.777993329200327e+18
14290.0	1.779303274092953e+18
14291.0	1.7789077579366397e+18
14292.0	1.7784956675686397e+18
14293.0	1.778084182858137e+18
14294.0	1.7774097102536707e+18
14295.0	1.777232413668147e+18
14296.0	1.7754371458596872e+18
14297.0	1.7764420457332733e+18
14298.0	1.7756168801746944e+18
14299.0	1.775582154693017e+18
14300.0	1.7751880209793021e+18
14301.0	1.7747772912435197e+18
14302.0	1.7743761614307325e+18
14303.0	1.7739042233778176e+18
14304.0	1.773530811203584e+18
14305.0	1.7731407711305725e+18
14306.0	1.7725445273288704e+18
14307.0	1.772286857812377e+18
14308.0	1.7719193914834944e+18
14309.0	1.7715005432528893e+18
14310.0	1.770244503555276e+18
14311.0	1.7703150366490624e+18
14312.0	1.7701823607472125e+18
14313.0	1.769724114580275e+18
14314.0	1.7694508791627776e+18
14315.0	1.7690494205165563e+18
14316.0	1.7685449078210555e+18
14317.0	1.7681260293914621e+18
14318.0	1.767826015859507e+18
14319.0	1.767418854637568e+18
14320.0	1.7670078497554432e+18
14321.0	1.766591246316339e+18
14322.0	1.7660997124751357e+18
14323.0	1.7657586148966397e+18
14324.0	1.7653714722488317e+18
14325.0	1.76494813946839e+18
14326.0	1.764560060651929e+18
14327.0	1.7641370684489725e+18
14328.0	1.7637274627866624e+18
14329.0	1.763336374137651e+18
14330.0	1.7629268573945853e+18
14331.0	1.7625105676894203e+18
14332.0	1.7621108874280957e+18
14333.0	1.7617052948758525e+18
14334.0	1.7612970800447488e+18
14335.0	1.7608390670811139e+18
14336.0	1.7603877297717248e+18
14337.0	1.7600699793670144e+18
14338.0	1.7596646032408576e+18
14339.0	1.759237425122508e+18
14340.0	1.7588572718628861e+18
14341.0	1.7584417102888957e+18
14342.0	1.758035985196646e+18
14343.0	1.757594928965222e+18
14344.0	1.7571976243576832e+18
14345.0	1.7568177378557947e+18
14346.0	1.7564084643823613e+18
14347.0	1.7559611435384827e+18
14348.0	1.7555913921527803e+18
14349.0	1.7551887540682747e+18
14350.0	1.7547352491425784e+18
14351.0	1.7543167314231288e+18
14352.0	1.7539560615444477e+18
14353.0	1.7535649930280957e+18
14354.0	1.7531533103464443e+18
14355.0	1.75274204373975e+18
14356.0	1.7523421789290493e+18
14357.0	1.751949563553382e+18
14358.0	1.7515436220350461e+18
14359.0	1.751109021676339e+18
14360.0	1.7507308162514936e+18
14361.0	1.750330461546086e+18
14362.0	1.749924432786227e+18
14363.0	1.7495226704723968e+18
14364.0	1.7489436904259584e+18
14365.0	1.7486962315231224e+18
14366.0	1.7482800894574587e+18
14367.0	1.747903489612185e+18
14368.0	1.7475010696314877e+18
14369.0	1.7471012635410427e+18
14370.0	1.7466979073916925e+18
14371.0	1.7462949136302075e+18
14372.0	1.7458771072647165e+18
14373.0	1.7454875772190715e+18
14374.0	1.7450813555212285e+18
14375.0	1.744677816500224e+18
14376.0	1.744277455083929e+18
14377.0	1.7438766641709056e+18
14378.0	1.7434702747009021e+18
14379.0	1.7430730506239995e+18
14380.0	1.7426677466398717e+18
14381.0	1.7422428401565693e+18
14382.0	1.7418629838536704e+18
14383.0	1.7414042293370875e+18
14384.0	1.7410177007353853e+18
14385.0	1.740661043966771e+18
14386.0	1.7402235763818493e+18
14387.0	1.739854444075417e+18
14388.0	1.7394473902276605e+18
14389.0	1.739054420852736e+18
14390.0	1.7386492728967163e+18
14391.0	1.7382481598611453e+18
14392.0	1.7378233976619005e+18
14393.0	1.7374510508408832e+18
14394.0	1.736975844586291e+18
14395.0	1.7365876500070397e+18
14396.0	1.7362468963614715e+18
14397.0	1.7358486924951547e+18
14398.0	1.7354304029458432e+18
14399.0	1.735043218354995e+18
14400.0	1.734588745383936e+18
14401.0	1.734235962474496e+18
14402.0	1.7338411190845435e+18
14403.0	1.7219174543654712e+18
14404.0	1.7027504313204677e+18
14405.0	1.7302570292739983e+18
14406.0	1.7322453877391357e+18
14407.0	1.7132151627579497e+18
14408.0	1.7313815607640061e+18
14409.0	1.731008146912051e+18
14410.0	1.7306294432038907e+18
14411.0	1.7302431629049853e+18
14412.0	1.7298388672315387e+18
14413.0	1.7294467870490621e+18
14414.0	1.7290465363623933e+18
14415.0	1.7286494985125885e+18
14416.0	1.728240048878387e+18
14417.0	1.7277892182409216e+18
14418.0	1.7273512104296448e+18
14419.0	1.7270560186695677e+18
14420.0	1.7266484162068477e+18
14421.0	1.726261184639795e+18
14422.0	1.7258543270854653e+18
14423.0	1.72544924623831e+18
14424.0	1.6642646839656087e+18
14425.0	1.7246615374921725e+18
14426.0	1.724272663435673e+18
14427.0	1.7238772110327805e+18
14428.0	1.7234196812529661e+18
14429.0	1.7230796054069248e+18
14430.0	1.722687409461657e+18
14431.0	1.7220166848872448e+18
14432.0	1.7218295249764347e+18
14433.0	1.7072947399229343e+18
14434.0	1.721070725051187e+18
14435.0	1.7206464342917115e+18
14436.0	1.7203064691752957e+18
14437.0	1.7199098423672827e+18
14438.0	1.7190802979553277e+18
14439.0	1.7190207673597947e+18
14440.0	1.7187213829734397e+18
14441.0	1.7183131614314493e+18
14442.0	1.71790797153239e+18
14443.0	1.7174374159220733e+18
14444.0	1.7171290372702205e+18
14445.0	1.7167419667644408e+18
14446.0	1.7012446107533384e+18
14447.0	1.7159317010513915e+18
14448.0	1.7155595085807613e+18
14449.0	1.7151646148591613e+18
14450.0	1.7147570828607488e+18
14451.0	1.7143651872276475e+18
14452.0	1.7139702935060475e+18
14453.0	1.7132956363522048e+18
14454.0	1.7131865592823805e+18
14455.0	1.7127774737137661e+18
14456.0	1.7123388535341053e+18
14457.0	1.711907789812531e+18
14458.0	1.711583174171033e+18
14459.0	1.7111752042872832e+18
14460.0	1.7108191548538875e+18
14461.0	1.7103774577328125e+18
14462.0	1.7097235959382016e+18
14463.0	1.7096249442303995e+18
14464.0	1.7092452120788987e+18
14465.0	1.7088160676708347e+18
14466.0	1.7084518158565376e+18
14467.0	1.7078469854756861e+18
14468.0	1.7076515074211835e+18
14469.0	1.7072325887262715e+18
14470.0	1.7068265213788157e+18
14471.0	1.7064524599263227e+18
14472.0	1.706067431207731e+18
14473.0	1.7056949451358205e+18
14474.0	1.7053064351449085e+18
14475.0	1.7048989920657405e+18
14476.0	1.7035445070200837e+18
14477.0	1.70412733408215e+18
14478.0	1.7037291167940603e+18
14479.0	1.7033278695407616e+18
14480.0	1.7029213844406267e+18
14481.0	1.7025643166302205e+18
14482.0	1.7021661463183357e+18
14483.0	1.7017579415535613e+18
14484.0	1.701380001208729e+18
14485.0	1.7009038990508027e+18
14486.0	1.700015600828416e+18
14487.0	1.7002074717814784e+18
14488.0	1.6997463718100987e+18
14489.0	1.699398586833305e+18
14490.0	1.6990154656841723e+18
14491.0	1.698642632323891e+18
14492.0	1.698253551907635e+18
14493.0	1.6978438657146875e+18
14494.0	1.6974319364079616e+18
14495.0	1.6970831112437757e+18
14496.0	1.6964269174161405e+18
14497.0	1.6962978184167421e+18
14498.0	1.6959061744418813e+18
14499.0	1.6955233737375741e+18
14500.0	1.6951326827085821e+18
14501.0	1.6943006535909376e+18
14502.0	1.6935001471844352e+18
14503.0	1.6939043103178747e+18
14504.0	1.6935619779362813e+18
14505.0	1.692784468059749e+18
14506.0	1.6918407244939256e+18
14507.0	1.6919287545462784e+18
14508.0	1.6920173835452416e+18
14509.0	1.6916271119466493e+18
14510.0	1.6912347633287165e+18
14511.0	1.6908516170137597e+18
14512.0	1.6904278295707643e+18
14513.0	1.6900739729195005e+18
14514.0	1.6895475206586365e+18
14515.0	1.689286792655667e+18
14516.0	1.6847175463993382e+18
14517.0	1.688519468226969e+18
14518.0	1.688130976690995e+18
14519.0	1.68774031418327e+18
14520.0	1.6873538443018237e+18
14521.0	1.6869553569005563e+18
14522.0	1.6865714623217661e+18
14523.0	1.6852066827763704e+18
14524.0	1.6847654034079734e+18
14525.0	1.6854027681660923e+18
14526.0	1.6850209338294275e+18
14527.0	1.684581748257587e+18
14528.0	1.68395969438679e+18
14529.0	1.6838442755293181e+18
14530.0	1.683435911380992e+18
14531.0	1.6830866986631165e+18
14532.0	1.6811514887405565e+18
14533.0	1.6823145105195003e+18
14534.0	1.6819308776652797e+18
14535.0	1.6815193476562941e+18
14536.0	1.6811485023961085e+18
14537.0	1.6807399117553661e+18
14538.0	1.680380723304857e+18
14539.0	1.6799951224831997e+18
14540.0	1.6796112178380797e+18
14541.0	1.6791769043697661e+18
14542.0	1.678830166291251e+18
14543.0	1.677810277652889e+18
14544.0	1.6780609695252475e+18
14545.0	1.6776579791192061e+18
14546.0	1.623086785678518e+18
14547.0	1.6278146621898465e+18
14548.0	1.676493850044006e+18
14549.0	1.6758993124851712e+18
14550.0	1.6757330636963835e+18
14551.0	1.675367238179225e+18
14552.0	1.6749719938138112e+18
14553.0	1.674572796736307e+18
14554.0	1.6742099273646083e+18
14555.0	1.6738232947441661e+18
14556.0	1.6734141789765632e+18
14557.0	1.673056346125107e+18
14558.0	1.67267086106624e+18
14559.0	1.6691004144877466e+18
14560.0	1.6718177228554235e+18
14561.0	1.671503361448345e+18
14562.0	1.6710795052187648e+18
14563.0	1.67074496249856e+18
14564.0	1.670330511576268e+18
14565.0	1.6699801563299835e+18
14566.0	1.669595914462822e+18
14567.0	1.6692072987754493e+18
14568.0	1.668733948080947e+18
14569.0	1.6684416906559485e+18
14570.0	1.6671321383501824e+18
14571.0	1.6676677023170557e+18
14572.0	1.667185201328947e+18
14573.0	1.6668077374570493e+18
14574.0	1.6664416334381053e+18
14575.0	1.6661287031275515e+18
14576.0	1.665738988532531e+18
14577.0	1.66534893839319e+18
14578.0	1.6649800376123387e+18
14579.0	1.6646003557924861e+18
14580.0	1.6642182228213752e+18
14581.0	1.6638015271075837e+18
14582.0	1.6634484774404093e+18
14583.0	1.663069649580851e+18
14584.0	1.662659042318745e+18
14585.0	1.6623036119646205e+18
14586.0	1.6619142010372093e+18
14587.0	1.661517835953766e+18
14588.0	1.6611485224534013e+18
14589.0	1.6607875807838205e+18
14590.0	1.6604225857388541e+18
14591.0	1.6600458499981307e+18
14592.0	1.659673605518131e+18
14593.0	1.659091870652825e+18
14594.0	1.658950351480422e+18
14595.0	1.6585724245573624e+18
14596.0	1.6580047590653942e+18
14597.0	1.65768732910551e+18
14598.0	1.6574659721953277e+18
14599.0	1.65711707153367e+18
14600.0	1.6567475046973437e+18
14601.0	1.656382484486553e+18
14602.0	1.6559771150712832e+18
14603.0	1.6556477112123387e+18
14604.0	1.6551944428453885e+18
14605.0	1.654877425605017e+18
14606.0	1.6544076115476483e+18
14607.0	1.654185454364262e+18
14608.0	1.6538151661076477e+18
14609.0	1.65336639906775e+18
14610.0	1.653009450375577e+18
14611.0	1.652717578826547e+18
14612.0	1.6523601117184e+18
14613.0	1.6519991046176765e+18
14614.0	1.6516264608399357e+18
14615.0	1.6512507988410365e+18
14616.0	1.65090270684119e+18
14617.0	1.650534923422924e+18
14618.0	1.6501237004369915e+18
14619.0	1.6497331184599032e+18
14620.0	1.64903532888064e+18
14621.0	1.6490773490958333e+18
14622.0	1.6487058260361213e+18
14623.0	1.6483452719202296e+18
14624.0	1.6478657086226432e+18
14625.0	1.6476094148378621e+18
14626.0	1.6472211246284795e+18
14627.0	1.646827601605427e+18
14628.0	1.6465217680572416e+18
14629.0	1.6461566757044221e+18
14630.0	1.645788068524851e+18
14631.0	1.6454171695775741e+18
14632.0	1.6385571035283497e+18
14633.0	1.64407528422113e+18
14634.0	1.644309148545843e+18
14635.0	1.6434012948004818e+18
14636.0	1.6414324465598456e+18
14637.0	1.6432370022350848e+18
14638.0	1.6428596239269888e+18
14639.0	1.64248360625111e+18
14640.0	1.6421326604468221e+18
14641.0	1.618851234892987e+18
14642.0	1.6414013516677115e+18
14643.0	1.641045401219891e+18
14644.0	1.6406565154193403e+18
14645.0	1.640265747215155e+18
14646.0	1.6398980074176512e+18
14647.0	1.6395370439376893e+18
14648.0	1.639216079018393e+18
