# Flux units: erg / (cm m2 s)
# Wavelength units: Angstrom
wave	flux
14000.0	1.7783373778911227e+18
14001.0	1.777859259111833e+18
14002.0	1.7777013821538296e+18
14003.0	1.7773793955020797e+18
14004.0	1.777056150559129e+18
14005.0	1.7767328351518715e+18
14006.0	1.7763998359355387e+18
14007.0	1.7760757236105213e+18
14008.0	1.7756437002321917e+18
14009.0	1.7754382212792315e+18
14010.0	1.7751008885080061e+18
14011.0	1.7739931057127421e+18
14012.0	1.7744700802859003e+18
14013.0	1.774148912362291e+18
14014.0	1.7738195890339837e+18
14015.0	1.773500988024422e+18
14016.0	1.7731813719932925e+18
14017.0	1.7728590330200061e+18
14018.0	1.772536598416588e+18
14019.0	1.7722144255377405e+18
14020.0	1.771891304746188e+18
14021.0	1.771568361793126e+18
14022.0	1.7712469472444416e+18
14023.0	1.7709136544268288e+18
14024.0	1.770587839214387e+18
14025.0	1.7702819620454395e+18
14026.0	1.7699580141371387e+18
14027.0	1.7696386581528568e+18
14028.0	1.769309692179251e+18
14029.0	1.7689914351026176e+18
14030.0	1.7684141227114493e+18
14031.0	1.7683279767404541e+18
14032.0	1.768029166134886e+18
14033.0	1.7676611948118013e+18
14034.0	1.7673881741426685e+18
14035.0	1.7670675749666813e+18
14036.0	1.766746576492953e+18
14037.0	1.7664256082182144e+18
14038.0	1.7661047070523387e+18
14039.0	1.7657789388161021e+18
14040.0	1.7654560210288635e+18
14041.0	1.765139394697625e+18
14042.0	1.764807860132249e+18
14043.0	1.764450230285107e+18
14044.0	1.764164677035622e+18
14045.0	1.7638551776657405e+18
14046.0	1.763534855313817e+18
14047.0	1.7632108419743741e+18
14048.0	1.7628976935600125e+18
14049.0	1.7625792888438784e+18
14050.0	1.7622592282165248e+18
14051.0	1.7619285023129597e+18
14052.0	1.7616148119945213e+18
14053.0	1.7612992141066235e+18
14054.0	1.7609797054496763e+18
14055.0	1.7606600004993021e+18
14056.0	1.7603403207147517e+18
14057.0	1.7600207986360317e+18
14058.0	1.759701291656806e+18
14059.0	1.7593818769522688e+18
14060.0	1.759062504190771e+18
14061.0	1.7587345112956925e+18
14062.0	1.7584239180513275e+18
14063.0	1.7580859712339965e+18
14064.0	1.757735438149222e+18
14065.0	1.7574558324228093e+18
14066.0	1.7571477977038843e+18
14067.0	1.7568290255667197e+18
14068.0	1.7565102467186685e+18
14069.0	1.7561901844135933e+18
14070.0	1.7558726890225661e+18
14071.0	1.7555505077551104e+18
14072.0	1.7552356816191485e+18
14073.0	1.7549172299268093e+18
14074.0	1.7545989711724541e+18
14075.0	1.7542601569730557e+18
14076.0	1.7539603900661757e+18
14077.0	1.7535862011068408e+18
14078.0	1.753321860969267e+18
14079.0	1.752996047434547e+18
14080.0	1.75269020214231e+18
14081.0	1.752372342685696e+18
14082.0	1.752051921348198e+18
14083.0	1.751734887330611e+18
14084.0	1.7514184556150781e+18
14085.0	1.750796296047821e+18
14086.0	1.7507780206264315e+18
14087.0	1.7504663972610043e+18
14088.0	1.7501358609399805e+18
14089.0	1.7498317973880827e+18
14090.0	1.7495125034795003e+18
14091.0	1.7491974860832763e+18
14092.0	1.7488803883122685e+18
14093.0	1.7485633576501243e+18
14094.0	1.7482463739641853e+18
14095.0	1.7479293869228027e+18
14096.0	1.7475988472463352e+18
14097.0	1.7472791624286205e+18
14098.0	1.7469739798364157e+18
14099.0	1.7466624923664384e+18
14100.0	1.7463304142192637e+18
14101.0	1.7460296171913216e+18
14102.0	1.745712927106662e+18
14103.0	1.7453770539532288e+18
14104.0	1.7450771763167232e+18
14105.0	1.7447641705086976e+18
14106.0	1.7444481464795133e+18
14107.0	1.7441313993523197e+18
14108.0	1.7438025776627712e+18
14109.0	1.7434942879301627e+18
14110.0	1.7431810220752893e+18
14111.0	1.7428552773271547e+18
14112.0	1.7425434190807035e+18
14113.0	1.7422370469838848e+18
14114.0	1.7419059503038461e+18
14115.0	1.7416040191361016e+18
14116.0	1.741274586755891e+18
14117.0	1.7405216940883965e+18
14118.0	1.7406589250043904e+18
14119.0	1.740331903510118e+18
14120.0	1.7400235852562427e+18
14121.0	1.739701268093337e+18
14122.0	1.7393896011071485e+18
14123.0	1.7390788400906237e+18
14124.0	1.7387620711530493e+18
14125.0	1.7378812236922872e+18
14126.0	1.7381386784604157e+18
14127.0	1.7378252398002176e+18
14128.0	1.7375090966527997e+18
14129.0	1.7371819744952312e+18
14130.0	1.7368568303714296e+18
14131.0	1.736567272400486e+18
14132.0	1.7362449434935293e+18
14133.0	1.7352673669939185e+18
14134.0	1.7356226497085435e+18
14135.0	1.7352948145192957e+18
14136.0	1.734989799699251e+18
14137.0	1.734681575397785e+18
14138.0	1.7343637511733243e+18
14139.0	1.7340541310074877e+18
14140.0	1.7337358219214848e+18
14141.0	1.7334239703859197e+18
14142.0	1.7330797052690427e+18
14143.0	1.7327961652854784e+18
14144.0	1.7324865702854653e+18
14145.0	1.7321711888236541e+18
14146.0	1.7318578290163707e+18
14147.0	1.731545653680537e+18
14148.0	1.7312329129525243e+18
14149.0	1.7309204373045243e+18
14150.0	1.7306072972787707e+18
14151.0	1.7302911474204667e+18
14152.0	1.7299813846482936e+18
14153.0	1.7296683100536827e+18
14154.0	1.7293254189907965e+18
14155.0	1.7290224979673085e+18
14156.0	1.7287273968041981e+18
14157.0	1.7284175451127803e+18
14158.0	1.728099949058457e+18
14159.0	1.7277922800828413e+18
14160.0	1.7274723385737213e+18
14161.0	1.727093410050867e+18
14162.0	1.7267244522274813e+18
14163.0	1.7265405772955643e+18
14164.0	1.7262050312978427e+18
14165.0	1.7258586774175741e+18
14166.0	1.725605218982297e+18
14167.0	1.725277982739661e+18
14168.0	1.724981609863577e+18
14169.0	1.7246715199356925e+18
14170.0	1.724356046199193e+18
14171.0	1.7240442701611003e+18
14172.0	1.7237364015366141e+18
14173.0	1.7233812144521213e+18
14174.0	1.723108014266777e+18
14175.0	1.7228021018656765e+18
14176.0	1.7224908291440637e+18
14177.0	1.722179615142707e+18
14178.0	1.7218675824132093e+18
14179.0	1.721548665991987e+18
14180.0	1.7212462751285243e+18
14181.0	1.720935287619584e+18
14182.0	1.7206233320652795e+18
14183.0	1.720313487084748e+18
14184.0	1.7199963708588032e+18
14185.0	1.719691674805862e+18
14186.0	1.7192764571647997e+18
14187.0	1.7190400913571837e+18
14188.0	1.7187552091963384e+18
14189.0	1.718448538465075e+18
14190.0	1.71813836465111e+18
14191.0	1.7178280415199227e+18
14192.0	1.717508375157145e+18
14193.0	1.7171952753967104e+18
14194.0	1.716896671150899e+18
14195.0	1.7165884334276603e+18
14196.0	1.7162780733865981e+18
14197.0	1.715968151230873e+18
14198.0	1.7156518067568635e+18
14199.0	1.7153461611134976e+18
14200.0	1.7149879574855677e+18
14201.0	1.714727123786137e+18
14202.0	1.7144177687003133e+18
14203.0	1.714100152513331e+18
14204.0	1.713797023452365e+18
14205.0	1.7134876079685627e+18
14206.0	1.7130257295343616e+18
14207.0	1.7128718656864253e+18
14208.0	1.7125633679163387e+18
14209.0	1.7120870979862523e+18
14210.0	1.7118297807912952e+18
14211.0	1.711630135276339e+18
14212.0	1.7113263988801533e+18
14213.0	1.711018664473395e+18
14214.0	1.710708827881472e+18
14215.0	1.7103845628837885e+18
14216.0	1.710092939637555e+18
14217.0	1.709784361336832e+18
14218.0	1.7094616180326397e+18
14219.0	1.7091672215126016e+18
14220.0	1.7088590441873403e+18
14221.0	1.7085111937794043e+18
14222.0	1.7081827059564541e+18
14223.0	1.7078855244185597e+18
14224.0	1.7075773806477312e+18
14225.0	1.707110151959347e+18
14226.0	1.7069600160088061e+18
14227.0	1.7066527748521981e+18
14228.0	1.7059180317769725e+18
14229.0	1.705961117345382e+18
14230.0	1.7057289626189821e+18
14231.0	1.7054184901705725e+18
14232.0	1.7051133847535608e+18
14233.0	1.7048014157774848e+18
14234.0	1.7044980635795453e+18
14235.0	1.704187230420992e+18
14236.0	1.7038828028035067e+18
14237.0	1.703573607101235e+18
14238.0	1.7032670806540285e+18
14239.0	1.7029152708231163e+18
14240.0	1.7005115688878077e+18
14241.0	1.7022927287353336e+18
14242.0	1.701988381648486e+18
14243.0	1.701489180619571e+18
14244.0	1.7013752901664765e+18
14245.0	1.7010527062458365e+18
14246.0	1.7007422589632507e+18
14247.0	1.7004487818346493e+18
14248.0	1.7001255889010688e+18
14249.0	1.69983812304896e+18
14250.0	1.699531064764006e+18
14251.0	1.6991459823583232e+18
14252.0	1.6987117913636861e+18
14253.0	1.6984042347954176e+18
14254.0	1.698095502144307e+18
14255.0	1.6977485258293248e+18
14256.0	1.6973214064312323e+18
14257.0	1.6971649219821565e+18
14258.0	1.6968730017791997e+18
14259.0	1.696501042511872e+18
14260.0	1.6962019232055293e+18
14261.0	1.695882778614169e+18
14262.0	1.6956241192419325e+18
14263.0	1.6950740748599293e+18
14264.0	1.6949562149175296e+18
14265.0	1.6947007985811453e+18
14266.0	1.694399219734937e+18
14267.0	1.694094840771379e+18
14268.0	1.6937890424553467e+18
14269.0	1.693472104067891e+18
14270.0	1.693177470989107e+18
14271.0	1.692870976418611e+18
14272.0	1.692565929721856e+18
14273.0	1.6922581667938304e+18
14274.0	1.691583304957952e+18
14275.0	1.6916139099553784e+18
14276.0	1.6913271353245693e+18
14277.0	1.691023318397747e+18
14278.0	1.6907334198493181e+18
14279.0	1.6904270712406013e+18
14280.0	1.6901141358968824e+18
14281.0	1.6898177428881403e+18
14282.0	1.689467297044889e+18
14283.0	1.6891621329076216e+18
14284.0	1.6888570040025088e+18
14285.0	1.6885518063108093e+18
14286.0	1.6882462009327613e+18
14287.0	1.6879416726519805e+18
14288.0	1.6876350153424893e+18
14289.0	1.68598770580193e+18
14290.0	1.6870245209735163e+18
14291.0	1.686721195619123e+18
14292.0	1.6864179457622013e+18
14293.0	1.686110268397977e+18
14294.0	1.6856355335831552e+18
14295.0	1.6854868840939515e+18
14296.0	1.6841152929988616e+18
14297.0	1.6848909288603643e+18
14298.0	1.684387365755289e+18
14299.0	1.68427124728791e+18
14300.0	1.6839721632137213e+18
14301.0	1.6836736378208253e+18
14302.0	1.6833713878859776e+18
14303.0	1.6830276126638077e+18
14304.0	1.6827439854387195e+18
14305.0	1.6824607138906112e+18
14306.0	1.6821450270834685e+18
14307.0	1.681812398643609e+18
14308.0	1.6815052598280187e+18
14309.0	1.681198922963353e+18
14310.0	1.680832689759846e+18
14311.0	1.680539274706944e+18
14312.0	1.680249488565862e+18
14313.0	1.6798223859449853e+18
14314.0	1.6796817962303485e+18
14315.0	1.679379912038809e+18
14316.0	1.6790120078245885e+18
14317.0	1.6787670134947835e+18
14318.0	1.6784710952812544e+18
14319.0	1.678168598721331e+18
14320.0	1.6778647851499515e+18
14321.0	1.677558810673152e+18
14322.0	1.677208785938022e+18
14323.0	1.6769330708479995e+18
14324.0	1.6766536094056443e+18
14325.0	1.676339377183129e+18
14326.0	1.6760480626376704e+18
14327.0	1.6757373032988672e+18
14328.0	1.6754340937072637e+18
14329.0	1.675140000854835e+18
14330.0	1.6748374355083261e+18
14331.0	1.6745345178402813e+18
14332.0	1.674232353469235e+18
14333.0	1.6739299961602043e+18
14334.0	1.6736271925772288e+18
14335.0	1.6732644356128765e+18
14336.0	1.6729600063176704e+18
14337.0	1.6726727233372157e+18
14338.0	1.6723701311471613e+18
14339.0	1.6720579272900605e+18
14340.0	1.6717692836773885e+18
14341.0	1.671466122739712e+18
14342.0	1.671162131329843e+18
14343.0	1.670859185140531e+18
14344.0	1.6705553212375035e+18
14345.0	1.6702590305697787e+18
14346.0	1.6699536869163e+18
14347.0	1.6696396258213888e+18
14348.0	1.6693528881004541e+18
14349.0	1.6690516246659072e+18
14350.0	1.6687372229935104e+18
14351.0	1.668427663225651e+18
14352.0	1.6681342750162941e+18
14353.0	1.6678422222733312e+18
14354.0	1.6675406451048448e+18
14355.0	1.6672372559970304e+18
14356.0	1.6669371485126653e+18
14357.0	1.6666394535919616e+18
14358.0	1.6663380576174077e+18
14359.0	1.6660188677275643e+18
14360.0	1.6657340493201405e+18
14361.0	1.6654340810866685e+18
14362.0	1.6651334417645565e+18
14363.0	1.6648319820365824e+18
14364.0	1.664490805605171e+18
14365.0	1.664222529532723e+18
14366.0	1.6639220244283387e+18
14367.0	1.6635884463980544e+18
14368.0	1.663250690840985e+18
14369.0	1.6628889153437693e+18
14370.0	1.662588042818355e+18
14371.0	1.6622872407572477e+18
14372.0	1.661979766397337e+18
14373.0	1.6616852927021053e+18
14374.0	1.6613842222055421e+18
14375.0	1.6610810344243197e+18
14376.0	1.6607836985360381e+18
14377.0	1.6604823109500925e+18
14378.0	1.6601791315574781e+18
14379.0	1.6598821379244024e+18
14380.0	1.65958055404503e+18
14381.0	1.659266727831142e+18
14382.0	1.6589790556192765e+18
14383.0	1.658675941657804e+18
14384.0	1.6583581157556221e+18
14385.0	1.658080399143731e+18
14386.0	1.6577585517428733e+18
14387.0	1.6574797764886525e+18
14388.0	1.6571774493786112e+18
14389.0	1.6568796470837248e+18
14390.0	1.6565772528648192e+18
14391.0	1.6562802122555387e+18
14392.0	1.655978765949337e+18
14393.0	1.6556807992377344e+18
14394.0	1.6553339655290875e+18
14395.0	1.655068170806886e+18
14396.0	1.6547816478343165e+18
14397.0	1.6544820520550397e+18
14398.0	1.6541819160494075e+18
14399.0	1.6538827246010363e+18
14400.0	1.6535579143438333e+18
14401.0	1.6532751008137216e+18
14402.0	1.652980524777472e+18
14403.0	1.6516294153076716e+18
14404.0	1.6471187852885988e+18
14405.0	1.6498422290841546e+18
14406.0	1.651738171932672e+18
14407.0	1.6499436255444995e+18
14408.0	1.651132298008985e+18
14409.0	1.65081882076119e+18
14410.0	1.6505429899083776e+18
14411.0	1.6502464727482363e+18
14412.0	1.6499438386151421e+18
14413.0	1.6496499823214592e+18
14414.0	1.649347677021798e+18
14415.0	1.649050183427686e+18
14416.0	1.648752374421913e+18
14417.0	1.6484501110652925e+18
14418.0	1.6481441684652032e+18
14419.0	1.6478534696435704e+18
14420.0	1.647549609095987e+18
14421.0	1.6472566285729787e+18
14422.0	1.6469521321689085e+18
14423.0	1.6466393545310203e+18
14424.0	1.6403094568959962e+18
14425.0	1.6460437834956795e+18
14426.0	1.6457629429661693e+18
14427.0	1.6454645769568253e+18
14428.0	1.6451400435236861e+18
14429.0	1.6448640398655485e+18
14430.0	1.6445713831428093e+18
14431.0	1.644201640145715e+18
14432.0	1.643968196929126e+18
14433.0	1.6425322954096627e+18
14434.0	1.643355987928678e+18
14435.0	1.6430584171593725e+18
14436.0	1.642782160165273e+18
14437.0	1.642484156543795e+18
14438.0	1.642153662165811e+18
14439.0	1.6418791399358461e+18
14440.0	1.6415889242980344e+18
14441.0	1.6412790122086397e+18
14442.0	1.6409723884535805e+18
14443.0	1.6406203806515197e+18
14444.0	1.640379786985472e+18
14445.0	1.640056635994931e+18
14446.0	1.6376677802180618e+18
14447.0	1.639444391762329e+18
14448.0	1.6391649588412413e+18
14449.0	1.638867785691955e+18
14450.0	1.63856302253015e+18
14451.0	1.6382672855105533e+18
14452.0	1.6379730030755837e+18
14453.0	1.6376585846259707e+18
14454.0	1.6373788446818304e+18
14455.0	1.6370699325145085e+18
14456.0	1.6367799299473405e+18
14457.0	1.6364805505941504e+18
14458.0	1.6361873066688507e+18
14459.0	1.6358874374209533e+18
14460.0	1.6355902139400192e+18
14461.0	1.6352679554973693e+18
14462.0	1.634952486794035e+18
14463.0	1.6346930237931515e+18
14464.0	1.6344029809606653e+18
14465.0	1.6340727432740861e+18
14466.0	1.6338059855396861e+18
14467.0	1.6334756287348733e+18
14468.0	1.6332091276918781e+18
14469.0	1.6328881342513147e+18
14470.0	1.6323179538546685e+18
14471.0	1.6320212286570493e+18
14472.0	1.631731007986073e+18
14473.0	1.6314396095545341e+18
14474.0	1.6311452298117123e+18
14475.0	1.6308455350468603e+18
14476.0	1.6304797296623616e+18
14477.0	1.6302552270241787e+18
14478.0	1.629954965189427e+18
14479.0	1.629658100740915e+18
14480.0	1.629341548229427e+18
14481.0	1.629068661778022e+18
14482.0	1.6287670091120637e+18
14483.0	1.6284609457160187e+18
14484.0	1.6281645946503163e+18
14485.0	1.6278296861868024e+18
14486.0	1.6271799515873283e+18
14487.0	1.6272876428591101e+18
14488.0	1.626988869163417e+18
14489.0	1.626689179431731e+18
14490.0	1.6263949943046141e+18
14491.0	1.6261005826850808e+18
14492.0	1.6258063824584701e+18
14493.0	1.6255012820746237e+18
14494.0	1.6251539702153216e+18
14495.0	1.6248751194636285e+18
14496.0	1.624397299318784e+18
14497.0	1.6242811674296315e+18
14498.0	1.623986460531097e+18
14499.0	1.6236902386499584e+18
14500.0	1.6233932550832125e+18
14501.0	1.623057834914611e+18
14502.0	1.6224844819464195e+18
14503.0	1.622480987252326e+18
14504.0	1.6221996836716541e+18
14505.0	1.6218802874220541e+18
14506.0	1.6215499658493947e+18
14507.0	1.6209847347314685e+18
14508.0	1.621021973440102e+18
14509.0	1.620726328695193e+18
14510.0	1.6204254041604093e+18
14511.0	1.6201334000713725e+18
14512.0	1.6198164700725243e+18
14513.0	1.6195406996176893e+18
14514.0	1.6191999476498424e+18
14515.0	1.618944831625625e+18
14516.0	1.615191174492982e+18
14517.0	1.618347002377011e+18
14518.0	1.6180593888854013e+18
14519.0	1.6177640629075965e+18
14520.0	1.6174667488296957e+18
14521.0	1.617171402719232e+18
14522.0	1.6168758049505275e+18
14523.0	1.6165069058473981e+18
14524.0	1.616209767930265e+18
14525.0	1.6159802791034877e+18
14526.0	1.6156886055256061e+18
14527.0	1.6153664796229624e+18
14528.0	1.6149116409085955e+18
14529.0	1.6147886689484797e+18
14530.0	1.6144830434377725e+18
14531.0	1.6142083584688125e+18
14532.0	1.6138158907326461e+18
14533.0	1.6136184010899453e+18
14534.0	1.6133243854127101e+18
14535.0	1.613014219987353e+18
14536.0	1.6127272826175485e+18
14537.0	1.6124170903486456e+18
14538.0	1.6121402914504701e+18
14539.0	1.6118445091323901e+18
14540.0	1.6115484399239165e+18
14541.0	1.6112230709854205e+18
14542.0	1.6109534762237947e+18
14543.0	1.610600505409536e+18
14544.0	1.6103622051889147e+18
14545.0	1.6100561703141376e+18
14546.0	1.6016448862289871e+18
14547.0	1.6020055007428544e+18
14548.0	1.6091559653015547e+18
14549.0	1.608717893736857e+18
14550.0	1.6085548611403776e+18
14551.0	1.6082527219351547e+18
14552.0	1.6079551075450877e+18
14553.0	1.607648406614835e+18
14554.0	1.6073649169629181e+18
14555.0	1.6070685122101243e+18
14556.0	1.606770782057267e+18
14557.0	1.6064760617369597e+18
14558.0	1.6061766303743997e+18
14559.0	1.6033315702177746e+18
14560.0	1.605582535734067e+18
14561.0	1.6052818209144832e+18
14562.0	1.6049646107361272e+18
14563.0	1.6046994384486397e+18
14564.0	1.6043982354120701e+18
14565.0	1.6041082697547776e+18
14566.0	1.6038122273898493e+18
14567.0	1.603515698485657e+18
14568.0	1.6032105427369981e+18
14569.0	1.6029223168770043e+18
14570.0	1.6019188145455096e+18
14571.0	1.602326245880627e+18
14572.0	1.6019838665228285e+18
14573.0	1.6016746238443523e+18
14574.0	1.6014296479694848e+18
14575.0	1.601144894993203e+18
14576.0	1.600847777208729e+18
14577.0	1.6005449484599296e+18
14578.0	1.6002545482727421e+18
14579.0	1.5999613060251643e+18
14580.0	1.5996650774331387e+18
14581.0	1.5993644314001403e+18
14582.0	1.5990718266867707e+18
14583.0	1.5987756131942397e+18
14584.0	1.5984649494855675e+18
14585.0	1.598182424523571e+18
14586.0	1.597881276851814e+18
14587.0	1.597587630273331e+18
14588.0	1.597292510655283e+18
14589.0	1.597000758224486e+18
14590.0	1.5967088447324157e+18
14591.0	1.596415904474726e+18
14592.0	1.596114219932057e+18
14593.0	1.595671940641587e+18
14594.0	1.595539543241523e+18
14595.0	1.5952367279144957e+18
14596.0	1.5949131054841853e+18
14597.0	1.5946167846174712e+18
14598.0	1.594365336092672e+18
14599.0	1.594079009413529e+18
14600.0	1.5937860708335613e+18
14601.0	1.5934941254647803e+18
14602.0	1.593198932026982e+18
14603.0	1.592908858995507e+18
14604.0	1.5925591899373565e+18
14605.0	1.5923152357949437e+18
14606.0	1.591930311095091e+18
14607.0	1.5917256139603963e+18
14608.0	1.591441555560857e+18
14609.0	1.5911474543198205e+18
14610.0	1.5908474290438141e+18
14611.0	1.5905611409522685e+18
14612.0	1.5902742052601856e+18
14613.0	1.5899819948113915e+18
14614.0	1.589683638868377e+18
14615.0	1.589372288971571e+18
14616.0	1.589064749180518e+18
14617.0	1.588770850943795e+18
14618.0	1.5884746844274685e+18
14619.0	1.5881569474445312e+18
14620.0	1.5877909474443264e+18
14621.0	1.587596672316211e+18
14622.0	1.5872989253861376e+18
14623.0	1.5870089630842877e+18
14624.0	1.58663545192448e+18
14625.0	1.586416552876441e+18
14626.0	1.5861226361847803e+18
14627.0	1.585741274965606e+18
14628.0	1.5851695577759741e+18
14629.0	1.5848755018334205e+18
14630.0	1.5845803167842301e+18
14631.0	1.584286259163955e+18
14632.0	1.583484259585229e+18
14633.0	1.5836353937801213e+18
14634.0	1.5834006167748605e+18
14635.0	1.5830816550551547e+18
14636.0	1.582741337617203e+18
14637.0	1.582519515978137e+18
14638.0	1.5822223260516347e+18
14639.0	1.5819022369030141e+18
14640.0	1.5814495507054592e+18
14641.0	1.5792199979499505e+18
14642.0	1.5808568032755707e+18
14643.0	1.5805705453830141e+18
14644.0	1.5802611483541501e+18
14645.0	1.579947713049395e+18
14646.0	1.5796749792706557e+18
14647.0	1.5793756888367104e+18
14648.0	1.579090677491302e+18
