# Flux units: erg / (cm m2 s)
# Wavelength units: Angstrom
wave	flux
14000.0	1.637024744760934e+18
14001.0	1.636554291491635e+18
14002.0	1.6364561078681595e+18
14003.0	1.6361647530573821e+18
14004.0	1.6358697424912384e+18
14005.0	1.6355746513944568e+18
14006.0	1.63526944531415e+18
14007.0	1.6349744951459837e+18
14008.0	1.6345704578416637e+18
14009.0	1.6343934112366587e+18
14010.0	1.634084792670617e+18
14011.0	1.6329738171711488e+18
14012.0	1.633510206577049e+18
14013.0	1.6332160935919613e+18
14014.0	1.6329149744414715e+18
14015.0	1.632624268908953e+18
14016.0	1.6323327362596861e+18
14017.0	1.632038468924211e+18
14018.0	1.631744070726451e+18
14019.0	1.6314500013621248e+18
14020.0	1.631154992473702e+18
14021.0	1.630860079215411e+18
14022.0	1.6305635805102075e+18
14023.0	1.6302555457912832e+18
14024.0	1.629959602411929e+18
14025.0	1.6296852211105787e+18
14026.0	1.629389933720371e+18
14027.0	1.629098672862003e+18
14028.0	1.628797963075584e+18
14029.0	1.6285074806800381e+18
14030.0	1.62717571701801e+18
14031.0	1.6278858646945787e+18
14032.0	1.6276282203439104e+18
14033.0	1.6272822775054333e+18
14034.0	1.6270430830591997e+18
14035.0	1.6267513776046077e+18
14036.0	1.6264583752712187e+18
14037.0	1.626165369582387e+18
14038.0	1.625872404158873e+18
14039.0	1.6255748031905792e+18
14040.0	1.6252780326944765e+18
14041.0	1.624989924274995e+18
14042.0	1.6246861107036157e+18
14043.0	1.6243556163256315e+18
14044.0	1.6240989467312125e+18
14045.0	1.6238179166191608e+18
14046.0	1.6235264292683776e+18
14047.0	1.6232270297825277e+18
14048.0	1.6229426811371515e+18
14049.0	1.6226538663968765e+18
14050.0	1.622361679436185e+18
14051.0	1.6220588070666237e+18
14052.0	1.6217734702432253e+18
14053.0	1.621485079966515e+18
14054.0	1.6211934885969915e+18
14055.0	1.620901610337075e+18
14056.0	1.6206097320771581e+18
14057.0	1.6203180199116797e+18
14058.0	1.620026312779366e+18
14059.0	1.6197346861776893e+18
14060.0	1.619443041121075e+18
14061.0	1.6191424974290941e+18
14062.0	1.6188600479645693e+18
14063.0	1.6185499664252928e+18
14064.0	1.618062596689101e+18
14065.0	1.6179748384276477e+18
14066.0	1.6176949005123581e+18
14067.0	1.6173958852247547e+18
14068.0	1.6171127327948795e+18
14069.0	1.6168187976482816e+18
14070.0	1.616530197656371e+18
14071.0	1.6162360444059648e+18
14072.0	1.615949014761472e+18
14073.0	1.6156582723190781e+18
14074.0	1.6153676590612483e+18
14075.0	1.6150565356568576e+18
14076.0	1.6147765725757435e+18
14077.0	1.614262491833958e+18
14078.0	1.6141890042724347e+18
14079.0	1.613903266473574e+18
14080.0	1.6136248838062077e+18
14081.0	1.613334644680294e+18
14082.0	1.6130409326706685e+18
14083.0	1.6127525105172477e+18
14084.0	1.6124639893782528e+18
14085.0	1.611788194729165e+18
14086.0	1.611865838007091e+18
14087.0	1.6115944279506941e+18
14088.0	1.6112892671688701e+18
14089.0	1.6110077572284408e+18
14090.0	1.6107198652350461e+18
14091.0	1.610435670940057e+18
14092.0	1.610146154912153e+18
14093.0	1.6098566590169085e+18
14094.0	1.6095672218419197e+18
14095.0	1.6092777511124987e+18
14096.0	1.6089407874400253e+18
14097.0	1.6086827739906048e+18
14098.0	1.608389615629107e+18
14099.0	1.608120936903475e+18
14100.0	1.607815846585958e+18
14101.0	1.6075430524092413e+18
14102.0	1.607253860181606e+18
14103.0	1.606944266859315e+18
14104.0	1.6066731957026813e+18
14105.0	1.6063873773731837e+18
14106.0	1.6060988981772285e+18
14107.0	1.6058093083295741e+18
14108.0	1.6055088250355707e+18
14109.0	1.605227231209062e+18
14110.0	1.6049398693756925e+18
14111.0	1.6046414563901435e+18
14112.0	1.6043592787165181e+18
14113.0	1.604079736743526e+18
14114.0	1.603776584194457e+18
14115.0	1.6035013673877501e+18
14116.0	1.6031811809312763e+18
14117.0	1.601116195887513e+18
14118.0	1.6026383121645563e+18
14119.0	1.6023200181780477e+18
14120.0	1.6020408889245693e+18
14121.0	1.6017613452738557e+18
14122.0	1.6014458816036861e+18
14123.0	1.6011809425195003e+18
14124.0	1.6008872674197501e+18
14125.0	1.600052657966284e+18
14126.0	1.6003341377077248e+18
14127.0	1.6000510238654461e+18
14128.0	1.599762074907443e+18
14129.0	1.599462475772723e+18
14130.0	1.5991657405087741e+18
14131.0	1.598902321440358e+18
14132.0	1.5986087570702333e+18
14133.0	1.5976575258329073e+18
14134.0	1.5980406671147e+18
14135.0	1.5977355533090813e+18
14136.0	1.5974314377478141e+18
14137.0	1.5971776655785981e+18
14138.0	1.5968738436186107e+18
14139.0	1.5966068493254653e+18
14140.0	1.5963138419589115e+18
14141.0	1.596027067328102e+18
14142.0	1.5956135978729472e+18
14143.0	1.5954562175205376e+18
14144.0	1.5951751521763325e+18
14145.0	1.5948868659183613e+18
14146.0	1.5945980528558077e+18
14147.0	1.5943144910618621e+18
14148.0	1.5940262232588285e+18
14149.0	1.5937411565486075e+18
14150.0	1.5934588933111805e+18
14151.0	1.5931643474739197e+18
14152.0	1.592887233164083e+18
14153.0	1.5926012856500221e+18
14154.0	1.5922866558074875e+18
14155.0	1.5918689417166848e+18
14156.0	1.5917204482555901e+18
14157.0	1.591458978699673e+18
14158.0	1.591168524825395e+18
14159.0	1.5908877514047485e+18
14160.0	1.5905940779827197e+18
14161.0	1.5902450900795392e+18
14162.0	1.5899021151305728e+18
14163.0	1.5897447062568957e+18
14164.0	1.5893983389548541e+18
14165.0	1.5890976979550205e+18
14166.0	1.5888903231766523e+18
14167.0	1.5885906368004096e+18
14168.0	1.5883175624441853e+18
14169.0	1.5880374886334464e+18
14170.0	1.5877470767022075e+18
14171.0	1.5874641708974072e+18
14172.0	1.5871834612301821e+18
14173.0	1.5868478414127101e+18
14174.0	1.5866083231662077e+18
14175.0	1.5863300512284667e+18
14176.0	1.5860457042608128e+18
14177.0	1.5857614260797437e+18
14178.0	1.5854761093890043e+18
14179.0	1.5851826557485053e+18
14180.0	1.5849089220476925e+18
14181.0	1.584624858614988e+18
14182.0	1.584339800293376e+18
14183.0	1.584056896166297e+18
14184.0	1.5837667090497533e+18
14185.0	1.583488846476083e+18
14186.0	1.5828760586616835e+18
14187.0	1.5828914618236923e+18
14188.0	1.582633191682867e+18
14189.0	1.5823510442082301e+18
14190.0	1.5820681736355837e+18
14191.0	1.5817836538626048e+18
14192.0	1.581493745247846e+18
14193.0	1.581168346110361e+18
14194.0	1.580933626147635e+18
14195.0	1.5806542905343997e+18
14196.0	1.580370770683494e+18
14197.0	1.5800876736184315e+18
14198.0	1.5797981794009085e+18
14199.0	1.5795188555317248e+18
14200.0	1.5790364770172928e+18
14201.0	1.5789451804409853e+18
14202.0	1.5786706665996285e+18
14203.0	1.578378394075136e+18
14204.0	1.5781042174558203e+18
14205.0	1.5778177515257853e+18
14206.0	1.577004808169062e+18
14207.0	1.5768612757307395e+18
14208.0	1.5765793044168704e+18
14209.0	1.576133265352294e+18
14210.0	1.5758983188971512e+18
14211.0	1.5757266594562048e+18
14212.0	1.5754493337534456e+18
14213.0	1.5751666561187837e+18
14214.0	1.5748851864436733e+18
14215.0	1.5745867482923003e+18
14216.0	1.574322839329177e+18
14217.0	1.5740409217024e+18
14218.0	1.5737456443785213e+18
14219.0	1.573477319652147e+18
14220.0	1.5731793244192768e+18
14221.0	1.5728915481886715e+18
14222.0	1.5725907209617405e+18
14223.0	1.5723306606919677e+18
14224.0	1.572049536627507e+18
14225.0	1.5711203523297285e+18
14226.0	1.5714842518224893e+18
14227.0	1.5712053054406653e+18
14228.0	1.5691586260172803e+18
14229.0	1.570278518607051e+18
14230.0	1.5703618611052541e+18
14231.0	1.5700672850690048e+18
14232.0	1.5697997639712763e+18
14233.0	1.5695137812250621e+18
14234.0	1.5692380963340285e+18
14235.0	1.5689539607592957e+18
14236.0	1.5686763582324739e+18
14237.0	1.568393955744153e+18
14238.0	1.5681009953538043e+18
14239.0	1.5678054865043453e+18
14240.0	1.5653584674750464e+18
14241.0	1.5672475115323392e+18
14242.0	1.5669705717055488e+18
14243.0	1.5665000983035901e+18
14244.0	1.5664120028200957e+18
14245.0	1.5661130126983165e+18
14246.0	1.5658279141113853e+18
14247.0	1.5655658992959485e+18
14248.0	1.5652679023853563e+18
14249.0	1.565008464550297e+18
14250.0	1.5647281491476475e+18
14251.0	1.5644512395198464e+18
14252.0	1.5641711808086013e+18
14253.0	1.5638902983360507e+18
14254.0	1.5636083437993981e+18
14255.0	1.5632867195355133e+18
14256.0	1.5624174718418947e+18
14257.0	1.5627383545528315e+18
14258.0	1.5624770880012288e+18
14259.0	1.562171346727731e+18
14260.0	1.5618878738530301e+18
14261.0	1.561612435587072e+18
14262.0	1.5613752057528315e+18
14263.0	1.5601700614176776e+18
14264.0	1.5606342064537595e+18
14265.0	1.5605321640706043e+18
14266.0	1.5602572794527741e+18
14267.0	1.5599800846123005e+18
14268.0	1.559701044278067e+18
14269.0	1.5594111826395133e+18
14270.0	1.5591429719982075e+18
14271.0	1.558862883087974e+18
14272.0	1.5585848544198656e+18
14273.0	1.5583036011708413e+18
14274.0	1.556620977268327e+18
14275.0	1.557620300395315e+18
14276.0	1.557452055117824e+18
14277.0	1.5571731557122048e+18
14278.0	1.5569126340689915e+18
14279.0	1.5566328437932032e+18
14280.0	1.5563470388854781e+18
14281.0	1.5560599974969344e+18
14282.0	1.5557806920826875e+18
14283.0	1.5555023580692477e+18
14284.0	1.555224050899353e+18
14285.0	1.554945559180083e+18
14286.0	1.554664918299443e+18
14287.0	1.5543894179577853e+18
14288.0	1.5541108910063616e+18
14289.0	1.5524373469331436e+18
14290.0	1.5535534982037501e+18
14291.0	1.553276271486566e+18
14292.0	1.5529971053232125e+18
14293.0	1.5527189290156024e+18
14294.0	1.5522716081717243e+18
14295.0	1.552151053808435e+18
14296.0	1.5507634455052293e+18
14297.0	1.5516090423574528e+18
14298.0	1.5510050172829693e+18
14299.0	1.5510391824056315e+18
14300.0	1.550768728650547e+18
14301.0	1.5504968354103293e+18
14302.0	1.5502210179792893e+18
14303.0	1.5499053613711352e+18
14304.0	1.5496465946247165e+18
14305.0	1.5493900928024576e+18
14306.0	1.5489442164768765e+18
14307.0	1.5486187821072384e+18
14308.0	1.5483530444275707e+18
14309.0	1.5480708415881213e+18
14310.0	1.5476946712395773e+18
14311.0	1.5472644145020923e+18
14312.0	1.547173622919987e+18
14313.0	1.54677630992384e+18
14314.0	1.5466849177174013e+18
14315.0	1.5464162155036672e+18
14316.0	1.546075458502656e+18
14317.0	1.5458395591016443e+18
14318.0	1.5455878958284797e+18
14319.0	1.5453122243592195e+18
14320.0	1.5450351117271035e+18
14321.0	1.5447561955442685e+18
14322.0	1.5444343867310077e+18
14323.0	1.544183355958886e+18
14324.0	1.5439309964312573e+18
14325.0	1.5436441932791803e+18
14326.0	1.5433788028878843e+18
14327.0	1.5430951169425405e+18
14328.0	1.5428181183954941e+18
14329.0	1.542550833856512e+18
14330.0	1.542274944283443e+18
14331.0	1.5419986940002301e+18
14332.0	1.5417232288907264e+18
14333.0	1.5414475439996923e+18
14334.0	1.541154595353395e+18
14335.0	1.5408585999646723e+18
14336.0	1.5405338987593725e+18
14337.0	1.5403230561304573e+18
14338.0	1.5400468964442107e+18
14339.0	1.5397622743302141e+18
14340.0	1.5394993451565053e+18
14341.0	1.5392198904250365e+18
14342.0	1.5389463932829693e+18
14343.0	1.5386690877128704e+18
14344.0	1.538392728377753e+18
14345.0	1.5381234104401915e+18
14346.0	1.537843787936563e+18
14347.0	1.5375347449069565e+18
14348.0	1.5372971493294075e+18
14349.0	1.5370232260460544e+18
14350.0	1.5366981909741563e+18
14351.0	1.5364130739322875e+18
14352.0	1.5361865563504637e+18
14353.0	1.535920744851046e+18
14354.0	1.5356416021757947e+18
14355.0	1.535356023760486e+18
14356.0	1.5350861806960637e+18
14357.0	1.5348255986548733e+18
14358.0	1.534550848254771e+18
14359.0	1.534259973272371e+18
14360.0	1.5339972924014587e+18
14361.0	1.533726033340006e+18
14362.0	1.533453567996723e+18
14363.0	1.533178896449536e+18
14364.0	1.5327502385807357e+18
14365.0	1.5325999868674048e+18
14366.0	1.5323101956931576e+18
14367.0	1.5320646628147197e+18
14368.0	1.5317899577131005e+18
14369.0	1.5315166065328125e+18
14370.0	1.5312427419697155e+18
14371.0	1.530968978069913e+18
14372.0	1.5306882046492667e+18
14373.0	1.5304192054788093e+18
14374.0	1.5301463777476605e+18
14375.0	1.529869817085952e+18
14376.0	1.5296000797179896e+18
14377.0	1.5293256078196733e+18
14378.0	1.529049352503296e+18
14379.0	1.528779291335065e+18
14380.0	1.5285042792103933e+18
14381.0	1.5282187075059707e+18
14382.0	1.5279569376378877e+18
14383.0	1.5276795934801915e+18
14384.0	1.5273907971948544e+18
14385.0	1.5271390584242168e+18
14386.0	1.5268453363482621e+18
14387.0	1.5265923258646525e+18
14388.0	1.5263169211531264e+18
14389.0	1.52604600434688e+18
14390.0	1.525770604668518e+18
14391.0	1.5255002784202747e+18
14392.0	1.5252253887692797e+18
14393.0	1.5249548729384957e+18
14394.0	1.5246366896816125e+18
14395.0	1.5243943981613056e+18
14396.0	1.5241364568539136e+18
14397.0	1.523863946212147e+18
14398.0	1.5235906000650237e+18
14399.0	1.5233185323417597e+18
14400.0	1.523019763679232e+18
14401.0	1.522765189559091e+18
14402.0	1.5224967977238523e+18
14403.0	1.5204480563806182e+18
14404.0	1.515401105742231e+18
14405.0	1.5188833612070866e+18
14406.0	1.5209049284935677e+18
14407.0	1.5185409919156232e+18
14408.0	1.52034152105902e+18
14409.0	1.520062858212147e+18
14410.0	1.5198054151880701e+18
14411.0	1.5195447962370048e+18
14412.0	1.5192693076393981e+18
14413.0	1.5190028502171643e+18
14414.0	1.5187277340737539e+18
14415.0	1.5184573591715837e+18
14416.0	1.518183972759142e+18
14417.0	1.5179037949296637e+18
14418.0	1.5176153744539648e+18
14419.0	1.5173694003347456e+18
14420.0	1.5170928296067067e+18
14421.0	1.5168274056609784e+18
14422.0	1.5165509959942141e+18
14423.0	1.5162699138727936e+18
14424.0	1.5075628223037396e+18
14425.0	1.5157322158440448e+18
14426.0	1.5154706254921725e+18
14427.0	1.5151981718929403e+18
14428.0	1.5149028056498173e+18
14429.0	1.5146509913817085e+18
14430.0	1.5143863811309565e+18
14431.0	1.5138293708488704e+18
14432.0	1.5138378215325693e+18
14433.0	1.5119830046736376e+18
14434.0	1.5132802106261501e+18
14435.0	1.512984106185523e+18
14436.0	1.5127598031962107e+18
14437.0	1.5124893779623928e+18
14438.0	1.5121554509660152e+18
14439.0	1.5119350486794237e+18
14440.0	1.5116760504074235e+18
14441.0	1.5113912319999997e+18
14442.0	1.5111120910024704e+18
14443.0	1.5107831552278523e+18
14444.0	1.5105694403395581e+18
14445.0	1.5103052545523707e+18
14446.0	1.5074719334137864e+18
14447.0	1.509749042865766e+18
14448.0	1.5094944754565112e+18
14449.0	1.5092242330943485e+18
14450.0	1.5089473050116096e+18
14451.0	1.5086783259738107e+18
14452.0	1.5084114625429504e+18
14453.0	1.5081174518988795e+18
14454.0	1.5078709711077373e+18
14455.0	1.5075901960093693e+18
14456.0	1.507323485251174e+18
14457.0	1.5070531472588797e+18
14458.0	1.5067885084868605e+18
14459.0	1.506515850205593e+18
14460.0	1.5062443227086848e+18
14461.0	1.5059319980556288e+18
14462.0	1.505476385911603e+18
14463.0	1.5054239856328696e+18
14464.0	1.5051677891559421e+18
14465.0	1.5048644487020541e+18
14466.0	1.5046277825822715e+18
14467.0	1.5043215228927997e+18
14468.0	1.5040859120599037e+18
14469.0	1.5037744514334715e+18
14470.0	1.5035119584673792e+18
14471.0	1.5032674775203837e+18
14472.0	1.5030057361735675e+18
14473.0	1.5027414212018173e+18
14474.0	1.5024743866433536e+18
14475.0	1.5022013710073853e+18
14476.0	1.5018342670663677e+18
14477.0	1.5016661073526781e+18
14478.0	1.5013945278464e+18
14479.0	1.501123205031526e+18
14480.0	1.500836009292595e+18
14481.0	1.500590776726323e+18
14482.0	1.5003166235951104e+18
14483.0	1.5000385328513021e+18
14484.0	1.499769256856781e+18
14485.0	1.4994639668903936e+18
14486.0	1.498841129523609e+18
14487.0	1.4989744815472637e+18
14488.0	1.4986924783566843e+18
14489.0	1.498412305560371e+18
14490.0	1.4981597279289341e+18
14491.0	1.4978985184198653e+18
14492.0	1.497631435207475e+18
14493.0	1.4973423855861757e+18
14494.0	1.4970489621446656e+18
14495.0	1.4968076822904824e+18
14496.0	1.4963582995267581e+18
14497.0	1.4962687377145853e+18
14498.0	1.496001615914598e+18
14499.0	1.4957333482307581e+18
14500.0	1.4954643238944768e+18
14501.0	1.4951471808249853e+18
14502.0	1.4945820319154176e+18
14503.0	1.4946318820573181e+18
14504.0	1.4943823192915965e+18
14505.0	1.494080862919065e+18
14506.0	1.4937674225811453e+18
14507.0	1.4932525113671677e+18
14508.0	1.493316813402931e+18
14509.0	1.4930486077947901e+18
14510.0	1.492775494850969e+18
14511.0	1.492511476835942e+18
14512.0	1.4922228382564355e+18
14513.0	1.4919750991740923e+18
14514.0	1.491660882051072e+18
14515.0	1.491436523696947e+18
14516.0	1.4875706370555924e+18
14517.0	1.4908993591836672e+18
14518.0	1.4906337808875515e+18
14519.0	1.4903657883500541e+18
14520.0	1.490096175133491e+18
14521.0	1.4898281406529539e+18
14522.0	1.4895598847131648e+18
14523.0	1.4891779698458621e+18
14524.0	1.488926165644083e+18
14525.0	1.4887499344117757e+18
14526.0	1.4884862334861307e+18
14527.0	1.4881858223341563e+18
14528.0	1.4877632931823613e+18
14529.0	1.487670260164198e+18
14530.0	1.487393783388569e+18
14531.0	1.4871463983054848e+18
14532.0	1.4867421462528e+18
14533.0	1.4866124533399547e+18
14534.0	1.4863467861245947e+18
14535.0	1.486065220819353e+18
14536.0	1.4858064859496445e+18
14537.0	1.4855271671136253e+18
14538.0	1.4852758444179453e+18
14539.0	1.4850082495004672e+18
14540.0	1.484740567341465e+18
14541.0	1.4844450886909947e+18
14542.0	1.484202921322086e+18
14543.0	1.4834499414130688e+18
14544.0	1.4830859177689085e+18
14545.0	1.4828090349846528e+18
14546.0	1.4708536982372293e+18
14547.0	1.4715872618741686e+18
14548.0	1.4819972442226688e+18
14549.0	1.4815777920122875e+18
14550.0	1.4814540650774528e+18
14551.0	1.4811977343827965e+18
14552.0	1.480927976882176e+18
14553.0	1.4806496445464573e+18
14554.0	1.480395712993689e+18
14555.0	1.4801279385599995e+18
14556.0	1.4798584293621757e+18
14557.0	1.4795933476716541e+18
14558.0	1.479324808196915e+18
14559.0	1.4764078039826394e+18
14560.0	1.478782404159078e+18
14561.0	1.4785137438883835e+18
14562.0	1.4782216978563072e+18
14563.0	1.4779876590485501e+18
14564.0	1.4776974366998525e+18
14565.0	1.4774549656633341e+18
14566.0	1.4771876979015677e+18
14567.0	1.4769192205025275e+18
14568.0	1.4766276861755384e+18
14569.0	1.4763849500590075e+18
14570.0	1.4753745002823675e+18
14571.0	1.475846404780851e+18
14572.0	1.4755242788782077e+18
14573.0	1.475249979785216e+18
14574.0	1.474991538516787e+18
14575.0	1.4747764848066552e+18
14576.0	1.4745042426003453e+18
14577.0	1.474238920995635e+18
14578.0	1.4739752938897405e+18
14579.0	1.4737131515674621e+18
14580.0	1.4734461790846976e+18
14581.0	1.4731722759340035e+18
14582.0	1.4729074056364032e+18
14583.0	1.4726440285110267e+18
14584.0	1.4723545124831232e+18
14585.0	1.4721096137834493e+18
14586.0	1.4718379285807101e+18
14587.0	1.4715730247286781e+18
14588.0	1.471307832308531e+18
14589.0	1.4710464114065403e+18
14590.0	1.4707848747417597e+18
14591.0	1.4705200145104893e+18
14592.0	1.470253575543193e+18
14593.0	1.4698401295761403e+18
14594.0	1.4697367332716541e+18
14595.0	1.4693865994846205e+18
14596.0	1.4687836397633528e+18
14597.0	1.4684892113666045e+18
14598.0	1.4683824529080315e+18
14599.0	1.4681386547937277e+18
14600.0	1.4678724188307453e+18
14601.0	1.4676131437346813e+18
14602.0	1.4673377574780925e+18
14603.0	1.4670886107873275e+18
14604.0	1.4667595424727037e+18
14605.0	1.4665278507974653e+18
14606.0	1.4661982791663613e+18
14607.0	1.4660224975634432e+18
14608.0	1.4657717050277885e+18
14609.0	1.4655050060136448e+18
14610.0	1.4651876834279421e+18
14611.0	1.4649796627267581e+18
14612.0	1.464727808193331e+18
14613.0	1.4644667899445248e+18
14614.0	1.4641885129736187e+18
14615.0	1.4639223642521597e+18
14616.0	1.4636627670335485e+18
14617.0	1.4633979051245565e+18
14618.0	1.463126753437286e+18
14619.0	1.4627680599146488e+18
14620.0	1.4622359486988288e+18
14621.0	1.4623490439118845e+18
14622.0	1.4620824740823035e+18
14623.0	1.4618235060092925e+18
14624.0	1.4614820225548285e+18
14625.0	1.461293721793331e+18
14626.0	1.461028381733683e+18
14627.0	1.4607623085096957e+18
14628.0	1.4605085011083264e+18
14629.0	1.4602453286649853e+18
14630.0	1.4599771750662141e+18
14631.0	1.4597170929860603e+18
14632.0	1.4587511263199235e+18
14633.0	1.4587561326411768e+18
14634.0	1.4585784166252541e+18
14635.0	1.4580783633137654e+18
14636.0	1.4574936924356603e+18
14637.0	1.45779519913984e+18
14638.0	1.4575210929848315e+18
14639.0	1.4572463677505536e+18
14640.0	1.4569982696357888e+18
14641.0	1.4540152739201004e+18
14642.0	1.4564682689937403e+18
14643.0	1.4562099720093693e+18
14644.0	1.4559312286318587e+18
14645.0	1.4556489335177216e+18
14646.0	1.4553996559646715e+18
14647.0	1.4551188288569341e+18
