# Flux units: erg / (cm m2 s)
# Wavelength units: Angstrom
wave	flux
14000.0	1.8541373179297784e+18
14001.0	1.8536965737545725e+18
14002.0	1.853340442112819e+18
14003.0	1.8529382821789693e+18
14004.0	1.8525360517808125e+18
14005.0	1.8521336921980925e+18
14006.0	1.851727598007091e+18
14007.0	1.8513245589471232e+18
14008.0	1.8508755066945536e+18
14009.0	1.8505251380264955e+18
14010.0	1.8501165389971453e+18
14011.0	1.8494058796154877e+18
14012.0	1.8493199383265277e+18
14013.0	1.8489184947798013e+18
14014.0	1.8485140866990077e+18
14015.0	1.8481144634802168e+18
14016.0	1.8477145030393853e+18
14017.0	1.8473133832929277e+18
14018.0	1.8469120555089917e+18
14019.0	1.8465114290126845e+18
14020.0	1.846110203569766e+18
14021.0	1.8457091526098941e+18
14022.0	1.845304608633651e+18
14023.0	1.844884070937395e+18
14024.0	1.8444923246215165e+18
14025.0	1.844107067732787e+18
14026.0	1.8437067432263677e+18
14027.0	1.8433076921106432e+18
14028.0	1.8429044450131965e+18
14029.0	1.8425057344749563e+18
14030.0	1.8409311105449992e+18
14031.0	1.8416898819489787e+18
14032.0	1.8413078160867323e+18
14033.0	1.840874453886566e+18
14034.0	1.8405082475266045e+18
14035.0	1.8401104379248637e+18
14036.0	1.8397082578583547e+18
14037.0	1.8393110824353787e+18
14038.0	1.8389133298761725e+18
14039.0	1.8385122856271872e+18
14040.0	1.8381098371252221e+18
14041.0	1.8377147051671547e+18
14042.0	1.8373126291193856e+18
14043.0	1.8368989180723197e+18
14044.0	1.8365140067942392e+18
14045.0	1.8361089293025275e+18
14046.0	1.8357101969539064e+18
14047.0	1.8353063626539003e+18
14048.0	1.8349136919134205e+18
14049.0	1.8345186438414333e+18
14050.0	1.8341208795381755e+18
14051.0	1.8337186139078653e+18
14052.0	1.8333235423477755e+18
14053.0	1.8329279456608253e+18
14054.0	1.8325307484274685e+18
14055.0	1.8321334639525888e+18
14056.0	1.8317362700746747e+18
14057.0	1.8313392137699323e+18
14058.0	1.8309422195408893e+18
14059.0	1.8305453461078013e+18
14060.0	1.8301485716602877e+18
14061.0	1.8297484770017275e+18
14062.0	1.829351496194457e+18
14063.0	1.8289383455064067e+18
14064.0	1.8283562818076672e+18
14065.0	1.8281494271229947e+18
14066.0	1.8277573536514043e+18
14067.0	1.8273390120927227e+18
14068.0	1.8269653046394877e+18
14069.0	1.826566261912371e+18
14070.0	1.8261730140356603e+18
14071.0	1.8257764291706875e+18
14072.0	1.8253822686134264e+18
14073.0	1.8249867658788861e+18
14074.0	1.8245913906511864e+18
14075.0	1.8241860799561728e+18
14076.0	1.823774323454771e+18
14077.0	1.8231284560035837e+18
14078.0	1.8229908325007355e+18
14079.0	1.822610632264908e+18
14080.0	1.8222211189964792e+18
14081.0	1.8218264366678013e+18
14082.0	1.821418137950617e+18
14083.0	1.8210244035346432e+18
14084.0	1.820630650663731e+18
14085.0	1.8199594009624568e+18
14086.0	1.8198209973190656e+18
14087.0	1.8194480280633344e+18
14088.0	1.8190449906810877e+18
14089.0	1.81863954073518e+18
14090.0	1.8182605685915643e+18
14091.0	1.81787250655232e+18
14092.0	1.8174789080317947e+18
14093.0	1.8170853799755776e+18
14094.0	1.8166919274168317e+18
14095.0	1.816298582232268e+18
14096.0	1.815849035051827e+18
14097.0	1.815493725493657e+18
14098.0	1.815093870749286e+18
14099.0	1.8147262416814077e+18
14100.0	1.8143273918922747e+18
14101.0	1.8139141975834621e+18
14102.0	1.8134913865744384e+18
14103.0	1.8130916224270333e+18
14104.0	1.8127040335052797e+18
14105.0	1.812301415553433e+18
14106.0	1.8119097984221181e+18
14107.0	1.8115154885476347e+18
14108.0	1.811117053155737e+18
14109.0	1.8107309188186107e+18
14110.0	1.8103344497164288e+18
14111.0	1.809936316314419e+18
14112.0	1.8095529938386936e+18
14113.0	1.809154581934899e+18
14114.0	1.8087676993339387e+18
14115.0	1.8083807143919613e+18
14116.0	1.807925733071257e+18
14117.0	1.805662515154125e+18
14118.0	1.80720987275264e+18
14119.0	1.806786420853964e+18
14120.0	1.8063997982998525e+18
14121.0	1.8060271629107197e+18
14122.0	1.805599254983475e+18
14123.0	1.8052132867407864e+18
14124.0	1.804813007532851e+18
14125.0	1.8042368913571835e+18
14126.0	1.8040745684369403e+18
14127.0	1.803695208739635e+18
14128.0	1.8033044573126656e+18
14129.0	1.8029070956625917e+18
14130.0	1.8025024107577344e+18
14131.0	1.8021215344001021e+18
14132.0	1.801730534670336e+18
14133.0	1.8010653599989752e+18
14134.0	1.8009544961556477e+18
14135.0	1.8005514436739064e+18
14136.0	1.800075702226125e+18
14137.0	1.7997838726201336e+18
14138.0	1.7993715121389565e+18
14139.0	1.7990081612611581e+18
14140.0	1.798608578307686e+18
14141.0	1.7982260024180733e+18
14142.0	1.7976737702871037e+18
14143.0	1.7974432714719232e+18
14144.0	1.7970647422468093e+18
14145.0	1.7966756517642237e+18
14146.0	1.7962844641296384e+18
14147.0	1.7958973969793021e+18
14148.0	1.7955030753607675e+18
14149.0	1.7951128373166077e+18
14150.0	1.7947355848376315e+18
14151.0	1.7943312321216512e+18
14152.0	1.793960032862208e+18
14153.0	1.7935722845569021e+18
14154.0	1.7931717872451584e+18
14155.0	1.7924487831879677e+18
14156.0	1.7923796442808312e+18
14157.0	1.7920135654277117e+18
14158.0	1.79161992831959e+18
14159.0	1.791236141114982e+18
14160.0	1.7908474818068475e+18
14161.0	1.7904306334203904e+18
14162.0	1.7900210663456763e+18
14163.0	1.7896880218308603e+18
14164.0	1.7892350168662008e+18
14165.0	1.7888030471749627e+18
14166.0	1.7885279763300347e+18
14167.0	1.78813564616704e+18
14168.0	1.7877465087082493e+18
14169.0	1.7873706084728827e+18
14170.0	1.7869773605961725e+18
14171.0	1.7865959087800317e+18
14172.0	1.7862127674982397e+18
14173.0	1.7857717062336512e+18
14174.0	1.7854374235602941e+18
14175.0	1.7850557335076861e+18
14176.0	1.7846676932788221e+18
14177.0	1.784283969827635e+18
14178.0	1.7838981794234365e+18
14179.0	1.783502876337766e+18
14180.0	1.7831293182017533e+18
14181.0	1.7827443180044288e+18
14182.0	1.7823589990399997e+18
14183.0	1.7819745877229563e+18
14184.0	1.7815872353599488e+18
14185.0	1.781205120843776e+18
14186.0	1.7804621334446077e+18
14187.0	1.7804236314116093e+18
14188.0	1.7800492847464443e+18
14189.0	1.7796517687459835e+18
14190.0	1.77926904521687e+18
14191.0	1.7788834108407805e+18
14192.0	1.7784995061956603e+18
14193.0	1.7780596696678397e+18
14194.0	1.7777323596054523e+18
14195.0	1.7773525133688832e+18
14196.0	1.7769687630741504e+18
14197.0	1.7765852694708221e+18
14198.0	1.776199230763827e+18
14199.0	1.7758165307228155e+18
14200.0	1.7752139266785275e+18
14201.0	1.7750459313815544e+18
14202.0	1.7746687946653693e+18
14203.0	1.7742734731247613e+18
14204.0	1.7739019131551741e+18
14205.0	1.7735192936447997e+18
14206.0	1.773073415641497e+18
14207.0	1.7727553447919613e+18
14208.0	1.7723731128352765e+18
14209.0	1.7719204065050621e+18
14210.0	1.7715624344027133e+18
14211.0	1.7712236940230653e+18
14212.0	1.770843700146995e+18
14213.0	1.770457030616678e+18
14214.0	1.770079867056947e+18
14215.0	1.7696917496528896e+18
14216.0	1.7693169231593472e+18
14217.0	1.7689352935047165e+18
14218.0	1.768547615663718e+18
14219.0	1.7681721717686264e+18
14220.0	1.7677889667334141e+18
14221.0	1.7674036729348093e+18
14222.0	1.7669856971194365e+18
14223.0	1.766645955139993e+18
14224.0	1.766266466258124e+18
14225.0	1.7652251229159424e+18
14226.0	1.7654926943453181e+18
14227.0	1.7651127474454528e+18
14228.0	1.7631089002545152e+18
14229.0	1.7640971688738796e+18
14230.0	1.763971252512358e+18
14231.0	1.7635515352219648e+18
14232.0	1.7632106976903168e+18
14233.0	1.762827078257868e+18
14234.0	1.7624505757204475e+18
14235.0	1.7620693302640635e+18
14236.0	1.76169054938071e+18
14237.0	1.761310298813235e+18
14238.0	1.760931103532646e+18
14239.0	1.7605445464096763e+18
14240.0	1.759380457599795e+18
14241.0	1.7597873671634944e+18
14242.0	1.75941144847319e+18
14243.0	1.7589545360949243e+18
14244.0	1.7586552423055357e+18
14245.0	1.7582655377768443e+18
14246.0	1.75788165997527e+18
14247.0	1.7575158998892544e+18
14248.0	1.7571316613775352e+18
14249.0	1.75675997725655e+18
14250.0	1.7563812735483904e+18
14251.0	1.7560041066332157e+18
14252.0	1.7556256797491197e+18
14253.0	1.7552470381166587e+18
14254.0	1.7548679283998717e+18
14255.0	1.7544743835664384e+18
14256.0	1.7534619473674243e+18
14257.0	1.7537207023697917e+18
14258.0	1.7533573162598395e+18
14259.0	1.7529696048644093e+18
14260.0	1.7525814136406013e+18
14261.0	1.7522140412641275e+18
14262.0	1.7518584364269565e+18
14263.0	1.7505269412003848e+18
14264.0	1.7509548155731963e+18
14265.0	1.7507165388406781e+18
14266.0	1.750337566697062e+18
14267.0	1.7499615221776384e+18
14268.0	1.7495846857736187e+18
14269.0	1.7492031601377277e+18
14270.0	1.7488311136288768e+18
14271.0	1.7484526682898427e+18
14272.0	1.7480775767162875e+18
14273.0	1.7477005255639037e+18
14274.0	1.7459198052794378e+18
14275.0	1.7468219900035064e+18
14276.0	1.746557883069235e+18
14277.0	1.746184450762342e+18
14278.0	1.7458202425688061e+18
14279.0	1.7454439648460797e+18
14280.0	1.7450646051487744e+18
14281.0	1.7446927499001856e+18
14282.0	1.7443172489625597e+18
14283.0	1.743941675882905e+18
14284.0	1.7435661665566715e+18
14285.0	1.74319053307904e+18
14286.0	1.7428124467724285e+18
14287.0	1.742440219069645e+18
14288.0	1.7420650838753277e+18
14289.0	1.7411844931059697e+18
14290.0	1.7413127918321661e+18
14291.0	1.7409397906997243e+18
14292.0	1.7405655497310205e+18
14293.0	1.7401897484812288e+18
14294.0	1.7397444593582077e+18
14295.0	1.739434725107302e+18
14296.0	1.7386579282624512e+18
14297.0	1.738692997677056e+18
14298.0	1.7380666823933947e+18
14299.0	1.7379321962299387e+18
14300.0	1.73756604523479e+18
14301.0	1.737193990337331e+18
14302.0	1.7368215529193472e+18
14303.0	1.736430454204006e+18
14304.0	1.7360663651287037e+18
14305.0	1.7356999020773376e+18
14306.0	1.735291831530291e+18
14307.0	1.7349394697289728e+18
14308.0	1.7345784844386304e+18
14309.0	1.7341995592712187e+18
14310.0	1.733685033933209e+18
14311.0	1.7331365565431803e+18
14312.0	1.7330284357746685e+18
14313.0	1.7326159377203197e+18
14314.0	1.7322587457585147e+18
14315.0	1.73188898095104e+18
14316.0	1.731492261868339e+18
14317.0	1.7311111137198077e+18
14318.0	1.730774691951411e+18
14319.0	1.7304027763048448e+18
14320.0	1.7300303221096448e+18
14321.0	1.729657018987315e+18
14322.0	1.729264680435712e+18
14323.0	1.7289058157854715e+18
14324.0	1.7285412921802747e+18
14325.0	1.7281658751287293e+18
14326.0	1.727799175518617e+18
14327.0	1.7274240973668347e+18
14328.0	1.7270526145724413e+18
14329.0	1.7266845224534016e+18
14330.0	1.726313138644582e+18
14331.0	1.7259374347026427e+18
14332.0	1.7255705438322685e+18
14333.0	1.7251994586578941e+18
14334.0	1.7248284305260541e+18
14335.0	1.7244477924048893e+18
14336.0	1.7240140208406525e+18
14337.0	1.723714233801113e+18
14338.0	1.7233435647016957e+18
14339.0	1.7229663692652541e+18
14340.0	1.7226038706700288e+18
14341.0	1.722228143239987e+18
14342.0	1.7218622036377597e+18
14343.0	1.721487789863731e+18
14344.0	1.7211181794066432e+18
14345.0	1.720753018267238e+18
14346.0	1.720380241949491e+18
14347.0	1.719976045261619e+18
14348.0	1.71964244206551e+18
14349.0	1.719273640270233e+18
14350.0	1.7188518560268285e+18
14351.0	1.718475742720819e+18
14352.0	1.718160389780275e+18
14353.0	1.717794889741107e+18
14354.0	1.7174195196657661e+18
14355.0	1.717037690362265e+18
14356.0	1.7166744753799163e+18
14357.0	1.716319157433139e+18
14358.0	1.7159501895434235e+18
14359.0	1.7155735796318203e+18
14360.0	1.715207591375667e+18
14361.0	1.7148422993739776e+18
14362.0	1.7144753229398016e+18
14363.0	1.7141066201300987e+18
14364.0	1.7135628856590333e+18
14365.0	1.7133434933608443e+18
14366.0	1.7129715877806077e+18
14367.0	1.7126338422898685e+18
14368.0	1.7122654649581565e+18
14369.0	1.7118977335492603e+18
14370.0	1.7115198301143037e+18
14371.0	1.7111514460717053e+18
14372.0	1.710780008575795e+18
14373.0	1.710414760194867e+18
14374.0	1.7100481629257725e+18
14375.0	1.7096799567216635e+18
14376.0	1.7093133409976315e+18
14377.0	1.7089456565649405e+18
14378.0	1.7085772909772797e+18
14379.0	1.70821149565911e+18
14380.0	1.7078440058421243e+18
14381.0	1.7074711120838653e+18
14382.0	1.7071095630790653e+18
14383.0	1.7067357029531643e+18
14384.0	1.7063664397844475e+18
14385.0	1.7060100531290107e+18
14386.0	1.7056357467291648e+18
14387.0	1.7052767495389181e+18
14388.0	1.70490923623383e+18
14389.0	1.7045439224217597e+18
14390.0	1.704176608765542e+18
14391.0	1.703811268109926e+18
14392.0	1.703442635764531e+18
14393.0	1.7030794828578813e+18
14394.0	1.70269405651927e+18
14395.0	1.7023293852745725e+18
14396.0	1.7019812060332027e+18
14397.0	1.7016162646753277e+18
14398.0	1.7012491842224125e+18
14399.0	1.7008845951860733e+18
14400.0	1.70050345542615e+18
14401.0	1.7001508520329213e+18
14402.0	1.6997883333050363e+18
14403.0	1.6974713611878362e+18
14404.0	1.6935095592026092e+18
14405.0	1.6978934558097382e+18
14406.0	1.6983281098555387e+18
14407.0	1.6950744053710863e+18
14408.0	1.6975658202693624e+18
14409.0	1.6972237865222141e+18
14410.0	1.6968559594831872e+18
14411.0	1.6965032420048893e+18
14412.0	1.6961385304948733e+18
14413.0	1.695776052032307e+18
14414.0	1.6954103473111037e+18
14415.0	1.695046727997849e+18
14416.0	1.694675072398131e+18
14417.0	1.694289652770406e+18
14418.0	1.6939194970537984e+18
14419.0	1.6935902324457472e+18
14420.0	1.693224505914163e+18
14421.0	1.6928630542172157e+18
14422.0	1.6924973998276605e+18
14423.0	1.6921293009977341e+18
14424.0	1.6801680653811638e+18
14425.0	1.691405536932659e+18
14426.0	1.6910457210142715e+18
14427.0	1.690682277861785e+18
14428.0	1.6903068792651768e+18
14429.0	1.6899542926491648e+18
14430.0	1.689593371112243e+18
14431.0	1.6889371353415683e+18
14432.0	1.6888589115719677e+18
14433.0	1.6863404903890929e+18
14434.0	1.6881246953013248e+18
14435.0	1.6877243590508541e+18
14436.0	1.6874060868747261e+18
14437.0	1.6870436939759613e+18
14438.0	1.6865991044628477e+18
14439.0	1.686303907669606e+18
14440.0	1.6859560908161021e+18
14441.0	1.685590250199449e+18
14442.0	1.685225082349158e+18
14443.0	1.684842172592947e+18
14444.0	1.6845055394316288e+18
14445.0	1.6841460204699648e+18
14446.0	1.6812934592200712e+18
14447.0	1.6834157082574843e+18
14448.0	1.6830609708023803e+18
14449.0	1.6826993832099837e+18
14450.0	1.682334784107315e+18
14451.0	1.6819756141117437e+18
14452.0	1.6816133554307067e+18
14453.0	1.681215201896038e+18
14454.0	1.6808914418925563e+18
14455.0	1.6805261280804861e+18
14456.0	1.6801588647559163e+18
14457.0	1.6797955625320443e+18
14458.0	1.679441251218227e+18
14459.0	1.6790809890258941e+18
14460.0	1.6787198342856704e+18
14461.0	1.6783234306146296e+18
14462.0	1.6777128557150205e+18
14463.0	1.677628345522585e+18
14464.0	1.6772755424804861e+18
14465.0	1.676868866120089e+18
14466.0	1.6765195409948672e+18
14467.0	1.6761272410308603e+18
14468.0	1.675796711420723e+18
14469.0	1.675408511808307e+18
14470.0	1.6750649228132347e+18
14471.0	1.6747134283939837e+18
14472.0	1.6743566273413115e+18
14473.0	1.6739999789613053e+18
14474.0	1.673641619305267e+18
14475.0	1.673278728123187e+18
14476.0	1.6727812400480253e+18
14477.0	1.6725619333136384e+18
14478.0	1.6722018405711872e+18
14479.0	1.6718411690147837e+18
14480.0	1.6714755280470013e+18
14481.0	1.67112600495063e+18
14482.0	1.6707649894612987e+18
14483.0	1.670401819777433e+18
14484.0	1.6700445556735995e+18
14485.0	1.6696684608225275e+18
14486.0	1.6691705549946877e+18
14487.0	1.6689692133031933e+18
14488.0	1.6685650652692477e+18
14489.0	1.6682251823611904e+18
14490.0	1.6678883227074557e+18
14491.0	1.6675368048001021e+18
14492.0	1.6671777639890941e+18
14493.0	1.6668136262598653e+18
14494.0	1.6664492284837885e+18
14495.0	1.6661039869329403e+18
14496.0	1.665673096016691e+18
14497.0	1.6653871501803515e+18
14498.0	1.6650290287607805e+18
14499.0	1.664671554941747e+18
14500.0	1.6643133848682493e+18
14501.0	1.663892983067443e+18
14502.0	1.6634076232417275e+18
14503.0	1.663218351079424e+18
14504.0	1.6628791761698813e+18
14505.0	1.6624671931760637e+18
14506.0	1.6620379195834365e+18
14507.0	1.6616775617609725e+18
14508.0	1.6614520256462843e+18
14509.0	1.6610946407464957e+18
14510.0	1.660735594902323e+18
14511.0	1.6603796796866557e+18
14512.0	1.6600039589675003e+18
14513.0	1.6596553871392763e+18
14514.0	1.6592130122186747e+18
14515.0	1.6588490858823675e+18
14516.0	1.6572439123197957e+18
14517.0	1.6581361548656637e+18
14518.0	1.657779427632742e+18
14519.0	1.657422681944883e+18
14520.0	1.6570654883053565e+18
14521.0	1.656707840003276e+18
14522.0	1.6563487522160637e+18
14523.0	1.6558311029604347e+18
14524.0	1.6554962129518587e+18
14525.0	1.6552799949029376e+18
14526.0	1.6549252842913792e+18
14527.0	1.6545583850323965e+18
14528.0	1.6541316968087547e+18
14529.0	1.6538518545235965e+18
14530.0	1.6534913624834043e+18
14531.0	1.653144092567142e+18
14532.0	1.6525862199361533e+18
14533.0	1.6524326362677243e+18
14534.0	1.6520775968227323e+18
14535.0	1.651715564634112e+18
14536.0	1.651363689372057e+18
14537.0	1.6510032375971835e+18
14538.0	1.650654207750963e+18
14539.0	1.6502987069325307e+18
14540.0	1.6499430769295357e+18
14541.0	1.6495753421651965e+18
14542.0	1.6492308438450176e+18
14543.0	1.6487848618229757e+18
14544.0	1.6485208186421248e+18
14545.0	1.6481602209054715e+18
14546.0	1.633592636394692e+18
14547.0	1.6347536163864466e+18
14548.0	1.6470924769361915e+18
14549.0	1.6466797943324667e+18
14550.0	1.6463848189984763e+18
14551.0	1.6460345224724475e+18
14552.0	1.645678387475251e+18
14553.0	1.645319749317427e+18
14554.0	1.6449695786205181e+18
14555.0	1.6446142069866493e+18
14556.0	1.6442560822116347e+18
14557.0	1.6439048646164477e+18
14558.0	1.6435496859205624e+18
14559.0	1.6422313054437353e+18
14560.0	1.6428068847484928e+18
14561.0	1.64248214831104e+18
14562.0	1.642112430479769e+18
14563.0	1.6417762184265725e+18
14564.0	1.641393241561497e+18
14565.0	1.641068097437696e+18
14566.0	1.6407136401620992e+18
14567.0	1.64035797492695e+18
14568.0	1.6399482149142525e+18
14569.0	1.6396498740707325e+18
14570.0	1.6390002334236672e+18
14571.0	1.6389396240531456e+18
14572.0	1.6385411517513728e+18
14573.0	1.6382013460185085e+18
14574.0	1.637801677501235e+18
14575.0	1.6375172214816765e+18
14576.0	1.637160452305715e+18
14577.0	1.6368128921436157e+18
14578.0	1.636460241774182e+18
14579.0	1.6361085342842877e+18
14580.0	1.635754669244416e+18
14581.0	1.6353944657723392e+18
14582.0	1.6350422583214075e+18
14583.0	1.6346925288652795e+18
14584.0	1.6343231063130107e+18
14585.0	1.6339849715908605e+18
14586.0	1.633629313066598e+18
14587.0	1.633274597421875e+18
14588.0	1.6329236113522688e+18
14589.0	1.6325817621544952e+18
14590.0	1.6322405907562493e+18
14591.0	1.6318954028924925e+18
14592.0	1.6315542499491837e+18
14593.0	1.6311527208386557e+18
14594.0	1.6308750126153725e+18
14595.0	1.630530348200755e+18
14596.0	1.6300326369886198e+18
14597.0	1.629668160359628e+18
14598.0	1.6294939725922296e+18
14599.0	1.629168145635737e+18
14600.0	1.6288214729883648e+18
14601.0	1.6284838365495293e+18
14602.0	1.6281211265613821e+18
14603.0	1.6277913385041915e+18
14604.0	1.6274132874297341e+18
14605.0	1.6270661802524672e+18
14606.0	1.6267225744801792e+18
14607.0	1.6264233209561085e+18
14608.0	1.626083822246297e+18
14609.0	1.6257306584940541e+18
14610.0	1.6253236885323776e+18
14611.0	1.625052263376486e+18
14612.0	1.62471977418752e+18
14613.0	1.6243796463321085e+18
14614.0	1.6240365019332605e+18
14615.0	1.6236915187515387e+18
14616.0	1.6233558855122941e+18
14617.0	1.623014323204915e+18
14618.0	1.6226493566812157e+18
14619.0	1.622235558392627e+18
14620.0	1.621577111384883e+18
14621.0	1.6216483189227515e+18
14622.0	1.621305214789222e+18
14623.0	1.6209653016821757e+18
14624.0	1.6205919817826304e+18
14625.0	1.620280140313395e+18
14626.0	1.6199356654813181e+18
14627.0	1.619589791429427e+18
14628.0	1.619256543910297e+18
14629.0	1.6189146242482168e+18
14630.0	1.618568694831513e+18
14631.0	1.6182298017791997e+18
14632.0	1.6169282438168579e+18
14633.0	1.6174261429338107e+18
14634.0	1.6171969175093248e+18
14635.0	1.616447499403262e+18
14636.0	1.6153576967503867e+18
14637.0	1.6161781042905085e+18
14638.0	1.6158265964494848e+18
14639.0	1.615480304644915e+18
14640.0	1.6151489227522043e+18
14641.0	1.6111227432337377e+18
14642.0	1.614463315109478e+18
14643.0	1.614121853465395e+18
14644.0	1.613771410977587e+18
14645.0	1.6134229263908861e+18
14646.0	1.6130619914321915e+18
14647.0	1.612710008795955e+18
14648.0	1.6124025830899707e+18
