# Flux units: erg / (cm m2 s)
# Wavelength units: Angstrom
wave	flux
14000.0	2.0856870881198072e+18
14001.0	2.0853085572169725e+18
14002.0	2.0849200958799867e+18
14003.0	2.084481143511449e+18
14004.0	2.0840379515404288e+18
14005.0	2.0836006651494397e+18
14006.0	2.0831553827373053e+18
14007.0	2.082713719170662e+18
14008.0	2.0822105134202877e+18
14009.0	2.081838616228659e+18
14010.0	2.0813901025247227e+18
14011.0	2.08055068304343e+18
14012.0	2.0805198951743483e+18
14013.0	2.0800806626263037e+18
14014.0	2.079637042836275e+18
14015.0	2.079200091989606e+18
14016.0	2.078762461665689e+18
14017.0	2.078323309648281e+18
14018.0	2.0778840250908664e+18
14019.0	2.0774452019068925e+18
14020.0	2.0770057344778235e+18
14021.0	2.0765662519492605e+18
14022.0	2.0761128678195192e+18
14023.0	2.0756413760405496e+18
14024.0	2.0752163336617981e+18
14025.0	2.074809539860889e+18
14026.0	2.0743734362636288e+18
14027.0	2.0739367404306427e+18
14028.0	2.0734983836532733e+18
14029.0	2.073058463239372e+18
14030.0	2.0687975570472983e+18
14031.0	2.0720717918109686e+18
14032.0	2.0717380862738427e+18
14033.0	2.071244458636083e+18
14034.0	2.0708618793910272e+18
14035.0	2.0704342281551867e+18
14036.0	2.0699860281851896e+18
14037.0	2.0695598617329661e+18
14038.0	2.0691249107304443e+18
14039.0	2.0686851195011067e+18
14040.0	2.0682455866408955e+18
14041.0	2.0678122009526272e+18
14042.0	2.067370129699635e+18
14043.0	2.0669156718280701e+18
14044.0	2.0664984090443773e+18
14045.0	2.06606770938839e+18
14046.0	2.0656300119556093e+18
14047.0	2.065177689823641e+18
14048.0	2.064755197581721e+18
14049.0	2.0643257998376955e+18
14050.0	2.0638905216794621e+18
14051.0	2.063448975553331e+18
14052.0	2.0630196298186747e+18
14053.0	2.062584401992089e+18
14054.0	2.0621492999946235e+18
14055.0	2.0617142298738683e+18
14056.0	2.0612792419614717e+18
14057.0	2.0608444134326267e+18
14058.0	2.0604096503349245e+18
14059.0	2.0599693692108797e+18
14060.0	2.0595400905850875e+18
14061.0	2.0591015761018875e+18
14062.0	2.0586716213542907e+18
14063.0	2.058225738317824e+18
14064.0	2.0571885523697664e+18
14065.0	2.057363459879731e+18
14066.0	2.056934959716761e+18
14067.0	2.0564415669600256e+18
14068.0	2.0560678544736253e+18
14069.0	2.0556253705011197e+18
14070.0	2.0551977997959163e+18
14071.0	2.0547655667023867e+18
14072.0	2.0543342261567483e+18
14073.0	2.0539010384396283e+18
14074.0	2.053467797035417e+18
14075.0	2.0530189763084283e+18
14076.0	2.0525371631861755e+18
14077.0	2.0512772244635645e+18
14078.0	2.0516679373029373e+18
14079.0	2.0512989677355005e+18
14080.0	2.0508719087353856e+18
14081.0	2.050439754494771e+18
14082.0	2.0500033640071168e+18
14083.0	2.049574367238553e+18
14084.0	2.0491423488933883e+18
14085.0	2.0480625320394747e+18
14086.0	2.0482051048210424e+18
14087.0	2.0478477064994816e+18
14088.0	2.0473956242817021e+18
14089.0	2.0469352138539005e+18
14090.0	2.0465387011309563e+18
14091.0	2.0461222201655293e+18
14092.0	2.0456915456753661e+18
14093.0	2.0452604785983483e+18
14094.0	2.04482926388183e+18
14095.0	2.044397002267033e+18
14096.0	2.043785474421555e+18
14097.0	2.0434835717750776e+18
14098.0	2.0430215574454272e+18
14099.0	2.0426752052428792e+18
14100.0	2.042233749713715e+18
14101.0	2.0418165255176187e+18
14102.0	2.0413863862206461e+18
14103.0	2.0409471821938688e+18
14104.0	2.0405268391133176e+18
14105.0	2.0400966058639355e+18
14106.0	2.039667347370803e+18
14107.0	2.0392364229001216e+18
14108.0	2.0387927561338877e+18
14109.0	2.0383744078643197e+18
14110.0	2.0379414181183483e+18
14111.0	2.0375090206081021e+18
14112.0	2.0370824397586427e+18
14113.0	2.0366265491128315e+18
14114.0	2.0362210605793277e+18
14115.0	2.0357948756721661e+18
14116.0	2.0352306897747965e+18
14117.0	2.0284675339583493e+18
14118.0	2.034508595042713e+18
14119.0	2.033971826471731e+18
14120.0	2.033506095988736e+18
14121.0	2.033121862510182e+18
14122.0	2.032612123711897e+18
14123.0	2.032174315549491e+18
14124.0	2.0317354588110843e+18
14125.0	2.0311130794622968e+18
14126.0	2.0309854971232253e+18
14127.0	2.03058205205463e+18
14128.0	2.0301585699569661e+18
14129.0	2.0297090378760187e+18
14130.0	2.029203615855411e+18
14131.0	2.0287868194783227e+18
14132.0	2.0280572572073984e+18
14133.0	2.0272761284853752e+18
14134.0	2.0271461923028992e+18
14135.0	2.0266765191741437e+18
14136.0	2.0260792100192253e+18
14137.0	2.025848058570342e+18
14138.0	2.0252949070479355e+18
14139.0	2.0249313196113915e+18
14140.0	2.0244956119564283e+18
14141.0	2.0240245043757048e+18
14142.0	2.023119581609984e+18
14143.0	2.0232163089711096e+18
14144.0	2.0228013228556283e+18
14145.0	2.0223762972540925e+18
14146.0	2.0219377995481083e+18
14147.0	2.0215161797214203e+18
14148.0	2.0210748634431483e+18
14149.0	2.0206487020240893e+18
14150.0	2.020249144236441e+18
14151.0	2.019784190538547e+18
14152.0	2.019398846408294e+18
14153.0	2.0189736496791547e+18
14154.0	2.018530513072947e+18
14155.0	2.0177765969952765e+18
14156.0	2.0176379819589627e+18
14157.0	2.017269448599142e+18
14158.0	2.0167635719159803e+18
14159.0	2.0163438227488765e+18
14160.0	2.0159136398311421e+18
14161.0	2.015453717620326e+18
14162.0	2.0149951879184381e+18
14163.0	2.014640832983859e+18
14164.0	2.0140043909726203e+18
14165.0	2.0137061927354365e+18
14166.0	2.0133702172409853e+18
14167.0	2.012938351568486e+18
14168.0	2.0125033519120381e+18
14169.0	2.0120961739128827e+18
14170.0	2.011663565009715e+18
14171.0	2.0112515551723515e+18
14172.0	2.0108318865358843e+18
14173.0	2.0103617017020416e+18
14174.0	2.0099764146143227e+18
14175.0	2.0095613832003581e+18
14176.0	2.009136119362355e+18
14177.0	2.00871518404608e+18
14178.0	2.0082924451790843e+18
14179.0	2.007861742167654e+18
14180.0	2.0074219475828733e+18
14181.0	2.0069452783550456e+18
14182.0	2.0065220344938493e+18
14183.0	2.0060998777962493e+18
14184.0	2.0056733841883133e+18
14185.0	2.0052520495742973e+18
14186.0	2.0035891036684288e+18
14187.0	2.0043368406974461e+18
14188.0	2.003937885211852e+18
14189.0	2.0035055900426237e+18
14190.0	2.0030856294825984e+18
14191.0	2.0026582819143675e+18
14192.0	2.002244986942259e+18
14193.0	2.001620847663513e+18
14194.0	2.0013972459618301e+18
14195.0	2.0009876738539517e+18
14196.0	2.000566538888806e+18
14197.0	2.000145419023155e+18
14198.0	1.9997210963869693e+18
14199.0	1.9993008506142712e+18
14200.0	1.998153503788237e+18
14201.0	1.998414770339839e+18
14202.0	1.9980395093164027e+18
14203.0	1.9976100629184512e+18
14204.0	1.9971954089918461e+18
14205.0	1.9967558576766979e+18
14206.0	1.996191451997798e+18
14207.0	1.9958586859847677e+18
14208.0	1.995438792533606e+18
14209.0	1.9949263660253181e+18
14210.0	1.9945321853353984e+18
14211.0	1.9941749027766272e+18
14212.0	1.9937578614521853e+18
14213.0	1.993326834640486e+18
14214.0	1.9929181685022715e+18
14215.0	1.9924873799270397e+18
14216.0	1.992079436886835e+18
14217.0	1.9916603353202683e+18
14218.0	1.991232504568217e+18
14219.0	1.9908216708136952e+18
14220.0	1.990396093241753e+18
14221.0	1.9899680762626043e+18
14222.0	1.989467328374374e+18
14223.0	1.989141300091289e+18
14224.0	1.9887250808504315e+18
14225.0	1.9861545781559306e+18
14226.0	1.9878743250042875e+18
14227.0	1.987469057930035e+18
14228.0	1.982212182376449e+18
14229.0	1.985555465450287e+18
14230.0	1.9862150851854333e+18
14231.0	1.9857023717867515e+18
14232.0	1.9853796788142075e+18
14233.0	1.98490406822871e+18
14234.0	1.984465607432601e+18
14235.0	1.9840459404738552e+18
14236.0	1.983629603792486e+18
14237.0	1.98320840507392e+18
14238.0	1.982791137257062e+18
14239.0	1.9823604594114555e+18
14240.0	1.9809299718995965e+18
14241.0	1.981521429161574e+18
14242.0	1.9811145934176253e+18
14243.0	1.9805984188792832e+18
14244.0	1.9802897600479232e+18
14245.0	1.9798601760768e+18
14246.0	1.9794397390438397e+18
14247.0	1.9790354886688763e+18
14248.0	1.9786119193296896e+18
14249.0	1.9782039997775864e+18
14250.0	1.9777872084336635e+18
14251.0	1.9773723884126205e+18
14252.0	1.9769558017507325e+18
14253.0	1.976538663118438e+18
14254.0	1.9761207309238262e+18
14255.0	1.975681493342617e+18
14256.0	1.9730119547420685e+18
14257.0	1.974745864916172e+18
14258.0	1.9744568136171517e+18
14259.0	1.974026454538649e+18
14260.0	1.9735574373990397e+18
14261.0	1.9731956837122045e+18
14262.0	1.972808942039859e+18
14263.0	1.9691023315763218e+18
14264.0	1.9712968736374769e+18
14265.0	1.971106777713868e+18
14266.0	1.970623900916121e+18
14267.0	1.9702093593968637e+18
14268.0	1.9697922023096315e+18
14269.0	1.9693775752265728e+18
14270.0	1.9689640873164797e+18
14271.0	1.9685472791953405e+18
14272.0	1.9681316689674235e+18
14273.0	1.9677068279152637e+18
14274.0	1.9623294097424407e+18
14275.0	1.9664099289858045e+18
14276.0	1.96645684814807e+18
14277.0	1.9660476786933755e+18
14278.0	1.965646654577049e+18
14279.0	1.9652319872286715e+18
14280.0	1.964814019801907e+18
14281.0	1.9644049375887355e+18
14282.0	1.9639911611105277e+18
14283.0	1.963577181628006e+18
14284.0	1.9631630981267453e+18
14285.0	1.9627478402203645e+18
14286.0	1.962328601080627e+18
14287.0	1.9619215203893243e+18
14288.0	1.9615082170286077e+18
14289.0	1.9604359063011318e+18
14290.0	1.960679919163801e+18
14291.0	1.9602680318001152e+18
14292.0	1.959855555556147e+18
14293.0	1.9594408227766272e+18
14294.0	1.9589315738730493e+18
14295.0	1.9586056445755384e+18
14296.0	1.9576692662075395e+18
14297.0	1.957788191503155e+18
14298.0	1.956657011202457e+18
14299.0	1.9569405847404541e+18
14300.0	1.956548187468595e+18
14301.0	1.9561064114946043e+18
14302.0	1.9556470697754621e+18
14303.0	1.9552083908755456e+18
14304.0	1.9548082257526781e+18
14305.0	1.9544029553229821e+18
14306.0	1.953932958393958e+18
14307.0	1.953532917422489e+18
14308.0	1.9531375623274493e+18
14309.0	1.952693303325491e+18
14310.0	1.952060364396953e+18
14311.0	1.9512500517076987e+18
14312.0	1.951294934115942e+18
14313.0	1.9509967627223037e+18
14314.0	1.9506434513305597e+18
14315.0	1.9502714853523456e+18
14316.0	1.949835489129267e+18
14317.0	1.9493670323486715e+18
14318.0	1.9490567880703997e+18
14319.0	1.9486494758535163e+18
14320.0	1.9482397997268987e+18
14321.0	1.9478304742440955e+18
14322.0	1.9473926425935864e+18
14323.0	1.9469964788367355e+18
14324.0	1.9465986121924605e+18
14325.0	1.946183215035187e+18
14326.0	1.945780437699789e+18
14327.0	1.945365567347097e+18
14328.0	1.944955837533388e+18
14329.0	1.9445503842320381e+18
14330.0	1.944140337328947e+18
14331.0	1.943719710713446e+18
14332.0	1.9433206897967096e+18
14333.0	1.9429109398503421e+18
14334.0	1.9425012016480248e+18
14335.0	1.9420817813143547e+18
14336.0	1.9414467938877437e+18
14337.0	1.9412718696005627e+18
14338.0	1.940861455276441e+18
14339.0	1.9404395720474621e+18
14340.0	1.9400420107485181e+18
14341.0	1.9396178424627197e+18
14342.0	1.9391708621963261e+18
14343.0	1.9387373355794427e+18
14344.0	1.9383254666706944e+18
14345.0	1.9379207062683645e+18
14346.0	1.9375005561257981e+18
14347.0	1.9370092621987837e+18
14348.0	1.9366864316530688e+18
14349.0	1.9362854310248443e+18
14350.0	1.9356932271767544e+18
14351.0	1.935268443167129e+18
14352.0	1.9350560486457341e+18
14353.0	1.934652836780441e+18
14354.0	1.9342215868317693e+18
14355.0	1.933768316787097e+18
14356.0	1.9333762735144955e+18
14357.0	1.933021299500646e+18
14358.0	1.9326132675411965e+18
14359.0	1.9321945283624955e+18
14360.0	1.9317811696369664e+18
14361.0	1.9313824507101181e+18
14362.0	1.9309819953414141e+18
14363.0	1.930573523818905e+18
14364.0	1.9295827671384061e+18
14365.0	1.9296296426799094e+18
14366.0	1.9292508198535163e+18
14367.0	1.928945363792691e+18
14368.0	1.928537768040857e+18
14369.0	1.928130871898931e+18
14370.0	1.9277241787613181e+18
14371.0	1.927317906731827e+18
14372.0	1.9269060009132032e+18
14373.0	1.9265004704366587e+18
14374.0	1.9260965354733558e+18
14375.0	1.9256890370293755e+18
14376.0	1.9252830535679997e+18
14377.0	1.9248758705356797e+18
14378.0	1.9244677312020477e+18
14379.0	1.9240629791883261e+18
14380.0	1.9236554337681403e+18
14381.0	1.9232416925220861e+18
14382.0	1.922842411558502e+18
14383.0	1.922431171795353e+18
14384.0	1.9220168618016763e+18
14385.0	1.921624788330086e+18
14386.0	1.9212078459912187e+18
14387.0	1.92063635193856e+18
14388.0	1.9201341159112704e+18
14389.0	1.919729471271731e+18
14390.0	1.9193225013100541e+18
14391.0	1.918868439380787e+18
14392.0	1.918435877453823e+18
14393.0	1.9180317948510205e+18
14394.0	1.9175982917222392e+18
14395.0	1.917189274940211e+18
14396.0	1.9168130190278653e+18
14397.0	1.916409266936217e+18
14398.0	1.9160025838649341e+18
14399.0	1.9155963017691133e+18
14400.0	1.9151711788597243e+18
14401.0	1.9147814491652093e+18
14402.0	1.9143797438939133e+18
14403.0	1.9124580580851692e+18
14404.0	1.909031118779186e+18
14405.0	1.9120230248742886e+18
14406.0	1.9127589708759037e+18
14407.0	1.9102397208985603e+18
14408.0	1.9118758148702203e+18
14409.0	1.9115334204129275e+18
14410.0	1.9110984878653437e+18
14411.0	1.9107347779551232e+18
14412.0	1.9103309503660027e+18
14413.0	1.9099289414270973e+18
14414.0	1.9095225418907645e+18
14415.0	1.9091188401307645e+18
14416.0	1.9086918364954621e+18
14417.0	1.90824338990039e+18
14418.0	1.9078211811934205e+18
14419.0	1.9074997800665083e+18
14420.0	1.907093709363609e+18
14421.0	1.9066921668313083e+18
14422.0	1.9062821769707512e+18
14423.0	1.905840536892211e+18
14424.0	1.8967314934267863e+18
14425.0	1.9050581431681024e+18
14426.0	1.9046716950970363e+18
14427.0	1.9042702045741053e+18
14428.0	1.9038514570067965e+18
14429.0	1.90345961841623e+18
14430.0	1.903058424850022e+18
14431.0	1.9016618424139773e+18
14432.0	1.902244741618073e+18
14433.0	1.900263479915314e+18
14434.0	1.9014302597906427e+18
14435.0	1.9009045172060152e+18
14436.0	1.9006372695769088e+18
14437.0	1.9002367085117437e+18
14438.0	1.8996976230072317e+18
14439.0	1.8994110681579515e+18
14440.0	1.899027458791833e+18
14441.0	1.898619844585062e+18
14442.0	1.8982140456730621e+18
14443.0	1.8977830457049083e+18
14444.0	1.8974127138275325e+18
14445.0	1.8970126208466941e+18
14446.0	1.8945931231625224e+18
14447.0	1.89613992879063e+18
14448.0	1.8957336215289856e+18
14449.0	1.89533093143511e+18
14450.0	1.894923949729382e+18
14451.0	1.8945235597918203e+18
14452.0	1.8941190829244413e+18
14453.0	1.8936899636822013e+18
14454.0	1.8933130668802045e+18
14455.0	1.8929067126423547e+18
14456.0	1.8924912483762173e+18
14457.0	1.892089897104179e+18
14458.0	1.8916825613991933e+18
14459.0	1.891273886872371e+18
14460.0	1.8908442576027645e+18
14461.0	1.8902892605865981e+18
14462.0	1.8894210363031547e+18
14463.0	1.8895783713570813e+18
14464.0	1.8892519706198013e+18
14465.0	1.8888551626178555e+18
14466.0	1.8884776735801341e+18
14467.0	1.888048311068262e+18
14468.0	1.8876774674857981e+18
14469.0	1.8871866533871613e+18
14470.0	1.8868545987280893e+18
14471.0	1.8864713349726203e+18
14472.0	1.886073632745062e+18
14473.0	1.8856747326242816e+18
14474.0	1.8852767351177216e+18
14475.0	1.884871718023987e+18
14476.0	1.8843708912828416e+18
14477.0	1.8840684333105147e+18
14478.0	1.8836722661982203e+18
14479.0	1.883264358390169e+18
14480.0	1.8828551033716733e+18
14481.0	1.882468849916313e+18
14482.0	1.8820647522140155e+18
14483.0	1.88165871674327e+18
14484.0	1.8812574241914875e+18
14485.0	1.8808371582861312e+18
14486.0	1.8802449510825981e+18
14487.0	1.880049748174438e+18
14488.0	1.8795424303284221e+18
14489.0	1.8791611748057083e+18
14490.0	1.878838966694707e+18
14491.0	1.8784575064899581e+18
14492.0	1.8780563162791933e+18
14493.0	1.8776398336360445e+18
14494.0	1.877235348380057e+18
14495.0	1.8768539670282237e+18
14496.0	1.8763550495342595e+18
14497.0	1.8760525697515515e+18
14498.0	1.8756525757562877e+18
14499.0	1.875252190851891e+18
14500.0	1.8748511499583483e+18
14501.0	1.8744003595862008e+18
14502.0	1.8738096975642621e+18
14503.0	1.8736063140855803e+18
14504.0	1.8732437517369341e+18
14505.0	1.872800014506393e+18
14506.0	1.872351242433331e+18
14507.0	1.871866565440307e+18
14508.0	1.8716459249172475e+18
14509.0	1.871245506458419e+18
14510.0	1.8708428381749245e+18
14511.0	1.8704245318483965e+18
14512.0	1.8699642875150333e+18
14513.0	1.8695752943403003e+18
14514.0	1.8691475525074944e+18
14515.0	1.8687730531696637e+18
14516.0	1.866714760557364e+18
14517.0	1.8679706308050941e+18
14518.0	1.867571858191155e+18
14519.0	1.867171453154099e+18
14520.0	1.8667708501458944e+18
14521.0	1.866369463641702e+18
14522.0	1.865957831291699e+18
14523.0	1.865362268644966e+18
14524.0	1.8650554032979963e+18
14525.0	1.864763531748966e+18
14526.0	1.8643643749367805e+18
14527.0	1.8639469192151037e+18
14528.0	1.8634631364476925e+18
14529.0	1.8631577072304123e+18
14530.0	1.8627527354351608e+18
14531.0	1.8623634889244664e+18
14532.0	1.8618193836769275e+18
14533.0	1.8615633801379835e+18
14534.0	1.8611649380351992e+18
14535.0	1.8607562853187581e+18
14536.0	1.8603639450894333e+18
14537.0	1.8599545457868797e+18
14538.0	1.8595634537824253e+18
14539.0	1.8591632098066427e+18
14540.0	1.8587627879923707e+18
14541.0	1.858344825598771e+18
14542.0	1.857959793524736e+18
14543.0	1.8574865250385917e+18
14544.0	1.857159322350387e+18
14545.0	1.8567489885569021e+18
14546.0	1.846443553429909e+18
14547.0	1.846937028395002e+18
14548.0	1.8555453222944763e+18
14549.0	1.8550679752671227e+18
14550.0	1.854751530129817e+18
14551.0	1.854355916665651e+18
14552.0	1.853953917793075e+18
14553.0	1.853549318452019e+18
14554.0	1.8531536714334205e+18
14555.0	1.8527522681520128e+18
14556.0	1.8523489170358264e+18
14557.0	1.8519500588580861e+18
14558.0	1.8515463252213752e+18
14559.0	1.8498764654247916e+18
14560.0	1.8506939654733821e+18
14561.0	1.8503390770233344e+18
14562.0	1.84990452196311e+18
14563.0	1.8495336850915323e+18
14564.0	1.8490461828153341e+18
14565.0	1.8487421863723005e+18
14566.0	1.8483414407577597e+18
14567.0	1.847931715977216e+18
14568.0	1.8474257218535421e+18
14569.0	1.8471290838974456e+18
14570.0	1.8463138101854205e+18
14571.0	1.8463301058953213e+18
14572.0	1.8458483280052221e+18
14573.0	1.845475945952051e+18
14574.0	1.8449062839713784e+18
14575.0	1.8446901699411965e+18
14576.0	1.8442905702105083e+18
14577.0	1.8439229897965563e+18
14578.0	1.8435226199916541e+18
14579.0	1.8431246543618045e+18
14580.0	1.8427216756998141e+18
14581.0	1.8423096541184e+18
14582.0	1.841904126997299e+18
14583.0	1.8415176319500283e+18
14584.0	1.8410708563656704e+18
14585.0	1.8407141056446467e+18
14586.0	1.840310803182387e+18
14587.0	1.8399091532759037e+18
14588.0	1.8395088371580928e+18
14589.0	1.8391093129248765e+18
14590.0	1.8386613981675517e+18
14591.0	1.8382571863801853e+18
14592.0	1.8378674751406077e+18
14593.0	1.837394901231206e+18
14594.0	1.837088720394649e+18
14595.0	1.8366909745463293e+18
14596.0	1.8357876456161272e+18
14597.0	1.8352933720555512e+18
14598.0	1.8354561328611325e+18
14599.0	1.8351174629457917e+18
14600.0	1.834706827162419e+18
14601.0	1.8343189547057147e+18
14602.0	1.833891588682547e+18
14603.0	1.833526523173273e+18
14604.0	1.8330641967874045e+18
14605.0	1.8326269355622397e+18
14606.0	1.8322851467624445e+18
14607.0	1.8319478978772987e+18
14608.0	1.8315572253032443e+18
14609.0	1.8311385934987261e+18
14610.0	1.8305950704205821e+18
14611.0	1.8303325254451192e+18
14612.0	1.829978722480947e+18
14613.0	1.8295923700400128e+18
14614.0	1.8291980937199613e+18
14615.0	1.8287994452574203e+18
14616.0	1.8284130206744576e+18
14617.0	1.8280177192665085e+18
14618.0	1.8275636506263547e+18
14619.0	1.826803723272191e+18
14620.0	1.825460577946829e+18
14621.0	1.826433898066739e+18
14622.0	1.8260365615824893e+18
14623.0	1.825642483233587e+18
14624.0	1.82520187495383e+18
14625.0	1.8248460167806976e+18
14626.0	1.8244483279749115e+18
14627.0	1.8240467451772923e+18
14628.0	1.8236561296457728e+18
14629.0	1.8232575969460221e+18
14630.0	1.8228465987747835e+18
14631.0	1.82246123283415e+18
14632.0	1.8213834258907133e+18
14633.0	1.8215276545835003e+18
14634.0	1.8212456748810237e+18
14635.0	1.8203485585539057e+18
14636.0	1.8193061347590136e+18
14637.0	1.8200695551295485e+18
14638.0	1.8196375032299515e+18
14639.0	1.8192328552349693e+18
14640.0	1.8188656573415421e+18
14641.0	1.8157920915029996e+18
14642.0	1.8180624229597181e+18
14643.0	1.817661653857075e+18
14644.0	1.8172467281395707e+18
14645.0	1.8168428099534845e+18
14646.0	1.8163903955468285e+18
14647.0	1.815934132446822e+18
14648.0	1.815624047552102e+18
