# Flux units: erg / (cm m2 s)
# Wavelength units: Angstrom
wave	flux
14000.0	2.048118858186751e+18
14001.0	2.0481762547204093e+18
14002.0	2.0478966557048824e+18
14003.0	2.047509320119091e+18
14004.0	2.047112228582195e+18
14005.0	2.046722097912217e+18
14006.0	2.046319815504691e+18
14007.0	2.0459211452317693e+18
14008.0	2.0454379077238784e+18
14009.0	2.0451327804964861e+18
14010.0	2.0447270168166397e+18
14011.0	2.043766314840883e+18
14012.0	2.043946267259699e+18
14013.0	2.043556717081395e+18
14014.0	2.043156057030656e+18
14015.0	2.0427644617097216e+18
14016.0	2.042371208799846e+18
14017.0	2.0419761221402621e+18
14018.0	2.0415740964241403e+18
14019.0	2.0411855797223424e+18
14020.0	2.0407894981738493e+18
14021.0	2.0403927388258301e+18
14022.0	2.0399830694100992e+18
14023.0	2.039570106626867e+18
14024.0	2.0391790364327933e+18
14025.0	2.038809088753664e+18
14026.0	2.038416941462323e+18
14027.0	2.0380229235113984e+18
14028.0	2.0376171111776253e+18
14029.0	2.0372005027053563e+18
14030.0	2.0320492363710497e+18
14031.0	2.0361318175342584e+18
14032.0	2.0360253828759552e+18
14033.0	2.0355892675346427e+18
14034.0	2.0352516529061888e+18
14035.0	2.0348700450619384e+18
14036.0	2.034461998002995e+18
14037.0	2.0340875590631421e+18
14038.0	2.0336949738864635e+18
14039.0	2.0332978588614653e+18
14040.0	2.032904730102988e+18
14041.0	2.032514463537561e+18
14042.0	2.0321131391090683e+18
14043.0	2.031693639922483e+18
14044.0	2.0313233399218173e+18
14045.0	2.0309376686358525e+18
14046.0	2.0305463434280955e+18
14047.0	2.0301341909843965e+18
14048.0	2.029762454854041e+18
14049.0	2.02937451193303e+18
14050.0	2.028982876346777e+18
14051.0	2.0285828890623997e+18
14052.0	2.0281942968631293e+18
14053.0	2.0278069260451835e+18
14054.0	2.027415255226777e+18
14055.0	2.0270234803896315e+18
14056.0	2.026631735751475e+18
14057.0	2.0262401337196544e+18
14058.0	2.0258485333655552e+18
14059.0	2.0254426086244347e+18
14060.0	2.025065337690521e+18
14061.0	2.0246677914910712e+18
14062.0	2.0242818433810424e+18
14063.0	2.0238683118501888e+18
14064.0	2.0226500326326275e+18
14065.0	2.0230988533596152e+18
14066.0	2.0227182236270587e+18
14067.0	2.0222931158171645e+18
14068.0	2.0219371267817472e+18
14069.0	2.0215346178818045e+18
14070.0	2.02115204031447e+18
14071.0	2.020763085727334e+18
14072.0	2.0203756075352061e+18
14073.0	2.0199851480317947e+18
14074.0	2.0195940375724027e+18
14075.0	2.0191826434588672e+18
14076.0	2.018771895268147e+18
14077.0	2.0173379583606787e+18
14078.0	2.0179393745780733e+18
14079.0	2.0176289776271355e+18
14080.0	2.0172542887067643e+18
14081.0	2.0168660068859896e+18
14082.0	2.016475116208128e+18
14083.0	2.0160843513593853e+18
14084.0	2.0156839563886587e+18
14085.0	2.014585629232332e+18
14086.0	2.0148137540714493e+18
14087.0	2.0145207332831227e+18
14088.0	2.014116526528921e+18
14089.0	2.0137253154062333e+18
14090.0	2.013351465346662e+18
14091.0	2.0129749997191165e+18
14092.0	2.012587833583206e+18
14093.0	2.0121989242945528e+18
14094.0	2.0118084933124086e+18
14095.0	2.0114113229225981e+18
14096.0	2.010853946897203e+18
14097.0	2.0105585269669888e+18
14098.0	2.010166562547302e+18
14099.0	2.0098625426161661e+18
14100.0	2.009470350026342e+18
14101.0	2.0090957013712893e+18
14102.0	2.0087085369131005e+18
14103.0	2.008307769488179e+18
14104.0	2.0079313088937981e+18
14105.0	2.0075467918802936e+18
14106.0	2.007159486493491e+18
14107.0	2.006766565772492e+18
14108.0	2.0063658570678264e+18
14109.0	2.005991119493529e+18
14110.0	2.0056044180865021e+18
14111.0	2.0052121600655355e+18
14112.0	2.004823302786252e+18
14113.0	2.0044255015731197e+18
14114.0	2.0040370905677821e+18
14115.0	2.0036395594678272e+18
14116.0	2.00304275530711e+18
14117.0	1.9944455511474191e+18
14118.0	2.0024047966355448e+18
14119.0	2.0019669985394683e+18
14120.0	2.0016178227314688e+18
14121.0	2.0013027801694203e+18
14122.0	2.000883707124121e+18
14123.0	2.000495970562867e+18
14124.0	2.0001046822649853e+18
14125.0	1.999355540982988e+18
14126.0	1.999403327527321e+18
14127.0	1.9990346549166075e+18
14128.0	1.998655874033254e+18
14129.0	1.998261455106867e+18
14130.0	1.9978682525286397e+18
14131.0	1.9975019807375355e+18
14132.0	1.9971065467895808e+18
14133.0	1.996215797415935e+18
14134.0	1.9963351471751165e+18
14135.0	1.995922065273651e+18
14136.0	1.9954956438077437e+18
14137.0	1.99515742184407e+18
14138.0	1.9947294015094781e+18
14139.0	1.994417214429593e+18
14140.0	1.9940211999899643e+18
14141.0	1.9935019619319805e+18
14142.0	1.9927501463617536e+18
14143.0	1.9928581916327933e+18
14144.0	1.992501429167718e+18
14145.0	1.9921222892519424e+18
14146.0	1.9917225083273216e+18
14147.0	1.9913495709483003e+18
14148.0	1.9909596919365627e+18
14149.0	1.990579953074176e+18
14150.0	1.9902117636472832e+18
14151.0	1.9898067197100024e+18
14152.0	1.9894461957931005e+18
14153.0	1.9890631081983997e+18
14154.0	1.988654178657894e+18
14155.0	1.9881430305734653e+18
14156.0	1.987891952825139e+18
14157.0	1.9875307175542781e+18
14158.0	1.987144459065753e+18
14159.0	1.986766191565209e+18
14160.0	1.9863729571102715e+18
14161.0	1.985944285819699e+18
14162.0	1.9855127087153147e+18
14163.0	1.985207873411481e+18
14164.0	1.9846252795527165e+18
14165.0	1.9844125025107963e+18
14166.0	1.984083008054886e+18
14167.0	1.9836916945911805e+18
14168.0	1.983318576018227e+18
14169.0	1.9829370772258816e+18
14170.0	1.982557762827059e+18
14171.0	1.9821809633329152e+18
14172.0	1.9818025381265405e+18
14173.0	1.9813931522457597e+18
14174.0	1.9810310563037181e+18
14175.0	1.9806536930951165e+18
14176.0	1.9802774204055547e+18
14177.0	1.9798974248517627e+18
14178.0	1.9795161726844928e+18
14179.0	1.97913048294359e+18
14180.0	1.9787551615221755e+18
14181.0	1.9783741996007421e+18
14182.0	1.9779922092359677e+18
14183.0	1.977610752386662e+18
14184.0	1.977220735801753e+18
14185.0	1.9768174937374717e+18
14186.0	1.9749670339215363e+18
14187.0	1.9759871473745915e+18
14188.0	1.9756973343899643e+18
14189.0	1.9753145286524925e+18
14190.0	1.9749371436335096e+18
14191.0	1.9745508985667581e+18
14192.0	1.9741704936488955e+18
14193.0	1.9735538705629181e+18
14194.0	1.9734176211140603e+18
14195.0	1.9730531293855741e+18
14196.0	1.972675343391129e+18
14197.0	1.972296295750041e+18
14198.0	1.971911671362355e+18
14199.0	1.971530382285209e+18
14200.0	1.970215464625767e+18
14201.0	1.9706809837158392e+18
14202.0	1.9703942845825021e+18
14203.0	1.9700163425599483e+18
14204.0	1.9696421032689656e+18
14205.0	1.9692629818081277e+18
14206.0	1.9687673291603965e+18
14207.0	1.9685070138769403e+18
14208.0	1.9681308619833341e+18
14209.0	1.967624802428518e+18
14210.0	1.9672812536987645e+18
14211.0	1.9669920228835325e+18
14212.0	1.96661925159895e+18
14213.0	1.9662375296696315e+18
14214.0	1.9658544571744253e+18
14215.0	1.9653697566932987e+18
14216.0	1.9650092159991805e+18
14217.0	1.964631804136652e+18
14218.0	1.9642416483008507e+18
14219.0	1.963875985522688e+18
14220.0	1.9634884066672637e+18
14221.0	1.9631109193072637e+18
14222.0	1.9626706163728381e+18
14223.0	1.96234409148416e+18
14224.0	1.9619522596044792e+18
14225.0	1.9587124651098127e+18
14226.0	1.9611253357936635e+18
14227.0	1.960811830024601e+18
14228.0	1.9535090384109586e+18
14229.0	1.9586966475505613e+18
14230.0	1.9596949539782653e+18
14231.0	1.9592795635318781e+18
14232.0	1.9589512736800765e+18
14233.0	1.9584757000044541e+18
14234.0	1.958102462313267e+18
14235.0	1.9577238273916925e+18
14236.0	1.9573497021857787e+18
14237.0	1.9569679114698747e+18
14238.0	1.9565909408481277e+18
14239.0	1.956196889342771e+18
14240.0	1.954342295620813e+18
14241.0	1.9554203860991992e+18
14242.0	1.9550730943725565e+18
14243.0	1.9545676069208061e+18
14244.0	1.9543390693621755e+18
14245.0	1.9539538695159805e+18
14246.0	1.9535770045906936e+18
14247.0	1.9532084410318845e+18
14248.0	1.952822630495027e+18
14249.0	1.952457085157376e+18
14250.0	1.9520839397408763e+18
14251.0	1.9517100695486461e+18
14252.0	1.9513153352105984e+18
14253.0	1.9508488195538941e+18
14254.0	1.950463592864153e+18
14255.0	1.9500219192311805e+18
14256.0	1.9466967169630223e+18
14257.0	1.948878278492159e+18
14258.0	1.9489449947693056e+18
14259.0	1.9485660679241725e+18
14260.0	1.9481138649104384e+18
14261.0	1.9478047094734843e+18
14262.0	1.9474253933969403e+18
14263.0	1.9427175438483476e+18
14264.0	1.945368357398117e+18
14265.0	1.9463142920683515e+18
14266.0	1.9459870440816637e+18
14267.0	1.945622456723046e+18
14268.0	1.945247796323942e+18
14269.0	1.9448678175473661e+18
14270.0	1.9445003629625344e+18
14271.0	1.944118728274739e+18
14272.0	1.9437230862893048e+18
14273.0	1.9432241889279997e+18
14274.0	1.9359834663026706e+18
14275.0	1.941626003075891e+18
14276.0	1.9420830479941632e+18
14277.0	1.9417535971590144e+18
14278.0	1.9414014501060605e+18
14279.0	1.9410315208818688e+18
14280.0	1.9406552716804093e+18
14281.0	1.9402897364090875e+18
14282.0	1.9399172989911037e+18
14283.0	1.939544150219161e+18
14284.0	1.9391705216188408e+18
14285.0	1.9387955407749115e+18
14286.0	1.9384192177537021e+18
14287.0	1.9380489680846843e+18
14288.0	1.9376696872402941e+18
14289.0	1.9363389822205932e+18
14290.0	1.9369238611361787e+18
14291.0	1.936556490437427e+18
14292.0	1.9361824826720253e+18
14293.0	1.9358083708878845e+18
14294.0	1.9353055661129725e+18
14295.0	1.935042623517491e+18
14296.0	1.9339140621402115e+18
14297.0	1.934286449226547e+18
14298.0	1.933046639807692e+18
14299.0	1.9335261393518587e+18
14300.0	1.933180075717427e+18
14301.0	1.932713717766553e+18
14302.0	1.9323417283002363e+18
14303.0	1.931931681397145e+18
14304.0	1.9315739844411395e+18
14305.0	1.931208778003251e+18
14306.0	1.9307839554060283e+18
14307.0	1.930406546898944e+18
14308.0	1.930047811433267e+18
14309.0	1.9296319227035645e+18
14310.0	1.9291119548366845e+18
14311.0	1.9285416653881341e+18
14312.0	1.9283693214367741e+18
14313.0	1.9280637630349312e+18
14314.0	1.9277938595725307e+18
14315.0	1.9274671300018173e+18
14316.0	1.9270620491546621e+18
14317.0	1.9266595033448443e+18
14318.0	1.9263820602015744e+18
14319.0	1.9260238146306043e+18
14320.0	1.9256569824804861e+18
14321.0	1.9252863804899325e+18
14322.0	1.9248835024912381e+18
14323.0	1.9245312212205565e+18
14324.0	1.924182402767257e+18
14325.0	1.9238037158363133e+18
14326.0	1.923444752200499e+18
14327.0	1.923068187587379e+18
14328.0	1.922663326521753e+18
14329.0	1.922226801816371e+18
14330.0	1.9218567668957184e+18
14331.0	1.9214806284238843e+18
14332.0	1.9211164806283261e+18
14333.0	1.920746244381081e+18
14334.0	1.9203755098505216e+18
14335.0	1.9199874125791227e+18
14336.0	1.9193279992037373e+18
14337.0	1.9192598635741181e+18
14338.0	1.918892414022451e+18
14339.0	1.9185103280275453e+18
14340.0	1.918150599350681e+18
14341.0	1.9177702749634555e+18
14342.0	1.9174135712186365e+18
14343.0	1.9170448482762747e+18
14344.0	1.9166671327461373e+18
14345.0	1.9163016226406397e+18
14346.0	1.915920061772595e+18
14347.0	1.9154863657058304e+18
14348.0	1.915178268911206e+18
14349.0	1.9148216691851261e+18
14350.0	1.9141988234297336e+18
14351.0	1.9138207589335035e+18
14352.0	1.9137108094484475e+18
14353.0	1.9133520370728955e+18
14354.0	1.912953235937689e+18
14355.0	1.9125233835311104e+18
14356.0	1.91217215251415e+18
14357.0	1.9118799705866237e+18
14358.0	1.9115136937623547e+18
14359.0	1.9111293663313915e+18
14360.0	1.9107266879815675e+18
14361.0	1.9102862994833403e+18
14362.0	1.9099279767371773e+18
14363.0	1.909551544664064e+18
14364.0	1.9084200539848704e+18
14365.0	1.9085878177562616e+18
14366.0	1.9083121697751037e+18
14367.0	1.9080875899617277e+18
14368.0	1.9077210447020027e+18
14369.0	1.907354069945548e+18
14370.0	1.906986989492633e+18
14371.0	1.9066203167260672e+18
14372.0	1.9062464700219387e+18
14373.0	1.9058790791905275e+18
14374.0	1.905516280283136e+18
14375.0	1.9051470892564475e+18
14376.0	1.90478090806231e+18
14377.0	1.9044125340860413e+18
14378.0	1.9040428665864187e+18
14379.0	1.9036777708781565e+18
14380.0	1.9033092844945405e+18
14381.0	1.9029303408721915e+18
14382.0	1.9025736320942075e+18
14383.0	1.902205107122995e+18
14384.0	1.9018210699378683e+18
14385.0	1.901473276572467e+18
14386.0	1.9010870348611581e+18
14387.0	1.9007384831655933e+18
14388.0	1.9003699380617216e+18
14389.0	1.9000039581941755e+18
14390.0	1.8996354516779003e+18
14391.0	1.8992705354858493e+18
14392.0	1.898902708446822e+18
14393.0	1.8985367872995325e+18
14394.0	1.8981293475758077e+18
14395.0	1.8977862887407613e+18
14396.0	1.8974355929169915e+18
14397.0	1.897009513706291e+18
14398.0	1.896592406950707e+18
14399.0	1.8962247040630781e+18
14400.0	1.8958379590352893e+18
14401.0	1.895481421384908e+18
14402.0	1.8951125474476032e+18
14403.0	1.89409438854021e+18
14404.0	1.8909413943279593e+18
14405.0	1.8923649897594844e+18
14406.0	1.893633820406579e+18
14407.0	1.8924005390024704e+18
14408.0	1.8928672509526008e+18
14409.0	1.8925369612566525e+18
14410.0	1.8921345714749437e+18
14411.0	1.891822214945177e+18
14412.0	1.8914573910278141e+18
14413.0	1.891095097114624e+18
14414.0	1.8907262416322555e+18
14415.0	1.8903604647690235e+18
14416.0	1.8899827140067325e+18
14417.0	1.889575067923251e+18
14418.0	1.88918683140096e+18
14419.0	1.8888879117434877e+18
14420.0	1.888520970541465e+18
14421.0	1.8881559973068797e+18
14422.0	1.8877714366726144e+18
14423.0	1.8873025101299707e+18
14424.0	1.8832755655704556e+18
14425.0	1.8866196690501632e+18
14426.0	1.8863212761972733e+18
14427.0	1.885965928051507e+18
14428.0	1.8855802668318715e+18
14429.0	1.8852344162680832e+18
14430.0	1.8848465454891003e+18
14431.0	1.8831681712553984e+18
14432.0	1.8841224995667965e+18
14433.0	1.883091850022092e+18
14434.0	1.8833781196587003e+18
14435.0	1.8829068879265787e+18
14436.0	1.882672287082086e+18
14437.0	1.8823197541531645e+18
14438.0	1.8817276526460925e+18
14439.0	1.881441317578342e+18
14440.0	1.8811006243307517e+18
14441.0	1.8807293160194045e+18
14442.0	1.8803588113367037e+18
14443.0	1.8799506803916792e+18
14444.0	1.8796119081353213e+18
14445.0	1.8792463359541245e+18
14446.0	1.8775455356157957e+18
14447.0	1.8784882624823293e+18
14448.0	1.8781566725521405e+18
14449.0	1.8777912882757627e+18
14450.0	1.8774220670500861e+18
14451.0	1.8770582665428987e+18
14452.0	1.876694397249126e+18
14453.0	1.8763205606113275e+18
14454.0	1.8759562735648765e+18
14455.0	1.875585136381132e+18
14456.0	1.8752097495285752e+18
14457.0	1.8748489622093821e+18
14458.0	1.8744726895198203e+18
14459.0	1.874087063532339e+18
14460.0	1.8736791758569464e+18
14461.0	1.873168584776089e+18
14462.0	1.872578159312896e+18
14463.0	1.872513293562675e+18
14464.0	1.8722448849502205e+18
14465.0	1.8718928083615744e+18
14466.0	1.871565770090086e+18
14467.0	1.871188809534668e+18
14468.0	1.8708480038797307e+18
14469.0	1.8703912877948925e+18
14470.0	1.8700874742235133e+18
14471.0	1.8697673817194493e+18
14472.0	1.869410119293337e+18
14473.0	1.869052531389235e+18
14474.0	1.8686962453970941e+18
14475.0	1.868331080902246e+18
14476.0	1.8679274563174397e+18
14477.0	1.8676015018541053e+18
14478.0	1.867243905561395e+18
14479.0	1.8668759325605883e+18
14480.0	1.8665000558133243e+18
14481.0	1.866159543759667e+18
14482.0	1.86579246162903e+18
14483.0	1.8654235876917243e+18
14484.0	1.8650567035322363e+18
14485.0	1.8646650947895293e+18
14486.0	1.8640370229313536e+18
14487.0	1.8639584787169275e+18
14488.0	1.8634446328561661e+18
14489.0	1.8630254943797243e+18
14490.0	1.862760224784384e+18
14491.0	1.86242598740951e+18
14492.0	1.8620643494854653e+18
14493.0	1.8616756180353021e+18
14494.0	1.8613129919332347e+18
14495.0	1.86097073169367e+18
14496.0	1.860474708269465e+18
14497.0	1.8602482426970107e+18
14498.0	1.8598884334895104e+18
14499.0	1.8595259952922621e+18
14500.0	1.859162547106611e+18
14501.0	1.8587720372715515e+18
14502.0	1.8581840898031616e+18
14503.0	1.8580406647390205e+18
14504.0	1.8577051002863613e+18
14505.0	1.857328005513216e+18
14506.0	1.8569447971225592e+18
14507.0	1.8563699761479677e+18
14508.0	1.856260063572787e+18
14509.0	1.8559003801944061e+18
14510.0	1.8555349422309376e+18
14511.0	1.855174943440896e+18
14512.0	1.854797479568998e+18
14513.0	1.8544486292389883e+18
14514.0	1.8540534956031997e+18
14515.0	1.8537127469907963e+18
14516.0	1.8508984159830031e+18
14517.0	1.8529654159704061e+18
14518.0	1.852635757097779e+18
14519.0	1.8522730689200128e+18
14520.0	1.8519138083274747e+18
14521.0	1.851551309732249e+18
14522.0	1.8511780233871352e+18
14523.0	1.8506836122533883e+18
14524.0	1.8504055919738877e+18
14525.0	1.8500962469543933e+18
14526.0	1.8497348774658043e+18
14527.0	1.84935480641454e+18
14528.0	1.8488803215802365e+18
14529.0	1.8486450764906493e+18
14530.0	1.84827662869463e+18
14531.0	1.8479308083298304e+18
14532.0	1.8475163288862715e+18
14533.0	1.8472083293995005e+18
14534.0	1.8468496442654717e+18
14535.0	1.8464758512484347e+18
14536.0	1.8461215063801856e+18
14537.0	1.8457494078619645e+18
14538.0	1.8454026647502845e+18
14539.0	1.845041254996377e+18
14540.0	1.844679400646246e+18
14541.0	1.844292185856409e+18
14542.0	1.843952034512896e+18
14543.0	1.843553126003507e+18
14544.0	1.84312905334784e+18
14545.0	1.8427376375431165e+18
14546.0	1.838024451162109e+18
14547.0	1.837945750919574e+18
14548.0	1.8416473449955325e+18
14549.0	1.8411889042128893e+18
14550.0	1.8409445809717243e+18
14551.0	1.8405962591240187e+18
14552.0	1.8402341212389376e+18
14553.0	1.8398659871768576e+18
14554.0	1.8395120499949565e+18
14555.0	1.8391497460154363e+18
14556.0	1.838786448824729e+18
14557.0	1.838423282496307e+18
14558.0	1.8380472664981504e+18
14559.0	1.8358645842509793e+18
14560.0	1.8373089700085755e+18
14561.0	1.8369637452349435e+18
14562.0	1.836561714485657e+18
14563.0	1.8362203132395515e+18
14564.0	1.8357917946216443e+18
14565.0	1.835523844027187e+18
14566.0	1.8351656387215355e+18
14567.0	1.8347937968947197e+18
14568.0	1.8343989283389437e+18
14569.0	1.8340651892473853e+18
14570.0	1.8331827798278136e+18
14571.0	1.8333441128923133e+18
14572.0	1.8329304739872765e+18
14573.0	1.8325506294284285e+18
14574.0	1.8320846657421307e+18
14575.0	1.831841005200998e+18
14576.0	1.8314820751196155e+18
14577.0	1.8311785299836923e+18
14578.0	1.83081986162688e+18
14579.0	1.8304653087211517e+18
14580.0	1.8301011072385021e+18
14581.0	1.8297279752437752e+18
14582.0	1.8293551032958976e+18
14583.0	1.8290192871849981e+18
14584.0	1.8285970885443581e+18
14585.0	1.8282913288159227e+18
14586.0	1.8279331788750843e+18
14587.0	1.8275743293243395e+18
14588.0	1.827213258470195e+18
14589.0	1.8268550078660603e+18
14590.0	1.8264967723614203e+18
14591.0	1.8261280695517181e+18
14592.0	1.825763143293337e+18
14593.0	1.825297468175155e+18
14594.0	1.825058392847155e+18
14595.0	1.824688634750566e+18
14596.0	1.823622513138072e+18
14597.0	1.8231064375853043e+18
14598.0	1.8235289046614008e+18
14599.0	1.8232578670592e+18
14600.0	1.822887768385126e+18
14601.0	1.8225306535985147e+18
14602.0	1.822151854260224e+18
14603.0	1.8218049366654968e+18
14604.0	1.8213745574543355e+18
14605.0	1.820980167049216e+18
14606.0	1.8206407471923192e+18
14607.0	1.8203679496601597e+18
14608.0	1.8200030737334272e+18
14609.0	1.819525636109107e+18
14610.0	1.8190853868617728e+18
14611.0	1.818788327797555e+18
14612.0	1.818481254413107e+18
14613.0	1.818135873611366e+18
14614.0	1.817773994095411e+18
14615.0	1.8174205468082168e+18
14616.0	1.81706963288064e+18
14617.0	1.8166960646782968e+18
14618.0	1.8162921917906941e+18
14619.0	1.815273683917208e+18
14620.0	1.8137656001036288e+18
14621.0	1.8152548263264253e+18
14622.0	1.8149124067033085e+18
14623.0	1.814560744511897e+18
14624.0	1.8141436226568184e+18
14625.0	1.813840629491302e+18
14626.0	1.8134793153675261e+18
14627.0	1.8131194742833147e+18
14628.0	1.8127689764306941e+18
14629.0	1.8124067714367485e+18
14630.0	1.8120311497031675e+18
14631.0	1.8116840257486843e+18
14632.0	1.8110222098759675e+18
14633.0	1.8108998318292987e+18
14634.0	1.8105861616435197e+18
14635.0	1.810067755735448e+18
14636.0	1.8093459948699643e+18
14637.0	1.8095058767052797e+18
14638.0	1.8090993295294461e+18
14639.0	1.808729324807782e+18
14640.0	1.8084079270363133e+18
14641.0	1.806928305769676e+18
14642.0	1.8076810591862781e+18
14643.0	1.8073299137331197e+18
14644.0	1.8069494182182907e+18
14645.0	1.806585159693107e+18
14646.0	1.80619567997911e+18
14647.0	1.8057672251146235e+18
14648.0	1.8054679162257403e+18
14649.0	1.8051523200155643e+18
