# Flux units: erg / (cm m2 s)
# Wavelength units: Angstrom
wave	flux
14000.0	1.96672344817664e+18
14001.0	1.9662332212805627e+18
14002.0	1.9657561795985403e+18
14003.0	1.9652755559809021e+18
14004.0	1.9647935247548416e+18
14005.0	1.964312194816409e+18
14006.0	1.963827346695782e+18
14007.0	1.963343545473433e+18
14008.0	1.9628368282517501e+18
14009.0	1.9623814157565947e+18
14010.0	1.9618948110614525e+18
14011.0	1.961270319461171e+18
14012.0	1.960933221570969e+18
14013.0	1.960452604664217e+18
14014.0	1.959969162474291e+18
14015.0	1.959489119348326e+18
14016.0	1.9590076736471037e+18
14017.0	1.958527118816051e+18
14018.0	1.958042750523801e+18
14019.0	1.95756559475671e+18
14020.0	1.9570844376236027e+18
14021.0	1.9566042971897853e+18
14022.0	1.9561216535953405e+18
14023.0	1.955602881943961e+18
14024.0	1.9551483905179643e+18
14025.0	1.954683710288691e+18
14026.0	1.9542039003660283e+18
14027.0	1.9537224764751864e+18
14028.0	1.953243602721177e+18
14029.0	1.9527616788692987e+18
14030.0	1.9506926203174922e+18
14031.0	1.951794534442598e+18
14032.0	1.951326943366348e+18
14033.0	1.9508131562258432e+18
14034.0	1.9503704977702912e+18
14035.0	1.9498926927249403e+18
14036.0	1.949412069107302e+18
14037.0	1.9489129704194045e+18
14038.0	1.9484561301831677e+18
14039.0	1.947977533253222e+18
14040.0	1.9474975119376381e+18
14041.0	1.9470227318243328e+18
14042.0	1.9465438899470333e+18
14043.0	1.9460595719864315e+18
14044.0	1.945589789805772e+18
14045.0	1.9451138755526653e+18
14046.0	1.9446366208e+18
14047.0	1.9441530578141181e+18
14048.0	1.9436812237799421e+18
14049.0	1.9432087991877632e+18
14050.0	1.9427325879779325e+18
14051.0	1.942253353513779e+18
14052.0	1.9417789810868221e+18
14053.0	1.9413035131076605e+18
14054.0	1.9408291507470333e+18
14055.0	1.9403496595914747e+18
14056.0	1.9398782198218747e+18
14057.0	1.9394019465363453e+18
14058.0	1.9389273761382392e+18
14059.0	1.9384521178742781e+18
14060.0	1.9379778276556797e+18
14061.0	1.9375009940111355e+18
14062.0	1.9370292472184827e+18
14063.0	1.936550200659148e+18
14064.0	1.9358813618438141e+18
14065.0	1.935601741017907e+18
14066.0	1.9351274189225981e+18
14067.0	1.934596206965555e+18
14068.0	1.9341814137880573e+18
14069.0	1.9337036624297981e+18
14070.0	1.9332343802101755e+18
14071.0	1.9327599675179e+18
14072.0	1.9322868768702461e+18
14073.0	1.9318090332372987e+18
14074.0	1.93134343529431e+18
14075.0	1.9308638652858365e+18
14076.0	1.9303350239494144e+18
14077.0	1.929526029949337e+18
14078.0	1.9294229507342333e+18
14079.0	1.928978983655833e+18
14080.0	1.9285100202033147e+18
14081.0	1.9280381526147064e+18
14082.0	1.9275535897067517e+18
14083.0	1.9270942714757117e+18
14084.0	1.9266238718935037e+18
14085.0	1.925807160374067e+18
14086.0	1.9256512950042621e+18
14087.0	1.9252109333495805e+18
14088.0	1.9247320746950653e+18
14089.0	1.9242130748735483e+18
14090.0	1.923791401359769e+18
14091.0	1.9233289038462968e+18
14092.0	1.9228583264255997e+18
14093.0	1.9223886096760832e+18
14094.0	1.9219187889078264e+18
14095.0	1.9214477803126781e+18
14096.0	1.9208923068235773e+18
14097.0	1.920454463429017e+18
14098.0	1.9199762825740283e+18
14099.0	1.9195686432014333e+18
14100.0	1.91909178942423e+18
14101.0	1.9186319930425344e+18
14102.0	1.9181619776585725e+18
14103.0	1.9176913767497725e+18
14104.0	1.917225461717401e+18
14105.0	1.9167490340814845e+18
14106.0	1.9162897712152573e+18
14107.0	1.9157945279315963e+18
14108.0	1.91534539514839e+18
14109.0	1.9148846693089275e+18
14110.0	1.9144066411266045e+18
14111.0	1.913928312632115e+18
14112.0	1.9134782252253181e+18
14113.0	1.9129790862721024e+18
14114.0	1.9125080105680893e+18
14115.0	1.9120765559373821e+18
14116.0	1.9114754551316475e+18
14117.0	1.9086907140997128e+18
14118.0	1.9106796396347387e+18
14119.0	1.9101706239344637e+18
14120.0	1.909706401723187e+18
14121.0	1.90927619531735e+18
14122.0	1.9087874951479293e+18
14123.0	1.9082545417158653e+18
14124.0	1.9077704166932475e+18
14125.0	1.9072997520310272e+18
14126.0	1.9069261116866555e+18
14127.0	1.9064876441796603e+18
14128.0	1.9060227307470843e+18
14129.0	1.9055550574624763e+18
14130.0	1.905087142585958e+18
14131.0	1.9046219573624827e+18
14132.0	1.9041600185303037e+18
14133.0	1.9035617010647035e+18
14134.0	1.903233783667097e+18
14135.0	1.9027554098741243e+18
14136.0	1.9020741424971779e+18
14137.0	1.9018390400139256e+18
14138.0	1.9013381511970813e+18
14139.0	1.9009152546242555e+18
14140.0	1.9004340756807677e+18
14141.0	1.8999862984966136e+18
14142.0	1.8992642893283325e+18
14143.0	1.898965401547571e+18
14144.0	1.8986003276496893e+18
14145.0	1.8981375180799997e+18
14146.0	1.8976716785451005e+18
14147.0	1.8972096910589952e+18
14148.0	1.8967329597554683e+18
14149.0	1.8962603808129021e+18
14150.0	1.8958253559906304e+18
14151.0	1.8953254016647168e+18
14152.0	1.8949029463326715e+18
14153.0	1.8944419134701563e+18
14154.0	1.8939735456088061e+18
14155.0	1.8913282333081613e+18
14156.0	1.892975838127717e+18
14157.0	1.892591207029145e+18
14158.0	1.8921038842691581e+18
14159.0	1.8916748036145152e+18
14160.0	1.8912150005219325e+18
14161.0	1.8907375545090043e+18
14162.0	1.8902672287465464e+18
14163.0	1.8898343212089341e+18
14164.0	1.889278679947673e+18
14165.0	1.8887316051329024e+18
14166.0	1.8884530731483133e+18
14167.0	1.8879918540587005e+18
14168.0	1.887511643160576e+18
14169.0	1.8870758314868733e+18
14170.0	1.8866032273784824e+18
14171.0	1.8861350323224573e+18
14172.0	1.8856982962241533e+18
14173.0	1.8851590496583677e+18
14174.0	1.8847720580055035e+18
14175.0	1.8843223682187261e+18
14176.0	1.8838170216955896e+18
14177.0	1.8833934288683003e+18
14178.0	1.8829460727922688e+18
14179.0	1.8824725694251008e+18
14180.0	1.882032654044364e+18
14181.0	1.8815750672220152e+18
14182.0	1.881117436778905e+18
14183.0	1.8806603046191104e+18
14184.0	1.880201816860262e+18
14185.0	1.879745303779737e+18
14186.0	1.8787955338379261e+18
14187.0	1.8788261723897853e+18
14188.0	1.8783747730046973e+18
14189.0	1.877912830817075e+18
14190.0	1.8774591547637752e+18
14191.0	1.877000581441126e+18
14192.0	1.8765480546271232e+18
14193.0	1.8760101888262141e+18
14194.0	1.8756336795779072e+18
14195.0	1.8751833388351483e+18
14196.0	1.874727146199449e+18
14197.0	1.8742720709263352e+18
14198.0	1.8738160276078584e+18
14199.0	1.873355971179315e+18
14200.0	1.8726209596686333e+18
14201.0	1.8724481476329472e+18
14202.0	1.8719969478967293e+18
14203.0	1.8715236576002045e+18
14204.0	1.8710824369520635e+18
14205.0	1.8706335021400061e+18
14206.0	1.8701484241715192e+18
14207.0	1.869726218819993e+18
14208.0	1.869272520956313e+18
14209.0	1.868781512241971e+18
14210.0	1.8683443097370621e+18
14211.0	1.8679099157381123e+18
14212.0	1.8674582714056704e+18
14213.0	1.866990572955238e+18
14214.0	1.866552132291788e+18
14215.0	1.8660903176110075e+18
14216.0	1.86564609048576e+18
14217.0	1.8651938321072128e+18
14218.0	1.864738327337369e+18
14219.0	1.8642872836292603e+18
14220.0	1.8638329146769403e+18
14221.0	1.863370393675366e+18
14222.0	1.8628374318546936e+18
14223.0	1.8624610635350013e+18
14224.0	1.8620274849087483e+18
14225.0	1.8608116283211779e+18
14226.0	1.8611244361580544e+18
14227.0	1.860673150858035e+18
14228.0	1.858555117935002e+18
14229.0	1.8595676782854129e+18
14230.0	1.8593205733818363e+18
14231.0	1.8587774294687736e+18
14232.0	1.8584192979828733e+18
14233.0	1.8579664876339192e+18
14234.0	1.8575185393221627e+18
14235.0	1.8570673429413888e+18
14236.0	1.8566149805441021e+18
14237.0	1.8561648797155328e+18
14238.0	1.855713956803379e+18
14239.0	1.8552580728684541e+18
14240.0	1.8544931928801277e+18
14241.0	1.8543667513917435e+18
14242.0	1.8539200462716923e+18
14243.0	1.8534327201562621e+18
14244.0	1.8530231446929403e+18
14245.0	1.8525687992287227e+18
14246.0	1.8521087864209405e+18
14247.0	1.8516745014738941e+18
14248.0	1.8512233067708416e+18
14249.0	1.8507790578352125e+18
14250.0	1.8503316749156347e+18
14251.0	1.849883828944896e+18
14252.0	1.849435961163776e+18
14253.0	1.8489822213570552e+18
14254.0	1.8485403363311616e+18
14255.0	1.848086613301657e+18
14256.0	1.8473055500107779e+18
14257.0	1.8471952263938043e+18
14258.0	1.8467521367638008e+18
14259.0	1.8462631312490493e+18
14260.0	1.8458487474356221e+18
14261.0	1.845404889409126e+18
14262.0	1.8449659940831227e+18
14263.0	1.8440000240615424e+18
14264.0	1.8440045992083453e+18
14265.0	1.8435597681033216e+18
14266.0	1.843180889912115e+18
14267.0	1.8427338408591355e+18
14268.0	1.842288031642419e+18
14269.0	1.8418412141150208e+18
14270.0	1.8413972319371261e+18
14271.0	1.8409499899461627e+18
14272.0	1.8404987885322237e+18
14273.0	1.8400631110762488e+18
14274.0	1.8388907812978688e+18
14275.0	1.8391072493273083e+18
14276.0	1.8387058225577981e+18
14277.0	1.8382710678487037e+18
14278.0	1.8378381133348856e+18
14279.0	1.8373932604194813e+18
14280.0	1.8369477531926523e+18
14281.0	1.8365057909915645e+18
14282.0	1.8360620235620347e+18
14283.0	1.8356183182082043e+18
14284.0	1.8351747420389376e+18
14285.0	1.8347312581443581e+18
14286.0	1.834285417050931e+18
14287.0	1.833842988443238e+18
14288.0	1.833400939000627e+18
14289.0	1.8327506071322616e+18
14290.0	1.8325120384761853e+18
14291.0	1.8320714301964288e+18
14292.0	1.8316303420882941e+18
14293.0	1.8311880812527616e+18
14294.0	1.8306971329363965e+18
14295.0	1.8302925721829376e+18
14296.0	1.8296934326337539e+18
14297.0	1.829420797840588e+18
14298.0	1.8286697942876155e+18
14299.0	1.8285194284892155e+18
14300.0	1.8280938794385405e+18
14301.0	1.8276430689337341e+18
14302.0	1.8272123122352123e+18
14303.0	1.8267501838204928e+18
14304.0	1.826327654668697e+18
14305.0	1.8258883919216635e+18
14306.0	1.8253928533590013e+18
14307.0	1.8249890576465915e+18
14308.0	1.8245641578741755e+18
14309.0	1.8241138540412925e+18
14310.0	1.8234727429308408e+18
14311.0	1.8226862706655227e+18
14312.0	1.8227366123798525e+18
14313.0	1.8223422655954941e+18
14314.0	1.8219138375745533e+18
14315.0	1.8214852803690493e+18
14316.0	1.8210374713081853e+18
14317.0	1.820489889821491e+18
14318.0	1.820171914602086e+18
14319.0	1.819733567891046e+18
14320.0	1.8192954241843197e+18
14321.0	1.8188560020537341e+18
14322.0	1.8184062451580923e+18
14323.0	1.8179761813585917e+18
14324.0	1.8175183042904061e+18
14325.0	1.817100519735296e+18
14326.0	1.8166653858611197e+18
14327.0	1.8162229203435523e+18
14328.0	1.8157877294268413e+18
14329.0	1.8153524479131643e+18
14330.0	1.8149146514948093e+18
14331.0	1.8144656361521152e+18
14332.0	1.8140388439097344e+18
14333.0	1.813602901373747e+18
14334.0	1.8131663464693755e+18
14335.0	1.8127158329212925e+18
14336.0	1.8122014887772155e+18
14337.0	1.811854458775142e+18
14338.0	1.8114159912681472e+18
14339.0	1.8109728345292797e+18
14340.0	1.8105453544210427e+18
14341.0	1.8101006424342525e+18
14342.0	1.8096717748502525e+18
14343.0	1.8092292539678712e+18
14344.0	1.8087965343350784e+18
14345.0	1.8083690793926653e+18
14346.0	1.807932705682227e+18
14347.0	1.8074634687610877e+18
14348.0	1.8070589197516803e+18
14349.0	1.8066282452615168e+18
14350.0	1.8061339062697981e+18
14351.0	1.805699114650828e+18
14352.0	1.805321174305996e+18
14353.0	1.8048892750790653e+18
14354.0	1.8044508679700475e+18
14355.0	1.804010224458137e+18
14356.0	1.8035799207444475e+18
14357.0	1.8031528500002813e+18
14358.0	1.8027189962276861e+18
14359.0	1.8022808374214653e+18
14360.0	1.8018489197395965e+18
14361.0	1.8014176429473787e+18
14362.0	1.8009850256556032e+18
14363.0	1.8005516047351805e+18
14364.0	1.7998830326775808e+18
14365.0	1.7996578002305016e+18
14366.0	1.7992181818064893e+18
14367.0	1.7988202312761341e+18
14368.0	1.7983877062590461e+18
14369.0	1.7979557717999613e+18
14370.0	1.79752304377856e+18
14371.0	1.797091657934438e+18
14372.0	1.7966519136813053e+18
14373.0	1.7962272169132032e+18
14374.0	1.795794287565209e+18
14375.0	1.7953638731218936e+18
14376.0	1.7949327087370235e+18
14377.0	1.7945011517652984e+18
14378.0	1.7940694555426813e+18
14379.0	1.7936391283408893e+18
14380.0	1.793207994155008e+18
14381.0	1.792773811548979e+18
14382.0	1.7923450463059965e+18
14383.0	1.7919006866407421e+18
14384.0	1.791478597052006e+18
14385.0	1.7910549270495227e+18
14386.0	1.7906196472135677e+18
14387.0	1.7901940495089661e+18
14388.0	1.7897632290570237e+18
14389.0	1.7893340678717437e+18
14390.0	1.7889043161284603e+18
14391.0	1.7884691688325115e+18
14392.0	1.78802805220311e+18
14393.0	1.78761638126551e+18
14394.0	1.78717645078528e+18
14395.0	1.786317757638246e+18
14396.0	1.786307198058496e+18
14397.0	1.7859001978978304e+18
14398.0	1.785454407136051e+18
14399.0	1.7850357283553277e+18
14400.0	1.7842329033375744e+18
14401.0	1.7841824727039997e+18
14402.0	1.7837556972388347e+18
14403.0	1.78070878704107e+18
14404.0	1.7763048936701942e+18
14405.0	1.7821753321455603e+18
14406.0	1.7820459160567803e+18
14407.0	1.777634761506818e+18
14408.0	1.7811086233305085e+18
14409.0	1.7807555870851064e+18
14410.0	1.780314378181017e+18
14411.0	1.779891849029222e+18
14412.0	1.7794812954542077e+18
14413.0	1.7790547699695613e+18
14414.0	1.7786277495570427e+18
14415.0	1.7782025041739776e+18
14416.0	1.7777581797408765e+18
14417.0	1.777281443404185e+18
14418.0	1.776868965482496e+18
14419.0	1.7764954308345853e+18
14420.0	1.776068272848896e+18
14421.0	1.775643769018777e+18
14422.0	1.775216570767769e+18
14423.0	1.7747892181663741e+18
14424.0	1.7586477160464274e+18
14425.0	1.7739397742985213e+18
14426.0	1.77351580230615e+18
14427.0	1.7730917699158013e+18
14428.0	1.772647933699686e+18
14429.0	1.7722414351777795e+18
14430.0	1.7718174212423675e+18
14431.0	1.771038023929037e+18
14432.0	1.7709539969204221e+18
14433.0	1.767585850012465e+18
14434.0	1.7701151763857405e+18
14435.0	1.7696375659560952e+18
14436.0	1.7692728376688635e+18
14437.0	1.7688490972020733e+18
14438.0	1.768319131792179e+18
14439.0	1.767979200230195e+18
14440.0	1.7675781375262715e+18
14441.0	1.76715258176471e+18
14442.0	1.7667295073533947e+18
14443.0	1.7662968229527547e+18
14444.0	1.7658842712113147e+18
14445.0	1.7654622655086587e+18
14446.0	1.7619744467189773e+18
14447.0	1.7646131739623424e+18
14448.0	1.764193647932211e+18
14449.0	1.7637723904933885e+18
14450.0	1.7633489704714237e+18
14451.0	1.7629274932510715e+18
14452.0	1.762504450716467e+18
14453.0	1.762020166310297e+18
14454.0	1.7616592749723643e+18
14455.0	1.761238911759155e+18
14456.0	1.7608034507292664e+18
14457.0	1.7603636041351163e+18
14458.0	1.7596891013316605e+18
14459.0	1.7595195675639803e+18
14460.0	1.7591311934685181e+18
14461.0	1.7586813996630008e+18
14462.0	1.7578112057343997e+18
14463.0	1.7578625792475133e+18
14464.0	1.7574498563784696e+18
14465.0	1.7570267769339904e+18
14466.0	1.7566078750162941e+18
14467.0	1.7561452785172475e+18
14468.0	1.7557661302128637e+18
14469.0	1.75533387195351e+18
14470.0	1.754923949201817e+18
14471.0	1.7545057015955453e+18
14472.0	1.7540881854758907e+18
14473.0	1.753672454452019e+18
14474.0	1.7532538025148413e+18
14475.0	1.752831989750169e+18
14476.0	1.7522211061497853e+18
14477.0	1.7519960163090427e+18
14478.0	1.7515768543444987e+18
14479.0	1.7511525451300861e+18
14480.0	1.7507365423153147e+18
14481.0	1.7503231433244664e+18
14482.0	1.7499037599006715e+18
14483.0	1.7494822910689275e+18
14484.0	1.7490680683167744e+18
14485.0	1.7486399741624315e+18
14486.0	1.7481583824994304e+18
14487.0	1.747811409539891e+18
14488.0	1.747266628170547e+18
14489.0	1.7469380648501248e+18
14490.0	1.746547009755545e+18
14491.0	1.7461465141215232e+18
14492.0	1.7457192554725376e+18
14493.0	1.7452855426285563e+18
14494.0	1.7448854949462016e+18
14495.0	1.7444796490579965e+18
14496.0	1.7440286909136893e+18
14497.0	1.7436460797919232e+18
14498.0	1.7432290669887485e+18
14499.0	1.7428141161054203e+18
14500.0	1.7423979757174781e+18
14501.0	1.7418868477657088e+18
14502.0	1.7413620715487232e+18
14503.0	1.7411172634460152e+18
14504.0	1.7407330953986043e+18
14505.0	1.74022728917975e+18
14506.0	1.7396930120253437e+18
14507.0	1.7394257241309181e+18
14508.0	1.739071367518617e+18
14509.0	1.7386564619337725e+18
14510.0	1.7382412275154941e+18
14511.0	1.737827073549926e+18
14512.0	1.7374080860684285e+18
14513.0	1.7369965594148861e+18
14514.0	1.7365254367346685e+18
14515.0	1.7361629297508344e+18
14516.0	1.735253463715021e+18
14517.0	1.7353405995417595e+18
14518.0	1.7349262207614976e+18
14519.0	1.7345123671080957e+18
14520.0	1.7340989060415488e+18
14521.0	1.7336810812211197e+18
14522.0	1.7332627883163643e+18
14523.0	1.7325927969062907e+18
14524.0	1.7322197739634688e+18
14525.0	1.732030562199142e+18
14526.0	1.7316168209530872e+18
14527.0	1.731163342870937e+18
14528.0	1.730592142419558e+18
14529.0	1.73037775308718e+18
14530.0	1.7299626797301757e+18
14531.0	1.7295546746142723e+18
14532.0	1.7286835445170176e+18
14533.0	1.7287302640304125e+18
14534.0	1.7283187642204157e+18
14535.0	1.727902665775513e+18
14536.0	1.727493273183846e+18
14537.0	1.7270781578838013e+18
14538.0	1.7266679532748797e+18
14539.0	1.7262595354394621e+18
14540.0	1.725848362785177e+18
14541.0	1.72543053964247e+18
14542.0	1.72502507627479e+18
14543.0	1.7244776843706365e+18
14544.0	1.724203365144985e+18
14545.0	1.72378453704704e+18
14546.0	1.707959771987958e+18
14547.0	1.7092956628451205e+18
14548.0	1.7225562770636795e+18
14549.0	1.722120495588966e+18
14550.0	1.721736943265382e+18
14551.0	1.7213304128667643e+18
14552.0	1.720911583091097e+18
14553.0	1.720499449102336e+18
14554.0	1.7201005875691515e+18
14555.0	1.719689547454873e+18
14556.0	1.7192746955571197e+18
14557.0	1.718871520601702e+18
14558.0	1.71846107440087e+18
14559.0	1.717319507325745e+18
14560.0	1.7173192288239606e+18
14561.0	1.7172357202313213e+18
14562.0	1.716811439538176e+18
14563.0	1.7164193610334205e+18
14564.0	1.7159668543520765e+18
14565.0	1.7156035571613693e+18
14566.0	1.7151950873165821e+18
14567.0	1.7147855152087037e+18
14568.0	1.7141438336729085e+18
14569.0	1.713966879342592e+18
14570.0	1.7133732041326587e+18
14571.0	1.7131532783190013e+18
14572.0	1.712678318689485e+18
14573.0	1.7123129897779197e+18
14574.0	1.7118058296377341e+18
14575.0	1.7115110858293243e+18
14576.0	1.7111100600352765e+18
14577.0	1.7107067022082043e+18
14578.0	1.710300906651648e+18
14579.0	1.7098932270137344e+18
14580.0	1.70948773848023e+18
14581.0	1.7090538477977597e+18
14582.0	1.7086722667970557e+18
14583.0	1.708268071786905e+18
14584.0	1.707853345718272e+18
14585.0	1.7074547660423163e+18
14586.0	1.707047958819635e+18
14587.0	1.706638133375795e+18
14588.0	1.70623635596247e+18
14589.0	1.7058464551403515e+18
14590.0	1.7054572388286456e+18
14591.0	1.7050579528318976e+18
14592.0	1.7046751772934141e+18
14593.0	1.7042505962881021e+18
14594.0	1.703898286496153e+18
14595.0	1.7035085148585981e+18
14596.0	1.702936322873753e+18
14597.0	1.7025409023475707e+18
14598.0	1.7023317659615232e+18
14599.0	1.7019553573765115e+18
14600.0	1.7015564203458557e+18
14601.0	1.7011756362629112e+18
14602.0	1.700743713547878e+18
14603.0	1.7003661540458493e+18
14604.0	1.6999793687527416e+18
14605.0	1.6995568026910712e+18
14606.0	1.6991088711565312e+18
14607.0	1.6988477052682237e+18
14608.0	1.6984540866150397e+18
14609.0	1.6980322671394813e+18
14610.0	1.697554052730061e+18
14611.0	1.697290288050995e+18
14612.0	1.696909050983219e+18
14613.0	1.6965228830916603e+18
14614.0	1.6961331752075267e+18
14615.0	1.69565778608128e+18
14616.0	1.6953608310358013e+18
14617.0	1.6949733914312704e+18
14618.0	1.6945135262629885e+18
14619.0	1.6940934415515643e+18
14620.0	1.6932752066609152e+18
14621.0	1.693424856072192e+18
14622.0	1.6930373107711997e+18
14623.0	1.692651651229286e+18
14624.0	1.6922494325751805e+18
14625.0	1.691877693089382e+18
14626.0	1.6914831802105853e+18
14627.0	1.6910936619089915e+18
14628.0	1.690719868891955e+18
14629.0	1.690333741265715e+18
14630.0	1.689945508098867e+18
14631.0	1.6895564461375488e+18
14632.0	1.6878756341743619e+18
14633.0	1.6886183783038968e+18
14634.0	1.688397242852966e+18
14635.0	1.686122646627929e+18
14636.0	1.68082702241628e+18
14637.0	1.687247320724275e+18
14638.0	1.686819273546137e+18
14639.0	1.6864655360131067e+18
14640.0	1.68609003339776e+18
14641.0	1.6807747647438807e+18
14642.0	1.6853194156015608e+18
14643.0	1.684933782903193e+18
14644.0	1.684543115362304e+18
14645.0	1.684156741110988e+18
14646.0	1.683710431933235e+18
14647.0	1.6833343018500093e+18
14648.0	1.6830042436796416e+18
