# Flux units: erg / (cm m2 s)
# Wavelength units: Angstrom
wave	flux
14000.0	2.2528268578062333e+18
14001.0	2.2522351203647483e+18
14002.0	2.251748985431654e+18
14003.0	2.2512060512337915e+18
14004.0	2.2506613671723005e+18
14005.0	2.250118609135206e+18
14006.0	2.2495644845342717e+18
14007.0	2.2490141029302267e+18
14008.0	2.248337925760614e+18
14009.0	2.24794002891735e+18
14010.0	2.2473745629183995e+18
14011.0	2.246093451349197e+18
14012.0	2.246294883637657e+18
14013.0	2.2457428578664443e+18
14014.0	2.2451888356065277e+18
14015.0	2.244652798522163e+18
14016.0	2.244112243333529e+18
14017.0	2.2435683578675195e+18
14018.0	2.2430241838333942e+18
14019.0	2.2424849792106493e+18
14020.0	2.2419393556250621e+18
14021.0	2.241398060561203e+18
14022.0	2.2408506502021115e+18
14023.0	2.2402545506844675e+18
14024.0	2.23973693498327e+18
14025.0	2.2392296372699133e+18
14026.0	2.2386878120460283e+18
14027.0	2.238146815616614e+18
14028.0	2.2375982291746813e+18
14029.0	2.237058791348633e+18
14030.0	2.2343372903546893e+18
14031.0	2.2359244988743675e+18
14032.0	2.2354172363931643e+18
14033.0	2.2347923639500795e+18
14034.0	2.2343367048298493e+18
14035.0	2.2337950087905277e+18
14036.0	2.2332557437698045e+18
14037.0	2.2327123179995133e+18
14038.0	2.232181965035929e+18
14039.0	2.2316360327495675e+18
14040.0	2.2310855219609595e+18
14041.0	2.2305585412177917e+18
14042.0	2.230011672762777e+18
14043.0	2.229433442657894e+18
14044.0	2.2289349915705344e+18
14045.0	2.228404490967449e+18
14046.0	2.227861585290854e+18
14047.0	2.2273128377876477e+18
14048.0	2.2267894574350336e+18
14049.0	2.2262553916735483e+18
14050.0	2.2256971734319101e+18
14051.0	2.2251408392716283e+18
14052.0	2.2246143752667128e+18
14053.0	2.2240825291309053e+18
14054.0	2.22354764464128e+18
14055.0	2.2230069569126392e+18
14056.0	2.222473706523852e+18
14057.0	2.2219343156740086e+18
14058.0	2.221400090528972e+18
14059.0	2.2208613472796667e+18
14060.0	2.2203280029384701e+18
14061.0	2.2197832433795067e+18
14062.0	2.2192560713760768e+18
14063.0	2.2186967760371702e+18
14064.0	2.2179088525426685e+18
14065.0	2.217638494417715e+18
14066.0	2.217109483631411e+18
14067.0	2.2165075506757627e+18
14068.0	2.2160439911645181e+18
14069.0	2.2155023957884923e+18
14070.0	2.214973307826995e+18
14071.0	2.214436109759283e+18
14072.0	2.2138920078671867e+18
14073.0	2.213348874020454e+18
14074.0	2.2128155632336893e+18
14075.0	2.2122526238834683e+18
14076.0	2.2116717413007357e+18
14077.0	2.210677275177779e+18
14078.0	2.210636134088704e+18
14079.0	2.210131326114201e+18
14080.0	2.2096145224302587e+18
14081.0	2.2090813945151483e+18
14082.0	2.2085113483362301e+18
14083.0	2.2080115013844987e+18
14084.0	2.2074833965678584e+18
14085.0	2.2062605069713405e+18
14086.0	2.2063746927034365e+18
14087.0	2.2058869706457083e+18
14088.0	2.2053326614953984e+18
14089.0	2.2047564782108667e+18
14090.0	2.204279533836697e+18
14091.0	2.2037601951154168e+18
14092.0	2.2032266058268664e+18
14093.0	2.202697761135001e+18
14094.0	2.2021668511678456e+18
14095.0	2.201636020053606e+18
14096.0	2.2009899563089915e+18
14097.0	2.200490894530969e+18
14098.0	2.1999611640020987e+18
14099.0	2.1994919572799483e+18
14100.0	2.198937273997721e+18
14101.0	2.198433244486041e+18
14102.0	2.197899680363315e+18
14103.0	2.197356996145971e+18
14104.0	2.1968399676473344e+18
14105.0	2.1963063330603005e+18
14106.0	2.1957857796685821e+18
14107.0	2.1952322473033723e+18
14108.0	2.1947012517724155e+18
14109.0	2.1941918183194621e+18
14110.0	2.1936298436591608e+18
14111.0	2.1930553347407862e+18
14112.0	2.1925971036733432e+18
14113.0	2.1920401823105021e+18
14114.0	2.1915293932584955e+18
14115.0	2.1910209228177405e+18
14116.0	2.1902772173537275e+18
14117.0	2.186563412819969e+18
14118.0	2.189442921634201e+18
14119.0	2.1888501020622845e+18
14120.0	2.1883329276018683e+18
14121.0	2.187824520914534e+18
14122.0	2.1872740755570683e+18
14123.0	2.1866901495873533e+18
14124.0	2.186143616676659e+18
14125.0	2.1850862074724342e+18
14126.0	2.185180560857497e+18
14127.0	2.1846859114872827e+18
14128.0	2.1841604306272253e+18
14129.0	2.183619348634009e+18
14130.0	2.1830745454542843e+18
14131.0	2.1825790555455483e+18
14132.0	2.182050944018022e+18
14133.0	2.1807777043185636e+18
14134.0	2.1810098590449664e+18
14135.0	2.1804485470846973e+18
14136.0	2.179688270764441e+18
14137.0	2.179430913304166e+18
14138.0	2.1788589562003456e+18
14139.0	2.178387664070246e+18
14140.0	2.177796842664755e+18
14141.0	2.177328224822886e+18
14142.0	2.1764553985490944e+18
14143.0	2.1761932864258043e+18
14144.0	2.1757703529431032e+18
14145.0	2.1752460448104443e+18
14146.0	2.1747162186514427e+18
14147.0	2.1741961853534205e+18
14148.0	2.1736572089008125e+18
14149.0	2.173122304278528e+18
14150.0	2.1726330622050307e+18
14151.0	2.1720598753312765e+18
14152.0	2.1715866152337403e+18
14153.0	2.1710673754980352e+18
14154.0	2.1705064695463933e+18
14155.0	2.1693524235780096e+18
14156.0	2.1694558148493304e+18
14157.0	2.1689565920100347e+18
14158.0	2.1684220279652347e+18
14159.0	2.1679164885041147e+18
14160.0	2.1673942439690232e+18
14161.0	2.1667793170595832e+18
14162.0	2.1662022177390587e+18
14163.0	2.1658319110275072e+18
14164.0	2.1651710682333181e+18
14165.0	2.1641062887981059e+18
14166.0	2.1642610787483643e+18
14167.0	2.16373174248407e+18
14168.0	2.163202132751155e+18
14169.0	2.162711541789491e+18
14170.0	2.1621756120793083e+18
14171.0	2.1616597596635133e+18
14172.0	2.1611566579318781e+18
14173.0	2.1603272913584128e+18
14174.0	2.16010694108119e+18
14175.0	2.1595996383346685e+18
14176.0	2.159067824075571e+18
14177.0	2.1585584979967995e+18
14178.0	2.1580365168639995e+18
14179.0	2.157460405721497e+18
14180.0	2.1570086523371515e+18
14181.0	2.1564893589143547e+18
14182.0	2.1559717599903744e+18
14183.0	2.1554546761269245e+18
14184.0	2.154930696827699e+18
14185.0	2.1544181629452285e+18
14186.0	2.1531971758850048e+18
14187.0	2.153351272936243e+18
14188.0	2.1528624922361853e+18
14189.0	2.1523376002564093e+18
14190.0	2.1518299921645563e+18
14191.0	2.1513111232053243e+18
14192.0	2.1507785640378365e+18
14193.0	2.1501499938963453e+18
14194.0	2.14974323532759e+18
14195.0	2.149235620524851e+18
14196.0	2.1487195567161344e+18
14197.0	2.1482017665318904e+18
14198.0	2.1476818154422267e+18
14199.0	2.14715467867095e+18
14200.0	2.1462605453328381e+18
14201.0	2.1461373049372664e+18
14202.0	2.145625675346739e+18
14203.0	2.145039469353369e+18
14204.0	2.144588564896153e+18
14205.0	2.1440809517711352e+18
14206.0	2.1433936429187072e+18
14207.0	2.1430566742130683e+18
14208.0	2.142542772987494e+18
14209.0	2.1418267264417784e+18
14210.0	2.1413980836724723e+18
14211.0	2.1409914593214461e+18
14212.0	2.1404875841601533e+18
14213.0	2.1399596789923837e+18
14214.0	2.1394617345769467e+18
14215.0	2.1389283331932155e+18
14216.0	2.138434767631155e+18
14217.0	2.1379245221609467e+18
14218.0	2.137393865529753e+18
14219.0	2.1368964126867453e+18
14220.0	2.1363850917969917e+18
14221.0	2.1358600639217661e+18
14222.0	2.135237820468428e+18
14223.0	2.1348464113745915e+18
14224.0	2.1343403987959805e+18
14225.0	2.1327612383068163e+18
14226.0	2.1333167084404733e+18
14227.0	2.132805088916275e+18
14228.0	2.1299630302035978e+18
14229.0	2.1314991487451116e+18
14230.0	2.1312730908590077e+18
14231.0	2.1306527667191805e+18
14232.0	2.1302502108430333e+18
14233.0	2.1297106169888765e+18
14234.0	2.1292130450276347e+18
14235.0	2.1286993837162493e+18
14236.0	2.1281892238098427e+18
14237.0	2.1276783508717565e+18
14238.0	2.1271712511295483e+18
14239.0	2.1266462031216635e+18
14240.0	2.1243405170376712e+18
14241.0	2.1256362700832765e+18
14242.0	2.125134342756761e+18
14243.0	2.1244091492728835e+18
14244.0	2.1241200962961403e+18
14245.0	2.1235819721261053e+18
14246.0	2.1230538857644027e+18
14247.0	2.1225856806420475e+18
14248.0	2.122068413906944e+18
14249.0	2.1215709275095037e+18
14250.0	2.1210671530115067e+18
14251.0	2.1205605918179328e+18
14252.0	2.120054889617817e+18
14253.0	2.1195470063796221e+18
14254.0	2.119037088065126e+18
14255.0	2.1184934592905216e+18
14256.0	2.117066713097831e+18
14257.0	2.117502987822694e+18
14258.0	2.1170127877701627e+18
14259.0	2.1164669746020347e+18
14260.0	2.1159708874244093e+18
14261.0	2.1154584525275133e+18
14262.0	2.1149918227857403e+18
14263.0	2.113070081612187e+18
14264.0	2.113772744972697e+18
14265.0	2.1134471394754557e+18
14266.0	2.11296657122263e+18
14267.0	2.1124619092099064e+18
14268.0	2.1119546148519933e+18
14269.0	2.111438884909875e+18
14270.0	2.1109482620715005e+18
14271.0	2.110429492097843e+18
14272.0	2.109936282212761e+18
14273.0	2.1094321688150016e+18
14274.0	2.1068713633513487e+18
14275.0	2.1082383843328e+18
14276.0	2.1078453042282493e+18
14277.0	2.1073745875566587e+18
14278.0	2.1069090835660797e+18
14279.0	2.1064043879989243e+18
14280.0	2.1058904582520827e+18
14281.0	2.1053900710739965e+18
14282.0	2.1048755591577592e+18
14283.0	2.1043722544218112e+18
14284.0	2.1038690939699197e+18
14285.0	2.1033655224762363e+18
14286.0	2.102856959760793e+18
14287.0	2.1023578862387192e+18
14288.0	2.101855880059289e+18
14289.0	2.100193219366089e+18
14290.0	2.1008364494389243e+18
14291.0	2.1003488783761405e+18
14292.0	2.0998457061801976e+18
14293.0	2.0993444717527037e+18
14294.0	2.0986484874018816e+18
14295.0	2.0983178520952827e+18
14296.0	2.0968967883456515e+18
14297.0	2.097341382891929e+18
14298.0	2.0963085170769915e+18
14299.0	2.0963001368576e+18
14300.0	2.0958238535057405e+18
14301.0	2.0953205319925757e+18
14302.0	2.0948310701375483e+18
14303.0	2.094279202072166e+18
14304.0	2.093811637839462e+18
14305.0	2.0933234862850043e+18
14306.0	2.0926569694363645e+18
14307.0	2.092279659914854e+18
14308.0	2.0918181321244664e+18
14309.0	2.091296754971443e+18
14310.0	2.0900348549922806e+18
14311.0	2.089799984034611e+18
14312.0	2.0896582400475133e+18
14313.0	2.089230657598259e+18
14314.0	2.0888088733548544e+18
14315.0	2.0883282128273403e+18
14316.0	2.087765570433843e+18
14317.0	2.0871928566775805e+18
14318.0	2.0868440331911163e+18
14319.0	2.0863476289241083e+18
14320.0	2.0858498589917176e+18
14321.0	2.0853457841815552e+18
14322.0	2.0847879115505661e+18
14323.0	2.0843377704566776e+18
14324.0	2.0838541084852221e+18
14325.0	2.0833469785440253e+18
14326.0	2.0828660948795384e+18
14327.0	2.082356679881523e+18
14328.0	2.081859879672217e+18
14329.0	2.081375439237939e+18
14330.0	2.0808772230316027e+18
14331.0	2.0803659642175483e+18
14332.0	2.0798832988127224e+18
14333.0	2.0793886343430136e+18
14334.0	2.0788931360456701e+18
14335.0	2.0783661217480696e+18
14336.0	2.0777576490336253e+18
14337.0	2.0773806146584573e+18
14338.0	2.0768852572897275e+18
14339.0	2.0763695994896376e+18
14340.0	2.0758989146947576e+18
14341.0	2.075390499618816e+18
14342.0	2.0748981889925117e+18
14343.0	2.0743747046211581e+18
14344.0	2.0738889807298555e+18
14345.0	2.0734168044404736e+18
14346.0	2.0729176889753597e+18
14347.0	2.072367862697164e+18
14348.0	2.0719291720531965e+18
14349.0	2.071441775473459e+18
14350.0	2.0708575508692987e+18
14351.0	2.07035030348759e+18
14352.0	2.0699474976309245e+18
14353.0	2.0694640839622656e+18
14354.0	2.068960030962483e+18
14355.0	2.0684496244310016e+18
14356.0	2.0679666033491958e+18
14357.0	2.0674933969387515e+18
14358.0	2.0670003447595003e+18
14359.0	2.0664821217230845e+18
14360.0	2.0660066285780984e+18
14361.0	2.065519950063206e+18
14362.0	2.0650280672559101e+18
14363.0	2.0645365636136955e+18
14364.0	2.06370989146112e+18
14365.0	2.063511358275583e+18
14366.0	2.0630097195171837e+18
14367.0	2.0625670879051773e+18
14368.0	2.0620749316292608e+18
14369.0	2.061586080464896e+18
14370.0	2.0610946992963581e+18
14371.0	2.0606038466101245e+18
14372.0	2.0601013975121917e+18
14373.0	2.0596202605117437e+18
14374.0	2.0591277284261883e+18
14375.0	2.0586364579872765e+18
14376.0	2.058146917279334e+18
14377.0	2.0576576617840637e+18
14378.0	2.0571642925154301e+18
14379.0	2.056677674398515e+18
14380.0	2.056187007939379e+18
14381.0	2.05567826067456e+18
14382.0	2.0552041717825533e+18
14383.0	2.0546669099614203e+18
14384.0	2.0541913379635197e+18
14385.0	2.0537382356910077e+18
14386.0	2.053220643477913e+18
14387.0	2.052756691379814e+18
14388.0	2.0522630738083837e+18
14389.0	2.0517803228397563e+18
14390.0	2.0512890020691965e+18
14391.0	2.050796419651993e+18
14392.0	2.0502956398870525e+18
14393.0	2.0498259684360187e+18
14394.0	2.0492806015418365e+18
14395.0	2.0487132296511488e+18
14396.0	2.048354467341926e+18
14397.0	2.0478728438022144e+18
14398.0	2.0473689468305405e+18
14399.0	2.0468876252807168e+18
14400.0	2.0463154702057464e+18
14401.0	2.0458917062508544e+18
14402.0	2.0454087187234816e+18
14403.0	2.0356914860785505e+18
14404.0	2.0209598975705047e+18
14405.0	2.0423111597883318e+18
14406.0	2.0434629827756027e+18
14407.0	2.0286259326877768e+18
14408.0	2.0423912558952443e+18
14409.0	2.0419799758667768e+18
14410.0	2.0414923360174077e+18
14411.0	2.0410278168494075e+18
14412.0	2.0405405460987901e+18
14413.0	2.0400591456960507e+18
14414.0	2.0395720091631616e+18
14415.0	2.0390878338088952e+18
14416.0	2.0385799270825976e+18
14417.0	2.038018346686873e+18
14418.0	2.0375228987211773e+18
14419.0	2.0371443711737848e+18
14420.0	2.036652161210777e+18
14421.0	2.0361744098525181e+18
14422.0	2.035681122792243e+18
14423.0	2.0351800225824763e+18
14424.0	1.9843925141356244e+18
14425.0	2.034221516744294e+18
14426.0	2.033749951145574e+18
14427.0	2.0332672622526461e+18
14428.0	2.0327365301239805e+18
14429.0	2.0322957775601664e+18
14430.0	2.0318155750506493e+18
14431.0	2.0308324620697603e+18
14432.0	2.0307933594124283e+18
14433.0	2.019514396128044e+18
14434.0	2.0298574004748283e+18
14435.0	2.0293065507864568e+18
14436.0	2.0289131099717624e+18
14437.0	2.028428847375974e+18
14438.0	2.027563815796736e+18
14439.0	2.0273749194440696e+18
14440.0	2.02697964823511e+18
14441.0	2.0264905303130107e+18
14442.0	2.0260023905026045e+18
14443.0	2.025468210656051e+18
14444.0	2.025043988683161e+18
14445.0	2.0245665896464381e+18
14446.0	2.0126255907078195e+18
14447.0	2.0235814264897533e+18
14448.0	2.0231216384966653e+18
14449.0	2.0226398538956797e+18
14450.0	2.0221482848223224e+18
14451.0	2.0216698657308664e+18
14452.0	2.021183475784089e+18
14453.0	2.0204696723521533e+18
14454.0	2.0202266996768763e+18
14455.0	2.0197359208103933e+18
14456.0	2.019211124460748e+18
14457.0	2.0186993489084408e+18
14458.0	2.018237646635008e+18
14459.0	2.017772359070515e+18
14460.0	2.0173203120848893e+18
14461.0	2.016736973317734e+18
14462.0	2.015894626212249e+18
14463.0	2.0158462625316856e+18
14464.0	2.0154050066513917e+18
14465.0	2.0149105384751101e+18
14466.0	2.0144493680394237e+18
14467.0	2.013799401914368e+18
14468.0	2.013478572890521e+18
14469.0	2.0129629251567608e+18
14470.0	2.0124907455119352e+18
14471.0	2.012027437658931e+18
14472.0	2.011557469251174e+18
14473.0	2.0110940137586683e+18
14474.0	2.010618300832153e+18
14475.0	2.0101266931711997e+18
14476.0	2.008929434127565e+18
14477.0	2.0091789532725243e+18
14478.0	2.0086884176756733e+18
14479.0	2.008193813603942e+18
14480.0	2.0077030330597373e+18
14481.0	2.0072508686336e+18
14482.0	2.006767612670771e+18
14483.0	2.006276818704793e+18
14484.0	2.005808504530534e+18
14485.0	2.0052737374814205e+18
14486.0	2.0044381096509443e+18
14487.0	2.004376918111027e+18
14488.0	2.0037447744225275e+18
14489.0	2.0033719377068027e+18
14490.0	2.0029270881468416e+18
14491.0	2.002469348651827e+18
14492.0	2.0019914748198912e+18
14493.0	2.001493233447731e+18
14494.0	2.0010048772112384e+18
14495.0	2.0005619570311168e+18
14496.0	1.9998927373729787e+18
14497.0	1.9996046373421053e+18
14498.0	1.9991277063897083e+18
14499.0	1.9986558840995835e+18
14500.0	1.9981791142084603e+18
14501.0	1.9973400218828797e+18
14502.0	1.996537373025895e+18
14503.0	1.9966822291865597e+18
14504.0	1.9962638322630648e+18
14505.0	1.9954576367026166e+18
14506.0	1.9945399515086845e+18
14507.0	1.9945007230222333e+18
14508.0	1.994369065497395e+18
14509.0	1.9938923459379192e+18
14510.0	1.9934127960621056e+18
14511.0	1.9929384488009725e+18
14512.0	1.9924365365739517e+18
14513.0	1.9919873853358077e+18
14514.0	1.9914154450092027e+18
14515.0	1.9910297988890621e+18
14516.0	1.9877710981496852e+18
14517.0	1.990085525163212e+18
14518.0	1.9896102350225405e+18
14519.0	1.9891333258805245e+18
14520.0	1.9886599852523515e+18
14521.0	1.9881807507881981e+18
14522.0	1.98769755857879e+18
14523.0	1.9863803508293622e+18
14524.0	1.9859108974821366e+18
14525.0	1.986278412464947e+18
14526.0	1.985806533132288e+18
14527.0	1.9852784836804603e+18
14528.0	1.984636189776281e+18
14529.0	1.9843737253314555e+18
14530.0	1.9838855922319355e+18
14531.0	1.9834368486801403e+18
14532.0	1.9817590750707707e+18
14533.0	1.9824906724179965e+18
14534.0	1.9820191084969981e+18
14535.0	1.9815267626385405e+18
14536.0	1.9810643154567165e+18
14537.0	1.9805747831373821e+18
14538.0	1.9801214594056187e+18
14539.0	1.9796486220939261e+18
14540.0	1.9791770900496381e+18
14541.0	1.9786662187892733e+18
14542.0	1.9782239210438653e+18
14543.0	1.977232421132697e+18
14544.0	1.9772799912509435e+18
14545.0	1.9767923765673984e+18
14546.0	1.9323626528440113e+18
14547.0	1.936252316155878e+18
14548.0	1.9753701233131515e+18
14549.0	1.9747459420913661e+18
14550.0	1.9744312468176893e+18
14551.0	1.9739727456370683e+18
14552.0	1.9734895047737341e+18
14553.0	1.973008421460377e+18
14554.0	1.972553260623462e+18
14555.0	1.9720788764524541e+18
14556.0	1.9715869164699645e+18
14557.0	1.9711357989421053e+18
14558.0	1.970660627919667e+18
14559.0	1.9679383081975741e+18
14560.0	1.969536507471462e+18
14561.0	1.969235507439206e+18
14562.0	1.9687255203381243e+18
14563.0	1.9682977264959483e+18
14564.0	1.967768703965593e+18
14565.0	1.9673583668166653e+18
14566.0	1.9668861754277883e+18
14567.0	1.9664077127155707e+18
14568.0	1.9657749549809661e+18
14569.0	1.965447108047667e+18
14570.0	1.9642988300861437e+18
14571.0	1.9645023041617915e+18
14572.0	1.9639150596587517e+18
14573.0	1.963478290006016e+18
14574.0	1.9629325389135872e+18
14575.0	1.9625978300989437e+18
14576.0	1.9621279304777725e+18
14577.0	1.9616626949226493e+18
14578.0	1.9612009557393403e+18
14579.0	1.9607313950179325e+18
14580.0	1.96026002571264e+18
14581.0	1.959753029989171e+18
14582.0	1.9593107439878141e+18
14583.0	1.9588459547066363e+18
14584.0	1.958344423322419e+18
14585.0	1.9579020987334653e+18
14586.0	1.957425575467417e+18
14587.0	1.9569418967187448e+18
14588.0	1.956480976263577e+18
14589.0	1.9560332577996792e+18
14590.0	1.955580568246681e+18
14591.0	1.9551144451768323e+18
14592.0	1.9546604251906043e+18
14593.0	1.9540517679267837e+18
14594.0	1.953762337462681e+18
14595.0	1.9533003935973373e+18
14596.0	1.9525573021794294e+18
14597.0	1.9521193849651192e+18
14598.0	1.951928310929817e+18
14599.0	1.9514988041338877e+18
14600.0	1.951034880557056e+18
14601.0	1.950584534781132e+18
14602.0	1.9500835201351677e+18
14603.0	1.949666760667955e+18
14604.0	1.9491400433270781e+18
14605.0	1.9486966449963003e+18
14606.0	1.9481990025707517e+18
14607.0	1.9478622519689208e+18
14608.0	1.947401235883622e+18
14609.0	1.946865275974451e+18
14610.0	1.946374508852019e+18
14611.0	1.9460222611357693e+18
14612.0	1.9455918097825784e+18
14613.0	1.9451439789113341e+18
14614.0	1.9446861018431483e+18
14615.0	1.944208795081113e+18
14616.0	1.9437828551213053e+18
14617.0	1.9433271976787963e+18
14618.0	1.9427883067899901e+18
14619.0	1.9422671846506488e+18
14620.0	1.9412006536740861e+18
14621.0	1.9415101949870075e+18
14622.0	1.94105048081367e+18
14623.0	1.940600126649139e+18
14624.0	1.9400601787957243e+18
14625.0	1.9396843406360573e+18
14626.0	1.9392088139366397e+18
14627.0	1.938732184974131e+18
14628.0	1.9383202237906941e+18
14629.0	1.9378598032965627e+18
14630.0	1.9373976060952573e+18
14631.0	1.9369391317581821e+18
14632.0	1.931661338371689e+18
14633.0	1.9354975494733804e+18
14634.0	1.9355562160422912e+18
14635.0	1.9345218084011983e+18
14636.0	1.932495578726399e+18
14637.0	1.9342089921757181e+18
14638.0	1.933728331648204e+18
14639.0	1.9332713269952512e+18
14640.0	1.9328262291324925e+18
14641.0	1.914760887009267e+18
14642.0	1.9319087469428733e+18
14643.0	1.931456540573696e+18
14644.0	1.9309779268665344e+18
14645.0	1.9305032893595643e+18
14646.0	1.9299912822816763e+18
14647.0	1.9295381900754941e+18
14648.0	1.929152401349017e+18
