# Flux units: erg / (cm m2 s)
# Wavelength units: Angstrom
wave	flux
14000.0	1.649555031667507e+18
14001.0	1.6492438428319744e+18
14002.0	1.6491861996732413e+18
14003.0	1.6489059480240123e+18
14004.0	1.6486228207599616e+18
14005.0	1.6483380090634237e+18
14006.0	1.6480449949859837e+18
14007.0	1.6477559906631677e+18
14008.0	1.6473915660435456e+18
14009.0	1.6471748614553597e+18
14010.0	1.6468773796052987e+18
14011.0	1.645936400924672e+18
14012.0	1.6463047933558781e+18
14013.0	1.6460591312928763e+18
14014.0	1.645773388460851e+18
14015.0	1.6454953597927421e+18
14016.0	1.64521334318039e+18
14017.0	1.6449303836884992e+18
14018.0	1.6446316469026813e+18
14019.0	1.644363094006169e+18
14020.0	1.644078725228134e+18
14021.0	1.6437944906678267e+18
14022.0	1.6435110026936315e+18
14023.0	1.643216018971033e+18
14024.0	1.642933970481971e+18
14025.0	1.642660669633331e+18
14026.0	1.642376445139353e+18
14027.0	1.642093297742643e+18
14028.0	1.6418014849138688e+18
14029.0	1.641509715705856e+18
14030.0	1.6408645931630592e+18
14031.0	1.640852941386547e+18
14032.0	1.6406697174106107e+18
14033.0	1.640352326038323e+18
14034.0	1.6401127239057405e+18
14035.0	1.639831376704307e+18
14036.0	1.6395420636807163e+18
14037.0	1.6392632011849718e+18
14038.0	1.6389847816077307e+18
14039.0	1.6386980187209725e+18
14040.0	1.6384182502555648e+18
14041.0	1.6381363141738493e+18
14042.0	1.6378437312708605e+18
14043.0	1.6375329065009147e+18
14044.0	1.637268677092966e+18
14045.0	1.6369958191628285e+18
14046.0	1.6367225032146941e+18
14047.0	1.6364373257748477e+18
14048.0	1.6361628773646339e+18
14049.0	1.63588172981207e+18
14050.0	1.6355997970857981e+18
14051.0	1.635309395220889e+18
14052.0	1.63503112496087e+18
14053.0	1.634755153179443e+18
14054.0	1.6344738781200384e+18
14055.0	1.6341924940087296e+18
14056.0	1.633911116608307e+18
14057.0	1.633629836515737e+18
14058.0	1.6333485362905088e+18
14059.0	1.6330535978663933e+18
14060.0	1.6327858636980221e+18
14061.0	1.632497493553971e+18
14062.0	1.6322217298100221e+18
14063.0	1.6319253619671037e+18
14064.0	1.6315605464383485e+18
14065.0	1.6313704471592957e+18
14066.0	1.6310978744418307e+18
14067.0	1.6308199749582843e+18
14068.0	1.6305393374330877e+18
14069.0	1.6302581814919165e+18
14070.0	1.6299781563351037e+18
14071.0	1.6296948730429437e+18
14072.0	1.629417555728793e+18
14073.0	1.6291372805914621e+18
14074.0	1.6288568561369085e+18
14075.0	1.628557413030297e+18
14076.0	1.6282925779648507e+18
14077.0	1.6279269990727675e+18
14078.0	1.6277197216022525e+18
14079.0	1.6274457781862397e+18
14080.0	1.6271691973918712e+18
14081.0	1.6268950794928125e+18
14082.0	1.6266156616712195e+18
14083.0	1.6263325847388157e+18
14084.0	1.6260404984414205e+18
14085.0	1.6255420322545661e+18
14086.0	1.625457215039078e+18
14087.0	1.6252041810673661e+18
14088.0	1.6249259913379835e+18
14089.0	1.6246602234593275e+18
14090.0	1.6243811881582592e+18
14091.0	1.6241026796617728e+18
14092.0	1.6238238322655224e+18
14093.0	1.623544761732301e+18
14094.0	1.623265402630963e+18
14095.0	1.6229849966313472e+18
14096.0	1.6226975542673403e+18
14097.0	1.6224054092496893e+18
14098.0	1.6221452399280123e+18
14099.0	1.6218695248379901e+18
14100.0	1.621579995388313e+18
14101.0	1.6213145227886592e+18
14102.0	1.6210337644675072e+18
14103.0	1.6207401145335805e+18
14104.0	1.6204763381104637e+18
14105.0	1.6202016162316285e+18
14106.0	1.6199233795260416e+18
14107.0	1.6196334306459643e+18
14108.0	1.6193544423211e+18
14109.0	1.6190848626589696e+18
14110.0	1.6188088271241216e+18
14111.0	1.6185262014988285e+18
14112.0	1.618244392923955e+18
14113.0	1.61797271275438e+18
14114.0	1.617679847994163e+18
14115.0	1.6174065135910912e+18
14116.0	1.6170554620903421e+18
14117.0	1.6161315424829437e+18
14118.0	1.616543027193446e+18
14119.0	1.6162867367641088e+18
14120.0	1.6160208279568381e+18
14121.0	1.6157384003026941e+18
14122.0	1.615467959969382e+18
14123.0	1.615187595912806e+18
14124.0	1.6148746739908605e+18
14125.0	1.6142197250326528e+18
14126.0	1.6143367897350141e+18
14127.0	1.6140860190097405e+18
14128.0	1.6138122467213312e+18
14129.0	1.6135250006507515e+18
14130.0	1.6132341759999995e+18
14131.0	1.6129749428469752e+18
14132.0	1.6126594942763005e+18
14133.0	1.6119335122632696e+18
14134.0	1.6120999338573821e+18
14135.0	1.6118612343390205e+18
14136.0	1.6115988806238203e+18
14137.0	1.6113239188307965e+18
14138.0	1.6110465964834813e+18
14139.0	1.6107735472930808e+18
14140.0	1.6104959028232192e+18
14141.0	1.610208576222003e+18
14142.0	1.6099221404909565e+18
14143.0	1.6096667375763453e+18
14144.0	1.6093954952921085e+18
14145.0	1.6091182064992253e+18
14146.0	1.6088427128684541e+18
14147.0	1.6085696653557757e+18
14148.0	1.608294688463257e+18
14149.0	1.6080197786796032e+18
14150.0	1.6077440837222395e+18
14151.0	1.607466942568857e+18
14152.0	1.6071916737527803e+18
14153.0	1.6069184484016125e+18
14154.0	1.6066156263636992e+18
14155.0	1.6063547188445181e+18
14156.0	1.6060916453867515e+18
14157.0	1.6058166550724605e+18
14158.0	1.6055388159868925e+18
14159.0	1.605265052087091e+18
14160.0	1.6049690885750781e+18
14161.0	1.6046616645468157e+18
14162.0	1.6043460263936e+18
14163.0	1.6041430539567101e+18
14164.0	1.6038678556049403e+18
14165.0	1.6036043274846205e+18
14166.0	1.6033418982719485e+18
14167.0	1.6030542529036285e+18
14168.0	1.6027929662193661e+18
14169.0	1.602521952105267e+18
14170.0	1.602244629757952e+18
14171.0	1.6019676999974912e+18
14172.0	1.6016985062113283e+18
14173.0	1.6014115554197504e+18
14174.0	1.6011427777085437e+18
14175.0	1.6008770366734333e+18
14176.0	1.6006037828009981e+18
14177.0	1.600330092720947e+18
14178.0	1.600055917779353e+18
14179.0	1.5997791406915581e+18
14180.0	1.599508770822553e+18
14181.0	1.5992350689984512e+18
14182.0	1.5989605853560832e+18
14183.0	1.5986868935983104e+18
14184.0	1.5984076485820413e+18
14185.0	1.5981291652513792e+18
14186.0	1.5977382963838976e+18
14187.0	1.597543979312742e+18
14188.0	1.5973122104623104e+18
14189.0	1.5970448672030715e+18
14190.0	1.596773217232486e+18
14191.0	1.5964990808784893e+18
14192.0	1.5962166683238397e+18
14193.0	1.59593921511424e+18
14194.0	1.5956807184809981e+18
14195.0	1.5954105465831421e+18
14196.0	1.5951380913061885e+18
14197.0	1.5948652837076987e+18
14198.0	1.5945876308492285e+18
14199.0	1.5943122395594755e+18
14200.0	1.5939756735070205e+18
14201.0	1.593752246288384e+18
14202.0	1.5934984808300541e+18
14203.0	1.593225314199142e+18
14204.0	1.5929540182278141e+18
14205.0	1.5926759123845115e+18
14206.0	1.5922996698939387e+18
14207.0	1.592125409984512e+18
14208.0	1.5918607410135037e+18
14209.0	1.5914702815100925e+18
14210.0	1.5912180931100667e+18
14211.0	1.5910399224315901e+18
14212.0	1.5907805265395707e+18
14213.0	1.5905109703655421e+18
14214.0	1.5902380805586941e+18
14215.0	1.5899546244612093e+18
14216.0	1.5896955523694592e+18
14217.0	1.5894262377873403e+18
14218.0	1.589141917663232e+18
14219.0	1.588883382442393e+18
14220.0	1.5886106318864381e+18
14221.0	1.588340188197683e+18
14222.0	1.5880602720927741e+18
14223.0	1.5877957356617725e+18
14224.0	1.5875173848711165e+18
14225.0	1.586987036940697e+18
14226.0	1.586944978137907e+18
14227.0	1.5866915331244032e+18
14228.0	1.5856489365241853e+18
14229.0	1.5859074063138806e+18
14230.0	1.5858916961288187e+18
14231.0	1.585627253650227e+18
14232.0	1.5853596419555323e+18
14233.0	1.5850872772755453e+18
14234.0	1.5848187461894141e+18
14235.0	1.5845458396053496e+18
14236.0	1.5842765250232315e+18
14237.0	1.5840020480917501e+18
14238.0	1.5837239120494587e+18
14239.0	1.5833988937547776e+18
14240.0	1.5813294963032064e+18
14241.0	1.5828043830394875e+18
14242.0	1.5826147468115965e+18
14243.0	1.5822472955822075e+18
14244.0	1.5821068417630205e+18
14245.0	1.5818385975672832e+18
14246.0	1.5815731568443387e+18
14247.0	1.581302590681907e+18
14248.0	1.5810196630667264e+18
14249.0	1.5807652164534267e+18
14250.0	1.5804990073339901e+18
14251.0	1.580231283231948e+18
14252.0	1.5799611482439677e+18
14253.0	1.5796889647579133e+18
14254.0	1.5794128268820477e+18
14255.0	1.5790845336748032e+18
14256.0	1.5786287571140605e+18
14257.0	1.578490959128166e+18
14258.0	1.5783213347635197e+18
14259.0	1.578038648740249e+18
14260.0	1.5777756876898301e+18
14261.0	1.5774958168834043e+18
14262.0	1.5772445747183613e+18
14263.0	1.5766434353250301e+18
14264.0	1.5765193057370107e+18
14265.0	1.5764421271879675e+18
14266.0	1.5761979398422528e+18
14267.0	1.5759344033333248e+18
14268.0	1.5756655752904701e+18
14269.0	1.5753896924282875e+18
14270.0	1.5751290768326653e+18
14271.0	1.5748557004865533e+18
14272.0	1.5745784116936701e+18
14273.0	1.5742451255869437e+18
14274.0	1.5734317929988093e+18
14275.0	1.5735961644171264e+18
14276.0	1.5734735766552576e+18
14277.0	1.5732310250881024e+18
14278.0	1.572972936141209e+18
14279.0	1.5727057237442557e+18
14280.0	1.572436437683404e+18
14281.0	1.5721748456538107e+18
14282.0	1.5719079604125693e+18
14283.0	1.5716403470401533e+18
14284.0	1.571372398123417e+18
14285.0	1.5711038519377915e+18
14286.0	1.5708340407500797e+18
14287.0	1.5705601476657147e+18
14288.0	1.5702452879753213e+18
14289.0	1.5688344935596022e+18
14290.0	1.5697145608798205e+18
14291.0	1.569489002954752e+18
14292.0	1.5692234280140795e+18
14293.0	1.5689420657131515e+18
14294.0	1.568561914131251e+18
14295.0	1.5683557372461053e+18
14296.0	1.567228588510413e+18
14297.0	1.567768053180006e+18
14298.0	1.567412381233971e+18
14299.0	1.5673149173530621e+18
14300.0	1.567074535079936e+18
14301.0	1.5668153405145088e+18
14302.0	1.5665496934318075e+18
14303.0	1.5662462640586747e+18
14304.0	1.5660024793661437e+18
14305.0	1.5657517807828987e+18
14306.0	1.5654835818856448e+18
14307.0	1.5652149568471037e+18
14308.0	1.564949975819878e+18
14309.0	1.5646795791073275e+18
14310.0	1.564401778609356e+18
14311.0	1.5641232214589435e+18
14312.0	1.563841726618009e+18
14313.0	1.563431810577203e+18
14314.0	1.563351026604441e+18
14315.0	1.5630794571644923e+18
14316.0	1.5627708318875643e+18
14317.0	1.5625432271421437e+18
14318.0	1.5622848177504253e+18
14319.0	1.562021459079987e+18
14320.0	1.561756093854515e+18
14321.0	1.5614861752926203e+18
14322.0	1.561192119350067e+18
14323.0	1.5609360554131453e+18
14324.0	1.5606945574551547e+18
14325.0	1.560420840531558e+18
14326.0	1.5601663100321787e+18
14327.0	1.5598932574863357e+18
14328.0	1.5596276976451581e+18
14329.0	1.5593713015193597e+18
14330.0	1.55910655705088e+18
14331.0	1.5588413914742781e+18
14332.0	1.5585766855933947e+18
14333.0	1.5583117498646525e+18
14334.0	1.5580464450371581e+18
14335.0	1.5577668493770747e+18
14336.0	1.557490226639667e+18
14337.0	1.55724810289152e+18
14338.0	1.5569851670069243e+18
14339.0	1.5567114937040893e+18
14340.0	1.5564584563769341e+18
14341.0	1.5561830315327485e+18
14342.0	1.555913846135193e+18
14343.0	1.555654354613043e+18
14344.0	1.5553799162691581e+18
14345.0	1.5551221007908864e+18
14346.0	1.5548586733338621e+18
14347.0	1.554587414272409e+18
14348.0	1.5543310030471163e+18
14349.0	1.5540677332959232e+18
14350.0	1.5537821364256765e+18
14351.0	1.553512628905574e+18
14352.0	1.553263529191014e+18
14353.0	1.5530107535884285e+18
14354.0	1.5527466550427643e+18
14355.0	1.5524789896609792e+18
14356.0	1.552213468407398e+18
14357.0	1.5519562216767485e+18
14358.0	1.5516966194249725e+18
14359.0	1.5514170640302075e+18
14360.0	1.5511679022399488e+18
14361.0	1.550904922734592e+18
14362.0	1.5506418257887232e+18
14363.0	1.5503749321588733e+18
14364.0	1.5500553933029373e+18
14365.0	1.549816962220032e+18
14366.0	1.549571967890227e+18
14367.0	1.5493262219411453e+18
14368.0	1.5490639051358205e+18
14369.0	1.5487912082669565e+18
14370.0	1.5485285357846525e+18
14371.0	1.5482658616246272e+18
14372.0	1.5479968490323963e+18
14373.0	1.5477383138115581e+18
14374.0	1.5474755004006395e+18
14375.0	1.5472065263960064e+18
14376.0	1.5469523012419581e+18
14377.0	1.5466889727705088e+18
14378.0	1.5464245621686267e+18
14379.0	1.5461643592925181e+18
14380.0	1.545900962034483e+18
14381.0	1.5456270857273341e+18
14382.0	1.5453755952594944e+18
14383.0	1.5451142112673787e+18
14384.0	1.544833003316838e+18
14385.0	1.5445909366112253e+18
14386.0	1.5443088394682365e+18
14387.0	1.5440661956263933e+18
14388.0	1.5438013102292987e+18
14389.0	1.5435412281491453e+18
14390.0	1.543278439904051e+18
14391.0	1.543018434999091e+18
14392.0	1.542756220534784e+18
14393.0	1.5424948617084925e+18
14394.0	1.5421882547306496e+18
14395.0	1.5419594386702333e+18
14396.0	1.5417072519479293e+18
14397.0	1.5414464803241981e+18
14398.0	1.5411836467806205e+18
14399.0	1.540918328531353e+18
14400.0	1.5406357649817597e+18
14401.0	1.5403685223858173e+18
14402.0	1.5400902856802301e+18
14403.0	1.539610386838323e+18
14404.0	1.5366723356065782e+18
14405.0	1.5369794643558374e+18
14406.0	1.5389803956666365e+18
14407.0	1.5385971906314237e+18
14408.0	1.5385228507873275e+18
14409.0	1.5382688068272123e+18
14410.0	1.5380291879174141e+18
14411.0	1.537774744659558e+18
14412.0	1.5375134764302328e+18
14413.0	1.5372579074211837e+18
14414.0	1.5369958204637181e+18
14415.0	1.5367361326481405e+18
14416.0	1.5364745137750013e+18
14417.0	1.5362137958383616e+18
14418.0	1.5359515847294973e+18
14419.0	1.5356918549708797e+18
14420.0	1.5354271658672128e+18
14421.0	1.5351696372793341e+18
14422.0	1.5348974957363195e+18
14423.0	1.5345940143538168e+18
14424.0	1.533621784752947e+18
14425.0	1.5340681878831104e+18
14426.0	1.5338627609395197e+18
14427.0	1.5336080458907643e+18
14428.0	1.5333238885056507e+18
14429.0	1.533087321371443e+18
14430.0	1.5328199143587837e+18
14431.0	1.5324560551313405e+18
14432.0	1.5322959904243707e+18
14433.0	1.5318886496862203e+18
14434.0	1.5317654495559675e+18
14435.0	1.5315159421550587e+18
14436.0	1.531272742987366e+18
14437.0	1.5310151204470781e+18
14438.0	1.5307332900618235e+18
14439.0	1.530478808216371e+18
14440.0	1.5302268664414203e+18
14441.0	1.5299528726937595e+18
14442.0	1.5296846284980221e+18
14443.0	1.529383187224985e+18
14444.0	1.5291698062032893e+18
14445.0	1.528898973283123e+18
14446.0	1.5276691999948803e+18
14447.0	1.5283051823103997e+18
14448.0	1.5281426295422973e+18
14449.0	1.5278923252236285e+18
14450.0	1.5276288944111613e+18
14451.0	1.5273738505289725e+18
14452.0	1.5271189056323581e+18
14453.0	1.526859278214758e+18
14454.0	1.5266001004265467e+18
14455.0	1.5263333561139197e+18
14456.0	1.5260814478934016e+18
14457.0	1.5258216325709821e+18
14458.0	1.5255628524027904e+18
14459.0	1.5253011077005312e+18
14460.0	1.525038653322035e+18
14461.0	1.5247612034678784e+18
14462.0	1.5245061310644221e+18
14463.0	1.5242578987319296e+18
14464.0	1.5240035628482557e+18
14465.0	1.5237235427246077e+18
14466.0	1.5234931428950013e+18
14467.0	1.5232184075943936e+18
14468.0	1.522975287279616e+18
14469.0	1.5226886166675456e+18
14470.0	1.5224329620946944e+18
14471.0	1.522197683450675e+18
14472.0	1.5219459782344704e+18
14473.0	1.5216934811336701e+18
14474.0	1.5214396418555901e+18
14475.0	1.5211805060104192e+18
14476.0	1.5209160769535997e+18
14477.0	1.520666400102809e+18
14478.0	1.5204063549325312e+18
14479.0	1.5201373876387837e+18
14480.0	1.5198610887016443e+18
14481.0	1.519624350439833e+18
14482.0	1.5193604515430397e+18
14483.0	1.5190978763685885e+18
14484.0	1.5188262112985085e+18
14485.0	1.518523278530969e+18
14486.0	1.5180372358725632e+18
14487.0	1.5180601569050627e+18
14488.0	1.5178177882095613e+18
14489.0	1.5175558572802043e+18
14490.0	1.5173043919781885e+18
14491.0	1.5170518109913085e+18
14492.0	1.5167969147486205e+18
14493.0	1.516532091427225e+18
14494.0	1.516255126434611e+18
14495.0	1.5160054445506557e+18
14496.0	1.5156417061191677e+18
14497.0	1.5155002070794237e+18
14498.0	1.5152535098621947e+18
14499.0	1.514998507923046e+18
14500.0	1.5147402528817147e+18
14501.0	1.5144510203887613e+18
14502.0	1.5139790554923005e+18
14503.0	1.5139494084739072e+18
14504.0	1.5137034964303867e+18
14505.0	1.5134505497001981e+18
14506.0	1.5131653588385792e+18
14507.0	1.5127006618320888e+18
14508.0	1.5126735414624253e+18
14509.0	1.5124305587208187e+18
14510.0	1.5121721862389757e+18
14511.0	1.5119177866018813e+18
14512.0	1.5116501379973115e+18
14513.0	1.5113952786644992e+18
14514.0	1.5111060612710397e+18
14515.0	1.5107998653349888e+18
14516.0	1.5075348563623944e+18
14517.0	1.510135234245427e+18
14518.0	1.510099277316096e+18
14519.0	1.509857797813043e+18
14520.0	1.509614942578278e+18
14521.0	1.5093635997499387e+18
14522.0	1.5091082069016576e+18
14523.0	1.5088429826047995e+18
14524.0	1.5085888866353147e+18
14525.0	1.5083380085358584e+18
14526.0	1.5080828572794877e+18
14527.0	1.5077758308712448e+18
14528.0	1.507430507112038e+18
14529.0	1.507296213886566e+18
14530.0	1.5070383933751293e+18
14531.0	1.5067995143405565e+18
14532.0	1.506538675607961e+18
14533.0	1.5062917569314813e+18
14534.0	1.506038999783833e+18
14535.0	1.5057711431417853e+18
14536.0	1.505523118846771e+18
14537.0	1.505261164429312e+18
14538.0	1.5050181816877053e+18
14539.0	1.5047626261004285e+18
14540.0	1.5045089076183037e+18
14541.0	1.5042284496093181e+18
14542.0	1.5039942983942141e+18
14543.0	1.503721828017766e+18
14544.0	1.503479174109593e+18
14545.0	1.5031950838333437e+18
14546.0	1.501626781558374e+18
14547.0	1.5013187820716022e+18
14548.0	1.502401917458841e+18
14549.0	1.502079464400486e+18
14550.0	1.501933279484313e+18
14551.0	1.5017038007238653e+18
14552.0	1.5014492014379005e+18
14553.0	1.5011867487371264e+18
14554.0	1.5009440361086973e+18
14555.0	1.5006883865690107e+18
14556.0	1.5004301801816064e+18
14557.0	1.500163528143667e+18
14558.0	1.499822158774272e+18
14559.0	1.497355057417419e+18
14560.0	1.4993061419417595e+18
14561.0	1.4991392220643323e+18
14562.0	1.4988741722505216e+18
14563.0	1.4986517600534525e+18
14564.0	1.4983891832012797e+18
14565.0	1.498151065852313e+18
14566.0	1.4978981979750397e+18
14567.0	1.4976415736791037e+18
14568.0	1.4973803121606653e+18
14569.0	1.497099572294451e+18
14570.0	1.4962517541388283e+18
14571.0	1.4966015892914176e+18
14572.0	1.4963303839170557e+18
14573.0	1.4960638308646907e+18
14574.0	1.495860824873369e+18
14575.0	1.495612876075827e+18
14576.0	1.4953570319204347e+18
14577.0	1.495101489754931e+18
14578.0	1.4948562353782781e+18
14579.0	1.494606686034329e+18
14580.0	1.494354027872256e+18
14581.0	1.4940980947976192e+18
14582.0	1.493844929963622e+18
14583.0	1.4935934445289467e+18
14584.0	1.4933299600293885e+18
14585.0	1.493075865737625e+18
14586.0	1.4928224995770363e+18
14587.0	1.492571707041382e+18
14588.0	1.492319713257062e+18
14589.0	1.4920672245448704e+18
14590.0	1.4918143013027837e+18
14591.0	1.4915562509434875e+18
14592.0	1.4912863625805821e+18
14593.0	1.4909407083102205e+18
14594.0	1.4907899197259773e+18
14595.0	1.490539821767065e+18
14596.0	1.4902211049947136e+18
14597.0	1.4899575500308475e+18
14598.0	1.4897806527430653e+18
14599.0	1.4895424515080192e+18
14600.0	1.4892913435607037e+18
14601.0	1.489039252468531e+18
14602.0	1.4887822842396672e+18
14603.0	1.488531513514393e+18
14604.0	1.4882403499638781e+18
14605.0	1.4880069033918464e+18
14606.0	1.4876648679669757e+18
14607.0	1.4875208674443264e+18
14608.0	1.4872623003467776e+18
14609.0	1.487006214599475e+18
14610.0	1.4867509593243648e+18
14611.0	1.4864944138813435e+18
14612.0	1.4862696495185915e+18
14613.0	1.486019680744243e+18
14614.0	1.4857538273017853e+18
14615.0	1.4855066502561792e+18
14616.0	1.4852655734063101e+18
14617.0	1.4849874340085757e+18
14618.0	1.4847337054601213e+18
14619.0	1.484410670232371e+18
14620.0	1.4841047326654464e+18
14621.0	1.4839972980850685e+18
14622.0	1.4837510622412797e+18
14623.0	1.4835017125462013e+18
14624.0	1.4832029740826621e+18
14625.0	1.4829933746454528e+18
14626.0	1.482741342273536e+18
14627.0	1.4824920210997248e+18
14628.0	1.482252806520832e+18
14629.0	1.482002154913792e+18
14630.0	1.4817416013938685e+18
14631.0	1.4814888828338176e+18
14632.0	1.4811638662168573e+18
14633.0	1.4809732636213245e+18
14634.0	1.4807447344513021e+18
14635.0	1.480484595328614e+18
14636.0	1.480203691045683e+18
14637.0	1.4799949204029435e+18
14638.0	1.4797375327436797e+18
14639.0	1.4794778264731648e+18
14640.0	1.4792211468124157e+18
14641.0	1.4787430951419901e+18
14642.0	1.4787189158182912e+18
14643.0	1.4784855329996797e+18
14644.0	1.4782227363659773e+18
14645.0	1.4779569248665597e+18
14646.0	1.4777163060346875e+18
14647.0	1.4774750043701245e+18
