# Flux units: erg / (cm m2 s)
# Wavelength units: Angstrom
wave	flux
14000.0	1.79817109562327e+18
14001.0	1.7978489462325248e+18
14002.0	1.7976852391919616e+18
14003.0	1.797364883285606e+18
14004.0	1.7970424470044672e+18
14005.0	1.7967188900052987e+18
14006.0	1.7963875852877816e+18
14007.0	1.7960608137740288e+18
14008.0	1.7956626501730307e+18
14009.0	1.7954059235360765e+18
14010.0	1.7950730434379776e+18
14011.0	1.7941290767351803e+18
14012.0	1.7944290533572605e+18
14013.0	1.7941311134892027e+18
14014.0	1.793805068428902e+18
14015.0	1.7934874488864765e+18
14016.0	1.7931666550947835e+18
14017.0	1.7928447154192381e+18
14018.0	1.7925171570540541e+18
14019.0	1.792199859634176e+18
14020.0	1.7918767220654075e+18
14021.0	1.7915537354915835e+18
14022.0	1.7912314904707064e+18
14023.0	1.7908979644497915e+18
14024.0	1.790576529768448e+18
14025.0	1.790265404686336e+18
14026.0	1.7899424181125115e+18
14027.0	1.789621082416742e+18
14028.0	1.7892913077813248e+18
14029.0	1.7889642175004664e+18
14030.0	1.7882432149651456e+18
14031.0	1.7882425237438461e+18
14032.0	1.7880064062390272e+18
14033.0	1.787648586809344e+18
14034.0	1.7873697712898043e+18
14035.0	1.7870497542832125e+18
14036.0	1.7867290577993723e+18
14037.0	1.7864081851547648e+18
14038.0	1.7860872672116733e+18
14039.0	1.7857619469271035e+18
14040.0	1.7854430237949947e+18
14041.0	1.7851231795937275e+18
14042.0	1.7847927657463803e+18
14043.0	1.7844441637191677e+18
14044.0	1.7841468529967104e+18
14045.0	1.7838348286558205e+18
14046.0	1.7835166135222264e+18
14047.0	1.7831932377169915e+18
14048.0	1.7828801497006077e+18
14049.0	1.7825606343327741e+18
14050.0	1.7822403354689533e+18
14051.0	1.7819131948564477e+18
14052.0	1.781594915969433e+18
14053.0	1.781280336458547e+18
14054.0	1.780960629830451e+18
14055.0	1.7806408409939965e+18
14056.0	1.7803210622238717e+18
14057.0	1.7800014260600827e+18
14058.0	1.7796817815076861e+18
14059.0	1.7793575550976e+18
14060.0	1.7790425293127675e+18
14061.0	1.7787162376273917e+18
14062.0	1.7784023795367933e+18
14063.0	1.7780680549203963e+18
14064.0	1.7776701731766264e+18
14065.0	1.7774365168893947e+18
14066.0	1.77712483312599e+18
14067.0	1.776808434964889e+18
14068.0	1.7764894698897403e+18
14069.0	1.776169865602662e+18
14070.0	1.7758517142224893e+18
14071.0	1.7755303953039352e+18
14072.0	1.7752147034636285e+18
14073.0	1.7748961712406528e+18
14074.0	1.7745776423731195e+18
14075.0	1.7742404119429117e+18
14076.0	1.7739367426555904e+18
14077.0	1.7735267477618685e+18
14078.0	1.7732900967415803e+18
14079.0	1.7729757420453888e+18
14080.0	1.772667495933542e+18
14081.0	1.7723499099455485e+18
14082.0	1.772031266992947e+18
14083.0	1.77171090940887e+18
14084.0	1.771384528804249e+18
14085.0	1.7708331019796477e+18
14086.0	1.7707306720428032e+18
14087.0	1.7704368308486141e+18
14088.0	1.7701134416216061e+18
14089.0	1.7698089703833597e+18
14090.0	1.7694915270017021e+18
14091.0	1.7691750399213565e+18
14092.0	1.7688581149556733e+18
14093.0	1.7685409903411195e+18
14094.0	1.768223635878707e+18
14095.0	1.7679052731056128e+18
14096.0	1.7675773221535744e+18
14097.0	1.767251458287206e+18
14098.0	1.7669503408144381e+18
14099.0	1.7666381319241728e+18
14100.0	1.7663108805820416e+18
14101.0	1.7660068891721728e+18
14102.0	1.7656883334610941e+18
14103.0	1.7653581561724923e+18
14104.0	1.7650548912160765e+18
14105.0	1.7647419911045117e+18
14106.0	1.764425814402663e+18
14107.0	1.7641056245907453e+18
14108.0	1.763781238797107e+18
14109.0	1.7634734205042685e+18
14110.0	1.7631597419298813e+18
14111.0	1.7628387770105853e+18
14112.0	1.7625200367501307e+18
14113.0	1.7622122520117243e+18
14114.0	1.7618810429243395e+18
14115.0	1.7615719881506813e+18
14116.0	1.761199537310924e+18
14117.0	1.760169302163456e+18
14118.0	1.7606033773953021e+18
14119.0	1.760298741740339e+18
14120.0	1.7599938795929595e+18
14121.0	1.7596744397225987e+18
14122.0	1.759365859744153e+18
14123.0	1.7590491746926587e+18
14124.0	1.7587090619367424e+18
14125.0	1.7579957936979963e+18
14126.0	1.75809317872599e+18
14127.0	1.757796914901811e+18
14128.0	1.7574840802213885e+18
14129.0	1.7571590787039227e+18
14130.0	1.7568335134719997e+18
14131.0	1.756538622024089e+18
14132.0	1.756193038218035e+18
14133.0	1.7554067068813307e+18
14134.0	1.7555655535624187e+18
14135.0	1.75526999270359e+18
14136.0	1.7549683635257341e+18
14137.0	1.7546553845612541e+18
14138.0	1.754340288312115e+18
14139.0	1.7540298896834557e+18
14140.0	1.753714395814297e+18
14141.0	1.7533878038167547e+18
14142.0	1.7530585694076925e+18
14143.0	1.7527723249369085e+18
14144.0	1.7524635721531387e+18
14145.0	1.7521491016941563e+18
14146.0	1.7518355573374968e+18
14147.0	1.751524581572608e+18
14148.0	1.751212032104857e+18
14149.0	1.7508996990631933e+18
14150.0	1.750586554004275e+18
14151.0	1.7502717127688184e+18
14152.0	1.7499590374719488e+18
14153.0	1.749648244578713e+18
14154.0	1.7493084438790141e+18
14155.0	1.74901154587607e+18
14156.0	1.7487088177905661e+18
14157.0	1.748396825326387e+18
14158.0	1.74808130125824e+18
14159.0	1.7477709361840125e+18
14160.0	1.747439967010816e+18
14161.0	1.7470921853894656e+18
14162.0	1.74673642955735e+18
14163.0	1.7465077158379517e+18
14164.0	1.7461839642230781e+18
14165.0	1.7458815112839165e+18
14166.0	1.745584594826035e+18
14167.0	1.745260219098726e+18
14168.0	1.7449611836784637e+18
14169.0	1.7446528436142075e+18
14170.0	1.7443383916101632e+18
14171.0	1.7440265920839675e+18
14172.0	1.7437175574429693e+18
14173.0	1.7433905762140152e+18
14174.0	1.743087166973542e+18
14175.0	1.7427840546897912e+18
14176.0	1.7424733440049147e+18
14177.0	1.7421623279747072e+18
14178.0	1.7418508237275133e+18
14179.0	1.7415365445287933e+18
14180.0	1.7412292396187643e+18
14181.0	1.7409183158632448e+18
14182.0	1.7406066287443963e+18
14183.0	1.7402959482585085e+18
14184.0	1.7399796004290557e+18
14185.0	1.7396658899779581e+18
14186.0	1.73922677990359e+18
14187.0	1.7390084479254523e+18
14188.0	1.738736985859686e+18
14189.0	1.73843167576064e+18
14190.0	1.7381216445530107e+18
14191.0	1.737810517793177e+18
14192.0	1.7374908631744507e+18
14193.0	1.737173329195827e+18
14194.0	1.7368806187859963e+18
14195.0	1.7365732182458365e+18
14196.0	1.7362635561369595e+18
14197.0	1.7359537111564288e+18
14198.0	1.7356391266123776e+18
14199.0	1.7353274227163133e+18
14200.0	1.734945992710553e+18
14201.0	1.734695510553395e+18
14202.0	1.7344023085711352e+18
14203.0	1.7340913881710587e+18
14204.0	1.7337834557931515e+18
14205.0	1.73347018154967e+18
14206.0	1.7330517326168061e+18
14207.0	1.7328479917834237e+18
14208.0	1.732544627841433e+18
14209.0	1.7321142352084987e+18
14210.0	1.7318281719316477e+18
14211.0	1.7316121216548861e+18
14212.0	1.7313138781192187e+18
14213.0	1.7310069439856637e+18
14214.0	1.7306972751659005e+18
14215.0	1.7303773554671613e+18
14216.0	1.7300821720956925e+18
14217.0	1.7297740669124605e+18
14218.0	1.729452947642777e+18
14219.0	1.729157368329011e+18
14220.0	1.7288491540938747e+18
14221.0	1.7285404902293504e+18
14222.0	1.7282225116545021e+18
14223.0	1.7279230198939643e+18
14224.0	1.7276100728061952e+18
14225.0	1.727032376216781e+18
14226.0	1.7269717987229693e+18
14227.0	1.7266820310368253e+18
14228.0	1.7256280963940347e+18
14229.0	1.7258604356698107e+18
14230.0	1.7257641579380733e+18
14231.0	1.7254596380459003e+18
14232.0	1.7251552238501888e+18
14233.0	1.7248468435206141e+18
14234.0	1.7245408237453312e+18
14235.0	1.7242311230488576e+18
14236.0	1.7239255596138493e+18
14237.0	1.723615432776089e+18
14238.0	1.7233038463205376e+18
14239.0	1.722960644879155e+18
14240.0	1.7209712898473981e+18
14241.0	1.72228792549376e+18
14242.0	1.7220308549238781e+18
14243.0	1.7216109782499325e+18
14244.0	1.72144016270295e+18
14245.0	1.721131617956659e+18
14246.0	1.720827827873382e+18
14247.0	1.7205224120778747e+18
14248.0	1.7202040929255421e+18
14249.0	1.7199108775215104e+18
14250.0	1.7196077753040893e+18
14251.0	1.719303520491929e+18
14252.0	1.7189968698933243e+18
14253.0	1.7186885818384381e+18
14254.0	1.7183782436077568e+18
14255.0	1.7180283161804795e+18
14256.0	1.7175112608382979e+18
14257.0	1.71736820655063e+18
14258.0	1.717149537350451e+18
14259.0	1.7168048762912763e+18
14260.0	1.716506178093056e+18
14261.0	1.716189694368153e+18
14262.0	1.7159111137296381e+18
14263.0	1.7152413907550203e+18
14264.0	1.7151173182095357e+18
14265.0	1.7149962169090048e+18
14266.0	1.714709873452646e+18
14267.0	1.7144081905876987e+18
14268.0	1.7141040918036477e+18
14269.0	1.7137896884535293e+18
14270.0	1.7134929481564157e+18
14271.0	1.7131857455874043e+18
14272.0	1.7128734058348544e+18
14273.0	1.7125275686928381e+18
14274.0	1.711620042103193e+18
14275.0	1.7118119533215741e+18
14276.0	1.711634846318592e+18
14277.0	1.7113494373531643e+18
14278.0	1.711049994246553e+18
14279.0	1.7107241052143613e+18
14280.0	1.7104172465782781e+18
14281.0	1.710119182558822e+18
14282.0	1.709815550181376e+18
14283.0	1.7095113591226363e+18
14284.0	1.7092069667373053e+18
14285.0	1.7089021851205627e+18
14286.0	1.7085965931642877e+18
14287.0	1.7082887262175224e+18
14288.0	1.7079546566148093e+18
14289.0	1.7065786396901363e+18
14290.0	1.7073494084812797e+18
14291.0	1.7070717925326843e+18
14292.0	1.706769059414016e+18
14293.0	1.7064619809964027e+18
14294.0	1.7060395877400576e+18
14295.0	1.7058145431977981e+18
14296.0	1.7046948250910723e+18
14297.0	1.7051784719630333e+18
14298.0	1.7047525018042368e+18
14299.0	1.704619248766156e+18
14300.0	1.7043368563441661e+18
14301.0	1.7040333061750781e+18
14302.0	1.7037112608030715e+18
14303.0	1.7033722989641723e+18
14304.0	1.7030909282746365e+18
14305.0	1.7028034271903741e+18
14306.0	1.70249730171863e+18
14307.0	1.7021926559973376e+18
14308.0	1.701892125727129e+18
14309.0	1.7015848728264696e+18
14310.0	1.7012656997138427e+18
14311.0	1.700952662029107e+18
14312.0	1.7006447548170235e+18
14313.0	1.7002381875085312e+18
14314.0	1.7000751599452157e+18
14315.0	1.6997713715396603e+18
14316.0	1.6994300223029243e+18
14317.0	1.699167692075827e+18
14318.0	1.6988731797929981e+18
14319.0	1.69857341456384e+18
14320.0	1.6982716478128125e+18
14321.0	1.6979660592119803e+18
14322.0	1.6976335331131384e+18
14323.0	1.6973430205186048e+18
14324.0	1.6970651914993661e+18
14325.0	1.6967545261129725e+18
14326.0	1.6964637467607037e+18
14327.0	1.6961277578444795e+18
14328.0	1.695825172365312e+18
14329.0	1.6955324720218112e+18
14330.0	1.695231295828787e+18
14331.0	1.6949297622810621e+18
14332.0	1.694628708561715e+18
14333.0	1.694327488747929e+18
14334.0	1.6940260004986877e+18
14335.0	1.693711333746278e+18
14336.0	1.6933956301619195e+18
14337.0	1.693118977225523e+18
14338.0	1.692819284138393e+18
14339.0	1.6925092613193725e+18
14340.0	1.692220007016038e+18
14341.0	1.691917290674585e+18
14342.0	1.691616476869427e+18
14343.0	1.6913175303684093e+18
14344.0	1.6910114501951485e+18
14345.0	1.6907157651849213e+18
14346.0	1.6904135571931133e+18
14347.0	1.6901052573941757e+18
14348.0	1.6898137515884541e+18
14349.0	1.6895146004054016e+18
14350.0	1.6891914276044795e+18
14351.0	1.688885808804659e+18
14352.0	1.688603381150515e+18
14353.0	1.6883132913418237e+18
14354.0	1.6880076859637757e+18
14355.0	1.687680500052787e+18
14356.0	1.6873819041955835e+18
14357.0	1.6870890763452413e+18
14358.0	1.6867898865745915e+18
14359.0	1.6864738642231293e+18
14360.0	1.6861885542432765e+18
14361.0	1.6858895691546621e+18
14362.0	1.6855906109095933e+18
14363.0	1.6852884515717115e+18
14364.0	1.6849270132965376e+18
14365.0	1.6846592355074048e+18
14366.0	1.6843763531907067e+18
14367.0	1.6840940580765693e+18
14368.0	1.6837952726368256e+18
14369.0	1.6834968613289981e+18
14370.0	1.683198012135833e+18
14371.0	1.6828991964971003e+18
14372.0	1.682594314217062e+18
14373.0	1.68230114075607e+18
14374.0	1.6820021942550525e+18
14375.0	1.6817008033136635e+18
14376.0	1.6814051887677437e+18
14377.0	1.6811058178031608e+18
14378.0	1.6808052975992824e+18
14379.0	1.6805091243720704e+18
14380.0	1.68020965106647e+18
14381.0	1.679899760787456e+18
14382.0	1.6796122395705336e+18
14383.0	1.6793144725078013e+18
14384.0	1.678997668338073e+18
14385.0	1.6787194265993213e+18
14386.0	1.6784001175912443e+18
14387.0	1.6780949400322048e+18
14388.0	1.6777937235738621e+18
14389.0	1.6774979563552768e+18
14390.0	1.6771989578448893e+18
14391.0	1.6769028953473021e+18
14392.0	1.6766044991389696e+18
14393.0	1.676307215260057e+18
14394.0	1.6759662066008061e+18
14395.0	1.6757001182773248e+18
14396.0	1.675413276537651e+18
14397.0	1.675115178963763e+18
14398.0	1.6748166485377021e+18
14399.0	1.6745175778852861e+18
14400.0	1.6741990657949693e+18
14401.0	1.6739072814874621e+18
14402.0	1.6735982653014013e+18
14403.0	1.6730135491248123e+18
14404.0	1.6701579142889457e+18
14405.0	1.670654957767882e+18
14406.0	1.6723701479243768e+18
14407.0	1.6718138875838461e+18
14408.0	1.6718064720543744e+18
14409.0	1.6715197309779965e+18
14410.0	1.6712420261101565e+18
14411.0	1.6709512434024443e+18
14412.0	1.6706535988133885e+18
14413.0	1.6703615813025787e+18
14414.0	1.670063154895257e+18
14415.0	1.6697675554488315e+18
14416.0	1.669471776486195e+18
14417.0	1.6691724642418688e+18
14418.0	1.6688737090011139e+18
14419.0	1.6685794903195643e+18
14420.0	1.6682788375756797e+18
14421.0	1.6679852832718843e+18
14422.0	1.6676770925248507e+18
14423.0	1.667324866618982e+18
14424.0	1.665827151124889e+18
14425.0	1.6667059198885888e+18
14426.0	1.6664700037103616e+18
14427.0	1.6661803635310587e+18
14428.0	1.6658610897551357e+18
14429.0	1.6655886864875515e+18
14430.0	1.6652875404935165e+18
14431.0	1.6648772905861115e+18
14432.0	1.6646891307532288e+18
14433.0	1.664160005881856e+18
14434.0	1.6640857616678907e+18
14435.0	1.6637994668654584e+18
14436.0	1.663522110963712e+18
14437.0	1.6632286002806781e+18
14438.0	1.6629187922100221e+18
14439.0	1.6626311418085376e+18
14440.0	1.6623427448209403e+18
14441.0	1.6620363257479163e+18
14442.0	1.6617336144396285e+18
14443.0	1.661396647411712e+18
14444.0	1.661147482266009e+18
14445.0	1.6608450461040637e+18
14446.0	1.659546865395303e+18
14447.0	1.6601972291403768e+18
14448.0	1.6599754024681472e+18
14449.0	1.659686666580787e+18
14450.0	1.659386785588838e+18
14451.0	1.6590952277737472e+18
14452.0	1.6588040726118397e+18
14453.0	1.6585078977069053e+18
14454.0	1.6582146554593275e+18
14455.0	1.6579113485598715e+18
14456.0	1.6576236109168637e+18
14457.0	1.657327694381056e+18
14458.0	1.6570340360585213e+18
14459.0	1.656736669971251e+18
14460.0	1.6564381496115195e+18
14461.0	1.656122875523891e+18
14462.0	1.6558298044039168e+18
14463.0	1.6555491232579581e+18
14464.0	1.6552551495237632e+18
14465.0	1.654918598570803e+18
14466.0	1.654649221912985e+18
14467.0	1.6543386890665981e+18
14468.0	1.654059670542745e+18
14469.0	1.6537436700016635e+18
14470.0	1.653446045545267e+18
14471.0	1.6531748703698941e+18
14472.0	1.6528864381501437e+18
14473.0	1.652597812992409e+18
14474.0	1.652307793648025e+18
14475.0	1.6520122898317307e+18
14476.0	1.6517071508602877e+18
14477.0	1.6514270351065085e+18
14478.0	1.651131437337804e+18
14479.0	1.6508382655545344e+18
14480.0	1.6505272562352125e+18
14481.0	1.6502542221443072e+18
14482.0	1.649954970297958e+18
14483.0	1.649656768705331e+18
14484.0	1.649351631411609e+18
14485.0	1.649020215964467e+18
14486.0	1.6484835312795648e+18
14487.0	1.64848196428759e+18
14488.0	1.6481979696414715e+18
14489.0	1.6478991053488125e+18
14490.0	1.6476123827273725e+18
14491.0	1.6473237743468541e+18
14492.0	1.6470331610890237e+18
14493.0	1.6467326308188157e+18
14494.0	1.646421685252915e+18
14495.0	1.6461399353982976e+18
14496.0	1.645730628370432e+18
14497.0	1.6455606047080443e+18
14498.0	1.6452770999566333e+18
14499.0	1.6449852384739328e+18
14500.0	1.6446913939243005e+18
14501.0	1.6443721872572413e+18
14502.0	1.6438729006645248e+18
14503.0	1.6437947272265725e+18
14504.0	1.643512188842803e+18
14505.0	1.643221119244697e+18
14506.0	1.6429064541700093e+18
14507.0	1.6423968076464123e+18
14508.0	1.6423438285537275e+18
14509.0	1.6420609865023485e+18
14510.0	1.6417671671185405e+18
14511.0	1.641477060532633e+18
14512.0	1.6411729130946557e+18
14513.0	1.640886703856025e+18
14514.0	1.6405429521219581e+18
14515.0	1.6402239652364288e+18
14516.0	1.6371373635010573e+18
14517.0	1.6395421291118592e+18
14518.0	1.639391216376217e+18
14519.0	1.63911071474647e+18
14520.0	1.6388245877161981e+18
14521.0	1.638535828340736e+18
14522.0	1.638243916526387e+18
14523.0	1.6379359707267072e+18
14524.0	1.6376468254752763e+18
14525.0	1.637365743353856e+18
14526.0	1.637076200482406e+18
14527.0	1.6367431777779707e+18
14528.0	1.6363608015372288e+18
14529.0	1.6361929689792507e+18
14530.0	1.635897953379942e+18
14531.0	1.6356230133972992e+18
14532.0	1.6353193206218747e+18
14533.0	1.6350430569168893e+18
14534.0	1.634755027350323e+18
14535.0	1.6344516080435195e+18
14536.0	1.6341679808184315e+18
14537.0	1.633869082971341e+18
14538.0	1.6335914837999613e+18
14539.0	1.6333015198203904e+18
14540.0	1.6330105559187453e+18
14541.0	1.6326940889710587e+18
14542.0	1.6324244673658875e+18
14543.0	1.6321134983118843e+18
14544.0	1.631838316737331e+18
14545.0	1.631521333051392e+18
14546.0	1.629364197471026e+18
14547.0	1.6290724953718769e+18
14548.0	1.6306263205871613e+18
14549.0	1.630259896123392e+18
14550.0	1.6300805158076408e+18
14551.0	1.6298106593214461e+18
14552.0	1.6295206466879485e+18
14553.0	1.6292233762308093e+18
14554.0	1.6289433561071613e+18
14555.0	1.6286525398450176e+18
14556.0	1.6283600928374781e+18
14557.0	1.6280626831294461e+18
14558.0	1.6277179599945725e+18
14559.0	1.625368275661617e+18
14560.0	1.627132961960755e+18
14561.0	1.6268957925244925e+18
14562.0	1.626591207201177e+18
14563.0	1.626329635304243e+18
14564.0	1.6260370675007485e+18
14565.0	1.6257567504203776e+18
14566.0	1.6254680380211195e+18
14567.0	1.6251757722075133e+18
14568.0	1.6248799596904443e+18
14569.0	1.624575703200563e+18
14570.0	1.6237158339706872e+18
14571.0	1.6239736444157947e+18
14572.0	1.6236597745811453e+18
14573.0	1.6233564190277624e+18
14574.0	1.6231137634418685e+18
14575.0	1.622830720063897e+18
14576.0	1.6225393820303357e+18
14577.0	1.6222482168020992e+18
14578.0	1.621967153135616e+18
14579.0	1.621681324739788e+18
14580.0	1.6213926861602813e+18
14581.0	1.6211005814079488e+18
14582.0	1.6208139342839805e+18
14583.0	1.620524844397363e+18
14584.0	1.620224540619571e+18
14585.0	1.6199461663408125e+18
14586.0	1.619656296313651e+18
14587.0	1.619369993122611e+18
14588.0	1.6190819400679421e+18
14589.0	1.6187941017616381e+18
14590.0	1.6185059564322813e+18
14591.0	1.6182143633850363e+18
14592.0	1.6179112578121723e+18
14593.0	1.6175229676027904e+18
14594.0	1.6173434513915901e+18
14595.0	1.6170556197961725e+18
14596.0	1.6167011725869053e+18
14597.0	1.6164019039633405e+18
14598.0	1.6161903566913533e+18
14599.0	1.6159155005947901e+18
14600.0	1.615628427329536e+18
14601.0	1.6153408658472957e+18
14602.0	1.6150499757654013e+18
14603.0	1.6147632263004157e+18
14604.0	1.6144353240023037e+18
14605.0	1.6141751446142976e+18
14606.0	1.6138049201111037e+18
14607.0	1.6136096870039547e+18
14608.0	1.613322388924006e+18
14609.0	1.6130340791779328e+18
14610.0	1.612742794831462e+18
14611.0	1.6124548642504701e+18
14612.0	1.6121810181423101e+18
14613.0	1.611895609176883e+18
14614.0	1.6116015582674941e+18
14615.0	1.611316882466406e+18
14616.0	1.6110353339383803e+18
14617.0	1.610738256419225e+18
14618.0	1.6104466012962816e+18
14619.0	1.6100795577532408e+18
14620.0	1.6097234680545275e+18
14621.0	1.6095930990198781e+18
14622.0	1.6093090020327421e+18
14623.0	1.6090245007147003e+18
14624.0	1.6086855304871933e+18
14625.0	1.6084453243748347e+18
14626.0	1.608162163556352e+18
14627.0	1.6078766186954747e+18
14628.0	1.6075957630664704e+18
14629.0	1.6073093743116285e+18
14630.0	1.607018797963673e+18
14631.0	1.6067308321505275e+18
14632.0	1.6063395119759363e+18
14633.0	1.6061344339984381e+18
14634.0	1.6058736120430592e+18
14635.0	1.6055676627320824e+18
14636.0	1.6052352456851453e+18
14637.0	1.604989187679846e+18
14638.0	1.6046960041525248e+18
14639.0	1.6044003862511616e+18
14640.0	1.6041073201643515e+18
14641.0	1.603443334997606e+18
14642.0	1.603532846478131e+18
14643.0	1.603265464631296e+18
14644.0	1.6029674106781693e+18
14645.0	1.6026708834516992e+18
14646.0	1.6023954468634624e+18
14647.0	1.6021106536218621e+18
14648.0	1.6018318062256125e+18
