# Flux units: erg / (cm m2 s)
# Wavelength units: Angstrom
wave	flux
14000.0	1.6897562896236541e+18
14001.0	1.6894524794077181e+18
14002.0	1.6891770612744187e+18
14003.0	1.6888820272201725e+18
14004.0	1.6885868673368061e+18
14005.0	1.68829165544407e+18
14006.0	1.6879957137424381e+18
14007.0	1.6877008071950333e+18
14008.0	1.6873988458283003e+18
14009.0	1.6871092509474808e+18
14010.0	1.6868146111578112e+18
14011.0	1.6864537852510203e+18
14012.0	1.6862235347386365e+18
14013.0	1.6859322990460925e+18
14014.0	1.6856381172744187e+18
14015.0	1.6853435831812093e+18
14016.0	1.6850493426892797e+18
14017.0	1.684755065287475e+18
14018.0	1.684460779497062e+18
14019.0	1.6841665608155133e+18
14020.0	1.6838723287121915e+18
14021.0	1.6835781804949504e+18
14022.0	1.6832841983721467e+18
14023.0	1.6829900233113597e+18
14024.0	1.682695769397657e+18
14025.0	1.682402518761472e+18
14026.0	1.6821086708563963e+18
14027.0	1.681815064543232e+18
14028.0	1.6815212703252475e+18
14029.0	1.6812270449328125e+18
14030.0	1.6809099152850941e+18
14031.0	1.6806355725713403e+18
14032.0	1.6803471051194365e+18
14033.0	1.680050074576486e+18
14034.0	1.679761071931392e+18
14035.0	1.6794680024891387e+18
14036.0	1.6791749481463805e+18
14037.0	1.6788819558793216e+18
14038.0	1.678589005555302e+18
14039.0	1.678296117306982e+18
14040.0	1.6780032894566397e+18
14041.0	1.6777104666394621e+18
14042.0	1.6774166908764157e+18
14043.0	1.6771212340363261e+18
14044.0	1.6768312834785283e+18
14045.0	1.6765401736151037e+18
14046.0	1.6762477702283261e+18
14047.0	1.6759553550974976e+18
14048.0	1.675663136260096e+18
14049.0	1.675370930844467e+18
14050.0	1.6750787472392187e+18
14051.0	1.6747859898531837e+18
14052.0	1.674494484047462e+18
14053.0	1.6742027064508416e+18
14054.0	1.6739108265132032e+18
14055.0	1.673619008651264e+18
14056.0	1.6733272528650237e+18
14057.0	1.673035562509926e+18
14058.0	1.672743937585971e+18
14059.0	1.6724523663491072e+18
14060.0	1.6721608521547776e+18
14061.0	1.6718687104925693e+18
14062.0	1.671577894230425e+18
14063.0	1.671285240863129e+18
14064.0	1.6709891599106043e+18
14065.0	1.6707033952681984e+18
14066.0	1.6704132534501376e+18
14067.0	1.6701222710935547e+18
14068.0	1.6698312988033021e+18
14069.0	1.6695403483234304e+18
14070.0	1.6692495538716672e+18
14071.0	1.668958499373056e+18
14072.0	1.668668104219033e+18
14073.0	1.6683774758617085e+18
14074.0	1.668086901191475e+18
14075.0	1.6677945212927997e+18
14076.0	1.6675057317183488e+18
14077.0	1.6672098739027965e+18
14078.0	1.666924231734067e+18
14079.0	1.6666344338489341e+18
14080.0	1.6663447634706432e+18
14081.0	1.6660546887614461e+18
14082.0	1.6657645637206016e+18
14083.0	1.6654742876848125e+18
14084.0	1.665183375792537e+18
14085.0	1.664872702017536e+18
14086.0	1.66460206874624e+18
14087.0	1.6643149787037693e+18
14088.0	1.6640256287703037e+18
14089.0	1.6637361848844285e+18
14090.0	1.6634466789228541e+18
14091.0	1.6631572568473597e+18
14092.0	1.662867915302502e+18
14093.0	1.662578580468531e+18
14094.0	1.6622893127434237e+18
14095.0	1.6620000265633787e+18
14096.0	1.661710394772684e+18
14097.0	1.6614215364116475e+18
14098.0	1.6611326025531392e+18
14099.0	1.6608438448553981e+18
14100.0	1.660553859065446e+18
14101.0	1.6602663311376381e+18
14102.0	1.6599775600181243e+18
14103.0	1.6596872034516987e+18
14104.0	1.6594003315130363e+18
14105.0	1.6591118221180925e+18
14106.0	1.6588233395666941e+18
14107.0	1.658534919090995e+18
14108.0	1.65824655565783e+18
14109.0	1.6579578986233853e+18
14110.0	1.6576698959003643e+18
14111.0	1.657381602931507e+18
14112.0	1.657093502900633e+18
14113.0	1.6568056008409085e+18
14114.0	1.656517541075353e+18
14115.0	1.656229008192307e+18
14116.0	1.655937215496192e+18
14117.0	1.6556069677432832e+18
14118.0	1.6553639766130688e+18
14119.0	1.655077817706086e+18
14120.0	1.654790578346393e+18
14121.0	1.6545033557639165e+18
14122.0	1.654215616443187e+18
14123.0	1.653927930809548e+18
14124.0	1.6536373259403261e+18
14125.0	1.653311512405606e+18
14126.0	1.653064296772403e+18
14127.0	1.6527795203080192e+18
14128.0	1.6524927221891067e+18
14129.0	1.652204677523046e+18
14130.0	1.6519172200595453e+18
14131.0	1.6516315946680315e+18
14132.0	1.6513415098925053e+18
14133.0	1.651008483832627e+18
14134.0	1.6507679740526584e+18
14135.0	1.6504837210374141e+18
14136.0	1.6501985620525053e+18
14137.0	1.649912250472857e+18
14138.0	1.6496258315190272e+18
14139.0	1.6493396457684987e+18
14140.0	1.6490532788240381e+18
14141.0	1.648766334743347e+18
14142.0	1.648479442672025e+18
14143.0	1.648194743382835e+18
14144.0	1.6479090475270141e+18
14145.0	1.6476231218233341e+18
14146.0	1.6473371642429437e+18
14147.0	1.6470514012782587e+18
14148.0	1.6467656987115515e+18
14149.0	1.6464800464764928e+18
14150.0	1.6461943673978875e+18
14151.0	1.6459085843005437e+18
14152.0	1.6456233280077821e+18
14153.0	1.6453378552889341e+18
14154.0	1.6450497552580603e+18
14155.0	1.6447664048570365e+18
14156.0	1.64448176261038e+18
14157.0	1.6441966103363581e+18
14158.0	1.643911166138777e+18
14159.0	1.643626255456665e+18
14160.0	1.6433391989686272e+18
14161.0	1.64305113752535e+18
14162.0	1.6427618865774587e+18
14163.0	1.6424853930246141e+18
14164.0	1.6422009420382203e+18
14165.0	1.6419159525031933e+18
14166.0	1.641632489694822e+18
14167.0	1.6413481561489405e+18
14168.0	1.641063626309632e+18
14169.0	1.64077929276375e+18
14170.0	1.640494611929497e+18
14171.0	1.6402102699950075e+18
14172.0	1.6399262753488893e+18
14173.0	1.6396407539761152e+18
14174.0	1.639357210637107e+18
14175.0	1.6390739810320384e+18
14176.0	1.638790046783897e+18
14177.0	1.6385061293129725e+18
14178.0	1.6382222269415421e+18
14179.0	1.6379381215657981e+18
14180.0	1.6376547107667965e+18
14181.0	1.637371034887782e+18
14182.0	1.6370873405538296e+18
14183.0	1.6368037905039357e+18
14184.0	1.636519789146931e+18
14185.0	1.636236212253491e+18
14186.0	1.6359445873295357e+18
14187.0	1.635666139231027e+18
14188.0	1.6353867197317123e+18
14189.0	1.6351037266853885e+18
14190.0	1.6348206212317181e+18
14191.0	1.6345374771904507e+18
14192.0	1.6342538013114363e+18
14193.0	1.6339706488815613e+18
14194.0	1.633688759776051e+18
14195.0	1.6334061425393661e+18
14196.0	1.6331234196062205e+18
14197.0	1.6328407302275067e+18
14198.0	1.6325576381956093e+18
14199.0	1.6322751753093115e+18
14200.0	1.631988422488883e+18
14201.0	1.6317092714250237e+18
14202.0	1.631428128905625e+18
14203.0	1.6311455368347643e+18
14204.0	1.6308633306398715e+18
14205.0	1.630580612739891e+18
14206.0	1.6302885247647744e+18
14207.0	1.630015891649331e+18
14208.0	1.6297345830354941e+18
14209.0	1.629441167982592e+18
14210.0	1.6291609062670333e+18
14211.0	1.628889157310873e+18
14212.0	1.6286078822514688e+18
14213.0	1.6283264041877504e+18
14214.0	1.628044664399462e+18
14215.0	1.6277619951534077e+18
14216.0	1.6274818424897539e+18
14217.0	1.6272004516675584e+18
14218.0	1.6269190843334656e+18
14219.0	1.626637782430515e+18
14220.0	1.6263565342146557e+18
14221.0	1.6260753094868992e+18
14222.0	1.6257941602566141e+18
14223.0	1.6255130160594944e+18
14224.0	1.6252316134932477e+18
14225.0	1.6249340846669821e+18
14226.0	1.6246680517083133e+18
14227.0	1.6243885718110205e+18
14228.0	1.6240593088806907e+18
14229.0	1.623812297929523e+18
14230.0	1.6235469192822781e+18
14231.0	1.6232667481636861e+18
14232.0	1.6229863404863485e+18
14233.0	1.62270592106496e+18
14234.0	1.6224254999658493e+18
14235.0	1.6221449144500221e+18
14236.0	1.621864780241305e+18
14237.0	1.6215841913700347e+18
14238.0	1.621303369295462e+18
14239.0	1.6210185156558843e+18
14240.0	1.6205619438551037e+18
14241.0	1.620454057967616e+18
14242.0	1.6201809366351867e+18
14243.0	1.619890741130035e+18
14244.0	1.619624117613363e+18
14245.0	1.619344917895577e+18
14246.0	1.6190652031172603e+18
14247.0	1.6187861174845437e+18
14248.0	1.618504795448934e+18
14249.0	1.6182270486380544e+18
14250.0	1.6179447652679677e+18
14251.0	1.617655702224896e+18
14252.0	1.6173763414458365e+18
14253.0	1.6170968581931003e+18
14254.0	1.616817270921625e+18
14255.0	1.6165338685112315e+18
14256.0	1.6162437954797563e+18
14257.0	1.615974101732556e+18
14258.0	1.6157008763813888e+18
14259.0	1.615420777404825e+18
14260.0	1.6151430607929341e+18
14261.0	1.6148633493700603e+18
14262.0	1.6146057436069885e+18
14263.0	1.6143053525876733e+18
14264.0	1.6140364842795005e+18
14265.0	1.6137704949415928e+18
14266.0	1.6134931272957947e+18
14267.0	1.6132150080307197e+18
14268.0	1.6129350197837824e+18
14269.0	1.6126450373492733e+18
14270.0	1.612366887885209e+18
14271.0	1.6120884901183488e+18
14272.0	1.6118097165418493e+18
14273.0	1.6115283525631995e+18
14274.0	1.611214960879206e+18
14275.0	1.6109653695922168e+18
14276.0	1.6106969609797632e+18
14277.0	1.6104199674658813e+18
14278.0	1.6101426719621115e+18
14279.0	1.6098648865636355e+18
14280.0	1.6095869971464192e+18
14281.0	1.6093099583340541e+18
14282.0	1.6090324564705275e+18
14283.0	1.6087549478961147e+18
14284.0	1.6084774661652477e+18
14285.0	1.608199997856153e+18
14286.0	1.6079224674713595e+18
14287.0	1.6076446267080701e+18
14288.0	1.6073604609343485e+18
14289.0	1.606960381375283e+18
14290.0	1.6067959344594941e+18
14291.0	1.606522497715404e+18
14292.0	1.6062459202764797e+18
14293.0	1.6059682556739581e+18
14294.0	1.6056798704304125e+18
14295.0	1.6054113343111163e+18
14296.0	1.6050480522199037e+18
14297.0	1.604851799058022e+18
14298.0	1.6045677255589888e+18
14299.0	1.6043069421912061e+18
14300.0	1.6040321766916093e+18
14301.0	1.6037559012425728e+18
14302.0	1.6034792365621243e+18
14303.0	1.603199063765811e+18
14304.0	1.602925496159436e+18
14305.0	1.6026503665942525e+18
14306.0	1.6023740609462272e+18
14307.0	1.6020977519427584e+18
14308.0	1.601821840559308e+18
14309.0	1.6015455332335613e+18
14310.0	1.6012685430751232e+18
14311.0	1.600988418932736e+18
14312.0	1.600701001734553e+18
14313.0	1.6004115041615867e+18
14314.0	1.6001526250078205e+18
14315.0	1.5998765357858813e+18
14316.0	1.5995971867508733e+18
14317.0	1.599325546846617e+18
14318.0	1.5990505733095421e+18
14319.0	1.5987752491286525e+18
14320.0	1.598499819251302e+18
14321.0	1.598224344075468e+18
14322.0	1.5979459647635453e+18
14323.0	1.5976714878320637e+18
14324.0	1.5973986684895232e+18
14325.0	1.5971236865638397e+18
14326.0	1.5968486459179003e+18
14327.0	1.5965735700398077e+18
14328.0	1.5962980512432128e+18
14329.0	1.5960237789937664e+18
14330.0	1.5957489547739133e+18
14331.0	1.5954741372649467e+18
14332.0	1.5951994355187712e+18
14333.0	1.594924745516646e+18
14334.0	1.5946500957798395e+18
14335.0	1.5943742263394301e+18
14336.0	1.5940991202623485e+18
14337.0	1.5938126191001597e+18
14338.0	1.5935381019033597e+18
14339.0	1.5932637122134013e+18
14340.0	1.5929895490158592e+18
14341.0	1.5927152851550205e+18
14342.0	1.5924411085357053e+18
14343.0	1.5921669570822141e+18
14344.0	1.591892830794547e+18
14345.0	1.5916187514830848e+18
14346.0	1.5913445043994616e+18
14347.0	1.5910699368710141e+18
14348.0	1.5907967903727613e+18
14349.0	1.5905230533165053e+18
14350.0	1.5902479086518267e+18
14351.0	1.5899742605148157e+18
14352.0	1.5897019998535677e+18
14353.0	1.5894284523798525e+18
14354.0	1.589154658281062e+18
14355.0	1.5888809531015163e+18
14356.0	1.5886076186984443e+18
14357.0	1.5883346718490621e+18
14358.0	1.5880613978439677e+18
14359.0	1.587788086928998e+18
14360.0	1.587514799502131e+18
14361.0	1.5872416966246397e+18
14362.0	1.586968628979302e+18
14363.0	1.5866953784623104e+18
14364.0	1.5864163649716221e+18
14365.0	1.5861334205792253e+18
14366.0	1.5858617286655997e+18
14367.0	1.585589815292723e+18
14368.0	1.5853170295046141e+18
14369.0	1.5850443410243581e+18
14370.0	1.5847716709990397e+18
14371.0	1.5844990412390397e+18
14372.0	1.58422641147904e+18
14373.0	1.5839538807046144e+18
14374.0	1.583681422072217e+18
14375.0	1.5834090037051392e+18
14376.0	1.5831366306365435e+18
14377.0	1.582864245823897e+18
14378.0	1.5825917871915005e+18
14379.0	1.5823198167760893e+18
14380.0	1.5820476047687677e+18
14381.0	1.5817753743065085e+18
14382.0	1.5815033770475515e+18
14383.0	1.5812314687078397e+18
14384.0	1.580957657831833e+18
14385.0	1.5806877946347515e+18
14386.0	1.5804142941372413e+18
14387.0	1.5801441574715387e+18
14388.0	1.5798723783163904e+18
14389.0	1.5796006998245368e+18
14390.0	1.579329019654963e+18
14391.0	1.5790576632856568e+18
14392.0	1.5787861307555837e+18
14393.0	1.5785147441872893e+18
14394.0	1.5782389234008064e+18
14395.0	1.5779708486549501e+18
14396.0	1.5777002422271995e+18
14397.0	1.577415214104576e+18
14398.0	1.5771438644461563e+18
14399.0	1.5768724862664701e+18
14400.0	1.5765991585742848e+18
14401.0	1.5763285102034941e+18
14402.0	1.5760563485278205e+18
14403.0	1.575761710415872e+18
14404.0	1.575224633144115e+18
14405.0	1.5750178170470395e+18
14406.0	1.5749671448215547e+18
14407.0	1.5746804138115072e+18
14408.0	1.5744309382873085e+18
14409.0	1.5741610616684541e+18
14410.0	1.573892700032204e+18
14411.0	1.573622689195622e+18
14412.0	1.5733521180000253e+18
14413.0	1.5730821960826877e+18
14414.0	1.5728116886405115e+18
14415.0	1.5725414815105021e+18
14416.0	1.5722713498779643e+18
14417.0	1.5720010370514944e+18
14418.0	1.5717306722156541e+18
14419.0	1.5714605758152701e+18
14420.0	1.5711900901834747e+18
14421.0	1.5709203763036157e+18
14422.0	1.5706497262551032e+18
14423.0	1.5703752644231163e+18
14424.0	1.570022622442291e+18
14425.0	1.5698348182863872e+18
14426.0	1.5695705838452733e+18
14427.0	1.5693016350064637e+18
14428.0	1.56902942132142e+18
14429.0	1.568762304554598e+18
14430.0	1.568492419547136e+18
14431.0	1.568216152486707e+18
14432.0	1.567952782072217e+18
14433.0	1.5676635680342013e+18
14434.0	1.5673986910257147e+18
14435.0	1.567130471995801e+18
14436.0	1.566862712661606e+18
14437.0	1.566593678258995e+18
14438.0	1.5663236321902592e+18
14439.0	1.5660550641942525e+18
14440.0	1.5657863032602621e+18
14441.0	1.5655159451353085e+18
14442.0	1.5652461087817725e+18
14443.0	1.5649730042265597e+18
14444.0	1.5647087446196221e+18
14445.0	1.564438928398745e+18
14446.0	1.5640735005016064e+18
14447.0	1.563894507739545e+18
14448.0	1.5636347259715581e+18
14449.0	1.563366889462169e+18
14450.0	1.5630985731244032e+18
14451.0	1.562830182966886e+18
14452.0	1.5625617441554432e+18
14453.0	1.5622932248133624e+18
14454.0	1.5620249118310397e+18
14455.0	1.561756187806924e+18
14456.0	1.5614884519608315e+18
14457.0	1.5612202077650941e+18
14458.0	1.5609519585361915e+18
14459.0	1.560683625421209e+18
14460.0	1.5604153258606592e+18
14461.0	1.5601456757342203e+18
14462.0	1.5598783358304253e+18
14463.0	1.5596111049785341e+18
14464.0	1.559343654345113e+18
14465.0	1.5590734874804221e+18
14466.0	1.5588087010689021e+18
14467.0	1.558540275679232e+18
14468.0	1.558273177367347e+18
14469.0	1.5580031178768381e+18
14470.0	1.5577350766854141e+18
14471.0	1.5574697433366528e+18
14472.0	1.5572036248141821e+18
14473.0	1.5569363453083643e+18
14474.0	1.5566660576477181e+18
14475.0	1.5563873780236288e+18
14476.0	1.5561192261025787e+18
14477.0	1.5558529297416187e+18
14478.0	1.5555858129747965e+18
14479.0	1.5553186173550587e+18
14480.0	1.5550504083914747e+18
14481.0	1.5547843922100221e+18
14482.0	1.5545167503163392e+18
14483.0	1.5542492845834235e+18
14484.0	1.553981001800089e+18
14485.0	1.553709967553331e+18
14486.0	1.5534196646739968e+18
14487.0	1.5531813006999555e+18
14488.0	1.552916054592716e+18
14489.0	1.5526490569441277e+18
14490.0	1.552382926677606e+18
14491.0	1.5521164759662587e+18
14492.0	1.5518501494063101e+18
14493.0	1.551583614808883e+18
14494.0	1.551314498197913e+18
14495.0	1.5510489316458496e+18
14496.0	1.550771589165875e+18
14497.0	1.5505172348272637e+18
14498.0	1.5502518494691328e+18
14499.0	1.5499857175248893e+18
14500.0	1.5497193775431677e+18
14501.0	1.5494510427504637e+18
14502.0	1.549162863866675e+18
14503.0	1.548919476794163e+18
14504.0	1.5486543867150333e+18
14505.0	1.548388575215616e+18
14506.0	1.5481200340631547e+18
14507.0	1.5478330211958781e+18
14508.0	1.5475905753251837e+18
14509.0	1.5473260976144381e+18
14510.0	1.547060569649971e+18
14511.0	1.5467946021224448e+18
14512.0	1.546527851098931e+18
14513.0	1.546262561370931e+18
14514.0	1.5459938272804864e+18
14515.0	1.545724383513804e+18
14516.0	1.5451633282449405e+18
14517.0	1.5451801625034755e+18
14518.0	1.5449341648961533e+18
14519.0	1.5446708330692603e+18
14520.0	1.5444062194630653e+18
14521.0	1.5441412887674877e+18
14522.0	1.5438761835888635e+18
14523.0	1.5436101036539904e+18
14524.0	1.5433363615645693e+18
14525.0	1.5430662601310205e+18
14526.0	1.5428016465248253e+18
14527.0	1.5425315014705147e+18
14528.0	1.5422578550112253e+18
14529.0	1.5420055860805632e+18
14530.0	1.541740839934361e+18
14531.0	1.5414773755674621e+18
14532.0	1.5412118190817277e+18
14533.0	1.5409480963457021e+18
14534.0	1.5406836907769853e+18
14535.0	1.540419030194585e+18
14536.0	1.5401543511572477e+18
14537.0	1.5398889506996221e+18
14538.0	1.5396254376787965e+18
14539.0	1.5393611042521088e+18
14540.0	1.5390966751952893e+18
14541.0	1.5388318569070592e+18
14542.0	1.5385677449396221e+18
14543.0	1.5383029132296187e+18
14544.0	1.5380384992722941e+18
14545.0	1.5377720754044925e+18
14546.0	1.537360417888665e+18
14547.0	1.537092339787366e+18
14548.0	1.5369768840200187e+18
14549.0	1.5367060796211197e+18
14550.0	1.5364534130704381e+18
14551.0	1.536190849640038e+18
14552.0	1.5359269524209664e+18
14553.0	1.535662338814771e+18
14554.0	1.5353996579438592e+18
14555.0	1.5351357875683323e+18
14556.0	1.5348717443874813e+18
14557.0	1.5346070049521664e+18
14558.0	1.5343357727342587e+18
14559.0	1.533854489772032e+18
14560.0	1.533807990040166e+18
14561.0	1.5335520200556544e+18
14562.0	1.5332873997385725e+18
14563.0	1.5330272304168957e+18
14564.0	1.5327639287889915e+18
14565.0	1.532500939217305e+18
14566.0	1.5322377214754813e+18
14567.0	1.531974394681753e+18
14568.0	1.5317108598505467e+18
14569.0	1.531444835280486e+18
14570.0	1.5311232529596416e+18
14571.0	1.5309194030743547e+18
14572.0	1.5306543784263677e+18
14573.0	1.5303916774227963e+18
14574.0	1.530132291597107e+18
14575.0	1.529869793597849e+18
14576.0	1.529607045618073e+18
14577.0	1.5293444352114685e+18
14578.0	1.529081492615987e+18
14579.0	1.528818945962803e+18
14580.0	1.5285523157352448e+18
14581.0	1.5282775200366587e+18
14582.0	1.5280150119710715e+18
14583.0	1.5277522656690173e+18
14584.0	1.5274887056719872e+18
14585.0	1.5272269844578304e+18
14586.0	1.5269643119755264e+18
14587.0	1.5267019918147581e+18
14588.0	1.5264396464881664e+18
14589.0	1.5261776736157693e+18
14590.0	1.5259157712076797e+18
14591.0	1.5256537664585725e+18
14592.0	1.5253907550765053e+18
14593.0	1.5251186688983037e+18
14594.0	1.524867554240102e+18
14595.0	1.5246061635371003e+18
14596.0	1.5243404996771837e+18
14597.0	1.524078048654131e+18
14598.0	1.5238211978657787e+18
14599.0	1.5235605772369915e+18
14600.0	1.5232991529795581e+18
14601.0	1.523037685101363e+18
14602.0	1.5227761769578493e+18
14603.0	1.5225145681510395e+18
14604.0	1.522249491493683e+18
14605.0	1.52199120289792e+18
14606.0	1.5217200210116603e+18
14607.0	1.5214690103721984e+18
14608.0	1.521208465240883e+18
14609.0	1.520947185267507e+18
14610.0	1.5206858113417216e+18
14611.0	1.5204246924296192e+18
14612.0	1.520164039924121e+18
14613.0	1.5199031424712704e+18
14614.0	1.5196418272657403e+18
14615.0	1.519381104295936e+18
14616.0	1.5191203007954941e+18
14617.0	1.5188592892575741e+18
14618.0	1.5185980411609088e+18
14619.0	1.5183315048857597e+18
14620.0	1.5180669248339963e+18
14621.0	1.5178154830200824e+18
14622.0	1.5175552214237181e+18
14623.0	1.5172942635728893e+18
14624.0	1.517028653400064e+18
14625.0	1.5167727253585915e+18
14626.0	1.5165127472971776e+18
14627.0	1.5162521031802877e+18
14628.0	1.5159917526646781e+18
14629.0	1.5157312763199488e+18
14630.0	1.515470729510912e+18
14631.0	1.5152101004935165e+18
14632.0	1.514942309282611e+18
14633.0	1.5146872955994112e+18
14634.0	1.514428968416051e+18
14635.0	1.5141680894181373e+18
14636.0	1.5139059017973757e+18
14637.0	1.5136482507358205e+18
14638.0	1.513387673727795e+18
14639.0	1.5131263719440381e+18
14640.0	1.51286540402688e+18
14641.0	1.5125787854241787e+18
14642.0	1.5123450318290941e+18
14643.0	1.5120867449110525e+18
14644.0	1.5118267702050813e+18
14645.0	1.5115621616320507e+18
14646.0	1.5112916390903803e+18
14647.0	1.5110321911889915e+18
14648.0	1.510772280236441e+18
