# Flux units: erg / (cm m2 s)
# Wavelength units: Angstrom
wave	flux
14000.0	1.8837503825936381e+18
14001.0	1.8832726094249981e+18
14002.0	1.882832615191347e+18
14003.0	1.8823760350019581e+18
14004.0	1.8819187283591163e+18
14005.0	1.8814606398980093e+18
14006.0	1.8809967700082683e+18
14007.0	1.8805367102242816e+18
14008.0	1.8800353197686781e+18
14009.0	1.8796252208562168e+18
14010.0	1.8791601144856573e+18
14011.0	1.8784517250613245e+18
14012.0	1.8782516013957115e+18
14013.0	1.8777953802387453e+18
14014.0	1.87733469298688e+18
14015.0	1.8768798727274493e+18
14016.0	1.8764234032676861e+18
14017.0	1.8759665210884096e+18
14018.0	1.875506613977088e+18
14019.0	1.875053597268377e+18
14020.0	1.874595965147545e+18
14021.0	1.8741402607288312e+18
14022.0	1.8736822158884861e+18
14023.0	1.8731964299214845e+18
14024.0	1.8727575060742141e+18
14025.0	1.8723161562415104e+18
14026.0	1.8718604182683643e+18
14027.0	1.8714040159174656e+18
14028.0	1.8709452395905021e+18
14029.0	1.870487526939033e+18
14030.0	1.8689064555249672e+18
14031.0	1.8695688602779643e+18
14032.0	1.8691259853963261e+18
14033.0	1.86863645139927e+18
14034.0	1.8682178028175352e+18
14035.0	1.8677622259056637e+18
14036.0	1.8673074761105403e+18
14037.0	1.8668447638487037e+18
14038.0	1.866399805236838e+18
14039.0	1.8659432586018813e+18
14040.0	1.8654852137615355e+18
14041.0	1.8650363645132792e+18
14042.0	1.864580426891264e+18
14043.0	1.864113906201395e+18
14044.0	1.8636741418156027e+18
14045.0	1.863223780940185e+18
14046.0	1.8627697710202875e+18
14047.0	1.8623117060472827e+18
14048.0	1.8618644607008763e+18
14049.0	1.8614149269422075e+18
14050.0	1.8609622776545277e+18
14051.0	1.8605044207190013e+18
14052.0	1.860055802996326e+18
14053.0	1.859602276260249e+18
14054.0	1.859152061346611e+18
14055.0	1.858696080103833e+18
14056.0	1.8582488532123645e+18
14057.0	1.857796145204428e+18
14058.0	1.857345770907238e+18
14059.0	1.8568940242337787e+18
14060.0	1.856443948571033e+18
14061.0	1.855989717191884e+18
14062.0	1.8555425909637115e+18
14063.0	1.8550845494788096e+18
14064.0	1.8544939461771261e+18
14065.0	1.8541878727147512e+18
14066.0	1.8537391375515645e+18
14067.0	1.8532522392551424e+18
14068.0	1.8528411387428861e+18
14069.0	1.8523882881286144e+18
14070.0	1.8519416769609723e+18
14071.0	1.851490834579456e+18
14072.0	1.851041924933222e+18
14073.0	1.8505912100585464e+18
14074.0	1.8501450988519421e+18
14075.0	1.8496862034067453e+18
14076.0	1.8492047946153981e+18
14077.0	1.8485169690247165e+18
14078.0	1.8483281532026877e+18
14079.0	1.8478966465626112e+18
14080.0	1.8474516611071992e+18
14081.0	1.8470027078402043e+18
14082.0	1.8465369941344253e+18
14083.0	1.8461051972485115e+18
14084.0	1.8456592940793853e+18
14085.0	1.844910646047539e+18
14086.0	1.8447426255847421e+18
14087.0	1.844317058079129e+18
14088.0	1.8438614258024443e+18
14089.0	1.8433842348031997e+18
14090.0	1.8429700690935803e+18
14091.0	1.8425292024446976e+18
14092.0	1.8420818077810683e+18
14093.0	1.8416358442139643e+18
14094.0	1.8411896340217853e+18
14095.0	1.8407435832131581e+18
14096.0	1.8402372149575677e+18
14097.0	1.8398151639564288e+18
14098.0	1.8393654238380032e+18
14099.0	1.838957542873497e+18
14100.0	1.838502618595328e+18
14101.0	1.8380675451191293e+18
14102.0	1.8376205665304576e+18
14103.0	1.837171190477619e+18
14104.0	1.8367306895720443e+18
14105.0	1.8362784043499517e+18
14106.0	1.8358424114823163e+18
14107.0	1.8353714850955261e+18
14108.0	1.834943479860428e+18
14109.0	1.8345065474686976e+18
14110.0	1.8340468886601725e+18
14111.0	1.8335830691020792e+18
14112.0	1.8331678464278525e+18
14113.0	1.832705374080204e+18
14114.0	1.832268946682675e+18
14115.0	1.8318386127699963e+18
14116.0	1.8312837113839608e+18
14117.0	1.8291957314879496e+18
14118.0	1.8305099780587515e+18
14119.0	1.830037551788851e+18
14120.0	1.829596903243776e+18
14121.0	1.8291710303928315e+18
14122.0	1.8287124067385341e+18
14123.0	1.8282313603350528e+18
14124.0	1.8277793838137344e+18
14125.0	1.827202041223577e+18
14126.0	1.826954956452659e+18
14127.0	1.826531088479027e+18
14128.0	1.826088455189299e+18
14129.0	1.8256418691874813e+18
14130.0	1.8251944225144827e+18
14131.0	1.82476088583127e+18
14132.0	1.8243197843013624e+18
14133.0	1.8236358258589688e+18
14134.0	1.8234407018037243e+18
14135.0	1.8229865861873661e+18
14136.0	1.8224018280677376e+18
14137.0	1.8221167462580221e+18
14138.0	1.8216503480418304e+18
14139.0	1.8212378516652027e+18
14140.0	1.820768492270387e+18
14141.0	1.8203559707279355e+18
14142.0	1.8197318230605821e+18
14143.0	1.8193810886492155e+18
14144.0	1.8190384106569725e+18
14145.0	1.8185984214564861e+18
14146.0	1.8181566320607227e+18
14147.0	1.8177174280339453e+18
14148.0	1.817266872542822e+18
14149.0	1.8168207512698877e+18
14150.0	1.8163992438505472e+18
14151.0	1.8159345921425405e+18
14152.0	1.815522246760857e+18
14153.0	1.8150846114037755e+18
14154.0	1.8146338495528955e+18
14155.0	1.8129091802693637e+18
14156.0	1.813722385350655e+18
14157.0	1.8133285284610043e+18
14158.0	1.812876090566246e+18
14159.0	1.8124548650041341e+18
14160.0	1.81201812890583e+18
14161.0	1.8115499539824637e+18
14162.0	1.8110945414873085e+18
14163.0	1.8107061657141243e+18
14164.0	1.810200661485158e+18
14165.0	1.8095341479919608e+18
14166.0	1.8093925482889208e+18
14167.0	1.8089524752023547e+18
14168.0	1.8085050704723965e+18
14169.0	1.8080853380825085e+18
14170.0	1.8076394701455355e+18
14171.0	1.8072008214446077e+18
14172.0	1.8067780792221693e+18
14173.0	1.8062101587165181e+18
14174.0	1.8059000335564792e+18
14175.0	1.805470627423846e+18
14176.0	1.805012914772377e+18
14177.0	1.8045934575288317e+18
14178.0	1.8041608989573115e+18
14179.0	1.8037008056188928e+18
14180.0	1.803294706394726e+18
14181.0	1.8028598577332221e+18
14182.0	1.8024247188258813e+18
14183.0	1.801990299661107e+18
14184.0	1.8015537464344576e+18
14185.0	1.8011207499776e+18
14186.0	1.8003377875058685e+18
14187.0	1.8002423620567037e+18
14188.0	1.7998148987256827e+18
14189.0	1.799376820450099e+18
14190.0	1.7989465200918525e+18
14191.0	1.7985115372126205e+18
14192.0	1.7980778159800317e+18
14193.0	1.7975904093339648e+18
14194.0	1.7972122257195005e+18
14195.0	1.796783096410931e+18
14196.0	1.7963501150535677e+18
14197.0	1.7959165750149117e+18
14198.0	1.795482449451417e+18
14199.0	1.7950435239264253e+18
14200.0	1.79441653252096e+18
14201.0	1.7941848475566077e+18
14202.0	1.7937544163360765e+18
14203.0	1.7932914658377725e+18
14204.0	1.7928864537772035e+18
14205.0	1.7924584133099517e+18
14206.0	1.7919710905499643e+18
14207.0	1.7915967170412536e+18
14208.0	1.7911653932728315e+18
14209.0	1.7906679689510907e+18
14210.0	1.790265554003558e+18
14211.0	1.7898687862669307e+18
14212.0	1.7894409521594365e+18
14213.0	1.789000169396633e+18
14214.0	1.7885797776621563e+18
14215.0	1.788138518426419e+18
14216.0	1.7877184723025917e+18
14217.0	1.7872889051086848e+18
14218.0	1.7868533350268928e+18
14219.0	1.786426987380736e+18
14220.0	1.7859976332574717e+18
14221.0	1.7855611874050043e+18
14222.0	1.7850736482189312e+18
14223.0	1.7847020647612413e+18
14224.0	1.7842813676814333e+18
14225.0	1.7832984325390339e+18
14226.0	1.7834231610736637e+18
14227.0	1.7829938908364797e+18
14228.0	1.7813070424309763e+18
14229.0	1.781986699195186e+18
14230.0	1.7817080850022397e+18
14231.0	1.7812179755466752e+18
14232.0	1.78085189166039e+18
14233.0	1.780419504216473e+18
14234.0	1.7799957033517053e+18
14235.0	1.7795662301102077e+18
14236.0	1.7791357519134712e+18
14237.0	1.778707154442649e+18
14238.0	1.7782793270460413e+18
14239.0	1.7778456712445947e+18
14240.0	1.7768189660233728e+18
14241.0	1.7769974923788285e+18
14242.0	1.7765729029849088e+18
14243.0	1.7760761111642112e+18
14244.0	1.7757203184222203e+18
14245.0	1.7752838222381056e+18
14246.0	1.7748472723668995e+18
14247.0	1.7744371549995005e+18
14248.0	1.774007505597235e+18
14249.0	1.7735861139406843e+18
14250.0	1.7731615664898043e+18
14251.0	1.772736076159385e+18
14252.0	1.7723105875066877e+18
14253.0	1.7718848404848637e+18
14254.0	1.7714583519100925e+18
14255.0	1.7710211712155648e+18
14256.0	1.770284148116685e+18
14257.0	1.7701792687063037e+18
14258.0	1.7697590195781627e+18
14259.0	1.7693115578056704e+18
14260.0	1.768899569778688e+18
14261.0	1.768473940197376e+18
14262.0	1.7680615646167037e+18
14263.0	1.767152315006976e+18
14264.0	1.7671460201955325e+18
14265.0	1.7667555271376893e+18
14266.0	1.76636426232791e+18
14267.0	1.7659396830003197e+18
14268.0	1.7655157244297216e+18
14269.0	1.7650890378838013e+18
14270.0	1.7646699379949565e+18
14271.0	1.7642415770828797e+18
14272.0	1.7638207290081277e+18
14273.0	1.7634006996615165e+18
14274.0	1.7622809664552965e+18
14275.0	1.7624932385030141e+18
14276.0	1.7620998631194621e+18
14277.0	1.761692165026611e+18
14278.0	1.7612873492594685e+18
14279.0	1.7608644593975293e+18
14280.0	1.7604391771045888e+18
14281.0	1.7600207248162813e+18
14282.0	1.7595988919189496e+18
14283.0	1.7591769331924984e+18
14284.0	1.7587552244465661e+18
14285.0	1.7583335995867133e+18
14286.0	1.7579092652064765e+18
14287.0	1.7574890227892221e+18
14288.0	1.7570686260215803e+18
14289.0	1.756260450749643e+18
14290.0	1.7562205729849341e+18
14291.0	1.7558051305291776e+18
14292.0	1.7553825929887741e+18
14293.0	1.754962194543411e+18
14294.0	1.7544736436912128e+18
14295.0	1.7541112155602941e+18
14296.0	1.7533869616005117e+18
14297.0	1.7532822617063421e+18
14298.0	1.752618063468953e+18
14299.0	1.752425796573593e+18
14300.0	1.7520181236465667e+18
14301.0	1.7515905881735165e+18
14302.0	1.7511812157145088e+18
14303.0	1.750741515082137e+18
14304.0	1.7503376304504827e+18
14305.0	1.7499218490949627e+18
14306.0	1.7494291223937021e+18
14307.0	1.749066276510105e+18
14308.0	1.7486658010087421e+18
14309.0	1.7482410471981056e+18
14310.0	1.7475121375608824e+18
14311.0	1.74702445241303e+18
14312.0	1.746938464147865e+18
14313.0	1.7465421091307517e+18
14314.0	1.7461488679649275e+18
14315.0	1.7457382170820605e+18
14316.0	1.7453003149672443e+18
14317.0	1.7447980973948923e+18
14318.0	1.7444885174943744e+18
14319.0	1.74407170434007e+18
14320.0	1.743654921384755e+18
14321.0	1.7432362056941565e+18
14322.0	1.7427993655771133e+18
14323.0	1.742397828077977e+18
14324.0	1.7419766125821947e+18
14325.0	1.7415658006380536e+18
14326.0	1.7411543461265403e+18
14327.0	1.74073250316288e+18
14328.0	1.7403179348000768e+18
14329.0	1.7399058410766333e+18
14330.0	1.7394892057608184e+18
14331.0	1.7390653562421248e+18
14332.0	1.7386567656013821e+18
14333.0	1.7382421771059197e+18
14334.0	1.7378270685167616e+18
14335.0	1.7373913306628093e+18
14336.0	1.736925046531686e+18
14337.0	1.7365792077119485e+18
14338.0	1.736163582384537e+18
14339.0	1.7357419474583547e+18
14340.0	1.7353365293891581e+18
14341.0	1.7349154615328765e+18
14342.0	1.7345050220429307e+18
14343.0	1.7340787012403195e+18
14344.0	1.7336692146962432e+18
14345.0	1.7332647512506363e+18
14346.0	1.732850375825817e+18
14347.0	1.7324085948186621e+18
14348.0	1.732020047917875e+18
14349.0	1.731610376824422e+18
14350.0	1.7311533386170363e+18
14351.0	1.7307371411865595e+18
14352.0	1.7303654553878525e+18
14353.0	1.729955963810611e+18
14354.0	1.7295389912727547e+18
14355.0	1.7291199316492288e+18
14356.0	1.7287091834585088e+18
14357.0	1.7283029818933248e+18
14358.0	1.7278903882088443e+18
14359.0	1.7274701105594365e+18
14360.0	1.7270627782098941e+18
14361.0	1.7266527531171835e+18
14362.0	1.7262408590426107e+18
14363.0	1.7258290756976635e+18
14364.0	1.7252500318978043e+18
14365.0	1.7249865239101437e+18
14366.0	1.7245683417350144e+18
14367.0	1.724182083246489e+18
14368.0	1.7237706119577595e+18
14369.0	1.723360232865792e+18
14370.0	1.722949051822899e+18
14371.0	1.7225382633668603e+18
14372.0	1.7221208680431613e+18
14373.0	1.7217160824750075e+18
14374.0	1.721303928353587e+18
14375.0	1.720894438454067e+18
14376.0	1.7204842590109693e+18
14377.0	1.7200745694625787e+18
14378.0	1.7196633733201915e+18
14379.0	1.7192546048409597e+18
14380.0	1.7188442089717757e+18
14381.0	1.7184288168476672e+18
14382.0	1.7180234725982205e+18
14383.0	1.717593259481497e+18
14384.0	1.7171945975971835e+18
14385.0	1.716796735986073e+18
14386.0	1.7163787131944957e+18
14387.0	1.7159775347277821e+18
14388.0	1.7155671472472061e+18
14389.0	1.715159935693619e+18
14390.0	1.714750699130061e+18
14391.0	1.714338528231424e+18
14392.0	1.7139142357942272e+18
14393.0	1.7135262358306816e+18
14394.0	1.7130999234166781e+18
14395.0	1.7125315365044221e+18
14396.0	1.7122931138101248e+18
14397.0	1.7118939049885693e+18
14398.0	1.7114697014706176e+18
14399.0	1.7110748396257277e+18
14400.0	1.7105370057015293e+18
14401.0	1.7102598796476413e+18
14402.0	1.7098536428503037e+18
14403.0	1.7051420838592428e+18
14404.0	1.698088779513854e+18
14405.0	1.70808912935649e+18
14406.0	1.7082271521570813e+18
14407.0	1.7011916467601441e+18
14408.0	1.7073575622082557e+18
14409.0	1.7069972043857915e+18
14410.0	1.7065851643494395e+18
14411.0	1.7061869286064125e+18
14412.0	1.705786798715699e+18
14413.0	1.7053817430343677e+18
14414.0	1.7049760196198395e+18
14415.0	1.704571262572953e+18
14416.0	1.7041541860163581e+18
14417.0	1.7037091753951232e+18
14418.0	1.70330306946007e+18
14419.0	1.7029490517475323e+18
14420.0	1.7025416288010237e+18
14421.0	1.7021389823279096e+18
14422.0	1.7017315258269693e+18
14423.0	1.7013248511442944e+18
14424.0	1.675843055124463e+18
14425.0	1.700517417425305e+18
14426.0	1.7001146736443387e+18
14427.0	1.6997114198360061e+18
14428.0	1.6992837971214333e+18
14429.0	1.6989020936470525e+18
14430.0	1.6984992676577283e+18
14431.0	1.6978387788627965e+18
14432.0	1.6976631633543165e+18
14433.0	1.6923200495550428e+18
14434.0	1.696870169785139e+18
14435.0	1.6964304590864381e+18
14436.0	1.696070404931584e+18
14437.0	1.6956672652083197e+18
14438.0	1.695101428432896e+18
14439.0	1.6948254734286843e+18
14440.0	1.694457898047897e+18
14441.0	1.694051845799936e+18
14442.0	1.6936483319447547e+18
14443.0	1.6932290407956477e+18
14444.0	1.692845911257907e+18
14445.0	1.6924450213593088e+18
14446.0	1.6868803476455444e+18
14447.0	1.691634378158899e+18
14448.0	1.6912389911871488e+18
14449.0	1.6908375124082685e+18
14450.0	1.6904331278155776e+18
14451.0	1.6900326657359867e+18
14452.0	1.6896297038512123e+18
14453.0	1.6891270014173184e+18
14454.0	1.688826836890419e+18
14455.0	1.688425020889497e+18
14456.0	1.6880041526820861e+18
14457.0	1.687588035782246e+18
14458.0	1.6871302828654587e+18
14459.0	1.6867884437340157e+18
14460.0	1.6864220595355643e+18
14461.0	1.685998033856102e+18
14462.0	1.685293216301056e+18
14463.0	1.6852158045487104e+18
14464.0	1.6848219124269053e+18
14465.0	1.6844151135928315e+18
14466.0	1.684019312223846e+18
14467.0	1.6835493907922941e+18
14468.0	1.683216366410137e+18
14469.0	1.682805400115609e+18
14470.0	1.682411279823667e+18
14471.0	1.6820152033083387e+18
14472.0	1.6816198129811456e+18
14473.0	1.6812269862125563e+18
14474.0	1.6808289903837181e+18
14475.0	1.6804254765285376e+18
14476.0	1.6797033079767043e+18
14477.0	1.6796318840127485e+18
14478.0	1.6792321181876221e+18
14479.0	1.6788276228653053e+18
14480.0	1.678430192428646e+18
14481.0	1.6780404627341307e+18
14482.0	1.6776406885203968e+18
14483.0	1.6772380890234872e+18
14484.0	1.676844784104243e+18
14485.0	1.6764287242469376e+18
14486.0	1.675916178620416e+18
14487.0	1.675651611990425e+18
14488.0	1.6751715302768637e+18
14489.0	1.674829949514547e+18
14490.0	1.6744470666018816e+18
14491.0	1.6740649906733053e+18
14492.0	1.6736631864164347e+18
14493.0	1.6732544263258107e+18
14494.0	1.6728627471187965e+18
14495.0	1.6724789011939325e+18
14496.0	1.6720206952923133e+18
14497.0	1.6716854026305533e+18
14498.0	1.671288170165043e+18
14499.0	1.6708941119487997e+18
14500.0	1.6704980790542333e+18
14501.0	1.669946628741529e+18
14502.0	1.6694245100355581e+18
14503.0	1.6692818282020861e+18
14504.0	1.6689122445885437e+18
14505.0	1.6683736724668408e+18
14506.0	1.6677838744715261e+18
14507.0	1.6676187279458304e+18
14508.0	1.667334137708544e+18
14509.0	1.6669388379783165e+18
14510.0	1.6665432983339003e+18
14511.0	1.6661497350455293e+18
14512.0	1.665746721151385e+18
14513.0	1.6653598989484032e+18
14514.0	1.664895279117107e+18
14515.0	1.6645647360851965e+18
14516.0	1.6632414214291459e+18
14517.0	1.6637831157907453e+18
14518.0	1.6633887169970176e+18
14519.0	1.662994504430387e+18
14520.0	1.662601157568102e+18
14521.0	1.662201861505024e+18
14522.0	1.6618075918958587e+18
14523.0	1.6610415056257016e+18
14524.0	1.660656874527129e+18
14525.0	1.660629114945536e+18
14526.0	1.6602362915323904e+18
14527.0	1.659800085594112e+18
14528.0	1.6593137275240443e+18
14529.0	1.6590547762282493e+18
14530.0	1.6586575303409656e+18
14531.0	1.6582730368155643e+18
14532.0	1.6572178724028413e+18
14533.0	1.6574885962711037e+18
14534.0	1.6570970865139707e+18
14535.0	1.6566980202987515e+18
14536.0	1.6563101495197693e+18
14537.0	1.6559129338314747e+18
14538.0	1.655525905268736e+18
14539.0	1.655136361801318e+18
14540.0	1.654745239597875e+18
14541.0	1.654342098196889e+18
14542.0	1.6539602605047805e+18
14543.0	1.653346546588057e+18
14544.0	1.653178712352358e+18
14545.0	1.6527780724342781e+18
14546.0	1.6278412809207665e+18
14547.0	1.6301332080099151e+18
14548.0	1.651608022679552e+18
14549.0	1.6511699360153597e+18
14550.0	1.6508301101498365e+18
14551.0	1.6504440898977792e+18
14552.0	1.6500445992189947e+18
14553.0	1.649650799371878e+18
14554.0	1.6492728523161597e+18
14555.0	1.6488815858286592e+18
14556.0	1.6484835195355133e+18
14557.0	1.648103112939929e+18
14558.0	1.6477127054458877e+18
14559.0	1.6464320216956902e+18
14560.0	1.6467512652726267e+18
14561.0	1.6465422194835453e+18
14562.0	1.6461373634510843e+18
14563.0	1.6457663906840576e+18
14564.0	1.645346993838489e+18
14565.0	1.6449893824462843e+18
14566.0	1.644600431214592e+18
14567.0	1.6442101277392893e+18
14568.0	1.6436891062632448e+18
14569.0	1.6434321816551424e+18
14570.0	1.642795402421862e+18
14571.0	1.6426554368196605e+18
14572.0	1.6422122817585147e+18
14573.0	1.6418498032959488e+18
14574.0	1.6414066666897405e+18
14575.0	1.6410957093797885e+18
14576.0	1.640710120302182e+18
14577.0	1.6403242460119037e+18
14578.0	1.6399393749991421e+18
14579.0	1.639551767622451e+18
14580.0	1.6391653614944256e+18
14581.0	1.638749712678912e+18
14582.0	1.638388765976166e+18
14583.0	1.6380037523570685e+18
14584.0	1.6376068587913213e+18
14585.0	1.6372292103700477e+18
14586.0	1.6368409436487677e+18
14587.0	1.6364482913632253e+18
14588.0	1.6360674603040765e+18
14589.0	1.6356979488325632e+18
14590.0	1.6353278082154493e+18
14591.0	1.6349506278785021e+18
14592.0	1.6345828192944125e+18
14593.0	1.634159619053977e+18
14594.0	1.6338449875337216e+18
14595.0	1.63347285713879e+18
14596.0	1.632957643934924e+18
14597.0	1.6325956385898488e+18
14598.0	1.632357521240883e+18
14599.0	1.631997968724787e+18
14600.0	1.6316229207719933e+18
14601.0	1.63125679662039e+18
14602.0	1.630851131926118e+18
14603.0	1.6305051957985277e+18
14604.0	1.630116638831411e+18
14605.0	1.629734762551705e+18
14606.0	1.6293307420246013e+18
14607.0	1.629042091701043e+18
14608.0	1.6286677249032192e+18
14609.0	1.6282560019562493e+18
14610.0	1.6278470036291581e+18
14611.0	1.627562539220992e+18
14612.0	1.627198559197593e+18
14613.0	1.626831571019366e+18
14614.0	1.6264609438629885e+18
14615.0	1.626051561337651e+18
14616.0	1.6257263534604288e+18
14617.0	1.6253579912282107e+18
14618.0	1.6249388024201213e+18
14619.0	1.6245497169707e+18
14620.0	1.6238720717946875e+18
14621.0	1.6238863391391744e+18
14622.0	1.6235169182646267e+18
14623.0	1.623150641440358e+18
14624.0	1.6227556487331837e+18
14625.0	1.6224136082751488e+18
14626.0	1.622035530357145e+18
14627.0	1.6216599757324285e+18
14628.0	1.6213128752660475e+18
14629.0	1.620945491145523e+18
14630.0	1.620576082015027e+18
14631.0	1.6202049733525501e+18
14632.0	1.617644273585358e+18
14633.0	1.6192379899871222e+18
14634.0	1.6191001383141376e+18
14635.0	1.6176219380776878e+18
14636.0	1.6142563312402422e+18
14637.0	1.618006614474752e+18
14638.0	1.6176215320690688e+18
14639.0	1.6172644659363837e+18
14640.0	1.6169040728817661e+18
14641.0	1.6083222735617981e+18
14642.0	1.616170505889382e+18
14643.0	1.6158052105322493e+18
14644.0	1.6154315953537021e+18
14645.0	1.6150605034684413e+18
14646.0	1.6146578939052024e+18
14647.0	1.6142974740070397e+18
14648.0	1.613969825044889e+18
