# Flux units: erg / (cm m2 s)
# Wavelength units: Angstrom
wave	flux
14000.0	1.675463296129433e+18
14001.0	1.6750072242896893e+18
14002.0	1.6748589623541757e+18
14003.0	1.6745534542839805e+18
14004.0	1.67424328550318e+18
14005.0	1.67393296908288e+18
14006.0	1.673613564444672e+18
14007.0	1.673303254735257e+18
14008.0	1.6728925317103616e+18
14009.0	1.672690607849472e+18
14010.0	1.672368329274163e+18
14011.0	1.671317219914547e+18
14012.0	1.6717625174261757e+18
14013.0	1.6714531807952893e+18
14014.0	1.671137363125862e+18
14015.0	1.670831301407539e+18
14016.0	1.6705243874066432e+18
14017.0	1.6702150172213248e+18
14018.0	1.6699054775861243e+18
14019.0	1.6695963120828413e+18
14020.0	1.6692862724866048e+18
14021.0	1.6689762932883456e+18
14022.0	1.6686662872465405e+18
14023.0	1.6683448609538043e+18
14024.0	1.6680335093792765e+18
14025.0	1.6677412838309885e+18
14026.0	1.6674307727949821e+18
14027.0	1.667124164139417e+18
14028.0	1.6668088967626747e+18
14029.0	1.666503249441587e+18
14030.0	1.6655898256605184e+18
14031.0	1.665857064901017e+18
14032.0	1.6655781050974203e+18
14033.0	1.6652251242168315e+18
14034.0	1.6649637452578813e+18
14035.0	1.664656463835955e+18
14036.0	1.6642739651215357e+18
14037.0	1.663814774397337e+18
14038.0	1.6635067027685376e+18
14039.0	1.663194290873958e+18
14040.0	1.6628823705518077e+18
14041.0	1.6625788254158843e+18
14042.0	1.6622607243673597e+18
14043.0	1.6619194841825277e+18
14044.0	1.6616445592993792e+18
14045.0	1.6613470992596992e+18
14046.0	1.6610403379314685e+18
14047.0	1.6607278320844797e+18
14048.0	1.6604267951423488e+18
14049.0	1.660122303771443e+18
14050.0	1.65981505758167e+18
14051.0	1.6594980202086397e+18
14052.0	1.659200571913011e+18
14053.0	1.6588936444903421e+18
14054.0	1.6585867019681792e+18
14055.0	1.6582797779009533e+18
14056.0	1.6579728924213243e+18
14057.0	1.6576661428371453e+18
14058.0	1.6573594150633472e+18
14059.0	1.6570527711756288e+18
14060.0	1.6567461826527232e+18
14061.0	1.6564314773127165e+18
14062.0	1.656133193511731e+18
14063.0	1.655809498939392e+18
14064.0	1.6553985712324605e+18
14065.0	1.6552040176025597e+18
14066.0	1.6549080725454848e+18
14067.0	1.6545967260041216e+18
14068.0	1.6542959457533947e+18
14069.0	1.653987996598272e+18
14070.0	1.6536836914544637e+18
14071.0	1.653374713856e+18
14072.0	1.6530723733241856e+18
14073.0	1.6527666656051197e+18
14074.0	1.6524611155918843e+18
14075.0	1.652136818717491e+18
14076.0	1.651843433863577e+18
14077.0	1.6514070786080763e+18
14078.0	1.6512293206491133e+18
14079.0	1.650922894865203e+18
14080.0	1.650628709738086e+18
14081.0	1.6503235556671488e+18
14082.0	1.6500146200117248e+18
14083.0	1.6497117342203896e+18
14084.0	1.6494082410938363e+18
14085.0	1.6487846487523325e+18
14086.0	1.648787623352729e+18
14087.0	1.648493914698547e+18
14088.0	1.648175939479142e+18
14089.0	1.6478798484602877e+18
14090.0	1.6475762311823357e+18
14091.0	1.647275595215667e+18
14092.0	1.6469711910862843e+18
14093.0	1.6466668322553856e+18
14094.0	1.646362525433856e+18
14095.0	1.6460582437781504e+18
14096.0	1.645724357047091e+18
14097.0	1.6454355305627648e+18
14098.0	1.6451337352904704e+18
14099.0	1.644841996281446e+18
14100.0	1.6445235227787261e+18
14101.0	1.6442343926267904e+18
14102.0	1.6439303777288192e+18
14103.0	1.64360802533376e+18
14104.0	1.6433203095011325e+18
14105.0	1.6430193832886267e+18
14106.0	1.6427161200099325e+18
14107.0	1.6424115984400381e+18
14108.0	1.6420972387106813e+18
14109.0	1.6418005621669885e+18
14110.0	1.6414977619394557e+18
14111.0	1.6411877659639805e+18
14112.0	1.6408883379568637e+18
14113.0	1.6405933693337595e+18
14114.0	1.640276518187827e+18
14115.0	1.6399858042667003e+18
14116.0	1.639659232401817e+18
14117.0	1.6383219775569915e+18
14118.0	1.6390787021406205e+18
14119.0	1.6387558229409787e+18
14120.0	1.638460606015078e+18
14121.0	1.6381585842503675e+18
14122.0	1.6378438252232704e+18
14123.0	1.6375535978414075e+18
14124.0	1.6372481199702013e+18
14125.0	1.6364344652595197e+18
14126.0	1.6366598755450875e+18
14127.0	1.63635816080343e+18
14128.0	1.636054582113075e+18
14129.0	1.635740943804006e+18
14130.0	1.6354303186829307e+18
14131.0	1.6351504931749885e+18
14132.0	1.634842762123673e+18
14133.0	1.6339290229309427e+18
14134.0	1.6342448372449277e+18
14135.0	1.6339273133326333e+18
14136.0	1.6333398473703421e+18
14137.0	1.632946107921203e+18
14138.0	1.632635029815296e+18
14139.0	1.6323450524139515e+18
14140.0	1.632036933808947e+18
14141.0	1.6317383983497208e+18
14142.0	1.631362204513075e+18
14143.0	1.6311357238411261e+18
14144.0	1.630840411285094e+18
14145.0	1.6305378761375741e+18
14146.0	1.630237220038246e+18
14147.0	1.6299368390852605e+18
14148.0	1.6296349800595456e+18
14149.0	1.6293349732384765e+18
14150.0	1.6290368572096507e+18
14151.0	1.6287299297869821e+18
14152.0	1.6284361489907707e+18
14153.0	1.6281356975734781e+18
14154.0	1.627808560316416e+18
14155.0	1.6274408758837248e+18
14156.0	1.627218638169702e+18
14157.0	1.6269353330671613e+18
14158.0	1.6266307242557437e+18
14159.0	1.626335054345011e+18
14160.0	1.6260261069455357e+18
14161.0	1.62567058096128e+18
14162.0	1.6253161857613821e+18
14163.0	1.6251344281141248e+18
14164.0	1.624794733110886e+18
14165.0	1.6244538737688576e+18
14166.0	1.624235850491494e+18
14167.0	1.6239232221708285e+18
14168.0	1.623635875436953e+18
14169.0	1.6233400041996285e+18
14170.0	1.6230362107609085e+18
14171.0	1.6227381500968957e+18
14172.0	1.622442597626675e+18
14173.0	1.622092390019891e+18
14174.0	1.621838735291187e+18
14175.0	1.6215458671755261e+18
14176.0	1.6212470834135037e+18
14177.0	1.620948373471232e+18
14178.0	1.6206484807352315e+18
14179.0	1.6203407211626493e+18
14180.0	1.6200526261649405e+18
14181.0	1.6197541578145787e+18
14182.0	1.619454801949491e+18
14183.0	1.619157398952345e+18
14184.0	1.6188533253341181e+18
14185.0	1.618560723976192e+18
14186.0	1.6180593754636288e+18
14187.0	1.6179371668668416e+18
14188.0	1.6176621815857147e+18
14189.0	1.6173662935711741e+18
14190.0	1.6170690197585915e+18
14191.0	1.6167706906591232e+18
14192.0	1.6164656942940157e+18
14193.0	1.6161466302332925e+18
14194.0	1.6158772133101565e+18
14195.0	1.6155823034073088e+18
14196.0	1.6152844742688765e+18
14197.0	1.614987027650969e+18
14198.0	1.6146839321444347e+18
14199.0	1.6143895087808507e+18
14200.0	1.6139787287134203e+18
14201.0	1.613790573913702e+18
14202.0	1.6134992274915325e+18
14203.0	1.6131916256247805e+18
14204.0	1.6129035306270715e+18
14205.0	1.6126067567755261e+18
14206.0	1.6121700710088696e+18
14207.0	1.612015947114086e+18
14208.0	1.6117195138400253e+18
14209.0	1.6112736358367224e+18
14210.0	1.611002776073011e+18
14211.0	1.610801722949632e+18
14212.0	1.6105095712210941e+18
14213.0	1.6102130741936125e+18
14214.0	1.6099165939433472e+18
14215.0	1.609605334643507e+18
14216.0	1.6093252826431485e+18
14217.0	1.609028904733901e+18
14218.0	1.6087202660351995e+18
14219.0	1.6084365599571963e+18
14220.0	1.6081406820089853e+18
14221.0	1.6078425726910461e+18
14222.0	1.607531707655782e+18
14223.0	1.607252338488115e+18
14224.0	1.6069569521123325e+18
14225.0	1.6062870865313792e+18
14226.0	1.606363505072537e+18
14227.0	1.6060698870153213e+18
14228.0	1.6047775263227901e+18
14229.0	1.6052295699529715e+18
14230.0	1.6051611960868867e+18
14231.0	1.6048568221564925e+18
14232.0	1.6045702337527805e+18
14233.0	1.604270018894233e+18
14234.0	1.6039798720430077e+18
14235.0	1.6036816821944315e+18
14236.0	1.6033894247694333e+18
14237.0	1.6030928505667581e+18
14238.0	1.6027988701216765e+18
14239.0	1.602497767748403e+18
14240.0	1.6002445406633981e+18
14241.0	1.601910622230937e+18
14242.0	1.6016182406545403e+18
14243.0	1.6011479081811965e+18
14244.0	1.601030278086656e+18
14245.0	1.6007173863636987e+18
14246.0	1.600418387853312e+18
14247.0	1.6001419077222397e+18
14248.0	1.5998154365206525e+18
14249.0	1.5995340054331387e+18
14250.0	1.5992394411409405e+18
14251.0	1.598947973922816e+18
14252.0	1.5986536411561981e+18
14253.0	1.598358516504985e+18
14254.0	1.5980625915805693e+18
14255.0	1.5977307483144187e+18
14256.0	1.5971108905811968e+18
14257.0	1.5971576822366203e+18
14258.0	1.5968894766284797e+18
14259.0	1.596574638748467e+18
14260.0	1.5962845959159803e+18
14261.0	1.5959875385294843e+18
14262.0	1.5957337797820408e+18
14263.0	1.5949057503526917e+18
14264.0	1.5950301164994557e+18
14265.0	1.594849643986944e+18
14266.0	1.5945591481696253e+18
14267.0	1.5942676759183357e+18
14268.0	1.5939744739360765e+18
14269.0	1.59367127105536e+18
14270.0	1.5933881018482685e+18
14271.0	1.593074678287564e+18
14272.0	1.5927802683457533e+18
14273.0	1.5924853701869565e+18
14274.0	1.5913698547728384e+18
14275.0	1.5918268074164221e+18
14276.0	1.5915909331812347e+18
14277.0	1.591297976146329e+18
14278.0	1.5910226150555643e+18
14279.0	1.5907285591130107e+18
14280.0	1.5904295354367997e+18
14281.0	1.5901449955311613e+18
14282.0	1.5898528387694592e+18
14283.0	1.589560398472806e+18
14284.0	1.5892679950860288e+18
14285.0	1.588975494391398e+18
14286.0	1.58868172701696e+18
14287.0	1.5883910869155837e+18
14288.0	1.588098520789811e+18
14289.0	1.586546960498686e+18
14290.0	1.587512823146086e+18
14291.0	1.5872216612732925e+18
14292.0	1.5869308835987453e+18
14293.0	1.5866363344060416e+18
14294.0	1.5861885119234043e+18
14295.0	1.5860411240808443e+18
14296.0	1.5847345564418053e+18
14297.0	1.5854477726711803e+18
14298.0	1.5849116617670653e+18
14299.0	1.5848524029624315e+18
14300.0	1.584566618187366e+18
14301.0	1.584280018039603e+18
14302.0	1.5839902889410557e+18
14303.0	1.5836631147741181e+18
14304.0	1.583389381073305e+18
14305.0	1.5831169476067325e+18
14306.0	1.5828056295866368e+18
14307.0	1.5825258594435072e+18
14308.0	1.5822444065456125e+18
14309.0	1.5819499848597507e+18
14310.0	1.5815640182947835e+18
14311.0	1.5812179395608576e+18
14312.0	1.5810231292395515e+18
14313.0	1.5806317922877437e+18
14314.0	1.580495398554828e+18
14315.0	1.5802093436665853e+18
14316.0	1.5798594934145021e+18
14317.0	1.5796144823074816e+18
14318.0	1.5793386900422656e+18
14319.0	1.5790489424887805e+18
14320.0	1.5787578661797885e+18
14321.0	1.5784652899876864e+18
14322.0	1.578133824208896e+18
14323.0	1.577865195814912e+18
14324.0	1.577578674520064e+18
14325.0	1.5772770621194237e+18
14326.0	1.5769970419957757e+18
14327.0	1.5766998973677563e+18
14328.0	1.576409166669414e+18
14329.0	1.5761271517347835e+18
14330.0	1.575837285063065e+18
14331.0	1.575547114723737e+18
14332.0	1.5752576574160893e+18
14333.0	1.5749680071704576e+18
14334.0	1.5746783904792568e+18
14335.0	1.574371402658611e+18
14336.0	1.5740578868232192e+18
14337.0	1.5738067805536253e+18
14338.0	1.5735167142330363e+18
14339.0	1.573218948848025e+18
14340.0	1.572941210425753e+18
14341.0	1.5726497230749693e+18
14342.0	1.5723607455956987e+18
14343.0	1.572068979743129e+18
14344.0	1.5717793932509181e+18
14345.0	1.5714959975514107e+18
14346.0	1.5712034414919677e+18
14347.0	1.570892459016192e+18
14348.0	1.5706286138064896e+18
14349.0	1.5699355151368187e+18
14350.0	1.5695571570393088e+18
14351.0	1.569260121463193e+18
14352.0	1.5689984656801787e+18
14353.0	1.5687179053301757e+18
14354.0	1.5684275319865341e+18
14355.0	1.5681333099495421e+18
14356.0	1.5678294494019581e+18
14357.0	1.5675471425437693e+18
14358.0	1.5672585224191997e+18
14359.0	1.5669551534440448e+18
14360.0	1.5666795071406075e+18
14361.0	1.5663932576366587e+18
14362.0	1.566106332010905e+18
14363.0	1.5658179887103997e+18
14364.0	1.5654413452443643e+18
14365.0	1.5652227532193792e+18
14366.0	1.564936961733427e+18
14367.0	1.5646670096171003e+18
14368.0	1.564378669672038e+18
14369.0	1.5640916115062781e+18
14370.0	1.5638040600903677e+18
14371.0	1.563516597593702e+18
14372.0	1.5632228302192637e+18
14373.0	1.562940323712205e+18
14374.0	1.5626531497836541e+18
14375.0	1.5623636119453693e+18
14376.0	1.5620794579156987e+18
14377.0	1.561791401505587e+18
14378.0	1.5615017395159035e+18
14379.0	1.5612177431920635e+18
14380.0	1.560928931807232e+18
14381.0	1.5606311530004475e+18
14382.0	1.560354624215449e+18
14383.0	1.5600633885229056e+18
14384.0	1.5597624488886272e+18
14385.0	1.5594957112868864e+18
14386.0	1.5591929446137853e+18
14387.0	1.558921843258163e+18
14388.0	1.558632984897126e+18
14389.0	1.5583482570866685e+18
14390.0	1.5580596101185533e+18
14391.0	1.557775279928115e+18
14392.0	1.5574280653766653e+18
14393.0	1.5568566770204667e+18
14394.0	1.5565283519365115e+18
14395.0	1.556270217691136e+18
14396.0	1.5559969537523707e+18
14397.0	1.555710645528166e+18
14398.0	1.555423464888729e+18
14399.0	1.555137755611136e+18
14400.0	1.5548283401273344e+18
14401.0	1.5545573327241216e+18
14402.0	1.5542771716718592e+18
14403.0	1.552394113725233e+18
14404.0	1.5477965190070252e+18
14405.0	1.55128424719974e+18
14406.0	1.553133041038131e+18
14407.0	1.5506377271148547e+18
14408.0	1.5525409193983997e+18
14409.0	1.5522521499566077e+18
14410.0	1.5519835081408512e+18
14411.0	1.5517041456840701e+18
14412.0	1.5514152386691067e+18
14413.0	1.5511344266608637e+18
14414.0	1.5508458249912315e+18
14415.0	1.5505616390848507e+18
14416.0	1.550275441590272e+18
14417.0	1.5499836656713725e+18
14418.0	1.5496860143714301e+18
14419.0	1.549418937869926e+18
14420.0	1.5491290225442813e+18
14421.0	1.548849416817868e+18
14422.0	1.5485596071886848e+18
14423.0	1.5482667474616315e+18
14424.0	1.5390641240408023e+18
14425.0	1.5476996440063997e+18
14426.0	1.547424155408793e+18
14427.0	1.5471382464823293e+18
14428.0	1.5468313895239683e+18
14429.0	1.546563329877606e+18
14430.0	1.5462852659773437e+18
14431.0	1.5458346970644477e+18
14432.0	1.545708911565209e+18
14433.0	1.543747168475545e+18
14434.0	1.5451054804041725e+18
14435.0	1.5448091729592312e+18
14436.0	1.5445565668065275e+18
14437.0	1.544272266815078e+18
14438.0	1.543934596821811e+18
14439.0	1.543691078887014e+18
14440.0	1.5434178904457213e+18
14441.0	1.543120927011635e+18
14442.0	1.5428298137927675e+18
14443.0	1.5424953717358592e+18
14444.0	1.5422746808811515e+18
14445.0	1.54199652302848e+18
14446.0	1.5391621449252874e+18
14447.0	1.5414113136017405e+18
14448.0	1.5411448360468475e+18
14449.0	1.5408609638744064e+18
14450.0	1.5405710670036987e+18
14451.0	1.5402909478944765e+18
14452.0	1.5400071428308992e+18
14453.0	1.5396982004645888e+18
14454.0	1.539440693687091e+18
14455.0	1.5391465354035197e+18
14456.0	1.5388673927282685e+18
14457.0	1.5385809100210176e+18
14458.0	1.5383036312944635e+18
14459.0	1.5380178549080064e+18
14460.0	1.5377342226497533e+18
14461.0	1.5374198964748288e+18
14462.0	1.5370341513691133e+18
14463.0	1.5368767542394875e+18
14464.0	1.5366024316583933e+18
14465.0	1.5362888503918595e+18
14466.0	1.5360344037785595e+18
14467.0	1.5357151685902333e+18
14468.0	1.535464959901696e+18
14469.0	1.535151190730342e+18
14470.0	1.5348683050582013e+18
14471.0	1.5346070401843195e+18
14472.0	1.5343307999674363e+18
14473.0	1.5340530632228856e+18
14474.0	1.5337717344763896e+18
14475.0	1.533484647789363e+18
14476.0	1.53309956538368e+18
14477.0	1.5329234113265664e+18
14478.0	1.5326378111008765e+18
14479.0	1.5323560310472701e+18
14480.0	1.5320541971873792e+18
14481.0	1.5317930900193275e+18
14482.0	1.5315055469920253e+18
14483.0	1.5311986917113853e+18
14484.0	1.5309110782197752e+18
14485.0	1.530598409633792e+18
14486.0	1.5299903177621501e+18
14487.0	1.5299797984477181e+18
14488.0	1.529510846739251e+18
14489.0	1.5292229094473725e+18
14490.0	1.5289484945915904e+18
14491.0	1.528671147078451e+18
14492.0	1.5283906169274365e+18
14493.0	1.5281008861511675e+18
14494.0	1.5278012333293563e+18
14495.0	1.5275436661538816e+18
14496.0	1.5270962194808832e+18
14497.0	1.5269777454923773e+18
14498.0	1.526697131455283e+18
14499.0	1.5264153765675005e+18
14500.0	1.5261329271029757e+18
14501.0	1.5258001745117181e+18
14502.0	1.5252540559982595e+18
14503.0	1.5252649930653696e+18
14504.0	1.5249974803562493e+18
14505.0	1.5246784699826173e+18
14506.0	1.524350317703987e+18
14507.0	1.5238554854621181e+18
14508.0	1.5238777521831936e+18
14509.0	1.5235961331908605e+18
14510.0	1.5233102058094592e+18
14511.0	1.5230321922408443e+18
14512.0	1.5227318112878587e+18
14513.0	1.522469028075929e+18
14514.0	1.522144550007603e+18
14515.0	1.5219038389010424e+18
14516.0	1.5183892117979156e+18
14517.0	1.5213399214391293e+18
14518.0	1.5210606680342523e+18
14519.0	1.520779228558131e+18
14520.0	1.5204964838146043e+18
14521.0	1.5202148363010048e+18
14522.0	1.519934646727475e+18
14523.0	1.51954332319744e+18
14524.0	1.5192665427542013e+18
14525.0	1.5190836039909373e+18
14526.0	1.518806107160576e+18
14527.0	1.518491133385113e+18
14528.0	1.518079574854861e+18
14529.0	1.5179505412866043e+18
14530.0	1.5176621023559675e+18
14531.0	1.5173991111065595e+18
14532.0	1.5169730788720637e+18
14533.0	1.516837799146291e+18
14534.0	1.5165590037594107e+18
14535.0	1.5162650233143293e+18
14536.0	1.5159921670619136e+18
14537.0	1.515700446507827e+18
14538.0	1.515434383350169e+18
14539.0	1.5151416729403387e+18
14540.0	1.5148530645598205e+18
14541.0	1.5145461170044925e+18
14542.0	1.5142885632507901e+18
14543.0	1.5139330892759037e+18
14544.0	1.513727776417382e+18
14545.0	1.513439495192576e+18
14546.0	1.5008959945506762e+18
14547.0	1.5016448489422776e+18
14548.0	1.512586308327833e+18
14549.0	1.5121736173355005e+18
14550.0	1.5120325008162813e+18
14551.0	1.5117617870143488e+18
14552.0	1.5114785456652285e+18
14553.0	1.511188737713766e+18
14554.0	1.510919438231142e+18
14555.0	1.5106381698826237e+18
14556.0	1.5103551332155387e+18
14557.0	1.510076730415513e+18
14558.0	1.5097949436510205e+18
14559.0	1.507134030217213e+18
14560.0	1.509227759665152e+18
14561.0	1.5089441508950016e+18
14562.0	1.5086424176984064e+18
14563.0	1.5083901219241981e+18
14564.0	1.5080963612606464e+18
14565.0	1.5078300900655104e+18
14566.0	1.507549294834483e+18
14567.0	1.5072677412732925e+18
14568.0	1.506969355131289e+18
14569.0	1.5067062397304832e+18
14570.0	1.505760675836723e+18
14571.0	1.5061410572664832e+18
14572.0	1.5058126113865728e+18
14573.0	1.505525115335475e+18
14574.0	1.5052685866696701e+18
14575.0	1.505018475288985e+18
14576.0	1.5047343061598205e+18
14577.0	1.5044525059735547e+18
14578.0	1.504175975510835e+18
14579.0	1.5038989769637885e+18
14580.0	1.5036184468127744e+18
14581.0	1.5033324355452925e+18
14582.0	1.5030560527220736e+18
14583.0	1.5027760141434875e+18
14584.0	1.5024783427108864e+18
14585.0	1.5021391627681787e+18
14586.0	1.501488077602816e+18
14587.0	1.5012089013731325e+18
14588.0	1.5009297838637053e+18
14589.0	1.5006551056056315e+18
14590.0	1.5003803115847675e+18
14591.0	1.500103596572672e+18
14592.0	1.499823683823206e+18
14593.0	1.499409962709811e+18
14594.0	1.499279783257702e+18
14595.0	1.4989980988342272e+18
14596.0	1.498634056735129e+18
14597.0	1.4983474532319224e+18
14598.0	1.498168881577984e+18
14599.0	1.497905184007782e+18
14600.0	1.4976278750822395e+18
14601.0	1.497354513835622e+18
14602.0	1.4970714553581565e+18
14603.0	1.496804184240947e+18
14604.0	1.4964582732791805e+18
14605.0	1.4962135339630592e+18
14606.0	1.495870263735091e+18
14607.0	1.4956664910249981e+18
14608.0	1.4954049208057856e+18
14609.0	1.4951251556958203e+18
14610.0	1.4948200972550144e+18
14611.0	1.4945751213801472e+18
14612.0	1.49430707683328e+18
14613.0	1.4940324942053376e+18
14614.0	1.4937523348307965e+18
14615.0	1.493479827544473e+18
14616.0	1.493205800242381e+18
14617.0	1.492929721086771e+18
14618.0	1.4926489577324544e+18
14619.0	1.4923125191868413e+18
14620.0	1.4918872687706112e+18
14621.0	1.4918267600633856e+18
14622.0	1.4915473086873597e+18
14623.0	1.4912749020643323e+18
14624.0	1.4909266557140992e+18
14625.0	1.4907191752392701e+18
14626.0	1.4904436514095104e+18
14627.0	1.490162344473395e+18
14628.0	1.4898941069885435e+18
14629.0	1.489617809729126e+18
14630.0	1.4893391552708605e+18
14631.0	1.4890643109183485e+18
14632.0	1.4880545624293379e+18
14633.0	1.4884064662126587e+18
14634.0	1.4882303373213693e+18
14635.0	1.4878053905727483e+18
14636.0	1.487350499849011e+18
14637.0	1.4874049167491072e+18
14638.0	1.4871230008000507e+18
14639.0	1.4868345048268797e+18
14640.0	1.4865684819345403e+18
14641.0	1.4834122564304878e+18
14642.0	1.486012265214771e+18
14643.0	1.4857407863717885e+18
14644.0	1.485450508658278e+18
14645.0	1.4851563503747067e+18
14646.0	1.4848954562772987e+18
14647.0	1.4846085239406592e+18
14648.0	1.484349396484096e+18
