# Flux units: erg / (cm m2 s)
# Wavelength units: Angstrom
wave	flux
14000.0	1.6907604093566976e+18
14001.0	1.690454268785459e+18
14002.0	1.6901828956389376e+18
14003.0	1.6898905459392507e+18
14004.0	1.6895981425524733e+18
14005.0	1.6893057559429115e+18
14006.0	1.6890124650414075e+18
14007.0	1.68872052302807e+18
14008.0	1.6884191505416187e+18
14009.0	1.6881352733360125e+18
14010.0	1.687843698743705e+18
14011.0	1.6874737711972347e+18
14012.0	1.6872589070696443e+18
14013.0	1.6869689078579197e+18
14014.0	1.6866773215215616e+18
14015.0	1.6863854348730365e+18
14016.0	1.6860940280528893e+18
14017.0	1.685802500436787e+18
14018.0	1.685510994631065e+18
14019.0	1.6852195509010432e+18
14020.0	1.684928078649753e+18
14021.0	1.6846366902845435e+18
14022.0	1.6843454797578237e+18
14023.0	1.6840541417242621e+18
14024.0	1.6837624077484032e+18
14025.0	1.683472161911603e+18
14026.0	1.6831810319155197e+18
14027.0	1.6828902424969213e+18
14028.0	1.6825993322823675e+18
14029.0	1.6823081435660285e+18
14030.0	1.6819858045927424e+18
14031.0	1.681723464299315e+18
14032.0	1.681436333991526e+18
14033.0	1.6811414391881725e+18
14034.0	1.6808555805933568e+18
14035.0	1.6805652793917437e+18
14036.0	1.680274978190131e+18
14037.0	1.6799847256424443e+18
14038.0	1.6796945351704568e+18
14039.0	1.6794044067741693e+18
14040.0	1.679114335420416e+18
14041.0	1.6788242875547643e+18
14042.0	1.678533184402227e+18
14043.0	1.6782398314250237e+18
14044.0	1.6779530987372536e+18
14045.0	1.6776649718628347e+18
14046.0	1.6773753014845437e+18
14047.0	1.6770855925186557e+18
14048.0	1.6767961352110077e+18
14049.0	1.6765066762256381e+18
14050.0	1.67621722898432e+18
14051.0	1.6759270133465085e+18
14052.0	1.6756385190510584e+18
14053.0	1.6753494224535547e+18
14054.0	1.6750602788798456e+18
14055.0	1.6747711906709504e+18
14056.0	1.6744821628600315e+18
14057.0	1.6741932071911421e+18
14058.0	1.673904313597952e+18
14059.0	1.6736154753695741e+18
14060.0	1.673326705927782e+18
14061.0	1.6730371630563323e+18
14062.0	1.6727492760961021e+18
14063.0	1.6724590537474048e+18
14064.0	1.6721647914450944e+18
14065.0	1.6718827681218552e+18
14066.0	1.6715954717196285e+18
14067.0	1.6713071972057088e+18
14068.0	1.6710189445021693e+18
14069.0	1.6707306615996413e+18
14070.0	1.6704426353885181e+18
14071.0	1.6701542434340861e+18
14072.0	1.6698666165207035e+18
14073.0	1.6695786960060416e+18
14074.0	1.6692908375670781e+18
14075.0	1.6690010262601725e+18
14076.0	1.6687151827648507e+18
14077.0	1.668420405402009e+18
14078.0	1.6681391974514688e+18
14079.0	1.667851818840883e+18
14080.0	1.6675650089779197e+18
14081.0	1.6672776203010043e+18
14082.0	1.6669902064582653e+18
14083.0	1.6667027070517243e+18
14084.0	1.6664150281289728e+18
14085.0	1.666101096218624e+18
14086.0	1.665839463923712e+18
14087.0	1.6655543166828541e+18
14088.0	1.6652674732654587e+18
14089.0	1.6649807036678141e+18
14090.0	1.664693838440038e+18
14091.0	1.6644071527284733e+18
14092.0	1.6641204754055165e+18
14093.0	1.6638338450587648e+18
14094.0	1.663547254977331e+18
14095.0	1.663260679995392e+18
14096.0	1.6629733651382267e+18
14097.0	1.6626875031879677e+18
14098.0	1.662401094300467e+18
14099.0	1.662115257516032e+18
14100.0	1.6618276675125243e+18
14101.0	1.661543060498022e+18
14102.0	1.6612569770885115e+18
14103.0	1.660969023019417e+18
14104.0	1.6606850938044416e+18
14105.0	1.6603992352096253e+18
14106.0	1.6601134336573435e+18
14107.0	1.6598276673372157e+18
14108.0	1.6595420083912704e+18
14109.0	1.659255893105049e+18
14110.0	1.6589706938548221e+18
14111.0	1.658684939278745e+18
14112.0	1.6583996158771197e+18
14113.0	1.6581144703139835e+18
14114.0	1.6578291351683067e+18
14115.0	1.6575434527342584e+18
14116.0	1.6572558442758144e+18
14117.0	1.656913902803353e+18
14118.0	1.656687200672153e+18
14119.0	1.6564026188234747e+18
14120.0	1.6561179899985915e+18
14121.0	1.6558335155240957e+18
14122.0	1.6555482776862715e+18
14123.0	1.6552635582644221e+18
14124.0	1.6549770940121085e+18
14125.0	1.6546427861729275e+18
14126.0	1.65440901915607e+18
14127.0	1.6541258549821435e+18
14128.0	1.6538415214362621e+18
14129.0	1.653556003418931e+18
14130.0	1.6532712152104952e+18
14131.0	1.6529885862297597e+18
14132.0	1.6527025816731643e+18
14133.0	1.652359363454566e+18
14134.0	1.6521343860211707e+18
14135.0	1.651850981933056e+18
14136.0	1.6515684771037181e+18
14137.0	1.6512847341158397e+18
14138.0	1.6510007981899776e+18
14139.0	1.6507174041681915e+18
14140.0	1.6504336511139837e+18
14141.0	1.6501491497959421e+18
14142.0	1.649863967322931e+18
14143.0	1.6495830345187325e+18
14144.0	1.6492999273873405e+18
14145.0	1.6490166155739133e+18
14146.0	1.6487332181966848e+18
14147.0	1.6484500942880765e+18
14148.0	1.6481670072893437e+18
14149.0	1.6478839890771965e+18
14150.0	1.6476009557655547e+18
14151.0	1.6473177412599803e+18
14152.0	1.647035125701017e+18
14153.0	1.6467522819719165e+18
14154.0	1.6464665609502715e+18
14155.0	1.6461857069989885e+18
14156.0	1.6459040259309565e+18
14157.0	1.6456215093575677e+18
14158.0	1.64533859516416e+18
14159.0	1.6450564661444605e+18
14160.0	1.6447723188256763e+18
14161.0	1.6444854502424576e+18
14162.0	1.6441977008553984e+18
14163.0	1.6439263914622968e+18
14164.0	1.6436437557706747e+18
14165.0	1.643361151955763e+18
14166.0	1.643080871785267e+18
14167.0	1.642799126963814e+18
14168.0	1.6425171522945024e+18
14169.0	1.64223542928343e+18
14170.0	1.6419533170409467e+18
14171.0	1.641671560475443e+18
14172.0	1.6413902434729984e+18
14173.0	1.641106656513228e+18
14174.0	1.6408263176224765e+18
14175.0	1.6405456968744957e+18
14176.0	1.640264329540403e+18
14177.0	1.639983002471628e+18
14178.0	1.6397016804360187e+18
14179.0	1.6394200513773565e+18
14180.0	1.6391393450655741e+18
14181.0	1.6388582411337725e+18
14182.0	1.6385771221024763e+18
14183.0	1.6382961909759995e+18
14184.0	1.6380146927796224e+18
14185.0	1.6377340367994875e+18
14186.0	1.6374419454689275e+18
14187.0	1.6371690070081539e+18
14188.0	1.6368920621481981e+18
14189.0	1.6366115739402237e+18
14190.0	1.636331037078323e+18
14191.0	1.6360504867946493e+18
14192.0	1.6357692134129661e+18
14193.0	1.635488347717632e+18
14194.0	1.6352094130798592e+18
14195.0	1.6349293879230461e+18
14196.0	1.6346492033826816e+18
14197.0	1.634369082595737e+18
14198.0	1.6340884417150976e+18
14199.0	1.6338087302922235e+18
14200.0	1.633522891830067e+18
14201.0	1.633248196794777e+18
14202.0	1.63296937288663e+18
14203.0	1.6326892135120896e+18
14204.0	1.632409629596057e+18
14205.0	1.6321297285906432e+18
14206.0	1.6318373654691837e+18
14207.0	1.6315704785502205e+18
14208.0	1.6312914784813056e+18
14209.0	1.630997845324595e+18
14210.0	1.6307213316390912e+18
14211.0	1.6304535739826179e+18
14212.0	1.6301746125012987e+18
14213.0	1.6298956560531456e+18
14214.0	1.62961645633536e+18
14215.0	1.6293360453025795e+18
14216.0	1.6290586810122235e+18
14217.0	1.628779813483315e+18
14218.0	1.6285009761533955e+18
14219.0	1.6282222042546176e+18
14220.0	1.627943507853312e+18
14221.0	1.6276648080965632e+18
14222.0	1.627386217391718e+18
14223.0	1.6271076401086461e+18
14224.0	1.626828967195443e+18
14225.0	1.6265293747716093e+18
14226.0	1.626271113019392e+18
14227.0	1.6259937051082747e+18
14228.0	1.6256540822470653e+18
14229.0	1.6254236908060667e+18
14230.0	1.6251594530095107e+18
14231.0	1.6248816307011584e+18
14232.0	1.6246037110849539e+18
14233.0	1.6243257948241915e+18
14234.0	1.6240479154733053e+18
14235.0	1.6237697962082301e+18
14236.0	1.623492296022425e+18
14237.0	1.6232143344631805e+18
14238.0	1.6229364215578621e+18
14239.0	1.6226560189136893e+18
14240.0	1.6221709426229248e+18
14241.0	1.6220989130014715e+18
14242.0	1.6218250182393856e+18
14243.0	1.6215325058007037e+18
14244.0	1.6212721234083835e+18
14245.0	1.6209949285679101e+18
14246.0	1.620717539111731e+18
14247.0	1.6204308718551035e+18
14248.0	1.6201455232876544e+18
14249.0	1.6198704859971581e+18
14250.0	1.6195935629475837e+18
14251.0	1.6193169234329597e+18
14252.0	1.619040074203136e+18
14253.0	1.618763077333811e+18
14254.0	1.6184860670427133e+18
14255.0	1.6182049312342013e+18
14256.0	1.6179124489945088e+18
14257.0	1.6176513502150653e+18
14258.0	1.617379802585497e+18
14259.0	1.6171036277997563e+18
14260.0	1.616826543688908e+18
14261.0	1.6165494763552763e+18
14262.0	1.6162963786301437e+18
14263.0	1.6159904175751165e+18
14264.0	1.615731493122867e+18
14265.0	1.615459120054272e+18
14266.0	1.6151761723064315e+18
14267.0	1.6149003146100733e+18
14268.0	1.614624394838016e+18
14269.0	1.6143481915310075e+18
14270.0	1.6140725838151677e+18
14271.0	1.6137966908866552e+18
14272.0	1.613520650318643e+18
14273.0	1.6132430058487805e+18
14274.0	1.6129190579404797e+18
14275.0	1.6126849268580347e+18
14276.0	1.612417841967923e+18
14277.0	1.6121427241467901e+18
14278.0	1.611867800941363e+18
14279.0	1.611592372741734e+18
14280.0	1.6113166542962688e+18
14281.0	1.611042209241497e+18
14282.0	1.6107671132307453e+18
14283.0	1.6104920222531581e+18
14284.0	1.610216968185446e+18
14285.0	1.6099313092395003e+18
14286.0	1.6096499771375613e+18
14287.0	1.6093747787857915e+18
14288.0	1.609097672864563e+18
14289.0	1.608689989871206e+18
14290.0	1.608548302926643e+18
14291.0	1.608275488617267e+18
14292.0	1.6080011626807296e+18
14293.0	1.6077260482150397e+18
14294.0	1.6074367335137277e+18
14295.0	1.607175352877056e+18
14296.0	1.606796350534451e+18
14297.0	1.6066232599969784e+18
14298.0	1.6063339956273147e+18
14299.0	1.6060793007112187e+18
14300.0	1.6058063169519613e+18
14301.0	1.6055323081048061e+18
14302.0	1.6052579083485181e+18
14303.0	1.6049798662586365e+18
14304.0	1.6047086256521213e+18
14305.0	1.6044361284321277e+18
14306.0	1.6041620122107901e+18
14307.0	1.603888085571993e+18
14308.0	1.6036025071566843e+18
14309.0	1.6033234215239677e+18
14310.0	1.6030478054195197e+18
14311.0	1.6027736002789376e+18
14312.0	1.6024994152710141e+18
14313.0	1.6022097297932285e+18
14314.0	1.601955799918182e+18
14315.0	1.6016822960652285e+18
14316.0	1.6014037926019072e+18
14317.0	1.6011356306145277e+18
14318.0	1.6008630646079488e+18
14319.0	1.600590043938816e+18
14320.0	1.6003169125400576e+18
14321.0	1.600043843216998e+18
14322.0	1.5997667893051392e+18
14323.0	1.599495288651776e+18
14324.0	1.599225073133158e+18
14325.0	1.5989523276103677e+18
14326.0	1.5986795854430203e+18
14327.0	1.5984068264984576e+18
14328.0	1.598133435052851e+18
14329.0	1.5978616105992187e+18
14330.0	1.5975890764693501e+18
14331.0	1.5973165507280893e+18
14332.0	1.5970441357164544e+18
14333.0	1.5967643756396541e+18
14334.0	1.596482191255142e+18
14335.0	1.5962083686350848e+18
14336.0	1.5959353647431675e+18
14337.0	1.5956652297551867e+18
14338.0	1.5953929053405181e+18
14339.0	1.5951207939964925e+18
14340.0	1.5948489091448832e+18
14341.0	1.594576861554278e+18
14342.0	1.5943049783803904e+18
14343.0	1.5940330499080187e+18
14344.0	1.5937611868667896e+18
14345.0	1.5934893842235387e+18
14346.0	1.5932173030785021e+18
14347.0	1.5929446749962235e+18
14348.0	1.5926741641986043e+18
14349.0	1.592402710521446e+18
14350.0	1.592129426450022e+18
14351.0	1.5918580046495741e+18
14352.0	1.591588364589465e+18
14353.0	1.5913170400968704e+18
14354.0	1.5910454018703357e+18
14355.0	1.5907738525630464e+18
14356.0	1.5905027730178048e+18
14357.0	1.5902321783341053e+18
14358.0	1.5899611205992448e+18
14359.0	1.5896900242767867e+18
14360.0	1.589418936342937e+18
14361.0	1.5891376814161915e+18
14362.0	1.5888601543868413e+18
14363.0	1.5885891369172992e+18
14364.0	1.5883133714956288e+18
14365.0	1.5880455685406715e+18
14366.0	1.5877758194286587e+18
14367.0	1.5875062598991872e+18
14368.0	1.5872356098506747e+18
14369.0	1.5869651024084992e+18
14370.0	1.586694606710374e+18
14371.0	1.5864241546330107e+18
14372.0	1.586153729399193e+18
14373.0	1.5858833494638592e+18
14374.0	1.5856130852913147e+18
14375.0	1.5853428311851003e+18
14376.0	1.5850726290882552e+18
14377.0	1.5848023984701437e+18
14378.0	1.5845320554446848e+18
14379.0	1.584262319754444e+18
14380.0	1.5839922652971005e+18
14381.0	1.5837221084987387e+18
14382.0	1.5834523107327997e+18
14383.0	1.5831825280663547e+18
14384.0	1.5829107472334843e+18
14385.0	1.5826431925813248e+18
14386.0	1.5823735206445056e+18
14387.0	1.5821038520631293e+18
14388.0	1.5818341616713725e+18
14389.0	1.5815646944165885e+18
14390.0	1.5812950795223037e+18
14391.0	1.5810259092242432e+18
14392.0	1.5807564889456635e+18
14393.0	1.5804789015183357e+18
14394.0	1.5801961349644285e+18
14395.0	1.5799303637303293e+18
14396.0	1.5796623577710587e+18
14397.0	1.5793931623071741e+18
14398.0	1.579123960132403e+18
14399.0	1.578854789834342e+18
14400.0	1.5785832422047741e+18
14401.0	1.5783153889181693e+18
14402.0	1.5780460474925053e+18
14403.0	1.577746500367155e+18
14404.0	1.5771512782979067e+18
14405.0	1.5769994864361462e+18
14406.0	1.576967842929049e+18
14407.0	1.5766657221787648e+18
14408.0	1.5764327789232123e+18
14409.0	1.5761639307476987e+18
14410.0	1.575897805514342e+18
14411.0	1.5756298196877312e+18
14412.0	1.575361166127923e+18
14413.0	1.5750933564620797e+18
14414.0	1.5748247800774653e+18
14415.0	1.5745566784880637e+18
14416.0	1.5742886356189181e+18
14417.0	1.5740202739826685e+18
14418.0	1.5737518334935037e+18
14419.0	1.5734839818846203e+18
14420.0	1.573215494419251e+18
14421.0	1.572948006875955e+18
14422.0	1.5726795932303357e+18
14423.0	1.572407829174681e+18
14424.0	1.571997112860672e+18
14425.0	1.571871865910067e+18
14426.0	1.5716085827371005e+18
14427.0	1.5713414743588864e+18
14428.0	1.5710710390587392e+18
14429.0	1.570806105007718e+18
14430.0	1.5705267324846075e+18
14431.0	1.570244752782131e+18
14432.0	1.569985746121523e+18
14433.0	1.5696902574047232e+18
14434.0	1.5694493500047357e+18
14435.0	1.5691826426019837e+18
14436.0	1.5689173360967677e+18
14437.0	1.568650229396275e+18
14438.0	1.5683817100541955e+18
14439.0	1.5681154992570365e+18
14440.0	1.567848736489472e+18
14441.0	1.567580314455244e+18
14442.0	1.5673122749415421e+18
14443.0	1.5670402760048637e+18
14444.0	1.5667795547127805e+18
14445.0	1.5665124413014013e+18
14446.0	1.566122481759027e+18
14447.0	1.5659741728473088e+18
14448.0	1.565713292171673e+18
14449.0	1.5654470713081853e+18
14450.0	1.5651805417439232e+18
14451.0	1.5649140054687744e+18
14452.0	1.5646474490609664e+18
14453.0	1.564380733269606e+18
14454.0	1.5641145442828285e+18
14455.0	1.5638475332124672e+18
14456.0	1.5635817821110267e+18
14457.0	1.5633154287075323e+18
14458.0	1.5630490836926464e+18
14459.0	1.562782624592691e+18
14460.0	1.5625161587818493e+18
14461.0	1.5622476075630587e+18
14462.0	1.5619816836562941e+18
14463.0	1.5617173149974523e+18
14464.0	1.5614521812975616e+18
14465.0	1.5611832660131837e+18
14466.0	1.5609209257197563e+18
14467.0	1.5606539565924347e+18
14468.0	1.560389161792307e+18
14469.0	1.560120499843891e+18
14470.0	1.5598540390662141e+18
14471.0	1.5595796325990397e+18
14472.0	1.5593098650320893e+18
14473.0	1.559044306868633e+18
14474.0	1.558778763804672e+18
14475.0	1.5585130798120957e+18
14476.0	1.5582460200878077e+18
14477.0	1.5579822184988672e+18
14478.0	1.5577169203822587e+18
14479.0	1.5574515249577981e+18
14480.0	1.5571849517727741e+18
14481.0	1.5569209387909115e+18
14482.0	1.55665507024896e+18
14483.0	1.5563892335837181e+18
14484.0	1.5561230915731453e+18
14485.0	1.55585425178624e+18
14486.0	1.5555579946729467e+18
14487.0	1.5553293228965888e+18
14488.0	1.5550651740192765e+18
14489.0	1.5547995957231613e+18
14490.0	1.5545352992063485e+18
14491.0	1.554270618491289e+18
14492.0	1.5540060803825667e+18
14493.0	1.5537413023596541e+18
14494.0	1.5534738148163581e+18
14495.0	1.553210867187712e+18
14496.0	1.5529311054331904e+18
14497.0	1.552682235566489e+18
14498.0	1.5524182779494397e+18
14499.0	1.5521538170159104e+18
14500.0	1.5518892503859197e+18
14501.0	1.551623180517376e+18
14502.0	1.5513314767405056e+18
14503.0	1.5510942804606973e+18
14504.0	1.5508309268234237e+18
14505.0	1.5505666739273725e+18
14506.0	1.5503005822484475e+18
14507.0	1.550008641912832e+18
14508.0	1.5497744604987392e+18
14509.0	1.5495110967951357e+18
14510.0	1.5492471408558075e+18
14511.0	1.5489829399691264e+18
14512.0	1.5487173683838976e+18
14513.0	1.5484545667170301e+18
14514.0	1.5481869231456253e+18
14515.0	1.5479230896799741e+18
14516.0	1.547309548568576e+18
14517.0	1.5473880810389501e+18
14518.0	1.547134993380147e+18
14519.0	1.5468723494191101e+18
14520.0	1.5466075076427773e+18
14521.0	1.5463286065594368e+18
14522.0	1.546064950932275e+18
14523.0	1.5457994766548992e+18
14524.0	1.545536112951296e+18
14525.0	1.5452737391034363e+18
14526.0	1.5450108887826432e+18
14527.0	1.544743040529203e+18
14528.0	1.5444665805307904e+18
14529.0	1.544219208869478e+18
14530.0	1.54395572436992e+18
14531.0	1.5436940752977915e+18
14532.0	1.5434290540052477e+18
14533.0	1.5431677908090877e+18
14534.0	1.5429048951898107e+18
14535.0	1.5426417126801405e+18
14536.0	1.5423785956016125e+18
14537.0	1.542114294051635e+18
14538.0	1.5418526550458365e+18
14539.0	1.5415897359384573e+18
14540.0	1.5413267849543675e+18
14541.0	1.5410632853553147e+18
14542.0	1.5408008376877053e+18
14543.0	1.5405370746863613e+18
14544.0	1.5402746958053373e+18
14545.0	1.540010385866752e+18
14546.0	1.5395180668518397e+18
14547.0	1.5392569311625213e+18
14548.0	1.5392201722822656e+18
14549.0	1.5389467892252667e+18
14550.0	1.5386985367601147e+18
14551.0	1.5384368725884925e+18
14552.0	1.538174332646195e+18
14553.0	1.537910796137267e+18
14554.0	1.5376497225236477e+18
14555.0	1.537387271500595e+18
14556.0	1.5371247332360187e+18
14557.0	1.5368618694934528e+18
14558.0	1.5365955177676797e+18
14559.0	1.5360756170096635e+18
14560.0	1.536070637531955e+18
14561.0	1.5358120637235195e+18
14562.0	1.5355481530826747e+18
14563.0	1.5352893108387837e+18
14564.0	1.5350270695309307e+18
14565.0	1.5347655513210875e+18
14566.0	1.5345036036145147e+18
14567.0	1.5342415535669243e+18
14568.0	1.53397940453376e+18
14569.0	1.5337159753990141e+18
14570.0	1.5333840633462784e+18
14571.0	1.533192437340569e+18
14572.0	1.5329271174135805e+18
14573.0	1.532665545516646e+18
14574.0	1.5324075723325435e+18
14575.0	1.5321464769085437e+18
14576.0	1.531884965409587e+18
14577.0	1.5316079165308928e+18
14578.0	1.531340777953689e+18
14579.0	1.5310793755066363e+18
14580.0	1.530817736500838e+18
14581.0	1.5305557703393277e+18
14582.0	1.5302944618446843e+18
14583.0	1.5300328714928125e+18
14584.0	1.5297700312383485e+18
14585.0	1.5295097461538813e+18
14586.0	1.5292479863521275e+18
14587.0	1.528986832207872e+18
14588.0	1.5287255740448763e+18
14589.0	1.5284649567715328e+18
14590.0	1.528204472038195e+18
14591.0	1.5279439000633341e+18
14592.0	1.5276827073314813e+18
14593.0	1.5274085692997632e+18
14594.0	1.5271621723947005e+18
14595.0	1.5269016926945275e+18
14596.0	1.5266365623500797e+18
14597.0	1.526375180035686e+18
14598.0	1.5261207401332736e+18
14599.0	1.525861453293158e+18
14600.0	1.525601275582873e+18
14601.0	1.5253411314270203e+18
14602.0	1.525080839631667e+18
14603.0	1.5248206703099901e+18
14604.0	1.5245556121075707e+18
14605.0	1.5242996421230592e+18
14606.0	1.5240288964444157e+18
14607.0	1.5237798017630203e+18
14608.0	1.5235205300223997e+18
14609.0	1.5232603120467965e+18
14610.0	1.522999855834726e+18
14611.0	1.5227400220573693e+18
14612.0	1.5224807251509243e+18
14613.0	1.5222209635155965e+18
14614.0	1.521960675075686e+18
14615.0	1.5217011986530301e+18
14616.0	1.521441462183526e+18
14617.0	1.5211816032403453e+18
14618.0	1.520921600013107e+18
14619.0	1.5206559126650877e+18
14620.0	1.5203895273848835e+18
14621.0	1.5201422832304125e+18
14622.0	1.5198828621725693e+18
14623.0	1.5196229847744512e+18
14624.0	1.519356604527411e+18
14625.0	1.5191035017691136e+18
14626.0	1.5188442501611515e+18
14627.0	1.518584431483289e+18
14628.0	1.5183250993446907e+18
14629.0	1.5180655038038013e+18
14630.0	1.5178058579312637e+18
14631.0	1.5175462120587264e+18
14632.0	1.517274102392422e+18
14633.0	1.5170247308869632e+18
14634.0	1.5167675294547963e+18
14635.0	1.5165071403515901e+18
14636.0	1.5162448319348736e+18
14637.0	1.5159894189539328e+18
14638.0	1.5157296187310077e+18
14639.0	1.5154689259601915e+18
14640.0	1.5152093992058877e+18
14641.0	1.5149040505192443e+18
14642.0	1.514678886858752e+18
14643.0	1.5144158586994683e+18
14644.0	1.514156486295552e+18
14645.0	1.5138945083899904e+18
14646.0	1.5136367549874173e+18
14647.0	1.513377679540224e+18
