# Flux units: erg / (cm m2 s)
# Wavelength units: Angstrom
wave	flux
14000.0	1.8046767681503224e+18
14001.0	1.8042409262776317e+18
14002.0	1.8040250991378427e+18
14003.0	1.8036838455312381e+18
14004.0	1.8033401659391997e+18
14005.0	1.8029963789729784e+18
14006.0	1.8026443510382584e+18
14007.0	1.802299889627955e+18
14008.0	1.8018612862255107e+18
14009.0	1.8016203905695736e+18
14010.0	1.801264601183027e+18
14011.0	1.8002521817612288e+18
14012.0	1.8005912912396288e+18
14013.0	1.8002486736453627e+18
14014.0	1.7998996622540797e+18
14015.0	1.7995600746250237e+18
14016.0	1.7992196196139003e+18
14017.0	1.7988767990153208e+18
14018.0	1.7985338559430653e+18
14019.0	1.7981912802918397e+18
14020.0	1.7978478573912061e+18
14021.0	1.7975045200543744e+18
14022.0	1.7971576376918013e+18
14023.0	1.7967998769823741e+18
14024.0	1.7964575043354621e+18
14025.0	1.796135210660659e+18
14026.0	1.795792187057766e+18
14027.0	1.7954521497993213e+18
14028.0	1.795103641724518e+18
14029.0	1.7947641564364797e+18
14030.0	1.7929888635813896e+18
14031.0	1.7940362618208253e+18
14032.0	1.7937395617890304e+18
14033.0	1.7933462686138363e+18
14034.0	1.7930566988988413e+18
14035.0	1.792717909865267e+18
14036.0	1.792376751888793e+18
14037.0	1.792035516737126e+18
14038.0	1.7916943151398912e+18
14039.0	1.791348887361945e+18
14040.0	1.7910043319992317e+18
14041.0	1.790667520999424e+18
14042.0	1.7903172764827648e+18
14043.0	1.7899456611483643e+18
14044.0	1.7896351064915965e+18
14045.0	1.789303405831782e+18
14046.0	1.7889627947925504e+18
14047.0	1.7886143555043325e+18
14048.0	1.7882822823903232e+18
14049.0	1.7879456827834368e+18
14050.0	1.787605439165235e+18
14051.0	1.7872559009693693e+18
14052.0	1.7869212139651072e+18
14053.0	1.786584621069107e+18
14054.0	1.7862449814306816e+18
14055.0	1.7859050515464187e+18
14056.0	1.7855651485057021e+18
14057.0	1.7852254283366397e+18
14058.0	1.784885701456691e+18
14059.0	1.7845460936949755e+18
14060.0	1.7842065396203517e+18
14061.0	1.7838596471914493e+18
14062.0	1.783527627764531e+18
14063.0	1.783171705837977e+18
14064.0	1.782578555754905e+18
14065.0	1.782500534989619e+18
14066.0	1.782170819074457e+18
14067.0	1.78181880456151e+18
14068.0	1.781492893718937e+18
14069.0	1.7811503180677115e+18
14070.0	1.7808143291514877e+18
14071.0	1.7804733590798333e+18
14072.0	1.7801378533474304e+18
14073.0	1.779799285773107e+18
14074.0	1.7794608524165115e+18
14075.0	1.7791035195260925e+18
14076.0	1.7787682268643328e+18
14077.0	1.778120134754304e+18
14078.0	1.778083696318873e+18
14079.0	1.7777589246492672e+18
14080.0	1.7774316045205504e+18
14081.0	1.7770936946130941e+18
14082.0	1.776752155793817e+18
14083.0	1.7764164235689981e+18
14084.0	1.7760798222843896e+18
14085.0	1.7753449617686525e+18
14086.0	1.7753785195560952e+18
14087.0	1.7750674682937336e+18
14088.0	1.7747148279906304e+18
14089.0	1.774381067088691e+18
14090.0	1.774048853046067e+18
14091.0	1.7737183972556797e+18
14092.0	1.7733813849292795e+18
14093.0	1.7730443474370555e+18
14094.0	1.7727073317552125e+18
14095.0	1.7723701751447547e+18
14096.0	1.7719670387769341e+18
14097.0	1.771673702576947e+18
14098.0	1.7713306101874685e+18
14099.0	1.7710234982154237e+18
14100.0	1.7706739247874048e+18
14101.0	1.7703509130477563e+18
14102.0	1.7700143268626427e+18
14103.0	1.7696615540195323e+18
14104.0	1.769339183169536e+18
14105.0	1.7690056219164672e+18
14106.0	1.7686698125164541e+18
14107.0	1.768332780057395e+18
14108.0	1.767986152708505e+18
14109.0	1.7676566481862653e+18
14110.0	1.767320820331315e+18
14111.0	1.7669792211140603e+18
14112.0	1.766646938284851e+18
14113.0	1.7663158298607616e+18
14114.0	1.7659701823012861e+18
14115.0	1.765646231037542e+18
14116.0	1.765266222061977e+18
14117.0	1.762492362732339e+18
14118.0	1.7646400930054141e+18
14119.0	1.7642640149315581e+18
14120.0	1.76393890603991e+18
14121.0	1.763620608697958e+18
14122.0	1.7630209171783675e+18
14123.0	1.7626665806987261e+18
14124.0	1.762324800287539e+18
14125.0	1.7615765431648246e+18
14126.0	1.7616877123534848e+18
14127.0	1.7613601455996923e+18
14128.0	1.7610244217634813e+18
14129.0	1.760678988952371e+18
14130.0	1.7603359083069437e+18
14131.0	1.7600231172472827e+18
14132.0	1.7596829407379453e+18
14133.0	1.7587761624121334e+18
14134.0	1.759020022602137e+18
14135.0	1.7586664662630397e+18
14136.0	1.7582975101173757e+18
14137.0	1.7580138510155776e+18
14138.0	1.757656580200857e+18
14139.0	1.7573511828602875e+18
14140.0	1.7570107127496704e+18
14141.0	1.7566708466188288e+18
14142.0	1.7561605424283643e+18
14143.0	1.7560118660956157e+18
14144.0	1.7556847389048832e+18
14145.0	1.755350184440627e+18
14146.0	1.7550133163982843e+18
14147.0	1.7546826542481405e+18
14148.0	1.7543458499592187e+18
14149.0	1.754014028503449e+18
14150.0	1.753687298932736e+18
14151.0	1.7533429146976253e+18
14152.0	1.7530219866882048e+18
14153.0	1.7526892324192253e+18
14154.0	1.7523307301568507e+18
14155.0	1.7518604262047741e+18
14156.0	1.751666137654886e+18
14157.0	1.7513597269704704e+18
14158.0	1.7510231206526976e+18
14159.0	1.7506951042695163e+18
14160.0	1.7503554998632443e+18
14161.0	1.7499686726270976e+18
14162.0	1.749586282964582e+18
14163.0	1.749364949542502e+18
14164.0	1.7489510371688443e+18
14165.0	1.748623653286707e+18
14166.0	1.748370287126118e+18
14167.0	1.7480259213459453e+18
14168.0	1.7477028810850304e+18
14169.0	1.7473779668090877e+18
14170.0	1.747040437744435e+18
14171.0	1.746712226745548e+18
14172.0	1.7463842271395835e+18
14173.0	1.746003958117171e+18
14174.0	1.7457160157921277e+18
14175.0	1.7453910964830205e+18
14176.0	1.7450594109227005e+18
14177.0	1.7447291111604221e+18
14178.0	1.7443975547846656e+18
14179.0	1.7440581953257464e+18
14180.0	1.7437374787092477e+18
14181.0	1.7434069474213888e+18
14182.0	1.7430756192157693e+18
14183.0	1.7427460761059323e+18
14184.0	1.7424102197297147e+18
14185.0	1.742084753483366e+18
14186.0	1.7413017977225213e+18
14187.0	1.7413977885638653e+18
14188.0	1.741090862818918e+18
14189.0	1.7407606620422144e+18
14190.0	1.7404316641918976e+18
14191.0	1.7401001430482936e+18
14192.0	1.7397667277570048e+18
14193.0	1.7393715739885565e+18
14194.0	1.7391117871874048e+18
14195.0	1.738787238654771e+18
14196.0	1.7384575562940413e+18
14197.0	1.7381281960558587e+18
14198.0	1.7377935627386875e+18
14199.0	1.7374670646935547e+18
14200.0	1.7368628483588096e+18
14201.0	1.7367957545943037e+18
14202.0	1.7364801416069115e+18
14203.0	1.7361422182776827e+18
14204.0	1.7356406969597947e+18
14205.0	1.7350907666628605e+18
14206.0	1.7346306934571003e+18
14207.0	1.7344359099793405e+18
14208.0	1.7341077342126077e+18
14209.0	1.7336377121177597e+18
14210.0	1.7333498822000637e+18
14211.0	1.733117167114649e+18
14212.0	1.7327931470643197e+18
14213.0	1.7324630385623035e+18
14214.0	1.732136731777433e+18
14215.0	1.7317953875738621e+18
14216.0	1.7314818650275835e+18
14217.0	1.7311538419335163e+18
14218.0	1.7308137878978557e+18
14219.0	1.7304980457259005e+18
14220.0	1.7301677040205821e+18
14221.0	1.729838571952537e+18
14222.0	1.7294689547845632e+18
14223.0	1.7291451729707005e+18
14224.0	1.7288178461310976e+18
14225.0	1.727627393603994e+18
14226.0	1.728158602205593e+18
14227.0	1.7278351878127608e+18
14228.0	1.7253076935114757e+18
14229.0	1.7267189241348076e+18
14230.0	1.7268537206767608e+18
14231.0	1.7265051891138557e+18
14232.0	1.726199721308979e+18
14233.0	1.7258681632555005e+18
14234.0	1.725546012187033e+18
14235.0	1.7252164372004861e+18
14236.0	1.7248923114536957e+18
14237.0	1.7245642145398781e+18
14238.0	1.724238505023897e+18
14239.0	1.723902749310976e+18
14240.0	1.721821579286937e+18
14241.0	1.7232510366777341e+18
14242.0	1.7229063823294461e+18
14243.0	1.7223998261690365e+18
14244.0	1.7222396305997821e+18
14245.0	1.7218967009492987e+18
14246.0	1.7215662216708093e+18
14247.0	1.72125624247255e+18
14248.0	1.7209167018196987e+18
14249.0	1.7206068115406843e+18
14250.0	1.7202806389735421e+18
14251.0	1.7199574158409725e+18
14252.0	1.7196314764771325e+18
14253.0	1.7193048173707261e+18
14254.0	1.7189772489392123e+18
14255.0	1.718616872661811e+18
14256.0	1.7174501531844613e+18
14257.0	1.7179564509757435e+18
14258.0	1.7176774660063227e+18
14259.0	1.7173321623797757e+18
14260.0	1.716995881539993e+18
14261.0	1.716681379204301e+18
14262.0	1.716396466844467e+18
14263.0	1.7147934894194696e+18
14264.0	1.7154915457564667e+18
14265.0	1.7153882434043904e+18
14266.0	1.7150569068101627e+18
14267.0	1.7147337306537981e+18
14268.0	1.7144089505955837e+18
14269.0	1.7140745538371581e+18
14270.0	1.7137593200148477e+18
14271.0	1.7134333772955643e+18
14272.0	1.7131093505343485e+18
14273.0	1.7127810892038141e+18
14274.0	1.7105126669942792e+18
14275.0	1.7119552626229243e+18
14276.0	1.71179414430679e+18
14277.0	1.71147122484183e+18
14278.0	1.7111632740089853e+18
14279.0	1.7108380376104957e+18
14280.0	1.7105076774502395e+18
14281.0	1.7101913145212928e+18
14282.0	1.709867687057817e+18
14283.0	1.7095437710262267e+18
14284.0	1.7092198617055227e+18
14285.0	1.708895615162777e+18
14286.0	1.7085689812221947e+18
14287.0	1.708248506197606e+18
14288.0	1.7079244358156285e+18
14289.0	1.7064705021444076e+18
14290.0	1.7072560885727227e+18
14291.0	1.7069143903698941e+18
14292.0	1.7065920480411643e+18
14293.0	1.706266090222387e+18
14294.0	1.705796403671859e+18
14295.0	1.7056078596407293e+18
14296.0	1.7043851092951048e+18
14297.0	1.7049730919956477e+18
14298.0	1.70428906644439e+18
14299.0	1.704312499181977e+18
14300.0	1.7039975757381632e+18
14301.0	1.7036792565858304e+18
14302.0	1.7033581641596925e+18
14303.0	1.7030007993925627e+18
14304.0	1.7026953684975616e+18
14305.0	1.7023894376415227e+18
14306.0	1.7020388391256061e+18
14307.0	1.701727844905779e+18
14308.0	1.7014178371862525e+18
14309.0	1.7010857154183165e+18
14310.0	1.700644368941056e+18
14311.0	1.7001375158239227e+18
14312.0	1.7000449106247677e+18
14313.0	1.6996735301713915e+18
14314.0	1.6994747956592637e+18
14315.0	1.6991663364767736e+18
14316.0	1.6987900319105021e+18
14317.0	1.6984904763965435e+18
14318.0	1.6981746184617981e+18
14319.0	1.6978451642712056e+18
14320.0	1.6975230115250176e+18
14321.0	1.6971992011898877e+18
14322.0	1.696838100136755e+18
14323.0	1.6965383281967096e+18
14324.0	1.696237886845747e+18
14325.0	1.6959065989054456e+18
14326.0	1.6955952053878784e+18
14327.0	1.6952670178770936e+18
14328.0	1.6949454103904253e+18
14329.0	1.6946315070013437e+18
14330.0	1.6943103843762176e+18
14331.0	1.6939889631166461e+18
14332.0	1.6936682012016637e+18
14333.0	1.6933472564150267e+18
14334.0	1.6930263284056061e+18
14335.0	1.692690208627097e+18
14336.0	1.692292622162329e+18
14337.0	1.6920608197574653e+18
14338.0	1.6917397139095547e+18
14339.0	1.691410669083033e+18
14340.0	1.6911011948789757e+18
14341.0	1.6907750474776576e+18
14342.0	1.6904586291838976e+18
14343.0	1.690135994931609e+18
14344.0	1.689814384089497e+18
14345.0	1.6894996821049341e+18
14346.0	1.6891741017735165e+18
14347.0	1.6888137187852285e+18
14348.0	1.6885372151660544e+18
14349.0	1.6882193104109563e+18
14350.0	1.6878029821181947e+18
14351.0	1.6874622435721213e+18
14352.0	1.6872123872051195e+18
14353.0	1.686900196769792e+18
14354.0	1.6865728028213248e+18
14355.0	1.6862368088719357e+18
14356.0	1.68592355140567e+18
14357.0	1.6856236586696704e+18
14358.0	1.6853038396342272e+18
14359.0	1.6849691492745213e+18
14360.0	1.6846583983243261e+18
14361.0	1.6843429178769405e+18
14362.0	1.6840261690720253e+18
14363.0	1.6837063684915195e+18
14364.0	1.683170160279552e+18
14365.0	1.6830232589762557e+18
14366.0	1.6827083170775035e+18
14367.0	1.6820696621514747e+18
14368.0	1.6816763136114688e+18
14369.0	1.6813580615679995e+18
14370.0	1.681039480691097e+18
14371.0	1.6807210726195197e+18
14372.0	1.6803963328266235e+18
14373.0	1.6800817029840893e+18
14374.0	1.6797646035353597e+18
14375.0	1.679444388557619e+18
14376.0	1.679128362850713e+18
14377.0	1.678809283690496e+18
14378.0	1.6784886845145088e+18
14379.0	1.6781733634506744e+18
14380.0	1.6778537960734715e+18
14381.0	1.6775248418439163e+18
14382.0	1.6772171745460221e+18
14383.0	1.6768949328805885e+18
14384.0	1.6765633110736893e+18
14385.0	1.6762649198985213e+18
14386.0	1.6759266576695293e+18
14387.0	1.6755925947777024e+18
14388.0	1.6752726432022523e+18
14389.0	1.6749566980259835e+18
14390.0	1.6746369326776315e+18
14391.0	1.6743213331120128e+18
14392.0	1.6740019049857021e+18
14393.0	1.67366736562094e+18
14394.0	1.6729498628128763e+18
14395.0	1.672656996374937e+18
14396.0	1.6723542800334843e+18
14397.0	1.6720370312675325e+18
14398.0	1.67171869198254e+18
14399.0	1.6714015925338107e+18
14400.0	1.6710619931607037e+18
14401.0	1.6707594966007803e+18
14402.0	1.670447257511526e+18
14403.0	1.668687429894142e+18
14404.0	1.6644233544859625e+18
14405.0	1.667609867898057e+18
14406.0	1.669178040988467e+18
14407.0	1.6668316147908613e+18
14408.0	1.668519372521472e+18
14409.0	1.668206928750182e+18
14410.0	1.667895308740198e+18
14411.0	1.6675944043380733e+18
14412.0	1.6672749107806203e+18
14413.0	1.666962485464268e+18
14414.0	1.6666429382197248e+18
14415.0	1.6663275164925947e+18
14416.0	1.6660070616006653e+18
14417.0	1.665678228167065e+18
14418.0	1.6653428851736576e+18
14419.0	1.6650602192830461e+18
14420.0	1.664739658694656e+18
14421.0	1.6644282953760763e+18
14422.0	1.6641069999456253e+18
14423.0	1.6637759334645757e+18
14424.0	1.655215016745365e+18
14425.0	1.6631508244627456e+18
14426.0	1.6628471602085885e+18
14427.0	1.6625255963426813e+18
14428.0	1.662157113314508e+18
14429.0	1.6618582490218493e+18
14430.0	1.6615476691992568e+18
14431.0	1.6608444303802365e+18
14432.0	1.6609090377613307e+18
14433.0	1.6590608797794296e+18
14434.0	1.6602645007433725e+18
14435.0	1.659909899183718e+18
14436.0	1.6596524662259712e+18
14437.0	1.6593372525363197e+18
14438.0	1.6589476570595325e+18
14439.0	1.6586918481362941e+18
14440.0	1.6583894488842237e+18
14441.0	1.6580638165434365e+18
14442.0	1.6577421469810688e+18
14443.0	1.657380638241587e+18
14444.0	1.6571223043473405e+18
14445.0	1.6568119745052672e+18
14446.0	1.6541778458968072e+18
14447.0	1.6561663822004221e+18
14448.0	1.6558670515011581e+18
14449.0	1.6555520693370877e+18
14450.0	1.6552310272425976e+18
14451.0	1.6549198098857981e+18
14452.0	1.6546044653338621e+18
14453.0	1.6542656410681341e+18
14454.0	1.6539745781809152e+18
14455.0	1.6536504876662781e+18
14456.0	1.653336045728563e+18
14457.0	1.6530212900569088e+18
14458.0	1.652710809219891e+18
14459.0	1.65239257563136e+18
14460.0	1.652072410985267e+18
14461.0	1.6516986431340541e+18
14462.0	1.6511595324637181e+18
14463.0	1.6511104708509693e+18
14464.0	1.6508187519746048e+18
14465.0	1.6504811138580475e+18
14466.0	1.650193267163136e+18
14467.0	1.6498454117220347e+18
14468.0	1.6495627340873725e+18
14469.0	1.649202169905152e+18
14470.0	1.6489056393232381e+18
14471.0	1.648613267813171e+18
14472.0	1.6483049126494203e+18
14473.0	1.6479953411375104e+18
14474.0	1.647683625497395e+18
14475.0	1.647365938846105e+18
14476.0	1.6469571401678848e+18
14477.0	1.6467147144298496e+18
14478.0	1.6463897414336507e+18
14479.0	1.6460757407367165e+18
14480.0	1.645744452796416e+18
14481.0	1.6454510880751613e+18
14482.0	1.6451327353683965e+18
14483.0	1.6448110926495744e+18
14484.0	1.644496684266291e+18
14485.0	1.6441526305423357e+18
14486.0	1.6435370996531195e+18
14487.0	1.6435645186572285e+18
14488.0	1.643225774922137e+18
14489.0	1.6429026977513472e+18
14490.0	1.642615077548851e+18
14491.0	1.642310587855667e+18
14492.0	1.6419982497808381e+18
14493.0	1.64167330866135e+18
14494.0	1.6413463744086016e+18
14495.0	1.6410572576784381e+18
14496.0	1.640473626987725e+18
14497.0	1.6401723098660861e+18
14498.0	1.6398602620370941e+18
14499.0	1.639547229385523e+18
14500.0	1.6392334904131584e+18
14501.0	1.638872144412672e+18
14502.0	1.638313734910771e+18
14503.0	1.6382667553505275e+18
14504.0	1.6379735919558653e+18
14505.0	1.6376253221175293e+18
14506.0	1.6372674557116408e+18
14507.0	1.6367579048181752e+18
14508.0	1.6367280262742008e+18
14509.0	1.6364151697833981e+18
14510.0	1.6360983136043003e+18
14511.0	1.6357886179409923e+18
14512.0	1.6354578802933757e+18
14513.0	1.6351626767892475e+18
14514.0	1.634809902268416e+18
14515.0	1.6345352021999613e+18
14516.0	1.6313319166050322e+18
14517.0	1.6339075950706685e+18
14518.0	1.6335976628486141e+18
14519.0	1.633284985874022e+18
14520.0	1.6329710891958267e+18
14521.0	1.6326582998138872e+18
14522.0	1.6323436565495805e+18
14523.0	1.63190628459479e+18
14524.0	1.631620478009344e+18
14525.0	1.6314014715871224e+18
14526.0	1.6310924033916923e+18
14527.0	1.630752344322867e+18
14528.0	1.6303133449781243e+18
14529.0	1.6301436316942333e+18
14530.0	1.6298236146876416e+18
14531.0	1.6295284413825024e+18
14532.0	1.629082076839936e+18
14533.0	1.628885899175526e+18
14534.0	1.6285599245795323e+18
14535.0	1.6282350472134653e+18
14536.0	1.6279300189716472e+18
14537.0	1.6276073880748032e+18
14538.0	1.627308778795827e+18
14539.0	1.6269960951103485e+18
14540.0	1.626683282240307e+18
14541.0	1.626345456218931e+18
14542.0	1.626055312723148e+18
14543.0	1.6256721261428733e+18
14544.0	1.6254309335302141e+18
14545.0	1.625108425107046e+18
14546.0	1.6140350062067653e+18
14547.0	1.614652390978348e+18
14548.0	1.6241629937532925e+18
14549.0	1.6237283363520507e+18
14550.0	1.6235457633320957e+18
14551.0	1.623243184563814e+18
14552.0	1.6229287443038203e+18
14553.0	1.622491897475891e+18
14554.0	1.6217998725480443e+18
14555.0	1.6214865211293693e+18
14556.0	1.621171441657446e+18
14557.0	1.620860719228518e+18
14558.0	1.6205462689021947e+18
14559.0	1.6181711872196575e+18
14560.0	1.6199087447605243e+18
14561.0	1.619600356042342e+18
14562.0	1.6192623286943741e+18
14563.0	1.618980197996953e+18
14564.0	1.6186356594114557e+18
14565.0	1.6183574059286523e+18
14566.0	1.6180445276274685e+18
14567.0	1.617729469965926e+18
14568.0	1.6173840153444347e+18
14569.0	1.6171039918653437e+18
14570.0	1.6161832163082235e+18
14571.0	1.616474874786611e+18
14572.0	1.6161094385008637e+18
14573.0	1.6157937617600507e+18
14574.0	1.6154593398358013e+18
14575.0	1.6152167110934523e+18
14576.0	1.6148994052849661e+18
14577.0	1.614592907359027e+18
14578.0	1.614282894606336e+18
14579.0	1.6139742928175104e+18
14580.0	1.6136612819763197e+18
14581.0	1.6133405032841213e+18
14582.0	1.6130285074644987e+18
14583.0	1.612720754602803e+18
14584.0	1.6123827171885053e+18
14585.0	1.6120942346371067e+18
14586.0	1.611777287861043e+18
14587.0	1.6114658238791675e+18
14588.0	1.6111543011770365e+18
14589.0	1.610847652256153e+18
14590.0	1.6105410654109693e+18
14591.0	1.6102298933526525e+18
14592.0	1.6099199577751547e+18
14593.0	1.6094844816457725e+18
14594.0	1.6093127114751997e+18
14595.0	1.6089966119485437e+18
14596.0	1.6084869150932984e+18
14597.0	1.6081423546974205e+18
14598.0	1.6080379567931392e+18
14599.0	1.6077441223098365e+18
14600.0	1.6074309353078781e+18
14601.0	1.6071268298129403e+18
14602.0	1.606803791229747e+18
14603.0	1.6065114113310715e+18
14604.0	1.6061405945921533e+18
14605.0	1.605849058587443e+18
14606.0	1.6055043455188992e+18
14607.0	1.6052682280140797e+18
14608.0	1.6049704710176765e+18
14609.0	1.604654436922163e+18
14610.0	1.6042777028591613e+18
14611.0	1.6040347184398333e+18
14612.0	1.6037419442765821e+18
14613.0	1.6034364177514493e+18
14614.0	1.603124747409817e+18
14615.0	1.6028187561558013e+18
14616.0	1.6025132564742141e+18
14617.0	1.6022046496522237e+18
14618.0	1.601883951490662e+18
14619.0	1.6014363840217078e+18
14620.0	1.6007588747411456e+18
14621.0	1.6009708078891003e+18
14622.0	1.6006591090262016e+18
14623.0	1.600353864358297e+18
14624.0	1.599977435640627e+18
14625.0	1.599732578883993e+18
14626.0	1.5994244770562043e+18
14627.0	1.599110556889907e+18
14628.0	1.5988089964986363e+18
14629.0	1.5984996414128125e+18
14630.0	1.5981851004895232e+18
14631.0	1.5978803306168312e+18
14632.0	1.5968989960208387e+18
14633.0	1.5971642085736443e+18
14634.0	1.5969434707427325e+18
14635.0	1.5963968623345654e+18
14636.0	1.5957647723331581e+18
14637.0	1.5960224619823101e+18
14638.0	1.595700101198643e+18
14639.0	1.595379099369472e+18
14640.0	1.5950852665638907e+18
14641.0	1.5921556660158444e+18
14642.0	1.5944616473788413e+18
14643.0	1.5941555789496315e+18
14644.0	1.5938306244083707e+18
14645.0	1.593506559059558e+18
14646.0	1.5932011969511421e+18
14647.0	1.5928646627753981e+18
