# Flux units: erg / (cm m2 s)
# Wavelength units: Angstrom
wave	flux
14000.0	1.912170444593561e+18
14001.0	1.911719436117606e+18
14002.0	1.911403584893747e+18
14003.0	1.9110175512199165e+18
14004.0	1.910628702329241e+18
14005.0	1.9102398014291965e+18
14006.0	1.9098449110630397e+18
14007.0	1.9094551645913083e+18
14008.0	1.9089936770662397e+18
14009.0	1.9086830989213693e+18
14010.0	1.9082856668069883e+18
14011.0	1.9074066581291005e+18
14012.0	1.9075196526788605e+18
14013.0	1.9071318339092477e+18
14014.0	1.9067391044485117e+18
14015.0	1.9063538777587712e+18
14016.0	1.9059678625398784e+18
14017.0	1.9055801461112827e+18
14018.0	1.9051922585550843e+18
14019.0	1.9048048424386555e+18
14020.0	1.9044167216791547e+18
14021.0	1.904028689838899e+18
14022.0	1.903641392840704e+18
14023.0	1.9032447157010432e+18
14024.0	1.9028559859286013e+18
14025.0	1.9024808507342843e+18
14026.0	1.9020924984492027e+18
14027.0	1.9017072231055355e+18
14028.0	1.9013204982104061e+18
14029.0	1.900933536756531e+18
14030.0	1.900266689396736e+18
14031.0	1.9001381843107835e+18
14032.0	1.8997713588715517e+18
14033.0	1.8993536699465725e+18
14034.0	1.8990011319844861e+18
14035.0	1.8986156267929592e+18
14036.0	1.898229611574067e+18
14037.0	1.8978437070848e+18
14038.0	1.897457836149964e+18
14039.0	1.8970721245986816e+18
14040.0	1.8966796702842875e+18
14041.0	1.8962974534270973e+18
14042.0	1.895904972269158e+18
14043.0	1.8954980425727997e+18
14044.0	1.8951353258737661e+18
14045.0	1.894757323453235e+18
14046.0	1.8943708686712835e+18
14047.0	1.8939839927812093e+18
14048.0	1.8936029268410363e+18
14049.0	1.89321960268759e+18
14050.0	1.8928348709257208e+18
14051.0	1.8924431279652861e+18
14052.0	1.8920654879326205e+18
14053.0	1.8916811319803907e+18
14054.0	1.8912968162934781e+18
14055.0	1.890912542549606e+18
14056.0	1.8905283174596605e+18
14057.0	1.8901442450423805e+18
14058.0	1.889760227989913e+18
14059.0	1.8893763099230205e+18
14060.0	1.8889924891639803e+18
14061.0	1.8886033080844283e+18
14062.0	1.8882250758160381e+18
14063.0	1.8878287241543677e+18
14064.0	1.8874091813470205e+18
14065.0	1.8870677834563581e+18
14066.0	1.88669138829312e+18
14067.0	1.886304680175206e+18
14068.0	1.8859251510280187e+18
14069.0	1.8855410131795965e+18
14070.0	1.8851590295257088e+18
14071.0	1.884774064560537e+18
14072.0	1.8843936109887483e+18
14073.0	1.8840109780566013e+18
14074.0	1.8836284994748408e+18
14075.0	1.8832319867518968e+18
14076.0	1.8828592926425083e+18
14077.0	1.8824166090211328e+18
14078.0	1.882094214683033e+18
14079.0	1.8817118350868475e+18
14080.0	1.8813351043792896e+18
14081.0	1.880953197900595e+18
14082.0	1.8805670333644797e+18
14083.0	1.8801884286418936e+18
14084.0	1.8798078207197181e+18
14085.0	1.879210112267059e+18
14086.0	1.8790393873170432e+18
14087.0	1.878663591100416e+18
14088.0	1.8779658350755837e+18
14089.0	1.8774884477829123e+18
14090.0	1.8771095226155003e+18
14091.0	1.8767295941705728e+18
14092.0	1.8763486909693947e+18
14093.0	1.875967864943411e+18
14094.0	1.8755871077040125e+18
14095.0	1.8752064108625917e+18
14096.0	1.8748101883854845e+18
14097.0	1.8744346941587456e+18
14098.0	1.8740587771461627e+18
14099.0	1.8736846989164541e+18
14100.0	1.873294809838387e+18
14101.0	1.8729228220497917e+18
14102.0	1.8725108004683773e+18
14103.0	1.8721191447494656e+18
14104.0	1.8717512204025856e+18
14105.0	1.871370996678656e+18
14106.0	1.8709916906684416e+18
14107.0	1.8706107690123261e+18
14108.0	1.8702232958533627e+18
14109.0	1.8698492964765693e+18
14110.0	1.8694684251521021e+18
14111.0	1.869082914927411e+18
14112.0	1.8687092896825341e+18
14113.0	1.8683364445782013e+18
14114.0	1.8679469212434424e+18
14115.0	1.8675775255347197e+18
14116.0	1.8671795196395517e+18
14117.0	1.866334790169395e+18
14118.0	1.866442313669017e+18
14119.0	1.8660522115203072e+18
14120.0	1.8656790124167168e+18
14121.0	1.865296683152179e+18
14122.0	1.8649184173293565e+18
14123.0	1.8645423593881592e+18
14124.0	1.8641634879078392e+18
14125.0	1.8634171316436984e+18
14126.0	1.8634169605160955e+18
14127.0	1.863039505032806e+18
14128.0	1.8626607979692024e+18
14129.0	1.862274299566489e+18
14130.0	1.8618899905904635e+18
14131.0	1.8615294230527997e+18
14132.0	1.8611475199295488e+18
14133.0	1.8603324525772792e+18
14134.0	1.8603971958538235e+18
14135.0	1.8600086774743035e+18
14136.0	1.8596290812182528e+18
14137.0	1.8592655541796856e+18
14138.0	1.8588842667802621e+18
14139.0	1.8585128057962493e+18
14140.0	1.8581281461764093e+18
14141.0	1.8577566566711293e+18
14142.0	1.8573430563536893e+18
14143.0	1.8570005360672765e+18
14144.0	1.8566311588134912e+18
14145.0	1.8562549414887421e+18
14146.0	1.8558775732469755e+18
14147.0	1.8555020035227645e+18
14148.0	1.8551263398461435e+18
14149.0	1.8547513288032253e+18
14150.0	1.8543755325865981e+18
14151.0	1.853997914364313e+18
14152.0	1.8536239267315712e+18
14153.0	1.8531980085821437e+18
14154.0	1.852801994142515e+18
14155.0	1.8524136519237624e+18
14156.0	1.852064794882867e+18
14157.0	1.8516964930486264e+18
14158.0	1.8513179017478141e+18
14159.0	1.850945972679475e+18
14160.0	1.850563463898726e+18
14161.0	1.85015009846231e+18
14162.0	1.8497347499589627e+18
14163.0	1.8494453597601787e+18
14164.0	1.8490480853516288e+18
14165.0	1.8486076968534013e+18
14166.0	1.8483201588592635e+18
14167.0	1.8479369286582272e+18
14168.0	1.8475720879636477e+18
14169.0	1.8472000263553024e+18
14170.0	1.8468203898339325e+18
14171.0	1.846399305200435e+18
14172.0	1.8460274717622272e+18
14173.0	1.845604076906086e+18
14174.0	1.8452746260709376e+18
14175.0	1.8449057034797053e+18
14176.0	1.8445319305953275e+18
14177.0	1.8441582516633592e+18
14178.0	1.8437831768670203e+18
14179.0	1.8434012217343997e+18
14180.0	1.843037750060646e+18
14181.0	1.8426644033175547e+18
14182.0	1.8422905079595003e+18
14183.0	1.8419179614896125e+18
14184.0	1.8415406922334208e+18
14185.0	1.841171746154086e+18
14186.0	1.8406944192593917e+18
14187.0	1.8404063225839613e+18
14188.0	1.8400524273451003e+18
14189.0	1.839679015170867e+18
14190.0	1.839261609780838e+18
14191.0	1.8387657440624637e+18
14192.0	1.8383874396520445e+18
14193.0	1.8380070146015224e+18
14194.0	1.8376480627097597e+18
14195.0	1.8372773667667965e+18
14196.0	1.8369050031685632e+18
14197.0	1.8365329147166715e+18
14198.0	1.836157192319795e+18
14199.0	1.8357865701965821e+18
14200.0	1.8353645879820285e+18
14201.0	1.8350415695314941e+18
14202.0	1.8346739253641213e+18
14203.0	1.8342913243086843e+18
14204.0	1.833928498557747e+18
14205.0	1.8335572389003267e+18
14206.0	1.8330854870745085e+18
14207.0	1.832816798282547e+18
14208.0	1.832445845648179e+18
14209.0	1.8319685204312061e+18
14210.0	1.83162491633664e+18
14211.0	1.8313290132226043e+18
14212.0	1.830961481462579e+18
14213.0	1.8305670507921403e+18
14214.0	1.8301713953849341e+18
14215.0	1.82979153404887e+18
14216.0	1.8294309631557627e+18
14217.0	1.8290602756014077e+18
14218.0	1.8286804092321787e+18
14219.0	1.8283194776289277e+18
14220.0	1.8279493135237115e+18
14221.0	1.8275776814120952e+18
14222.0	1.8271967530450944e+18
14223.0	1.8268385427062784e+18
14224.0	1.8264689070833661e+18
14225.0	1.825935799300915e+18
14226.0	1.8257279346278397e+18
14227.0	1.8253595606515707e+18
14228.0	1.8246058526113787e+18
14229.0	1.824523102348902e+18
14230.0	1.8242509910048765e+18
14231.0	1.8238758272892925e+18
14232.0	1.8235121425448955e+18
14233.0	1.8231388880764925e+18
14234.0	1.8227740490596347e+18
14235.0	1.8224029068427261e+18
14236.0	1.822035893498675e+18
14237.0	1.821666038094233e+18
14238.0	1.821279504459366e+18
14239.0	1.8208776934916093e+18
14240.0	1.819238234010419e+18
14241.0	1.8201438429642747e+18
14242.0	1.819775611594342e+18
14243.0	1.8192803515334656e+18
14244.0	1.819038684125593e+18
14245.0	1.8186555512324093e+18
14246.0	1.8182836473298936e+18
14247.0	1.8179300171710461e+18
14248.0	1.817552751270297e+18
14249.0	1.8171959535730688e+18
14250.0	1.8168277691793403e+18
14251.0	1.8164618866196477e+18
14252.0	1.8160939639504893e+18
14253.0	1.8157254809223163e+18
14254.0	1.8153565935632381e+18
14255.0	1.8149640587182075e+18
14256.0	1.814457131781325e+18
14257.0	1.8142449905958907e+18
14258.0	1.8138885351538685e+18
14259.0	1.81350534521815e+18
14260.0	1.8131459705405437e+18
14261.0	1.812771028284211e+18
14262.0	1.8124376264146941e+18
14263.0	1.8118278886981635e+18
14264.0	1.811644340921958e+18
14265.0	1.8113342711267325e+18
14266.0	1.8109374799020027e+18
14267.0	1.8105583198535677e+18
14268.0	1.8101916504424443e+18
14269.0	1.8095766765567997e+18
14270.0	1.808955805479731e+18
14271.0	1.8085879197204475e+18
14272.0	1.8082226679840765e+18
14273.0	1.8078549617410043e+18
14274.0	1.8071125112127485e+18
14275.0	1.80708927644631e+18
14276.0	1.8067417028624381e+18
14277.0	1.8063771289255933e+18
14278.0	1.8060252050096125e+18
14279.0	1.805658238641766e+18
14280.0	1.8052880711811064e+18
14281.0	1.804927887841689e+18
14282.0	1.8045624381341693e+18
14283.0	1.8041968189767675e+18
14284.0	1.803831263572787e+18
14285.0	1.803465688036147e+18
14286.0	1.8030996880359421e+18
14287.0	1.8027350386016253e+18
14288.0	1.8023694697758715e+18
14289.0	1.8011884292669427e+18
14290.0	1.801637374145331e+18
14291.0	1.8012736306806781e+18
14292.0	1.80090955670487e+18
14293.0	1.8005428503838715e+18
14294.0	1.8000668824436733e+18
14295.0	1.7998042384826365e+18
14296.0	1.798792496860365e+18
14297.0	1.799082730953113e+18
14298.0	1.7985392582066176e+18
14299.0	1.7982987786256381e+18
14300.0	1.7979394274361341e+18
14301.0	1.7975770513145853e+18
14302.0	1.7972147674677243e+18
14303.0	1.7968235345346555e+18
14304.0	1.7964737463582715e+18
14305.0	1.7961221932187643e+18
14306.0	1.7957388975865856e+18
14307.0	1.7953870307131387e+18
14308.0	1.7950310567772155e+18
14309.0	1.7946645199060987e+18
14310.0	1.794204159809945e+18
14311.0	1.793875770972569e+18
14312.0	1.793538850920857e+18
14313.0	1.7931384844713981e+18
14314.0	1.792847587678617e+18
14315.0	1.7924865688338432e+18
14316.0	1.7920810501013507e+18
14317.0	1.791750980186931e+18
14318.0	1.7913976822169595e+18
14319.0	1.7910351316123648e+18
14320.0	1.7906717639573496e+18
14321.0	1.790309314016051e+18
14322.0	1.7899148665683965e+18
14323.0	1.7895666705498112e+18
14324.0	1.789221096810086e+18
14325.0	1.7888505350848507e+18
14326.0	1.7884959452692475e+18
14327.0	1.7881280444104696e+18
14328.0	1.787765659900313e+18
14329.0	1.7874087313407997e+18
14330.0	1.787046462593433e+18
14331.0	1.7866839941971965e+18
14332.0	1.7863221062926333e+18
14333.0	1.7859600774594555e+18
14334.0	1.7855857391828987e+18
14335.0	1.7851787121786875e+18
14336.0	1.7848073837346813e+18
14337.0	1.7844658734366715e+18
14338.0	1.7841027641507835e+18
14339.0	1.78373354628055e+18
14340.0	1.7833806308311037e+18
14341.0	1.7830181121032187e+18
14342.0	1.7826577391812603e+18
14343.0	1.782291841522073e+18
14344.0	1.781929898252697e+18
14345.0	1.7815735988387837e+18
14346.0	1.7812099610705915e+18
14347.0	1.7808379447607293e+18
14348.0	1.7804895742590976e+18
14349.0	1.7801290100768765e+18
14350.0	1.7797547338760187e+18
14351.0	1.7793879671570427e+18
14352.0	1.779039172191846e+18
14353.0	1.778683936453427e+18
14354.0	1.7783224109367293e+18
14355.0	1.777959268096409e+18
14356.0	1.7775998497980416e+18
14357.0	1.7772432567828477e+18
14358.0	1.7768824224874493e+18
14359.0	1.776510317258342e+18
14360.0	1.7761606884655104e+18
14361.0	1.7758014144511995e+18
14362.0	1.7754417914707963e+18
14363.0	1.775081472235929e+18
14364.0	1.7746804867071997e+18
14365.0	1.7743516683730941e+18
14366.0	1.773994234819379e+18
14367.0	1.773642138098073e+18
14368.0	1.7732819581140987e+18
14369.0	1.7729227310759933e+18
14370.0	1.7725631517163515e+18
14371.0	1.7722036746977277e+18
14372.0	1.7718398574133248e+18
14373.0	1.7714845411442685e+18
14374.0	1.771125012116275e+18
14375.0	1.770741372551168e+18
14376.0	1.7703624943599613e+18
14377.0	1.7700027103182843e+18
14378.0	1.76964177535959e+18
14379.0	1.7692848115679227e+18
14380.0	1.7689242591297533e+18
14381.0	1.7685575460978688e+18
14382.0	1.7682062848819195e+18
14383.0	1.7678424457871355e+18
14384.0	1.7674740902658048e+18
14385.0	1.7671309626441725e+18
14386.0	1.7667601861705725e+18
14387.0	1.7664134095044603e+18
14388.0	1.7660531439566843e+18
14389.0	1.7656960258146304e+18
14390.0	1.765336255194726e+18
14391.0	1.7649791672516603e+18
14392.0	1.7646192724803581e+18
14393.0	1.7642629244125181e+18
14394.0	1.7638739379486715e+18
14395.0	1.7635364994809853e+18
14396.0	1.7631883001069563e+18
14397.0	1.762830338070937e+18
14398.0	1.762471406311833e+18
14399.0	1.762114254615347e+18
14400.0	1.7617412601937915e+18
14401.0	1.7613927470858235e+18
14402.0	1.7610390363963387e+18
14403.0	1.7590005106999273e+18
14404.0	1.75527366355845e+18
14405.0	1.7585509349982185e+18
14406.0	1.759608694846259e+18
14407.0	1.756996626599117e+18
14408.0	1.7588702960156664e+18
14409.0	1.7583458452766723e+18
14410.0	1.757570565092147e+18
14411.0	1.757216124593766e+18
14412.0	1.7568567532716027e+18
14413.0	1.756502643284377e+18
14414.0	1.7561432803508224e+18
14415.0	1.7557871419981824e+18
14416.0	1.7554297302548475e+18
14417.0	1.7550675420381181e+18
14418.0	1.7547022886240256e+18
14419.0	1.7543585855438843e+18
14420.0	1.753998563265741e+18
14421.0	1.7536455840628733e+18
14422.0	1.7532851389988861e+18
14423.0	1.7529225883942907e+18
14424.0	1.7436044521635796e+18
14425.0	1.752162971418624e+18
14426.0	1.7518170134806523e+18
14427.0	1.751461224094105e+18
14428.0	1.7510875434844157e+18
14429.0	1.7507431173062653e+18
14430.0	1.750392085938176e+18
14431.0	1.7499617151156221e+18
14432.0	1.749671675638579e+18
14433.0	1.747621513265151e+18
14434.0	1.7489513475473405e+18
14435.0	1.7485927714652152e+18
14436.0	1.748254817936998e+18
14437.0	1.7478988121243643e+18
14438.0	1.7474952831696893e+18
14439.0	1.7471730935136253e+18
14440.0	1.746830210839347e+18
14441.0	1.7464675595714557e+18
14442.0	1.74610830065664e+18
14443.0	1.7457186514927616e+18
14444.0	1.7454030989033472e+18
14445.0	1.7450514602000381e+18
14446.0	1.742443733896397e+18
14447.0	1.7443226227048443e+18
14448.0	1.74398564728832e+18
14449.0	1.743630426649395e+18
14450.0	1.7432707030056952e+18
14451.0	1.7429180727689216e+18
14452.0	1.7425618522079227e+18
14453.0	1.7421798819758075e+18
14454.0	1.741853382252953e+18
14455.0	1.741493789471539e+18
14456.0	1.7411364985241597e+18
14457.0	1.740778580108902e+18
14458.0	1.740430952837939e+18
14459.0	1.7400741417189376e+18
14460.0	1.7397198908030976e+18
14461.0	1.7393448982151165e+18
14462.0	1.7389562036748288e+18
14463.0	1.7386507073486843e+18
14464.0	1.7383020717670397e+18
14465.0	1.737929208207769e+18
14466.0	1.7375944222179328e+18
14467.0	1.7372051270533115e+18
14468.0	1.7368819357974528e+18
14469.0	1.7365084296708093e+18
14470.0	1.7361518366556157e+18
14471.0	1.7358115779379203e+18
14472.0	1.7354612025589757e+18
14473.0	1.7351138185576443e+18
14474.0	1.7347588009230333e+18
14475.0	1.7343996074393597e+18
14476.0	1.7339429316198395e+18
14477.0	1.7336966253117435e+18
14478.0	1.7333425857888253e+18
14479.0	1.7329874305810427e+18
14480.0	1.7326064468492285e+18
14481.0	1.732237324609126e+18
14482.0	1.731879693084262e+18
14483.0	1.7315204140367872e+18
14484.0	1.7311643310489595e+18
14485.0	1.7307899088863227e+18
14486.0	1.7302087008255997e+18
14487.0	1.7301121194262523e+18
14488.0	1.7297528940658685e+18
14489.0	1.7293986985148408e+18
14490.0	1.7290486939123712e+18
14491.0	1.728696367343206e+18
14492.0	1.728344176669491e+18
14493.0	1.7279864830689275e+18
14494.0	1.727618956342067e+18
14495.0	1.7272828097200128e+18
14496.0	1.7268129235206141e+18
14497.0	1.726574611555942e+18
14498.0	1.7262220970819581e+18
14499.0	1.7258690021163003e+18
14500.0	1.7255152494837757e+18
14501.0	1.7251094438608888e+18
14502.0	1.7245867463409661e+18
14503.0	1.724440579879731e+18
14504.0	1.724096365094502e+18
14505.0	1.7236987383644157e+18
14506.0	1.7232973988364285e+18
14507.0	1.722829762461696e+18
14508.0	1.722689186168832e+18
14509.0	1.7223362136768507e+18
14510.0	1.7216882272632827e+18
14511.0	1.7212686844559357e+18
14512.0	1.7209020938977275e+18
14513.0	1.7205625800884221e+18
14514.0	1.720177975833395e+18
14515.0	1.7198550916005885e+18
14516.0	1.7174387681656845e+18
14517.0	1.7191483849310203e+18
14518.0	1.7187974290604027e+18
14519.0	1.7184447300370427e+18
14520.0	1.7180918649192448e+18
14521.0	1.7177380233674747e+18
14522.0	1.7173857655848952e+18
14523.0	1.7169217782546427e+18
14524.0	1.7165669854347261e+18
14525.0	1.716322215919616e+18
14526.0	1.7159742346493947e+18
14527.0	1.715593953882931e+18
14528.0	1.7151617610547197e+18
14529.0	1.7149049488539643e+18
14530.0	1.7145473525612541e+18
14531.0	1.7142071173316605e+18
14532.0	1.7137028361617405e+18
14533.0	1.713501715929497e+18
14534.0	1.7131513187401725e+18
14535.0	1.7127891020021757e+18
14536.0	1.712445298258739e+18
14537.0	1.7120820312670205e+18
14538.0	1.7117400059084797e+18
14539.0	1.7113873505058813e+18
14540.0	1.7110345625632763e+18
14541.0	1.710664061236019e+18
14542.0	1.7103288289722365e+18
14543.0	1.7098983759413248e+18
14544.0	1.7096226390409213e+18
14545.0	1.7092344595611643e+18
14546.0	1.6975450114883535e+18
14547.0	1.6981565175234496e+18
14548.0	1.7081563355283456e+18
14549.0	1.7077123332177912e+18
14550.0	1.7074589855121403e+18
14551.0	1.707111854846771e+18
14552.0	1.7067574495805437e+18
14553.0	1.7064000881688576e+18
14554.0	1.7060539792359421e+18
14555.0	1.705700818839142e+18
14556.0	1.705345859924787e+18
14557.0	1.7049958637109248e+18
14558.0	1.7046424751439872e+18
14559.0	1.702772177947851e+18
14560.0	1.7039333911429115e+18
14561.0	1.7035792425680896e+18
14562.0	1.7032119087792125e+18
14563.0	1.7028785303977981e+18
14564.0	1.7025201724194808e+18
14565.0	1.7021742178369528e+18
14566.0	1.7018214097616893e+18
14567.0	1.7014681101139965e+18
14568.0	1.7011037391814653e+18
14569.0	1.70076232786903e+18
14570.0	1.699985581355827e+18
14571.0	1.7000540189753336e+18
14572.0	1.6996690422661112e+18
14573.0	1.6993101558054912e+18
14574.0	1.6989817183141885e+18
14575.0	1.6986430618206205e+18
14576.0	1.698290693308416e+18
14577.0	1.6979333369298936e+18
14578.0	1.6975846157844475e+18
14579.0	1.6972332857819128e+18
14580.0	1.6968804290527232e+18
14581.0	1.6965234971377661e+18
14582.0	1.6961738264018941e+18
14583.0	1.6958210200043515e+18
14584.0	1.6954577714675712e+18
14585.0	1.69511448781783e+18
14586.0	1.694758354498355e+18
14587.0	1.6944059339767805e+18
14588.0	1.6940546694053885e+18
14589.0	1.6937099680808957e+18
14590.0	1.6933654110404603e+18
14591.0	1.6930199195090941e+18
14592.0	1.692671151387443e+18
14593.0	1.6922291656982523e+18
14594.0	1.691985927942963e+18
14595.0	1.6916364518227963e+18
14596.0	1.6912506362527741e+18
14597.0	1.6909054400004093e+18
14598.0	1.69060137477079e+18
14599.0	1.6902617099665405e+18
14600.0	1.6899156849197053e+18
14601.0	1.6895711631114235e+18
14602.0	1.6892222775492603e+18
14603.0	1.6888803377545216e+18
14604.0	1.6884970219896824e+18
14605.0	1.6881801238675453e+18
14606.0	1.6877893355307005e+18
14607.0	1.6874860386975741e+18
14608.0	1.6871500564922363e+18
14609.0	1.686797939638272e+18
14610.0	1.6864453815435261e+18
14611.0	1.686110058682777e+18
14612.0	1.6857689476825088e+18
14613.0	1.6854235299708923e+18
14614.0	1.6850744648925181e+18
14615.0	1.6847301611880448e+18
14616.0	1.6843849011822587e+18
14617.0	1.6840382033690624e+18
14618.0	1.683688037705318e+18
14619.0	1.6833129176104957e+18
14620.0	1.682900323926016e+18
14621.0	1.6826513919836157e+18
14622.0	1.6823017699016696e+18
14623.0	1.6819440561684477e+18
14624.0	1.6815186597904381e+18
14625.0	1.6812197887868925e+18
14626.0	1.680871869592371e+18
14627.0	1.6805198517239805e+18
14628.0	1.680179574551347e+18
14629.0	1.6798317274988541e+18
14630.0	1.679482623832883e+18
14631.0	1.6791347499368443e+18
14632.0	1.678062788175463e+18
14633.0	1.678324668773171e+18
14634.0	1.6780872325791744e+18
14635.0	1.6776861413539835e+18
14636.0	1.6772778862575616e+18
14637.0	1.6770445638369277e+18
14638.0	1.676693514013901e+18
14639.0	1.6763369478422523e+18
14640.0	1.6759928924405757e+18
14641.0	1.6727511014572017e+18
14642.0	1.6752930711404541e+18
14643.0	1.6749486298628093e+18
14644.0	1.6745897954115581e+18
14645.0	1.6742291288883195e+18
14646.0	1.673890613323366e+18
14647.0	1.6735371442257915e+18
