# Flux units: erg / (cm m2 s)
# Wavelength units: Angstrom
wave	flux
14000.0	2.2436708649795576e+18
14001.0	2.2431241089318904e+18
14002.0	2.2425875886637053e+18
14003.0	2.2420453809192957e+18
14004.0	2.2415033040371712e+18
14005.0	2.2409612204441595e+18
14006.0	2.2404183164452861e+18
14007.0	2.2398767244247037e+18
14008.0	2.2393212157034493e+18
14009.0	2.238794332268134e+18
14010.0	2.238250909853286e+18
14011.0	2.2376340317536253e+18
14012.0	2.2371707842985976e+18
14013.0	2.23663004623831e+18
14014.0	2.2360751532408827e+18
14015.0	2.2355259108098043e+18
14016.0	2.2349858723594232e+18
14017.0	2.2344456124497917e+18
14018.0	2.2339051898011643e+18
14019.0	2.2333655858806781e+18
14020.0	2.2328256782925821e+18
14021.0	2.232285966997913e+18
14022.0	2.231743782741606e+18
14023.0	2.2311880357838845e+18
14024.0	2.2306594108735483e+18
14025.0	2.230128685455769e+18
14026.0	2.2295901569548283e+18
14027.0	2.229051794548326e+18
14028.0	2.228513301279539e+18
14029.0	2.2279745597079547e+18
14030.0	2.226560644730061e+18
14031.0	2.226892320224051e+18
14032.0	2.2263414134931448e+18
14033.0	2.2257834284548093e+18
14034.0	2.2252609993703421e+18
14035.0	2.224725472313344e+18
14036.0	2.2241859271131133e+18
14037.0	2.2236488582299645e+18
14038.0	2.22311433109504e+18
14039.0	2.222577508836966e+18
14040.0	2.2220390893879293e+18
14041.0	2.2215037586243576e+18
14042.0	2.2209666427650045e+18
14043.0	2.2204264851963896e+18
14044.0	2.2198945132314624e+18
14045.0	2.2193599709970424e+18
14046.0	2.2188242543575037e+18
14047.0	2.218284140409651e+18
14048.0	2.2177515762089981e+18
14049.0	2.2172180439629821e+18
14050.0	2.2166830185447421e+18
14051.0	2.2161409097859072e+18
14052.0	2.215591392208486e+18
14053.0	2.2150566100598781e+18
14054.0	2.2145222506971128e+18
14055.0	2.213987544045977e+18
14056.0	2.2134537265872893e+18
14057.0	2.2129196440485883e+18
14058.0	2.212385824912179e+18
14059.0	2.2118521148276733e+18
14060.0	2.2113185523826685e+18
14061.0	2.2107843305930747e+18
14062.0	2.2102519106764795e+18
14063.0	2.209716447372902e+18
14064.0	2.2090750829264893e+18
14065.0	2.2086520068374523e+18
14066.0	2.2081203687391227e+18
14067.0	2.2075606472589304e+18
14068.0	2.207055713455308e+18
14069.0	2.206521129277849e+18
14070.0	2.2059910699155453e+18
14071.0	2.2054593697415163e+18
14072.0	2.2049280436994045e+18
14073.0	2.2043965230415864e+18
14074.0	2.203849319042252e+18
14075.0	2.2033085625270272e+18
14076.0	2.202750842568703e+18
14077.0	2.2020359234519032e+18
14078.0	2.2017029041029115e+18
14079.0	2.2011876724441083e+18
14080.0	2.200658230483353e+18
14081.0	2.200127902685593e+18
14082.0	2.1995940969709568e+18
14083.0	2.1990674735824893e+18
14084.0	2.1985377782857723e+18
14085.0	2.1978285869105147e+18
14086.0	2.1974619191771133e+18
14087.0	2.1969491218923517e+18
14088.0	2.1964155577696248e+18
14089.0	2.1958654664114168e+18
14090.0	2.1953579824709627e+18
14091.0	2.1948330082828283e+18
14092.0	2.1943044957798392e+18
14093.0	2.19377601347584e+18
14094.0	2.1932476150579195e+18
14095.0	2.19271938441216e+18
14096.0	2.192145974401433e+18
14097.0	2.191646189525401e+18
14098.0	2.1911147561091064e+18
14099.0	2.1905900654559227e+18
14100.0	2.1900557178372093e+18
14101.0	2.1895324985458685e+18
14102.0	2.1890055228358653e+18
14103.0	2.1884769700675581e+18
14104.0	2.187951826429542e+18
14105.0	2.1874242752610301e+18
14106.0	2.1868985981075453e+18
14107.0	2.1863697936809984e+18
14108.0	2.1858422861332475e+18
14109.0	2.1853190299320317e+18
14110.0	2.184789301080883e+18
14111.0	2.1842603037163517e+18
14112.0	2.1837408509100027e+18
14113.0	2.1831997739499515e+18
14114.0	2.1826874111950843e+18
14115.0	2.1821634235072512e+18
14116.0	2.1815769440452603e+18
14117.0	2.1797388423266307e+18
14118.0	2.1805915124531192e+18
14119.0	2.180042565301043e+18
14120.0	2.1795188024279032e+18
14121.0	2.1790137125961725e+18
14122.0	2.1784691392643067e+18
14123.0	2.1779246263304187e+18
14124.0	2.1773925553799168e+18
14125.0	2.1768572447490045e+18
14126.0	2.1763765741551608e+18
14127.0	2.1758557070295032e+18
14128.0	2.1753323719753725e+18
14129.0	2.1748077937295355e+18
14130.0	2.1742842741260285e+18
14131.0	2.1737611387207677e+18
14132.0	2.1732407061250043e+18
14133.0	2.1726421806219261e+18
14134.0	2.172196373082931e+18
14135.0	2.1716650101309437e+18
14136.0	2.171043300193075e+18
14137.0	2.1706280942960637e+18
14138.0	2.17008724550615e+18
14139.0	2.169587061332377e+18
14140.0	2.1690588994732024e+18
14141.0	2.168539646315724e+18
14142.0	2.167886235828224e+18
14143.0	2.1674923202183165e+18
14144.0	2.1669817475923965e+18
14145.0	2.1664611841343483e+18
14146.0	2.1659388892676093e+18
14147.0	2.1654185556574203e+18
14148.0	2.1648915765919744e+18
14149.0	2.1643665873043453e+18
14150.0	2.1638601955606525e+18
14151.0	2.163321670415155e+18
14152.0	2.1628209879580667e+18
14153.0	2.1623015284408317e+18
14154.0	2.1617783276044285e+18
14155.0	2.1609933468336125e+18
14156.0	2.1607317447376893e+18
14157.0	2.1602245896306683e+18
14158.0	2.1596844471615485e+18
14159.0	2.1591672391467005e+18
14160.0	2.158648682243686e+18
14161.0	2.1581214196432893e+18
14162.0	2.1575971920412672e+18
14163.0	2.1570939443478528e+18
14164.0	2.1565243964522493e+18
14165.0	2.1559898810613752e+18
14166.0	2.155540632515379e+18
14167.0	2.1550216964472824e+18
14168.0	2.154496032715571e+18
14169.0	2.153989612450611e+18
14170.0	2.153466037482291e+18
14171.0	2.1529531764441083e+18
14172.0	2.1524393205170173e+18
14173.0	2.151891797750579e+18
14174.0	2.1514034398363645e+18
14175.0	2.150890268419686e+18
14176.0	2.1503689214656512e+18
14177.0	2.1498568976105464e+18
14178.0	2.1493417531932664e+18
14179.0	2.1488203525521408e+18
14180.0	2.1483114995908608e+18
14181.0	2.1477961823682555e+18
14182.0	2.1472809154772984e+18
14183.0	2.1467659874861053e+18
14184.0	2.1462503464632317e+18
14185.0	2.1457362103566333e+18
14186.0	2.1449482533076987e+18
14187.0	2.1447034938589176e+18
14188.0	2.1441929195552763e+18
14189.0	2.1436757266399227e+18
14190.0	2.1431628119146493e+18
14191.0	2.142647675885977e+18
14192.0	2.1421361670914045e+18
14193.0	2.1415769204064256e+18
14194.0	2.1410936258559995e+18
14195.0	2.1405769161244667e+18
14196.0	2.140063749740953e+18
14197.0	2.1395507611959293e+18
14198.0	2.139037207258726e+18
14199.0	2.1385239603445757e+18
14200.0	2.137853143495475e+18
14201.0	2.137497733274009e+18
14202.0	2.1369879827316728e+18
14203.0	2.1364685014040573e+18
14204.0	2.1359634300272635e+18
14205.0	2.135451627631411e+18
14206.0	2.13492334329856e+18
14207.0	2.1344287543263227e+18
14208.0	2.1339174535692283e+18
14209.0	2.1333866375544827e+18
14210.0	2.1328832673873917e+18
14211.0	2.1323840512589821e+18
14212.0	2.1318731850317821e+18
14213.0	2.1313572269195264e+18
14214.0	2.1308520263581693e+18
14215.0	2.1303398464749563e+18
14216.0	2.129831557228134e+18
14217.0	2.1293214778523645e+18
14218.0	2.128809695589171e+18
14219.0	2.12830174356439e+18
14220.0	2.127790966256435e+18
14221.0	2.1272765147381757e+18
14222.0	2.1267279584952315e+18
14223.0	2.1262618404585467e+18
14224.0	2.1257548715786235e+18
14225.0	2.1248168003895296e+18
14226.0	2.124736699249459e+18
14227.0	2.1242285945520125e+18
14228.0	2.1227753806233603e+18
14229.0	2.1230991288827894e+18
14230.0	2.1227036110487547e+18
14231.0	2.122151449382092e+18
14232.0	2.1216876600229888e+18
14233.0	2.1211787969953787e+18
14234.0	2.1206657128202237e+18
14235.0	2.1201445789368315e+18
14236.0	2.1196371939819517e+18
14237.0	2.119129787216691e+18
14238.0	2.118622727739801e+18
14239.0	2.118111254177382e+18
14240.0	2.1174247506313216e+18
14241.0	2.117098869987737e+18
14242.0	2.1165949696606205e+18
14243.0	2.1160678798655483e+18
14244.0	2.115583665923686e+18
14245.0	2.115075227359641e+18
14246.0	2.1145668559044603e+18
14247.0	2.1140656667754493e+18
14248.0	2.113558348929433e+18
14249.0	2.1130542942519293e+18
14250.0	2.1125488671981565e+18
14251.0	2.1120439786930173e+18
14252.0	2.1115388771172347e+18
14253.0	2.111033822517657e+18
14254.0	2.1105287142309888e+18
14255.0	2.1100202807001083e+18
14256.0	2.1091330193096701e+18
14257.0	2.1090110120394747e+18
14258.0	2.1085111952867325e+18
14259.0	2.1080011511431165e+18
14260.0	2.1074926706360315e+18
14261.0	2.106996041554329e+18
14262.0	2.1065004291719165e+18
14263.0	2.1054264340119555e+18
14264.0	2.1054138225786877e+18
14265.0	2.1049829098520573e+18
14266.0	2.1044872974696443e+18
14267.0	2.1039841890271227e+18
14268.0	2.1034815268585467e+18
14269.0	2.102978519079321e+18
14270.0	2.102476294796083e+18
14271.0	2.1019727216246781e+18
14272.0	2.1014707221561336e+18
14273.0	2.1009689407913976e+18
14274.0	2.0996403010469893e+18
14275.0	2.099890682540851e+18
14276.0	2.0994562331770875e+18
14277.0	2.0989580656246781e+18
14278.0	2.0984608862502904e+18
14279.0	2.097959559548108e+18
14280.0	2.097457315132211e+18
14281.0	2.0969574363037693e+18
14282.0	2.096456596140851e+18
14283.0	2.0959447501242365e+18
14284.0	2.095434444256051e+18
14285.0	2.0949311630082043e+18
14286.0	2.0944293749325821e+18
14287.0	2.0939307611062272e+18
14288.0	2.0934306977284093e+18
14289.0	2.0928126519345147e+18
14290.0	2.092429483809177e+18
14291.0	2.0919311837167616e+18
14292.0	2.0914317964607488e+18
14293.0	2.0909320988262397e+18
14294.0	2.0904120319737853e+18
14295.0	2.0899312288399355e+18
14296.0	2.0893389595607035e+18
14297.0	2.0889362426232827e+18
14298.0	2.0882700546080763e+18
14299.0	2.0879305810640893e+18
14300.0	2.0874396126150656e+18
14301.0	2.0869416044462075e+18
14302.0	2.0864438915563515e+18
14303.0	2.085939271486668e+18
14304.0	2.085446194141593e+18
14305.0	2.0849487765307387e+18
14306.0	2.0844269598146552e+18
14307.0	2.0839429908201467e+18
14308.0	2.0834525307207677e+18
14309.0	2.082946776511283e+18
14310.0	2.082347975861862e+18
14311.0	2.0817600233603064e+18
14312.0	2.0814102486056955e+18
14313.0	2.0809509488295933e+18
14314.0	2.0804644313759736e+18
14315.0	2.07997593756631e+18
14316.0	2.079475652729241e+18
14317.0	2.0789532253224963e+18
14318.0	2.078492009588326e+18
14319.0	2.0779966337646587e+18
14320.0	2.077501073391616e+18
14321.0	2.0770057378332672e+18
14322.0	2.076503886004224e+18
14323.0	2.0760132346445821e+18
14324.0	2.0755175165657083e+18
14325.0	2.0750235668054016e+18
14326.0	2.07453038879703e+18
14327.0	2.0740355347447803e+18
14328.0	2.073540224352256e+18
14329.0	2.0730466470461437e+18
14330.0	2.0725523181207547e+18
14331.0	2.0720526959837181e+18
14332.0	2.0715640746672125e+18
14333.0	2.071070153428172e+18
14334.0	2.0705763613736952e+18
14335.0	2.070079581297049e+18
14336.0	2.0695390747623421e+18
14337.0	2.069095678109286e+18
14338.0	2.0685993594060797e+18
14339.0	2.068085852445081e+18
14340.0	2.0675971438870528e+18
14341.0	2.067100065175961e+18
14342.0	2.0666117760483325e+18
14343.0	2.0661161284337664e+18
14344.0	2.0656248261181435e+18
14345.0	2.0651343156871168e+18
14346.0	2.0646401495007224e+18
14347.0	2.0641280165937147e+18
14348.0	2.0636569979322363e+18
14349.0	2.063166207321702e+18
14350.0	2.0626387920486392e+18
14351.0	2.0621457784569856e+18
14352.0	2.0616913725947901e+18
14353.0	2.0612002917384192e+18
14354.0	2.0607051843502077e+18
14355.0	2.0602060336529403e+18
14356.0	2.0597192511193083e+18
14357.0	2.05923645652992e+18
14358.0	2.0587458018148347e+18
14359.0	2.0582527714459643e+18
14360.0	2.0577618063523835e+18
14361.0	2.057273768882995e+18
14362.0	2.056784476477849e+18
14363.0	2.0562943653445627e+18
14364.0	2.0556659948519421e+18
14365.0	2.0552928729235448e+18
14366.0	2.054800236819251e+18
14367.0	2.0543304093401088e+18
14368.0	2.0538409743286267e+18
14369.0	2.053351814463488e+18
14370.0	2.0528628223705083e+18
14371.0	2.052374046703616e+18
14372.0	2.0518843751333883e+18
14373.0	2.0513960407072765e+18
14374.0	2.050907872375603e+18
14375.0	2.050419402054041e+18
14376.0	2.049931060917043e+18
14377.0	2.0494427667562493e+18
14378.0	2.0489543887093752e+18
14379.0	2.0484668075802621e+18
14380.0	2.0479789278167035e+18
14381.0	2.0474893518766077e+18
14382.0	2.047003369616179e+18
14383.0	2.0465113492357117e+18
14384.0	2.0460254374395896e+18
14385.0	2.0455417268142077e+18
14386.0	2.0450523236794365e+18
14387.0	2.0445676617859067e+18
14388.0	2.0440805336416253e+18
14389.0	2.0435941285953533e+18
14390.0	2.0431073007632384e+18
14391.0	2.0426190250573821e+18
14392.0	2.0421329555554301e+18
14393.0	2.0416486308839421e+18
14394.0	2.0411565719158781e+18
14395.0	2.0406272608174075e+18
14396.0	2.0401882413400064e+18
14397.0	2.0397050927513592e+18
14398.0	2.039217810256691e+18
14399.0	2.0387316451246077e+18
14400.0	2.03821883106263e+18
14401.0	2.037761635149414e+18
14402.0	2.0372754180079608e+18
14403.0	2.035764361271703e+18
14404.0	2.0336417766899707e+18
14405.0	2.035632544363314e+18
14406.0	2.0353207498702845e+18
14407.0	2.0333091616718856e+18
14408.0	2.034320418432614e+18
14409.0	2.033865084790374e+18
14410.0	2.0333740978864128e+18
14411.0	2.0328975226109952e+18
14412.0	2.0324153471008765e+18
14413.0	2.031932027384627e+18
14414.0	2.0314479896035325e+18
14415.0	2.0309646564655101e+18
14416.0	2.030473657817497e+18
14417.0	2.029966130256281e+18
14418.0	2.029489835160371e+18
14419.0	2.0290315806048256e+18
14420.0	2.0285482239787003e+18
14421.0	2.0280659226394621e+18
14422.0	2.0275830122872827e+18
14423.0	2.0270956794609661e+18
14424.0	2.0203839743328212e+18
14425.0	2.0261340060844027e+18
14426.0	2.0256536274141181e+18
14427.0	2.0251717488607224e+18
14428.0	2.0246850888007675e+18
14429.0	2.0242075958116347e+18
14430.0	2.0237262004420605e+18
14431.0	2.0230446008762368e+18
14432.0	2.0227576601509888e+18
14433.0	2.0211507803455478e+18
14434.0	2.0217985687879677e+18
14435.0	2.0212870633488376e+18
14436.0	2.0208380480061437e+18
14437.0	2.0203573304360955e+18
14438.0	2.019826645283635e+18
14439.0	2.0193873640816637e+18
14440.0	2.0189151190056952e+18
14441.0	2.0184341397110784e+18
14442.0	2.0179530949853181e+18
14443.0	2.017467785491251e+18
14444.0	2.016993392931635e+18
14445.0	2.0165138766102525e+18
14446.0	2.0148348027666437e+18
14447.0	2.0155520925040637e+18
14448.0	2.015074592804045e+18
14449.0	2.0145950211178493e+18
14450.0	2.0141154863415296e+18
14451.0	2.0136360723611643e+18
14452.0	2.013155879917977e+18
14453.0	2.0126535331610621e+18
14454.0	2.0121982599168e+18
14455.0	2.0117186026668024e+18
14456.0	2.0112335381200893e+18
14457.0	2.010752057186713e+18
14458.0	2.0102610702827515e+18
14459.0	2.0097969118248952e+18
14460.0	2.0093173032288253e+18
14461.0	2.0088032526860283e+18
14462.0	2.0081751539843072e+18
14463.0	2.0078710904324093e+18
14464.0	2.0074081785217021e+18
14465.0	2.0069311922044925e+18
14466.0	2.006457209008947e+18
14467.0	2.0059625395060733e+18
14468.0	2.00550149825495e+18
14469.0	2.0050096758456315e+18
14470.0	2.0045443748593661e+18
14471.0	2.0040689706336253e+18
14472.0	2.0035928986746877e+18
14473.0	2.0031177175859197e+18
14474.0	2.002641221163417e+18
14475.0	2.0021635234922493e+18
14476.0	2.0016135663517693e+18
14477.0	2.0012103377092608e+18
14478.0	2.0007343664136187e+18
14479.0	2.000256314743193e+18
14480.0	1.9997690691583992e+18
14481.0	1.999288106640998e+18
14482.0	1.998811507877478e+18
14483.0	1.9983343655321597e+18
14484.0	1.9978596256841725e+18
14485.0	1.9973783142006781e+18
14486.0	1.9968665034162173e+18
14487.0	1.996431049097216e+18
14488.0	1.9958946898903037e+18
14489.0	1.9954606431797245e+18
14490.0	1.995002417145446e+18
14491.0	1.9945317944262656e+18
14492.0	1.9940553030369275e+18
14493.0	1.9935764393492477e+18
14494.0	1.9931015770275837e+18
14495.0	1.9926319038988283e+18
14496.0	1.992137846764339e+18
14497.0	1.9916826792165373e+18
14498.0	1.9912078789705725e+18
14499.0	1.990733769945907e+18
14500.0	1.990256583979827e+18
14501.0	1.9897417818177533e+18
14502.0	1.9892125395058683e+18
14503.0	1.988813961507635e+18
14504.0	1.9883549586882555e+18
14505.0	1.987847775059968e+18
14506.0	1.9873295486681083e+18
14507.0	1.9868993959493627e+18
14508.0	1.9864605878648827e+18
14509.0	1.9859870190665725e+18
14510.0	1.9855135274434555e+18
14511.0	1.9850402941894653e+18
14512.0	1.984564530931302e+18
14513.0	1.984093716951859e+18
14514.0	1.9836092077309947e+18
14515.0	1.9831424790036477e+18
14516.0	1.9823824811851773e+18
14517.0	1.982197202000281e+18
14518.0	1.981724357977702e+18
14519.0	1.9812516565614587e+18
14520.0	1.980778973600153e+18
14521.0	1.9803058963742715e+18
14522.0	1.9798293747859448e+18
14523.0	1.9792529465540605e+18
14524.0	1.9788035184918525e+18
14525.0	1.9784159077597181e+18
14526.0	1.9779445518761981e+18
14527.0	1.9774665639591933e+18
14528.0	1.9769633514979325e+18
14529.0	1.9765269576548347e+18
14530.0	1.9760542394613755e+18
14531.0	1.97558454452224e+18
14532.0	1.974992184646041e+18
14533.0	1.9746412522635261e+18
14534.0	1.9741699114795003e+18
14535.0	1.9736965473632253e+18
14536.0	1.9732268792676347e+18
14537.0	1.9727536795680763e+18
14538.0	1.972284041671475e+18
14539.0	1.971813080052531e+18
14540.0	1.9713419003297787e+18
14541.0	1.9708684758155261e+18
14542.0	1.9703997170450427e+18
14543.0	1.9698762981048317e+18
14544.0	1.969457738442342e+18
14545.0	1.968985464845107e+18
14546.0	1.9621135876358095e+18
14547.0	1.96238488696258e+18
14548.0	1.9675728333242365e+18
14549.0	1.9670869601157115e+18
14550.0	1.96663351223255e+18
14551.0	1.9661630405083133e+18
14552.0	1.9656917601222648e+18
14553.0	1.965220516646092e+18
14554.0	1.9647518887378936e+18
14555.0	1.9642812458860541e+18
14556.0	1.9638088900804605e+18
14557.0	1.963340594361139e+18
14558.0	1.9628694230269947e+18
14559.0	1.9621116196683766e+18
14560.0	1.961858468256153e+18
14561.0	1.961458727596851e+18
14562.0	1.9609814241902587e+18
14563.0	1.9605197537935355e+18
14564.0	1.9600278223323133e+18
14565.0	1.9595808403881981e+18
14566.0	1.9591109256675328e+18
14567.0	1.9586397123903483e+18
14568.0	1.9581088611434493e+18
14569.0	1.9577006077247483e+18
14570.0	1.957129273055641e+18
14571.0	1.9567441889722368e+18
14572.0	1.956242212991795e+18
14573.0	1.9557913940983805e+18
14574.0	1.9552722080497661e+18
14575.0	1.9548580289183741e+18
14576.0	1.9543897952747517e+18
14577.0	1.953926218986291e+18
14578.0	1.9534570995056635e+18
14579.0	1.95298821490606e+18
14580.0	1.9525188756439037e+18
14581.0	1.9520444176531453e+18
14582.0	1.9515770077708283e+18
14583.0	1.9511103545409533e+18
14584.0	1.9506333246029821e+18
14585.0	1.9501715921305592e+18
14586.0	1.949701682443059e+18
14587.0	1.9492310463021048e+18
14588.0	1.9487643595177981e+18
14589.0	1.948311473671372e+18
14590.0	1.9478608326164477e+18
14591.0	1.9474065743937533e+18
14592.0	1.946958055656652e+18
14593.0	1.9464898471788536e+18
14594.0	1.946056454779699e+18
14595.0	1.9456042282778621e+18
14596.0	1.9450523300134907e+18
14597.0	1.9445870172831741e+18
14598.0	1.9442428612182016e+18
14599.0	1.9437993873899515e+18
14600.0	1.943343709814784e+18
14601.0	1.942894241487257e+18
14602.0	1.9424317171302397e+18
14603.0	1.9419876259004416e+18
14604.0	1.9415226470367227e+18
14605.0	1.941058614407987e+18
14606.0	1.9406138856439803e+18
14607.0	1.9401853586374648e+18
14608.0	1.9397324946014203e+18
14609.0	1.9392696581881848e+18
14610.0	1.9387790705819643e+18
14611.0	1.938368154619084e+18
14612.0	1.9379255213293565e+18
14613.0	1.937475021203046e+18
14614.0	1.9370228752318461e+18
14615.0	1.9365611377262584e+18
14616.0	1.9361192174682112e+18
14617.0	1.9356668819144696e+18
14618.0	1.9351852214648835e+18
14619.0	1.934701099797708e+18
14620.0	1.9340023086186493e+18
14621.0	1.9338566723174392e+18
14622.0	1.9334039508877312e+18
14623.0	1.932951090207129e+18
14624.0	1.932489548994969e+18
14625.0	1.9320450349793275e+18
14626.0	1.9315896963039232e+18
14627.0	1.931133824113049e+18
14628.0	1.9306849899642877e+18
14629.0	1.9302311897595904e+18
14630.0	1.929775253815296e+18
14631.0	1.9293228343754747e+18
14632.0	1.9283750256902144e+18
14633.0	1.92834601788375e+18
14634.0	1.9279564945489915e+18
14635.0	1.9272658403196913e+18
14636.0	1.926165528418713e+18
14637.0	1.9265900389597181e+18
14638.0	1.9261265901780987e+18
14639.0	1.9256740012883963e+18
14640.0	1.9252242930466816e+18
14641.0	1.9228747060215788e+18
14642.0	1.9243089835065344e+18
14643.0	1.9238524486156283e+18
14644.0	1.9233934122418173e+18
14645.0	1.9229368102420475e+18
14646.0	1.9224508263038973e+18
14647.0	1.921995616813056e+18
14648.0	1.9215660026429437e+18
