# Flux units: erg / (cm m2 s)
# Wavelength units: Angstrom
wave	flux
14000.0	1.8432131256549368e+18
14001.0	1.8438791425425403e+18
14002.0	1.8437626600095744e+18
14003.0	1.8434539240030205e+18
14004.0	1.8431246812053504e+18
14005.0	1.8427939083255805e+18
14006.0	1.8424499250659325e+18
14007.0	1.8421081261998077e+18
14008.0	1.8416929857339387e+18
14009.0	1.8414221679132672e+18
14010.0	1.8410708647542781e+18
14011.0	1.8402459055554555e+18
14012.0	1.8403897970262013e+18
14013.0	1.8400891476377597e+18
14014.0	1.839749932462899e+18
14015.0	1.839417340932915e+18
14016.0	1.8390806658285565e+18
14017.0	1.8387432441380861e+18
14018.0	1.8383768565841915e+18
14019.0	1.8380668555755517e+18
14020.0	1.8377277259644925e+18
14021.0	1.8373880376721403e+18
14022.0	1.8370467387670525e+18
14023.0	1.8366963180896253e+18
14024.0	1.8363602989744125e+18
14025.0	1.8360321030750205e+18
14026.0	1.8356926043652093e+18
14027.0	1.8353497233686528e+18
14028.0	1.8349888722960381e+18
14029.0	1.834572054108569e+18
14030.0	1.8324149957033984e+18
14031.0	1.8334320372482043e+18
14032.0	1.8336077836189693e+18
14033.0	1.833274781047193e+18
14034.0	1.8329899223744512e+18
14035.0	1.832658570680729e+18
14036.0	1.8323027410288637e+18
14037.0	1.8319886279245821e+18
14038.0	1.8316577040498685e+18
14039.0	1.83131796710359e+18
14040.0	1.8309841944575997e+18
14041.0	1.830648656848486e+18
14042.0	1.8303039488131064e+18
14043.0	1.82994626192343e+18
14044.0	1.829616582918144e+18
14045.0	1.8292846557659133e+18
14046.0	1.8289642142957565e+18
14047.0	1.82862224597975e+18
14048.0	1.8282948033773568e+18
14049.0	1.827962792339046e+18
14050.0	1.8276272916398077e+18
14051.0	1.827286868505395e+18
14052.0	1.8269513678061565e+18
14053.0	1.8266213381570552e+18
14054.0	1.826286250177331e+18
14055.0	1.825951027979878e+18
14056.0	1.8256157923606523e+18
14057.0	1.8252806456606715e+18
14058.0	1.824945398297395e+18
14059.0	1.8245798714146813e+18
14060.0	1.824274601580953e+18
14061.0	1.8239335509786621e+18
14062.0	1.8235997330341888e+18
14063.0	1.823227159720755e+18
14064.0	1.8224731161362432e+18
14065.0	1.8225818996047872e+18
14066.0	1.8222620587589627e+18
14067.0	1.821923175772979e+18
14068.0	1.8215974931005437e+18
14069.0	1.8212617944301565e+18
14070.0	1.820928219755315e+18
14071.0	1.8205927844872187e+18
14072.0	1.8202609294770176e+18
14073.0	1.8199263532023805e+18
14074.0	1.8195906494988285e+18
14075.0	1.8192353432961021e+18
14076.0	1.8188904003796984e+18
14077.0	1.8181369892962307e+18
14078.0	1.8181600479019003e+18
14079.0	1.8179020478742523e+18
14080.0	1.817572296726937e+18
14081.0	1.817252239455027e+18
14082.0	1.816920334113177e+18
14083.0	1.8165800569405435e+18
14084.0	1.816214808559616e+18
14085.0	1.8155902011965435e+18
14086.0	1.8155013691932664e+18
14087.0	1.8152238153203707e+18
14088.0	1.8149070497382397e+18
14089.0	1.8145859774447608e+18
14090.0	1.8142581338669053e+18
14091.0	1.8139277015646205e+18
14092.0	1.8135957408579584e+18
14093.0	1.8132624010641403e+18
14094.0	1.8129270765256704e+18
14095.0	1.8125857776205821e+18
14096.0	1.812219519251251e+18
14097.0	1.811882716640051e+18
14098.0	1.811574166860595e+18
14099.0	1.8112605335846907e+18
14100.0	1.8109264841146363e+18
14101.0	1.8106065761599488e+18
14102.0	1.8102738101469181e+18
14103.0	1.8099319173283835e+18
14104.0	1.8096104625143803e+18
14105.0	1.8092820568997885e+18
14106.0	1.808950339462758e+18
14107.0	1.8085966774271997e+18
14108.0	1.8082693254217725e+18
14109.0	1.8079503922233344e+18
14110.0	1.8076187301511165e+18
14111.0	1.8072815097872381e+18
14112.0	1.8069410816196603e+18
14113.0	1.806610201365708e+18
14114.0	1.8062485953183741e+18
14115.0	1.8058704301588477e+18
14116.0	1.8050842280067064e+18
14117.0	1.8015739428470784e+18
14118.0	1.804666607868313e+18
14119.0	1.8045249309900792e+18
14120.0	1.8042408759459837e+18
14121.0	1.803933384808857e+18
14122.0	1.8036150488793085e+18
14123.0	1.80328596546519e+18
14124.0	1.8029242906312704e+18
14125.0	1.8023183059779581e+18
14126.0	1.8022918030098427e+18
14127.0	1.8019906486271997e+18
14128.0	1.8016696803524603e+18
14129.0	1.8013318291652603e+18
14130.0	1.8009870506655741e+18
14131.0	1.8006719309283323e+18
14132.0	1.8003069274947581e+18
14133.0	1.7996356861820925e+18
14134.0	1.7996299550851064e+18
14135.0	1.799346126533427e+18
14136.0	1.799024196924211e+18
14137.0	1.7986914074230781e+18
14138.0	1.7983568261152765e+18
14139.0	1.798037319136051e+18
14140.0	1.7976964866375677e+18
14141.0	1.7973107918635005e+18
14142.0	1.7969366800793597e+18
14143.0	1.7967016463826941e+18
14144.0	1.796398658250342e+18
14145.0	1.7960770356641787e+18
14146.0	1.7957412749180925e+18
14147.0	1.7954254153056256e+18
14148.0	1.7950980381343736e+18
14149.0	1.7947714998239224e+18
14150.0	1.794446922770022e+18
14151.0	1.7941146349076477e+18
14152.0	1.7937904672178176e+18
14153.0	1.7934646385836027e+18
14154.0	1.793112110687846e+18
14155.0	1.7927631630499837e+18
14156.0	1.7924768816693243e+18
14157.0	1.7921522744164347e+18
14158.0	1.7918229477326848e+18
14159.0	1.7914956762578941e+18
14160.0	1.7911493576097787e+18
14161.0	1.7907950211301376e+18
14162.0	1.790433757338009e+18
14163.0	1.7901403389296637e+18
14164.0	1.7897957902778368e+18
14165.0	1.7895041586429947e+18
14166.0	1.7891994676232187e+18
14167.0	1.7888651161632765e+18
14168.0	1.7885516791807997e+18
14169.0	1.7882242818768893e+18
14170.0	1.78790058730455e+18
14171.0	1.787571950164377e+18
14172.0	1.7872497940627456e+18
14173.0	1.786913184389529e+18
14174.0	1.7865899411243005e+18
14175.0	1.7862705264197627e+18
14176.0	1.7859462865879037e+18
14177.0	1.7856202448830461e+18
14178.0	1.7852935975206907e+18
14179.0	1.7849649536696315e+18
14180.0	1.7846410443489275e+18
14181.0	1.784314126873395e+18
14182.0	1.783985645761331e+18
14183.0	1.7836553845866493e+18
14184.0	1.7833136461185021e+18
14185.0	1.7829310131863547e+18
14186.0	1.7821554679218176e+18
14187.0	1.782194651109785e+18
14188.0	1.781995582731059e+18
14189.0	1.7816897223393277e+18
14190.0	1.7813725943693307e+18
14191.0	1.7810456735383547e+18
14192.0	1.7806999538368507e+18
14193.0	1.7803232231292928e+18
14194.0	1.7800700851388413e+18
14195.0	1.7797577621635072e+18
14196.0	1.7794354835881981e+18
14197.0	1.7791105626013693e+18
14198.0	1.7787793484808187e+18
14199.0	1.7784370697863163e+18
14200.0	1.7777734084198397e+18
14201.0	1.7776736812924925e+18
14202.0	1.777473124774707e+18
14203.0	1.77715939419095e+18
14204.0	1.7768375417569275e+18
14205.0	1.7765077721546747e+18
14206.0	1.776105471292211e+18
14207.0	1.775855547816345e+18
14208.0	1.7755387453243387e+18
14209.0	1.7751215983034363e+18
14210.0	1.7748126727143421e+18
14211.0	1.774563878345113e+18
14212.0	1.7742521828376576e+18
14213.0	1.7739303287259133e+18
14214.0	1.77360624156672e+18
14215.0	1.7732704489439232e+18
14216.0	1.7729613304168443e+18
14217.0	1.7726384109518848e+18
14218.0	1.77230297736151e+18
14219.0	1.771989605810176e+18
14220.0	1.7716599016390653e+18
14221.0	1.771340015494758e+18
14222.0	1.77099770995671e+18
14223.0	1.7706784831569912e+18
14224.0	1.7703082821419005e+18
14225.0	1.7687207364001795e+18
14226.0	1.769476786539724e+18
14227.0	1.769285043093504e+18
14228.0	1.7654962360156165e+18
14229.0	1.7673884476112876e+18
14230.0	1.7683743103778813e+18
14231.0	1.7680877706280955e+18
14232.0	1.7677874651725821e+18
14233.0	1.7674697835544576e+18
14234.0	1.7671509208203261e+18
14235.0	1.7668282882457597e+18
14236.0	1.7665077444345853e+18
14237.0	1.7661803488083965e+18
14238.0	1.7658475760844797e+18
14239.0	1.7654493906731003e+18
14240.0	1.7638087685308413e+18
14241.0	1.764742982637977e+18
14242.0	1.7645092172988413e+18
14243.0	1.7641244603711488e+18
14244.0	1.7639021891026941e+18
14245.0	1.7635828146634747e+18
14246.0	1.7632649669509117e+18
14247.0	1.762943174914867e+18
14248.0	1.7626129909153787e+18
14249.0	1.7623008508116984e+18
14250.0	1.7619811324395517e+18
14251.0	1.76165859885056e+18
14252.0	1.7613313860960253e+18
14253.0	1.760994450944819e+18
14254.0	1.7606463270682621e+18
14255.0	1.7601912484397053e+18
14256.0	1.7588489822404605e+18
14257.0	1.7590942701715453e+18
14258.0	1.7592771149824e+18
14259.0	1.7589908537343997e+18
14260.0	1.7586464812433405e+18
14261.0	1.7583128998576125e+18
14262.0	1.757877836447744e+18
14263.0	1.7559864653905917e+18
14264.0	1.756304789576089e+18
14265.0	1.7569699676028925e+18
14266.0	1.756780202190438e+18
14267.0	1.7564939107434496e+18
14268.0	1.7561825021263872e+18
14269.0	1.7558575727509504e+18
14270.0	1.755536938342809e+18
14271.0	1.755192302449459e+18
14272.0	1.754798549578547e+18
14273.0	1.754134824458649e+18
14274.0	1.7512782316437504e+18
14275.0	1.7528996472291325e+18
14276.0	1.753433585483776e+18
14277.0	1.7532300661096448e+18
14278.0	1.7529560941723643e+18
14279.0	1.7526538056499195e+18
14280.0	1.7523425849376765e+18
14281.0	1.7520335737847803e+18
14282.0	1.7517186620850176e+18
14283.0	1.7514020323983357e+18
14284.0	1.751084350780211e+18
14285.0	1.7507655367000061e+18
14286.0	1.750445239513907e+18
14287.0	1.750121296638771e+18
14288.0	1.7497573703024637e+18
14289.0	1.7486005846147062e+18
14290.0	1.749124892747366e+18
14291.0	1.74884725498839e+18
14292.0	1.7485312880017405e+18
14293.0	1.748207699125862e+18
14294.0	1.7478020981850107e+18
14295.0	1.7475189138784256e+18
14296.0	1.746572489313485e+18
14297.0	1.7468011308908541e+18
14298.0	1.7462341582979064e+18
14299.0	1.7462201711329277e+18
14300.0	1.7459453922115581e+18
14301.0	1.7456399596388347e+18
14302.0	1.7453248080248827e+18
14303.0	1.74497293444055e+18
14304.0	1.744674734525644e+18
14305.0	1.7443647872040957e+18
14306.0	1.744034583071948e+18
14307.0	1.7437104942350333e+18
14308.0	1.7433928512045053e+18
14309.0	1.7430614877667325e+18
14310.0	1.7427139913580541e+18
14311.0	1.7423529490251768e+18
14312.0	1.7420583293681661e+18
14313.0	1.7416909888684032e+18
14314.0	1.741487669143142e+18
14315.0	1.741177470163353e+18
14316.0	1.7408392465219584e+18
14317.0	1.7405413066539003e+18
14318.0	1.7402495928107003e+18
14319.0	1.7399432089698304e+18
14320.0	1.7396308658618365e+18
14321.0	1.7393129007087608e+18
14322.0	1.738976492362137e+18
14323.0	1.7386687395004413e+18
14324.0	1.7383711251103736e+18
14325.0	1.7380221724393464e+18
14326.0	1.7377168891838461e+18
14327.0	1.7373946844282877e+18
14328.0	1.7370799706996733e+18
14329.0	1.7367717849858043e+18
14330.0	1.7364568447647741e+18
14331.0	1.7361414230376448e+18
14332.0	1.7358261707603965e+18
14333.0	1.735510361479577e+18
14334.0	1.7351927721361405e+18
14335.0	1.7348502166175741e+18
14336.0	1.734434831204352e+18
14337.0	1.7342374757793787e+18
14338.0	1.7339310315405312e+18
14339.0	1.7336083587006461e+18
14340.0	1.7333028539858936e+18
14341.0	1.7329858115796987e+18
14342.0	1.7326673565319165e+18
14343.0	1.732360070076825e+18
14344.0	1.7320290270838781e+18
14345.0	1.7317217540505597e+18
14346.0	1.7314078707941376e+18
14347.0	1.7310790121947128e+18
14348.0	1.7307740963602427e+18
14349.0	1.7304573576216576e+18
14350.0	1.730031343842099e+18
14351.0	1.7297132746702843e+18
14352.0	1.7295015915028477e+18
14353.0	1.729177098335027e+18
14354.0	1.7288547325181947e+18
14355.0	1.7285175641636861e+18
14356.0	1.7282036121206784e+18
14357.0	1.727918490045644e+18
14358.0	1.727617578932633e+18
14359.0	1.7272892957917184e+18
14360.0	1.7269814103900152e+18
14361.0	1.7266694380584952e+18
14362.0	1.7263553551532027e+18
14363.0	1.7260179217186813e+18
14364.0	1.7254258235670525e+18
14365.0	1.7252213093040123e+18
14366.0	1.7250214070976507e+18
14367.0	1.7247903663783933e+18
14368.0	1.724482712502272e+18
14369.0	1.7241748807876603e+18
14370.0	1.723863619810099e+18
14371.0	1.723552065231257e+18
14372.0	1.72323213714391e+18
14373.0	1.722921501956505e+18
14374.0	1.7226115496017912e+18
14375.0	1.722295829240217e+18
14376.0	1.7219896148492285e+18
14377.0	1.7216765217996797e+18
14378.0	1.7213626637090816e+18
14379.0	1.721051939602432e+18
14380.0	1.7207387643445243e+18
14381.0	1.7204163783950333e+18
14382.0	1.7201138365366267e+18
14383.0	1.7198023306117112e+18
14384.0	1.7194708514111485e+18
14385.0	1.719148339632537e+18
14386.0	1.7188181019459584e+18
14387.0	1.7185236953595904e+18
14388.0	1.7182091980570616e+18
14389.0	1.7178989051248635e+18
14390.0	1.717586437865472e+18
14391.0	1.7172759368957947e+18
14392.0	1.716963821957939e+18
14393.0	1.7166523495874557e+18
14394.0	1.7163013232525312e+18
14395.0	1.7160181825667067e+18
14396.0	1.7157134445707261e+18
14397.0	1.7154042555793403e+18
14398.0	1.715091333657395e+18
14399.0	1.714774517743616e+18
14400.0	1.7144478468931581e+18
14401.0	1.7141353645342715e+18
14402.0	1.7138038366797821e+18
14403.0	1.7132477843767288e+18
14404.0	1.7109361239261174e+18
14405.0	1.7110763210538993e+18
14406.0	1.7124942508195837e+18
14407.0	1.7120499247087616e+18
14408.0	1.7119273738567675e+18
14409.0	1.7116414330535939e+18
14410.0	1.711330700558336e+18
14411.0	1.7110391746199547e+18
14412.0	1.7107341681885181e+18
14413.0	1.7104279168876536e+18
14414.0	1.7101161777594363e+18
14415.0	1.709805535861145e+18
14416.0	1.7094903053942781e+18
14417.0	1.7091701055160315e+18
14418.0	1.7088578110619648e+18
14419.0	1.7085558664724477e+18
14420.0	1.7082431240667133e+18
14421.0	1.707922385639833e+18
14422.0	1.7075693661716477e+18
14423.0	1.7071825674567677e+18
14424.0	1.7060914075271165e+18
14425.0	1.7065629597040637e+18
14426.0	1.706338306070937e+18
14427.0	1.7060412889497597e+18
14428.0	1.7057109086568448e+18
14429.0	1.705413891535667e+18
14430.0	1.7050326880223227e+18
14431.0	1.7042252123602944e+18
14432.0	1.7044423766441981e+18
14433.0	1.7040039561134075e+18
14434.0	1.703843535729459e+18
14435.0	1.70353467892695e+18
14436.0	1.7032547644997627e+18
14437.0	1.702952076679577e+18
14438.0	1.7025895898284027e+18
14439.0	1.7023117389987837e+18
14440.0	1.702031947045273e+18
14441.0	1.7017154062778365e+18
14442.0	1.7014012361310203e+18
14443.0	1.7010598030082048e+18
14444.0	1.7007813029003261e+18
14445.0	1.700457130177331e+18
14446.0	1.699395321987072e+18
14447.0	1.6997660481290237e+18
14448.0	1.6995527258275837e+18
14449.0	1.6992529639538685e+18
14450.0	1.6989403004010493e+18
14451.0	1.698634476919193e+18
14452.0	1.698328680280883e+18
14453.0	1.6980184074813435e+18
14454.0	1.6977064871591933e+18
14455.0	1.697391157706752e+18
14456.0	1.697078274372403e+18
14457.0	1.6967705147998203e+18
14458.0	1.696457710318387e+18
14459.0	1.6961383912439803e+18
14460.0	1.6958139903508475e+18
14461.0	1.6954676096270333e+18
14462.0	1.6951197055320061e+18
14463.0	1.6948370060869624e+18
14464.0	1.694554360329011e+18
14465.0	1.6942409938108413e+18
14466.0	1.6939610575732733e+18
14467.0	1.6936453590220795e+18
14468.0	1.693348135541145e+18
14469.0	1.6930007498620925e+18
14470.0	1.6927128729681915e+18
14471.0	1.6924330021617661e+18
14472.0	1.692133845945548e+18
14473.0	1.6918343910948861e+18
14474.0	1.6915330790064123e+18
14475.0	1.691225408353075e+18
14476.0	1.6909116677029885e+18
14477.0	1.6906118655639547e+18
14478.0	1.6903063507828733e+18
14479.0	1.6899997219946493e+18
14480.0	1.6896784685072381e+18
14481.0	1.689389876903936e+18
14482.0	1.689078468286873e+18
14483.0	1.6887678163222523e+18
14484.0	1.6884486180438013e+18
14485.0	1.6881010075500536e+18
14486.0	1.68762673243095e+18
14487.0	1.6875307483004925e+18
14488.0	1.68722311455703e+18
14489.0	1.6868874712514557e+18
14490.0	1.6866147156623357e+18
14491.0	1.686328591987507e+18
14492.0	1.686024689496883e+18
14493.0	1.685700783531622e+18
14494.0	1.6853883733147643e+18
14495.0	1.6850873682493435e+18
14496.0	1.6847037186179072e+18
14497.0	1.6844843229642747e+18
14498.0	1.684188485281382e+18
14499.0	1.6838848562593787e+18
14500.0	1.6835774355865595e+18
14501.0	1.6832414349262848e+18
14502.0	1.6827773670653952e+18
14503.0	1.6826402334572541e+18
14504.0	1.6823465415802875e+18
14505.0	1.6820422699909115e+18
14506.0	1.681709061059379e+18
14507.0	1.6812519708426235e+18
14508.0	1.6811180265832443e+18
14509.0	1.6808278646325243e+18
14510.0	1.680521990819021e+18
14511.0	1.680217838347878e+18
14512.0	1.6798797506019323e+18
14513.0	1.6795654495928315e+18
14514.0	1.6792333513129981e+18
14515.0	1.6788746544349181e+18
14516.0	1.676381232981607e+18
14517.0	1.6781228153765885e+18
14518.0	1.6780246166536187e+18
14519.0	1.6777266700746747e+18
14520.0	1.677441385260646e+18
14521.0	1.677139046406553e+18
14522.0	1.676829478250086e+18
14523.0	1.676500448523059e+18
14524.0	1.6762080652689403e+18
14525.0	1.675917186931097e+18
14526.0	1.675611695638118e+18
14527.0	1.6752678734397437e+18
14528.0	1.674906861305856e+18
14529.0	1.6746966461448184e+18
14530.0	1.6743910592217088e+18
14531.0	1.6740998822494203e+18
14532.0	1.6737899835817984e+18
14533.0	1.6734922752393216e+18
14534.0	1.6731914882777085e+18
14535.0	1.6728781519585277e+18
14536.0	1.672580477170483e+18
14537.0	1.672270031565619e+18
14538.0	1.671977621467955e+18
14539.0	1.671674846406246e+18
14540.0	1.671370324836352e+18
14541.0	1.6710404730257403e+18
14542.0	1.670758094025523e+18
14543.0	1.6704375837687805e+18
14544.0	1.6701421369950205e+18
14545.0	1.6698000411721725e+18
14546.0	1.66817546979246e+18
14547.0	1.6678509413924856e+18
14548.0	1.668867682625126e+18
14549.0	1.668528081574297e+18
14550.0	1.6683083839307776e+18
14551.0	1.6680296002879488e+18
14552.0	1.6677253370871803e+18
14553.0	1.667420131006873e+18
14554.0	1.6671246255128568e+18
14555.0	1.666820338823987e+18
14556.0	1.6665125339529213e+18
14557.0	1.666198185967616e+18
14558.0	1.665811248001843e+18
14559.0	1.6638985715580915e+18
14560.0	1.6651962153959421e+18
14561.0	1.6649773348028413e+18
14562.0	1.6646603276287997e+18
14563.0	1.664379128066867e+18
14564.0	1.6640538547585021e+18
14565.0	1.6637890012381184e+18
14566.0	1.6634909791617021e+18
14567.0	1.6631857093279736e+18
14568.0	1.6628611591176184e+18
14569.0	1.6625155769892861e+18
14570.0	1.6617825552564221e+18
14571.0	1.661918485938176e+18
14572.0	1.661603060855603e+18
14573.0	1.6612808577777661e+18
14574.0	1.6610021043339261e+18
14575.0	1.6607152659496957e+18
14576.0	1.6603972118773757e+18
14577.0	1.6601269057617915e+18
14578.0	1.6598314371776507e+18
14579.0	1.6595363376922621e+18
14580.0	1.65923301401559e+18
14581.0	1.6589283045408765e+18
14582.0	1.6586161275273213e+18
14583.0	1.6583281331929085e+18
14584.0	1.6580051130646525e+18
14585.0	1.6577197913407488e+18
14586.0	1.657425483739955e+18
14587.0	1.657126740243251e+18
14588.0	1.656826075755315e+18
14589.0	1.656525157931417e+18
14590.0	1.656223686459392e+18
14591.0	1.65591708115927e+18
14592.0	1.655598059041587e+18
14593.0	1.6552291834265597e+18
14594.0	1.6550000754425853e+18
14595.0	1.6546887272235005e+18
14596.0	1.6540254450221053e+18
14597.0	1.6536590826340347e+18
14598.0	1.653737544640102e+18
14599.0	1.6535026602606592e+18
14600.0	1.6532072956952568e+18
14601.0	1.652907580797747e+18
14602.0	1.6525994923917312e+18
14603.0	1.65230024893399e+18
14604.0	1.6519605354758141e+18
14605.0	1.6516519269761021e+18
14606.0	1.6513102119960576e+18
14607.0	1.6510974383095803e+18
14608.0	1.6507837463134203e+18
14609.0	1.65046667706368e+18
14610.0	1.650152558926233e+18
14611.0	1.6498527131664381e+18
14612.0	1.649607237330534e+18
14613.0	1.649312290517811e+18
14614.0	1.64898955895767e+18
14615.0	1.648696482804531e+18
14616.0	1.6484112550330363e+18
14617.0	1.648049620464435e+18
14618.0	1.6477078568304637e+18
14619.0	1.6469731775086592e+18
14620.0	1.6464321592688637e+18
14621.0	1.6468369616142333e+18
14622.0	1.646598070835609e+18
14623.0	1.6463146784915453e+18
14624.0	1.6459864607817723e+18
14625.0	1.645719922828902e+18
14626.0	1.6454116817502205e+18
14627.0	1.6451154565136381e+18
14628.0	1.644837912707072e+18
14629.0	1.6445383840366587e+18
14630.0	1.6442201991020544e+18
14631.0	1.6439208449146877e+18
14632.0	1.6435347072221181e+18
14633.0	1.6432935364198397e+18
14634.0	1.6430028023660544e+18
14635.0	1.6426635133714424e+18
14636.0	1.642249278875238e+18
14637.0	1.642112192243302e+18
14638.0	1.6417903196766205e+18
14639.0	1.6414846035689467e+18
14640.0	1.6411876015472635e+18
14641.0	1.64064444589015e+18
14642.0	1.640587327858278e+18
14643.0	1.6403082170597376e+18
14644.0	1.639996816831283e+18
14645.0	1.639679328151142e+18
14646.0	1.6393744441933821e+18
14647.0	1.639082554189414e+18
14648.0	1.6387928871665661e+18
