# Flux units: erg / (cm m2 s)
# Wavelength units: Angstrom
wave	flux
14000.0	1.5407520495435779e+18
14001.0	1.5404769988313085e+18
14002.0	1.5402549842542592e+18
14003.0	1.5400015006531581e+18
14004.0	1.539747901289267e+18
14005.0	1.5394942499160064e+18
14006.0	1.5392396254642176e+18
14007.0	1.538986319701606e+18
14008.0	1.538722190956953e+18
14009.0	1.5384781244071933e+18
14010.0	1.5382251357339643e+18
14011.0	1.537886427231027e+18
14012.0	1.537717187064627e+18
14013.0	1.537467105882931e+18
14014.0	1.5372143537684477e+18
14015.0	1.5369612157779963e+18
14016.0	1.5367084754075648e+18
14017.0	1.5364556276629501e+18
14018.0	1.5362027849515005e+18
14019.0	1.5359499858608125e+18
14020.0	1.5356971582488573e+18
14021.0	1.5354443910348797e+18
14022.0	1.5351918050148347e+18
14023.0	1.5349390394785792e+18
14024.0	1.5346859954405376e+18
14025.0	1.5344342734471165e+18
14026.0	1.5341817394364416e+18
14027.0	1.5339294788943867e+18
14028.0	1.5336771160113147e+18
14029.0	1.5334243102097403e+18
14030.0	1.5331424479477757e+18
14031.0	1.532913677185843e+18
14032.0	1.532668151018291e+18
14033.0	1.532411884077056e+18
14034.0	1.532164649988915e+18
14035.0	1.5319128290099197e+18
14036.0	1.531661014741811e+18
14037.0	1.5314092692602875e+18
14038.0	1.5311575187455997e+18
14039.0	1.5309058605055997e+18
14040.0	1.5306542408531965e+18
14041.0	1.5304026933428221e+18
14042.0	1.530149937872896e+18
14043.0	1.5298948084269053e+18
14044.0	1.52964555603968e+18
14045.0	1.5293960838709248e+18
14046.0	1.5291457896185853e+18
14047.0	1.528894475311513e+18
14048.0	1.528643417695846e+18
14049.0	1.5283923416252413e+18
14050.0	1.5281412739432443e+18
14051.0	1.5278894361870336e+18
14052.0	1.5276392040103936e+18
14053.0	1.5273884953608192e+18
14054.0	1.5271376843702267e+18
14055.0	1.5268869270667264e+18
14056.0	1.526636213383987e+18
14057.0	1.5263855684878339e+18
14058.0	1.52613496553472e+18
14059.0	1.525884426335027e+18
14060.0	1.525633917334323e+18
14061.0	1.5253825828945915e+18
14062.0	1.5251329781858301e+18
14063.0	1.5248809776906237e+18
14064.0	1.524624254409113e+18
14065.0	1.524381127383449e+18
14066.0	1.524132171952947e+18
14067.0	1.523882119292518e+18
14068.0	1.5236320766984187e+18
14069.0	1.523382015649382e+18
14070.0	1.5231321609601021e+18
14071.0	1.5228819203948544e+18
14072.0	1.5226324968800253e+18
14073.0	1.5223827495649283e+18
14074.0	1.5221330441928701e+18
14075.0	1.5218813255548925e+18
14076.0	1.5216336166715392e+18
14077.0	1.5213772390006781e+18
14078.0	1.521133768042086e+18
14079.0	1.5208846666498043e+18
14080.0	1.5206359242899453e+18
14081.0	1.520386646736896e+18
14082.0	1.5201373238853632e+18
14083.0	1.5198878265507835e+18
14084.0	1.5196378711982075e+18
14085.0	1.5193624278990843e+18
14086.0	1.5191381098102781e+18
14087.0	1.5188916021755896e+18
14088.0	1.518642901758771e+18
14089.0	1.5183941761761277e+18
14090.0	1.5181453599965181e+18
14091.0	1.5178966696460285e+18
14092.0	1.517647984328704e+18
14093.0	1.5173993493430272e+18
14094.0	1.5171507378454528e+18
14095.0	1.5169021263478784e+18
14096.0	1.5166527917522941e+18
14097.0	1.5164031601999872e+18
14098.0	1.516156531769344e+18
14099.0	1.515908492374835e+18
14100.0	1.5156587349934077e+18
14101.0	1.515412166960742e+18
14102.0	1.5151639832821757e+18
14103.0	1.5149136705748992e+18
14104.0	1.5146679044931584e+18
14105.0	1.5144199573733373e+18
14106.0	1.5141720287084541e+18
14107.0	1.5139241486974973e+18
14108.0	1.5136763240513536e+18
14109.0	1.5134280665530368e+18
14110.0	1.513180699924889e+18
14111.0	1.5129328618569725e+18
14112.0	1.512685253636915e+18
14113.0	1.5124379004305403e+18
14114.0	1.5121903391866875e+18
14115.0	1.5119422947590141e+18
14116.0	1.511691519000576e+18
14117.0	1.5113905927880701e+18
14118.0	1.511198918128435e+18
14119.0	1.5109527393271803e+18
14120.0	1.5107059045367805e+18
14121.0	1.5104591217557504e+18
14122.0	1.5102116477534205e+18
14123.0	1.5099645025845243e+18
14124.0	1.5097147485585403e+18
14125.0	1.5094185568763901e+18
14126.0	1.509222385922867e+18
14127.0	1.5089776164077565e+18
14128.0	1.5087310567636987e+18
14129.0	1.5084832186957821e+18
14130.0	1.508236058427392e+18
14131.0	1.5079909986664443e+18
14132.0	1.5077416607154176e+18
14133.0	1.507436348938649e+18
14134.0	1.5072487091994627e+18
14135.0	1.5070039967268864e+18
14136.0	1.5067592741879805e+18
14137.0	1.5065131440406528e+18
14138.0	1.5062669048414203e+18
14139.0	1.5060210380963837e+18
14140.0	1.505774889494118e+18
14141.0	1.505527995983462e+18
14142.0	1.505280881013555e+18
14143.0	1.5050369570701307e+18
14144.0	1.5047914040590328e+18
14145.0	1.5045456396550141e+18
14146.0	1.5042997846540285e+18
14147.0	1.5040541964107776e+18
14148.0	1.5038086283001853e+18
14149.0	1.5035631038103544e+18
14150.0	1.5033175591878653e+18
14151.0	1.5030718451154944e+18
14152.0	1.5028266930798587e+18
14153.0	1.5025813279735805e+18
14154.0	1.5023330151104512e+18
14155.0	1.5020896431374336e+18
14156.0	1.5018454541139963e+18
14157.0	1.5016003356327936e+18
14158.0	1.5013548681854973e+18
14159.0	1.5011100986703867e+18
14160.0	1.5008629518237693e+18
14161.0	1.5006139225735163e+18
14162.0	1.5003635310133248e+18
14163.0	1.5001293378551805e+18
14164.0	1.4998845784063995e+18
14165.0	1.4996396109201403e+18
14166.0	1.499396314444595e+18
14167.0	1.4991501792641027e+18
14168.0	1.4989072636313597e+18
14169.0	1.4986628783144957e+18
14170.0	1.4984180534345725e+18
14171.0	1.4981736144306176e+18
14172.0	1.4979296368001027e+18
14173.0	1.4976836526145536e+18
14174.0	1.4974402403762173e+18
14175.0	1.4971969791328256e+18
14176.0	1.4969529008390141e+18
14177.0	1.496708847711027e+18
14178.0	1.496464792905318e+18
14179.0	1.4962204243656701e+18
14180.0	1.495976939985305e+18
14181.0	1.4957330747621376e+18
14182.0	1.4954891659182083e+18
14183.0	1.495245460078592e+18
14184.0	1.4950011552923643e+18
14185.0	1.4947575652155392e+18
14186.0	1.4945037058047995e+18
14187.0	1.494266613543731e+18
14188.0	1.4940272479698944e+18
14189.0	1.4937839884042237e+18
14190.0	1.4935406030094336e+18
14191.0	1.4932971622498304e+18
14192.0	1.493053050401587e+18
14193.0	1.492809505623245e+18
14194.0	1.4925675160928256e+18
14195.0	1.4923246004600832e+18
14196.0	1.4920815472541693e+18
14197.0	1.4918385175363584e+18
14198.0	1.491594967724851e+18
14199.0	1.4913522668404736e+18
14200.0	1.4911039942426621e+18
14201.0	1.4908656470458363e+18
14202.0	1.490624133988352e+18
14203.0	1.490381052261171e+18
14204.0	1.490138477205913e+18
14205.0	1.4898954340663299e+18
14206.0	1.4896402056347648e+18
14207.0	1.4894099802882045e+18
14208.0	1.4891682038284288e+18
14209.0	1.4889115459780605e+18
14210.0	1.488671551258624e+18
14211.0	1.4884413259120637e+18
14212.0	1.4881994789879805e+18
14213.0	1.4879575381114875e+18
14214.0	1.487715260012953e+18
14215.0	1.4874716967796736e+18
14216.0	1.4872314252361725e+18
14217.0	1.4869895078477821e+18
14218.0	1.486747593814835e+18
14219.0	1.4865057452130296e+18
14220.0	1.4862639452651515e+18
14221.0	1.4860221486727165e+18
14222.0	1.4857804376440832e+18
14223.0	1.4855387182268413e+18
14224.0	1.485296775672627e+18
14225.0	1.485034178687795e+18
14226.0	1.484812128878592e+18
14227.0	1.4845719194107904e+18
14228.0	1.4842645675245565e+18
14229.0	1.4840720472932347e+18
14230.0	1.4838482811748347e+18
14231.0	1.483607424106496e+18
14232.0	1.483366335512576e+18
14233.0	1.4831252301414397e+18
14234.0	1.4828841298034688e+18
14235.0	1.4826427761295357e+18
14236.0	1.4824020079804416e+18
14237.0	1.4821606996049915e+18
14238.0	1.481919270433587e+18
14239.0	1.4816739556589568e+18
14240.0	1.4812023061741565e+18
14241.0	1.4811885203357693e+18
14242.0	1.4809540587421693e+18
14243.0	1.480699357115187e+18
14244.0	1.4804754785894395e+18
14245.0	1.4802353714626557e+18
14246.0	1.4799948214173693e+18
14247.0	1.4797549391052795e+18
14248.0	1.4795121274912765e+18
14249.0	1.4792741510709248e+18
14250.0	1.4790339768352765e+18
14251.0	1.4787940441915392e+18
14252.0	1.4785538733113341e+18
14253.0	1.4783135866683395e+18
14254.0	1.4780731674853373e+18
14255.0	1.4778280909471741e+18
14256.0	1.4775739245133827e+18
14257.0	1.477347252581171e+18
14258.0	1.4771134889197565e+18
14259.0	1.4768722610749435e+18
14260.0	1.4766326740418557e+18
14261.0	1.4763930417102845e+18
14262.0	1.4761736812888064e+18
14263.0	1.47590184173568e+18
14264.0	1.4756752050356221e+18
14265.0	1.475449954133606e+18
14266.0	1.475211457619558e+18
14267.0	1.4749723067940864e+18
14268.0	1.4747330334949376e+18
14269.0	1.4744934548504576e+18
14270.0	1.4742544214654973e+18
14271.0	1.4740151146119165e+18
14272.0	1.4737754806026237e+18
14273.0	1.4735335581810685e+18
14274.0	1.4732486827311101e+18
14275.0	1.4730478242234363e+18
14276.0	1.4728188622012413e+18
14277.0	1.4725805905018883e+18
14278.0	1.4723422718263293e+18
14279.0	1.472103394469478e+18
14280.0	1.4718642990088184e+18
14281.0	1.471622619856896e+18
14282.0	1.4713822006738941e+18
14283.0	1.4711435917524987e+18
14284.0	1.4709050063192064e+18
14285.0	1.4706664275967997e+18
14286.0	1.470427783443251e+18
14287.0	1.4701888842760192e+18
14288.0	1.4699467353620475e+18
14289.0	1.469561282179891e+18
14290.0	1.4694705191190525e+18
14291.0	1.4692356045406203e+18
14292.0	1.468997894878003e+18
14293.0	1.4687591114735616e+18
14294.0	1.4685064734441472e+18
14295.0	1.4682802511413245e+18
14296.0	1.467927832297472e+18
14297.0	1.4677987232317437e+18
14298.0	1.467548063236096e+18
14299.0	1.4673308637200381e+18
14300.0	1.4670948317790203e+18
14301.0	1.466853234835456e+18
14302.0	1.466613714911232e+18
14303.0	1.4663719418068992e+18
14304.0	1.4661371748679677e+18
14305.0	1.4659011261497341e+18
14306.0	1.4656635356053504e+18
14307.0	1.4654258964070397e+18
14308.0	1.465188737037107e+18
14309.0	1.464951034085376e+18
14310.0	1.4647123949649915e+18
14311.0	1.4644743984119805e+18
14312.0	1.464235198932582e+18
14313.0	1.4639748819714045e+18
14314.0	1.4637653429321725e+18
14315.0	1.4635280610885632e+18
14316.0	1.4632861806100477e+18
14317.0	1.463054346328473e+18
14318.0	1.4628181331935232e+18
14319.0	1.4625814788177915e+18
14320.0	1.4623446986129403e+18
14321.0	1.4621079519625213e+18
14322.0	1.4618675428458493e+18
14323.0	1.461632071263846e+18
14324.0	1.4613925043634173e+18
14325.0	1.4611545430425597e+18
14326.0	1.4609180816048125e+18
14327.0	1.4606815748685821e+18
14328.0	1.460444618502963e+18
14329.0	1.4602090898784253e+18
14330.0	1.4599728113123325e+18
14331.0	1.4597365210021885e+18
14332.0	1.459500344777113e+18
14333.0	1.4592641903624187e+18
14334.0	1.4590280527249408e+18
14335.0	1.4587903229296637e+18
14336.0	1.458553834648371e+18
14337.0	1.4583199116034048e+18
14338.0	1.4580838729515003e+18
14339.0	1.4578480222044157e+18
14340.0	1.4576124080160765e+18
14341.0	1.4573766327664637e+18
14342.0	1.457140964891033e+18
14343.0	1.4569053037264893e+18
14344.0	1.4566696660500475e+18
14345.0	1.4564340468285437e+18
14346.0	1.4561981658824701e+18
14347.0	1.4559618369847293e+18
14348.0	1.455727447533158e+18
14349.0	1.4554895247998973e+18
14350.0	1.4552494579384315e+18
14351.0	1.4550142094934013e+18
14352.0	1.4547798485630973e+18
14353.0	1.4545450967236608e+18
14354.0	1.4543099925626877e+18
14355.0	1.454074611577651e+18
14356.0	1.4538396617670653e+18
14357.0	1.4536051733299197e+18
14358.0	1.4533702872727547e+18
14359.0	1.4531352099553277e+18
14360.0	1.452900290343731e+18
14361.0	1.4526655317934075e+18
14362.0	1.4524307682099197e+18
14363.0	1.4521958687309821e+18
14364.0	1.4519566021427197e+18
14365.0	1.4517243954069501e+18
14366.0	1.4514910343987197e+18
14367.0	1.4512576465469437e+18
14368.0	1.451023154754355e+18
14369.0	1.450788785435443e+18
14370.0	1.450554407727923e+18
14371.0	1.450320075318886e+18
14372.0	1.4500857546539008e+18
14373.0	1.4498514792873981e+18
14374.0	1.4496172123095035e+18
14375.0	1.4493824336265213e+18
14376.0	1.4491490357084157e+18
14377.0	1.4489114317422592e+18
14378.0	1.4486749518495741e+18
14379.0	1.4484412502638587e+18
14380.0	1.448207233266483e+18
14381.0	1.447973130705305e+18
14382.0	1.4477393351671808e+18
14383.0	1.4475056168042493e+18
14384.0	1.4472698029670397e+18
14385.0	1.447038284097126e+18
14386.0	1.4468027756052477e+18
14387.0	1.446570929579622e+18
14388.0	1.4463372548374525e+18
14389.0	1.4461037277347835e+18
14390.0	1.4458700999688187e+18
14391.0	1.445636921832243e+18
14392.0	1.4454034769379325e+18
14393.0	1.4451701981380608e+18
14394.0	1.4449319281164285e+18
14395.0	1.4447023168159744e+18
14396.0	1.4444703650938877e+18
14397.0	1.4442371450142715e+18
14398.0	1.4440039383564288e+18
14399.0	1.4437707014995965e+18
14400.0	1.4435349228945408e+18
14401.0	1.4433029409734653e+18
14402.0	1.443069294752563e+18
14403.0	1.4428144589078528e+18
14404.0	1.4422323549437947e+18
14405.0	1.4420888929697787e+18
14406.0	1.4421329180622848e+18
14407.0	1.4418829107003387e+18
14408.0	1.4416725227339773e+18
14409.0	1.441436811237785e+18
14410.0	1.441203836105523e+18
14411.0	1.4409718139191293e+18
14412.0	1.4407391206440957e+18
14413.0	1.4405073031397376e+18
14414.0	1.4402746887176192e+18
14415.0	1.4400424735932413e+18
14416.0	1.4398103373217792e+18
14417.0	1.4395779544252413e+18
14418.0	1.4393454842871803e+18
14419.0	1.4391133798924285e+18
14420.0	1.4388807386267645e+18
14421.0	1.4386491660697597e+18
14422.0	1.4384166237896701e+18
14423.0	1.4381810532220925e+18
14424.0	1.4378656163954685e+18
14425.0	1.4377169299963901e+18
14426.0	1.437489117213491e+18
14427.0	1.4372578198028285e+18
14428.0	1.437023062930227e+18
14429.0	1.436794104263475e+18
14430.0	1.4365621978398715e+18
14431.0	1.436321909519155e+18
14432.0	1.43609852592128e+18
14433.0	1.4358495671353341e+18
14434.0	1.4356338171707387e+18
14435.0	1.435403105284915e+18
14436.0	1.4351736667897853e+18
14437.0	1.4349424650092541e+18
14438.0	1.4347100351365115e+18
14439.0	1.4344795212218365e+18
14440.0	1.4342485744549885e+18
14441.0	1.4340155120812032e+18
14442.0	1.4337831275069437e+18
14443.0	1.433546790220595e+18
14444.0	1.433322277516083e+18
14445.0	1.4330907066367997e+18
14446.0	1.4327333972344832e+18
14447.0	1.4326166009675776e+18
14448.0	1.4323938800697341e+18
14449.0	1.4321637033771008e+18
14450.0	1.4319330535669757e+18
14451.0	1.431702373557862e+18
14452.0	1.4314716633497597e+18
14453.0	1.431240862544691e+18
14454.0	1.4310103201087485e+18
14455.0	1.430779084773785e+18
14456.0	1.4305492000047104e+18
14457.0	1.4303186475024381e+18
14458.0	1.4300880228581373e+18
14459.0	1.4298573394935808e+18
14460.0	1.429626600764211e+18
14461.0	1.4293939611762685e+18
14462.0	1.4291641653264381e+18
14463.0	1.4289351294844925e+18
14464.0	1.4287056222027773e+18
14465.0	1.428472113555046e+18
14466.0	1.4282460372140032e+18
14467.0	1.4280149931393021e+18
14468.0	1.4277857677148157e+18
14469.0	1.4275526499762173e+18
14470.0	1.427321973322547e+18
14471.0	1.4270947729080315e+18
14472.0	1.426866606125875e+18
14473.0	1.4266368941621245e+18
14474.0	1.426407177165209e+18
14475.0	1.426177347760947e+18
14476.0	1.4259467415715837e+18
14477.0	1.4257180731506685e+18
14478.0	1.4254885725798397e+18
14479.0	1.425258967990272e+18
14480.0	1.4250280010907648e+18
14481.0	1.4247999349719037e+18
14482.0	1.4245697784119293e+18
14483.0	1.4243397879463936e+18
14484.0	1.4241090827714557e+18
14485.0	1.423875404673843e+18
14486.0	1.423615240385331e+18
14487.0	1.4234193311563773e+18
14488.0	1.4231888625401853e+18
14489.0	1.4229591707090941e+18
14490.0	1.4227306163732477e+18
14491.0	1.422501676161433e+18
14492.0	1.422272886944563e+18
14493.0	1.4220438494248957e+18
14494.0	1.4218118859587581e+18
14495.0	1.4215842929573885e+18
14496.0	1.4213408136101885e+18
14497.0	1.4211274460102653e+18
14498.0	1.4208994688106493e+18
14499.0	1.420670771868467e+18
14500.0	1.4204419004432381e+18
14501.0	1.420211134870323e+18
14502.0	1.419952779165696e+18
14503.0	1.4197540748525563e+18
14504.0	1.4195265221165053e+18
14505.0	1.4192983301685245e+18
14506.0	1.419067415278387e+18
14507.0	1.4188110359298048e+18
14508.0	1.4186126419951613e+18
14509.0	1.418385386215833e+18
14510.0	1.4181572060119037e+18
14511.0	1.4179286533537787e+18
14512.0	1.4176989128687613e+18
14513.0	1.417471418852966e+18
14514.0	1.4172393614344192e+18
14515.0	1.417008599216947e+18
14516.0	1.4163894159278077e+18
14517.0	1.4165398723231744e+18
14518.0	1.4163299255975936e+18
14519.0	1.4161037586595837e+18
14520.0	1.4158764257050621e+18
14521.0	1.4156487974715392e+18
14522.0	1.415421013209907e+18
14523.0	1.4151921434623997e+18
14524.0	1.4149645068402685e+18
14525.0	1.4147372678381565e+18
14526.0	1.4145101294993408e+18
14527.0	1.4142767231926267e+18
14528.0	1.4140364013174781e+18
14529.0	1.4138258002804736e+18
14530.0	1.4135982676770813e+18
14531.0	1.4133724731932667e+18
14532.0	1.4131441872928765e+18
14533.0	1.4129178509049853e+18
14534.0	1.4126907159216125e+18
14535.0	1.4124633276022781e+18
14536.0	1.4122359661264893e+18
14537.0	1.412002252796723e+18
14538.0	1.411775919764275e+18
14539.0	1.4115488166576125e+18
14540.0	1.4113216447643645e+18
14541.0	1.4110939477442557e+18
14542.0	1.4108672472907773e+18
14543.0	1.4106380671647741e+18
14544.0	1.4104126568792064e+18
14545.0	1.4101839867805693e+18
14546.0	1.4098011776876541e+18
14547.0	1.4095673133629437e+18
14548.0	1.4095004125364221e+18
14549.0	1.4092632397447165e+18
14550.0	1.4090507915362301e+18
14551.0	1.4088252654878717e+18
14552.0	1.408598474437427e+18
14553.0	1.4083705408585725e+18
14554.0	1.4081455533588475e+18
14555.0	1.4079188680048637e+18
14556.0	1.407692001456947e+18
14557.0	1.4074645166686208e+18
14558.0	1.4072310533193723e+18
14559.0	1.4067169843216376e+18
14560.0	1.4067775710429181e+18
14561.0	1.4065578725605373e+18
14562.0	1.4063300916543485e+18
14563.0	1.4061073967611901e+18
14564.0	1.4058811325153277e+18
14565.0	1.4056553539698683e+18
14566.0	1.405429233169203e+18
14567.0	1.405203000800051e+18
14568.0	1.4049765637488635e+18
14569.0	1.4047478751952893e+18
14570.0	1.4044443745189885e+18
14571.0	1.4042964783267837e+18
14572.0	1.4040674701672445e+18
14573.0	1.4038417914462205e+18
14574.0	1.4036202407591933e+18
14575.0	1.4033949252648957e+18
14576.0	1.4031692717096957e+18
14577.0	1.402943759921971e+18
14578.0	1.4027177842442237e+18
14579.0	1.4024923580203005e+18
14580.0	1.4022667086594045e+18
14581.0	1.4020407229153275e+18
14582.0	1.4018153621225467e+18
14583.0	1.4015897236668413e+18
14584.0	1.401362929260953e+18
14585.0	1.4011385658736637e+18
14586.0	1.4009128888303616e+18
14587.0	1.4006877209755645e+18
14588.0	1.4004624440688637e+18
14589.0	1.4002374112706557e+18
14590.0	1.4000124229320701e+18
14591.0	1.3997873280581627e+18
14592.0	1.3995613062430717e+18
14593.0	1.399320002900787e+18
14594.0	1.3991061512781821e+18
14595.0	1.3988814104035323e+18
14596.0	1.398651665724211e+18
14597.0	1.3984257990983677e+18
14598.0	1.398206964642611e+18
14599.0	1.3979833461637117e+18
14600.0	1.397758740345651e+18
14601.0	1.3975341009731581e+18
14602.0	1.3973094062358525e+18
14603.0	1.3970846762663933e+18
14604.0	1.3968550238617595e+18
14605.0	1.3966333037248507e+18
14606.0	1.396397583840051e+18
14607.0	1.396186161558323e+18
14608.0	1.3959608745852925e+18
14609.0	1.3957361186111485e+18
14610.0	1.3955113752199165e+18
14611.0	1.395288026854195e+18
14612.0	1.3950652573024253e+18
14613.0	1.3948411522842621e+18
14614.0	1.3946151757676541e+18
14615.0	1.394391779586867e+18
14616.0	1.3941686149316608e+18
14617.0	1.3939427231399933e+18
14618.0	1.3937196356599805e+18
14619.0	1.3934894069579773e+18
14620.0	1.393259882899046e+18
14621.0	1.3930476611829757e+18
14622.0	1.3928240720642045e+18
14623.0	1.392599859671859e+18
14624.0	1.3923694489370621e+18
14625.0	1.3921517620428797e+18
14626.0	1.3919273147695101e+18
14627.0	1.3917033154478077e+18
14628.0	1.391480899056435e+18
14629.0	1.3912571471986685e+18
14630.0	1.3910322695897085e+18
14631.0	1.390808405324595e+18
14632.0	1.3905778872156157e+18
14633.0	1.3903603160842237e+18
14634.0	1.390138302346035e+18
14635.0	1.389913709110886e+18
14636.0	1.3896870807994365e+18
14637.0	1.3894676725628925e+18
14638.0	1.3892437185396736e+18
14639.0	1.3890188660965373e+18
14640.0	1.388795277816627e+18
14641.0	1.3885447839154173e+18
14642.0	1.3883481826263037e+18
14643.0	1.3881261848264701e+18
14644.0	1.3879028112949248e+18
14645.0	1.3876757484535805e+18
14646.0	1.387453904165273e+18
14647.0	1.387232320762675e+18
