# Flux units: erg / (cm m2 s)
# Wavelength units: Angstrom
wave	flux
14000.0	2.1395387587756022e+18
14001.0	2.1398016342622205e+18
14002.0	2.139492485536153e+18
14003.0	2.1390840341463035e+18
14004.0	2.1386639393685501e+18
14005.0	2.1382452605878272e+18
14006.0	2.1378176110297088e+18
14007.0	2.137390954682777e+18
14008.0	2.1369103327428605e+18
14009.0	2.136538823104921e+18
14010.0	2.1361085495902205e+18
14011.0	2.1352658904285181e+18
14012.0	2.1352658585518077e+18
14013.0	2.1348593751293947e+18
14014.0	2.1344331935776768e+18
14015.0	2.1340142832713728e+18
14016.0	2.1335926986768376e+18
14017.0	2.1331702332784637e+18
14018.0	2.1327432749416445e+18
14019.0	2.1323245072416768e+18
14020.0	2.1319009160921083e+18
14021.0	2.131476887057203e+18
14022.0	2.1310503296958461e+18
14023.0	2.1306145733869563e+18
14024.0	2.13019450713047e+18
14025.0	2.1297846531653624e+18
14026.0	2.1293621240135675e+18
14027.0	2.1289381771870203e+18
14028.0	2.1285019393720315e+18
14029.0	2.1280390677266427e+18
14030.0	2.1255818649272325e+18
14031.0	2.1268619547639803e+18
14032.0	2.126800942740275e+18
14033.0	2.1263643744141304e+18
14034.0	2.1259851657117696e+18
14035.0	2.125569562194739e+18
14036.0	2.1251407432646648e+18
14037.0	2.1247314580471803e+18
14038.0	2.1243114907762683e+18
14039.0	2.1238875758264315e+18
14040.0	2.1234681823363067e+18
14041.0	2.1230493072621565e+18
14042.0	2.1226219546607616e+18
14043.0	2.122182312748646e+18
14044.0	2.1217798776684544e+18
14045.0	2.1213656901484544e+18
14046.0	2.120944410899251e+18
14047.0	2.1205173351219195e+18
14048.0	2.1201087679692795e+18
14049.0	2.1196907133009915e+18
14050.0	2.1192713567207421e+18
14051.0	2.1188466163318781e+18
14052.0	2.1184279560060925e+18
14053.0	2.1180134564298747e+18
14054.0	2.1175944672706552e+18
14055.0	2.1171754160357368e+18
14056.0	2.1167563866111995e+18
14057.0	2.1163374964375552e+18
14058.0	2.1159186331074555e+18
14059.0	2.1154912150749181e+18
14060.0	2.1150808510824443e+18
14061.0	2.1146574058946555e+18
14062.0	2.1142415926624253e+18
14063.0	2.1138004810661888e+18
14064.0	2.1130159448915965e+18
14065.0	2.1129779612745728e+18
14066.0	2.112570058499686e+18
14067.0	2.112138754863923e+18
14068.0	2.111735014516326e+18
14069.0	2.1113149449043963e+18
14070.0	2.11089828610048e+18
14071.0	2.1104801693564925e+18
14072.0	2.110064745355673e+18
14073.0	2.1096470379757563e+18
14074.0	2.1092287232606203e+18
14075.0	2.108793599452774e+18
14076.0	2.1083673742802944e+18
14077.0	2.1074910147248128e+18
14078.0	2.1074920498790392e+18
14079.0	2.107128506063257e+18
14080.0	2.106725091193651e+18
14081.0	2.1063102057414648e+18
14082.0	2.1058929043701757e+18
14083.0	2.1054730847387643e+18
14084.0	2.1050364392374267e+18
14085.0	2.10427208269824e+18
14086.0	2.104161592986828e+18
14087.0	2.1038008375443453e+18
14088.0	2.1033814910304253e+18
14089.0	2.1029706740531197e+18
14090.0	2.1025633584807933e+18
14091.0	2.1021507278864381e+18
14092.0	2.101735865922355e+18
14093.0	2.1013197490225147e+18
14094.0	2.1009020181544955e+18
14095.0	2.100477502580326e+18
14096.0	2.1000114164203517e+18
14097.0	2.0996019768524797e+18
14098.0	2.0992083514884093e+18
14099.0	2.0988196619812861e+18
14100.0	2.0984031239733245e+18
14101.0	2.0979989423849467e+18
14102.0	2.0975851155750904e+18
14103.0	2.0971611200946173e+18
14104.0	2.0967547557904381e+18
14105.0	2.0963431838384125e+18
14106.0	2.0959289879298045e+18
14107.0	2.0955113426255867e+18
14108.0	2.0950873941213181e+18
14109.0	2.0946821404688376e+18
14110.0	2.0942684428435453e+18
14111.0	2.0938495174377467e+18
14112.0	2.093432414037606e+18
14113.0	2.0930160152805373e+18
14114.0	2.092586785308672e+18
14115.0	2.0921514064871421e+18
14116.0	2.091463275551129e+18
14117.0	2.0874622786338816e+18
14118.0	2.090793889798553e+18
14119.0	2.090457483129651e+18
14120.0	2.0900760682233848e+18
14121.0	2.0896884759461883e+18
14122.0	2.0892829354033147e+18
14123.0	2.0888654058618875e+18
14124.0	2.088436447680921e+18
14125.0	2.0877398593503227e+18
14126.0	2.0876379578957821e+18
14127.0	2.0872440909398008e+18
14128.0	2.0868384765771773e+18
14129.0	2.086418836461977e+18
14130.0	2.0859982366900221e+18
14131.0	2.0856033010253821e+18
14132.0	2.085167549749657e+18
14133.0	2.0843999350751224e+18
14134.0	2.084346004714291e+18
14135.0	2.0839361876590587e+18
14136.0	2.0835244227690493e+18
14137.0	2.0831164361080827e+18
14138.0	2.0826968815566845e+18
14139.0	2.0823036219359227e+18
14140.0	2.081881980298854e+18
14141.0	2.081402318015692e+18
14142.0	2.0809120139444221e+18
14143.0	2.080641436037939e+18
14144.0	2.0802552631132155e+18
14145.0	2.0798519556177915e+18
14146.0	2.0794340821434363e+18
14147.0	2.0790328382455805e+18
14148.0	2.0786219558371325e+18
14149.0	2.0782129860313083e+18
14150.0	2.0778095829057533e+18
14151.0	2.077391348721254e+18
14152.0	2.0769914151239675e+18
14153.0	2.076582015821414e+18
14154.0	2.076150291077529e+18
14155.0	2.0757209386319867e+18
14156.0	2.075348185802342e+18
14157.0	2.0749439287164928e+18
14158.0	2.0745329859100667e+18
14159.0	2.074125571352166e+18
14160.0	2.0737020976431096e+18
14161.0	2.0732666433241088e+18
14162.0	2.0728200455782397e+18
14163.0	2.0724660496760827e+18
14164.0	2.0720008845852667e+18
14165.0	2.0716372602388477e+18
14166.0	2.0712578653093883e+18
14167.0	2.0708437784526845e+18
14168.0	2.070448623006515e+18
14169.0	2.070038448596582e+18
14170.0	2.0696334952562683e+18
14171.0	2.0692267215880187e+18
14172.0	2.0688208186572797e+18
14173.0	2.068398495865241e+18
14174.0	2.0679987770163197e+18
14175.0	2.0675984709648381e+18
14176.0	2.0671921217601528e+18
14177.0	2.0667853329924093e+18
14178.0	2.0663776952975352e+18
14179.0	2.0659678312660987e+18
14180.0	2.065563827516211e+18
14181.0	2.0651564146360317e+18
14182.0	2.0647479213031421e+18
14183.0	2.0643387854028797e+18
14184.0	2.0639209454829563e+18
14185.0	2.0634761412214781e+18
14186.0	2.062496480991641e+18
14187.0	2.0625896901705728e+18
14188.0	2.0622899903725563e+18
14189.0	2.061892752873881e+18
14190.0	2.0614893480706043e+18
14191.0	2.0610810510311421e+18
14192.0	2.060662833623859e+18
14193.0	2.060175963848704e+18
14194.0	2.0598649444630525e+18
14195.0	2.059469591045734e+18
14196.0	2.059066001693081e+18
14197.0	2.058660789983641e+18
14198.0	2.058250848777011e+18
14199.0	2.057838468163174e+18
14200.0	2.0570472697561083e+18
14201.0	2.0569391506653176e+18
14202.0	2.0566273528168445e+18
14203.0	2.0562267917516797e+18
14204.0	2.0558250109829117e+18
14205.0	2.055418049409843e+18
14206.0	2.0549308323463163e+18
14207.0	2.0546067837747197e+18
14208.0	2.054206999494656e+18
14209.0	2.053710714345881e+18
14210.0	2.053324340094566e+18
14211.0	2.0529921243742203e+18
14212.0	2.0525946721271805e+18
14213.0	2.052191077741363e+18
14214.0	2.051787649449984e+18
14215.0	2.0513735944699896e+18
14216.0	2.0509690186170365e+18
14217.0	2.0504921195413501e+18
14218.0	2.0500778414243837e+18
14219.0	2.0496846338129917e+18
14220.0	2.049275704272486e+18
14221.0	2.0488735577604093e+18
14222.0	2.0484449720336381e+18
14223.0	2.0480625723047933e+18
14224.0	2.0476353941864443e+18
14225.0	2.04595875807232e+18
14226.0	2.0467245087981563e+18
14227.0	2.0464104225374203e+18
14228.0	2.0429531869347845e+18
14229.0	2.0447426296938476e+18
14230.0	2.045224974653849e+18
14231.0	2.0448231922073597e+18
14232.0	2.0444452988387325e+18
14233.0	2.0440435868565501e+18
14234.0	2.043634108701081e+18
14235.0	2.0431487757189115e+18
14236.0	2.042748288473497e+18
14237.0	2.0423422714576893e+18
14238.0	2.0419373969702907e+18
14239.0	2.0415100678569981e+18
14240.0	2.0400018531811328e+18
14241.0	2.0406730810720253e+18
14242.0	2.0403119229763581e+18
14243.0	2.0398296820350973e+18
14244.0	2.039530868074086e+18
14245.0	2.0391261865246715e+18
14246.0	2.03872584859648e+18
14247.0	2.0383277084835837e+18
14248.0	2.037919866106675e+18
14249.0	2.0375256149524475e+18
14250.0	2.0371266443673597e+18
14251.0	2.0367259574730747e+18
14252.0	2.0363224201297917e+18
14253.0	2.0359152119316477e+18
14254.0	2.0354764759891963e+18
14255.0	2.0349168685940733e+18
14256.0	2.0333628286304259e+18
14257.0	2.0337587642171387e+18
14258.0	2.0337665790443517e+18
14259.0	2.0333779767787512e+18
14260.0	2.0329516777865208e+18
14261.0	2.0325573494571005e+18
14262.0	2.0321134427766781e+18
14263.0	2.0299745658404864e+18
14264.0	2.0304598283583483e+18
14265.0	2.0309415626276861e+18
14266.0	2.0306156249415677e+18
14267.0	2.0302334819041277e+18
14268.0	2.0298378231414781e+18
14269.0	2.029432881545216e+18
14270.0	2.0290366087364605e+18
14271.0	2.028624575410995e+18
14272.0	2.028186877978214e+18
14273.0	2.0275867234074621e+18
14274.0	2.0243192951603203e+18
14275.0	2.0262693109759997e+18
14276.0	2.0265403435450365e+18
14277.0	2.0261791669944317e+18
14278.0	2.0257425416257533e+18
14279.0	2.0253518522744827e+18
14280.0	2.024955589532057e+18
14281.0	2.0245642928455675e+18
14282.0	2.024167897563136e+18
14283.0	2.023770582889267e+18
14284.0	2.023372768254361e+18
14285.0	2.022974344606515e+18
14286.0	2.022575327045222e+18
14287.0	2.0221755243102205e+18
14288.0	2.0217584058105853e+18
14289.0	2.0206502824378358e+18
14290.0	2.020964474395033e+18
14291.0	2.020583633269555e+18
14292.0	2.020188043293491e+18
14293.0	2.01978566190039e+18
14294.0	2.0192980136624125e+18
14295.0	2.0189604275552259e+18
14296.0	2.0180185143836675e+18
14297.0	2.0181283111960573e+18
14298.0	2.0173784300388347e+18
14299.0	2.0173493551235064e+18
14300.0	2.016996236669747e+18
14301.0	2.0166068492304381e+18
14302.0	2.0161964382617597e+18
14303.0	2.0156758211166203e+18
14304.0	2.0152951863508987e+18
14305.0	2.0149051160788987e+18
14306.0	2.0144905074507773e+18
14307.0	2.0140893625384955e+18
14308.0	2.0136975356919805e+18
14309.0	2.0132876095848443e+18
14310.0	2.012853782655795e+18
14311.0	2.012426222016921e+18
14312.0	2.012049633915699e+18
14313.0	2.011644254434099e+18
14314.0	2.011314270083481e+18
14315.0	2.0109298604441592e+18
14316.0	2.0105080862670843e+18
14317.0	2.01012332766167e+18
14318.0	2.0097581832994816e+18
14319.0	2.0093720875499512e+18
14320.0	2.0089799452917755e+18
14321.0	2.0085837312032765e+18
14322.0	2.0081679011938296e+18
14323.0	2.0077812266303488e+18
14324.0	2.0074055847641088e+18
14325.0	2.0070034281857021e+18
14326.0	2.0066187534663675e+18
14327.0	2.0062184876802043e+18
14328.0	2.0058261944270843e+18
14329.0	2.0054367063244797e+18
14330.0	2.00500082418647e+18
14331.0	2.0045326710734843e+18
14332.0	2.004140664710758e+18
14333.0	2.003746059557273e+18
14334.0	2.0033505735999483e+18
14335.0	2.0029375336415227e+18
14336.0	2.002425399056793e+18
14337.0	2.0021614330511352e+18
14338.0	2.001772102654361e+18
14339.0	2.0013703789281277e+18
14340.0	2.000984714353049e+18
14341.0	2.0005892485283837e+18
14342.0	2.0001973126299645e+18
14343.0	1.9998052106371064e+18
14344.0	1.9994081207779325e+18
14345.0	1.9990171395031037e+18
14346.0	1.9986180950982648e+18
14347.0	1.998206870434611e+18
14348.0	1.9978275862347773e+18
14349.0	1.997436311358668e+18
14350.0	1.99692665309102e+18
14351.0	1.9965304541020155e+18
14352.0	1.9962525814620155e+18
14353.0	1.9958698528997373e+18
14354.0	1.9954656243351547e+18
14355.0	1.995047307942297e+18
14356.0	1.9946607826960384e+18
14357.0	1.994302017031372e+18
14358.0	1.9939129399705592e+18
14359.0	1.993506699817779e+18
14360.0	1.993120736608256e+18
14361.0	1.9927298895511547e+18
14362.0	1.9923039193923584e+18
14363.0	1.991816982508339e+18
14364.0	1.9911123646021632e+18
14365.0	1.9908786294620155e+18
14366.0	1.9905836306399227e+18
14367.0	1.9902634408280061e+18
14368.0	1.9898752512819197e+18
14369.0	1.9894851290005501e+18
14370.0	1.9890944497156096e+18
14371.0	1.988703812373708e+18
14372.0	1.9883078113558525e+18
14373.0	1.987918484314521e+18
14374.0	1.9875295767035901e+18
14375.0	1.987137337137561e+18
14376.0	1.9867472282779645e+18
14377.0	1.9863555423600637e+18
14378.0	1.98596300415959e+18
14379.0	1.985573651952435e+18
14380.0	1.9851818234281981e+18
14381.0	1.9847815928741883e+18
14382.0	1.9843996394192893e+18
14383.0	1.9840089114804221e+18
14384.0	1.9836029263413243e+18
14385.0	1.983228938708582e+18
14386.0	1.9828218664058877e+18
14387.0	1.982447533162496e+18
14388.0	1.9820564998782973e+18
14389.0	1.981666213180211e+18
14390.0	1.9812752419717115e+18
14391.0	1.9808863544934397e+18
14392.0	1.980495775871795e+18
14393.0	1.9801061283856381e+18
14394.0	1.979681606100582e+18
14395.0	1.9793157772279808e+18
14396.0	1.9789354964615168e+18
14397.0	1.9785458774966272e+18
14398.0	1.9781552837754877e+18
14399.0	1.977692049742233e+18
14400.0	1.977236949303296e+18
14401.0	1.9768492177752061e+18
14402.0	1.976447859792281e+18
14403.0	1.975657141213593e+18
14404.0	1.9734486572859377e+18
14405.0	1.973918176064305e+18
14406.0	1.9748594265358333e+18
14407.0	1.9740657920770045e+18
14408.0	1.974078801130291e+18
14409.0	1.9737261843152896e+18
14410.0	1.9733312419397627e+18
14411.0	1.9729637823217661e+18
14412.0	1.97257815130112e+18
14413.0	1.9721924179394555e+18
14414.0	1.9718017755643901e+18
14415.0	1.9714128260104184e+18
14416.0	1.9710190110638075e+18
14417.0	1.9706122692722683e+18
14418.0	1.9702232794529787e+18
14419.0	1.9698501189369856e+18
14420.0	1.969459463140147e+18
14421.0	1.9690695790952443e+18
14422.0	1.9686613072216061e+18
14423.0	1.9681845742403581e+18
14424.0	1.9660325724880888e+18
14425.0	1.9674111227723773e+18
14426.0	1.9671172429905917e+18
14427.0	1.9667436999540733e+18
14428.0	1.9663385620643835e+18
14429.0	1.965966671583641e+18
14430.0	1.9655384314675197e+18
14431.0	1.96459348665303e+18
14432.0	1.964772833414348e+18
14433.0	1.9640664572559355e+18
14434.0	1.9640003063709693e+18
14435.0	1.963601788770713e+18
14436.0	1.9632536833490941e+18
14437.0	1.9628743320403965e+18
14438.0	1.962428616776089e+18
14439.0	1.9620848214212605e+18
14440.0	1.9616339337412603e+18
14441.0	1.9612007275692032e+18
14442.0	1.960809816758681e+18
14443.0	1.960392795566899e+18
14444.0	1.960034868763033e+18
14445.0	1.95963909088215e+18
14446.0	1.9584203553243136e+18
14447.0	1.958816782483456e+18
14448.0	1.9584908145983483e+18
14449.0	1.9581086984044541e+18
14450.0	1.9577172339458045e+18
14451.0	1.957332047521382e+18
14452.0	1.9569470087364603e+18
14453.0	1.9565571884449787e+18
14454.0	1.956170676620492e+18
14455.0	1.9557766838353915e+18
14456.0	1.955387053126451e+18
14457.0	1.9550030125858816e+18
14458.0	1.954610808252006e+18
14459.0	1.9542151041908733e+18
14460.0	1.953813685809971e+18
14461.0	1.9533884723036155e+18
14462.0	1.9529704310571005e+18
14463.0	1.9526347005100032e+18
14464.0	1.9522765522468861e+18
14465.0	1.9518889851355136e+18
14466.0	1.951524199805747e+18
14467.0	1.9511284487684093e+18
14468.0	1.9507552161103864e+18
14469.0	1.9503376530145275e+18
14470.0	1.9499646871142397e+18
14471.0	1.9496072451719165e+18
14472.0	1.949228103578419e+18
14473.0	1.9488480895696893e+18
14474.0	1.9484679883194363e+18
14475.0	1.9480811896045568e+18
14476.0	1.9476793752813565e+18
14477.0	1.9473126974816248e+18
14478.0	1.946929725649715e+18
14479.0	1.9465446247890936e+18
14480.0	1.9461477949767677e+18
14481.0	1.9457800686010363e+18
14482.0	1.9453916424962043e+18
14483.0	1.9450038119825403e+18
14484.0	1.9446107385888765e+18
14485.0	1.9441990559072248e+18
14486.0	1.9436351434784765e+18
14487.0	1.94346455442391e+18
14488.0	1.9430598460309501e+18
14489.0	1.9426242289729533e+18
14490.0	1.942175790766489e+18
14491.0	1.941807561074278e+18
14492.0	1.9414251177246712e+18
14493.0	1.94102413051822e+18
14494.0	1.9406366422597632e+18
14495.0	1.9402618560315387e+18
14496.0	1.9397914262503421e+18
14497.0	1.9395003985952765e+18
14498.0	1.9391219280904187e+18
14499.0	1.9387386710458365e+18
14500.0	1.938353744668262e+18
14501.0	1.9379471404498941e+18
14502.0	1.9374152691482621e+18
14503.0	1.937181735334707e+18
14504.0	1.9368132137189368e+18
14505.0	1.9364233179299837e+18
14506.0	1.9360209986125824e+18
14507.0	1.935485969838899e+18
14508.0	1.9352800664223741e+18
14509.0	1.9349042836275197e+18
14510.0	1.9345193807380477e+18
14511.0	1.9341371269709821e+18
14512.0	1.933744895793561e+18
14513.0	1.9333665913831421e+18
14514.0	1.932960750528102e+18
14515.0	1.93256917869527e+18
14516.0	1.9303678166958088e+18
14517.0	1.9317414260899837e+18
14518.0	1.9314478499758075e+18
14519.0	1.9310737147035643e+18
14520.0	1.930693214155571e+18
14521.0	1.9303102809112573e+18
14522.0	1.929920677045862e+18
14523.0	1.929494686754406e+18
14524.0	1.92913232405463e+18
14525.0	1.9287757276839933e+18
14526.0	1.9283949335347197e+18
14527.0	1.9279878394216445e+18
14528.0	1.927543328761446e+18
14529.0	1.9272452831969277e+18
14530.0	1.926859991076044e+18
14531.0	1.926489395796377e+18
14532.0	1.9260865110867963e+18
14533.0	1.925726745500057e+18
14534.0	1.9253489192402941e+18
14535.0	1.924957209834291e+18
14536.0	1.924581432072601e+18
14537.0	1.9241938767052792e+18
14538.0	1.9238225969151997e+18
14539.0	1.9234416853254144e+18
14540.0	1.9230599063535616e+18
14541.0	1.922656754886246e+18
14542.0	1.922291897414451e+18
14543.0	1.92188843556864e+18
14544.0	1.921522824799846e+18
14545.0	1.9211096674009083e+18
14546.0	1.918315974046514e+18
14547.0	1.9180142358167537e+18
14548.0	1.9198234874347517e+18
14549.0	1.919394245718835e+18
14550.0	1.9190976228622333e+18
14551.0	1.918733587474022e+18
14552.0	1.9183531859116027e+18
14553.0	1.9179685464244221e+18
14554.0	1.9175929632784381e+18
14555.0	1.9172112447045627e+18
14556.0	1.916828380246835e+18
14557.0	1.9164425965535227e+18
14558.0	1.9160261961187328e+18
14559.0	1.9143030887940078e+18
14560.0	1.9152575093800952e+18
14561.0	1.9149100398149627e+18
14562.0	1.9145096096120827e+18
14563.0	1.914144564235468e+18
14564.0	1.9137501067214845e+18
14565.0	1.9133970704760827e+18
14566.0	1.9130201317310456e+18
14567.0	1.912636970316595e+18
14568.0	1.9122458514685947e+18
14569.0	1.9118617102647293e+18
14570.0	1.911111569060659e+18
14571.0	1.9111032827936765e+18
14572.0	1.910700082672435e+18
14573.0	1.9102991541862397e+18
14574.0	1.9099256296046587e+18
14575.0	1.9095689594142715e+18
14576.0	1.909178915985817e+18
14577.0	1.9088318155194365e+18
14578.0	1.9084575024087037e+18
14579.0	1.9080818555092987e+18
14580.0	1.907700784535961e+18
14581.0	1.907317005719961e+18
14582.0	1.906928747387289e+18
14583.0	1.9065626886668283e+18
14584.0	1.9061582822637565e+18
14585.0	1.9057989159747581e+18
14586.0	1.9054242622865405e+18
14587.0	1.9050471809351672e+18
14588.0	1.904668227246489e+18
14589.0	1.9042906459340797e+18
14590.0	1.9039129723469821e+18
14591.0	1.9035319919706112e+18
14592.0	1.903141376439091e+18
14593.0	1.902690961876582e+18
14594.0	1.9023939397222397e+18
14595.0	1.9020079479914496e+18
14596.0	1.90129568303022e+18
14597.0	1.900851237801164e+18
14598.0	1.9008336351461373e+18
14599.0	1.9005083366719483e+18
14600.0	1.9001317401821181e+18
14601.0	1.899755046384435e+18
14602.0	1.8993725275373563e+18
14603.0	1.898995952857907e+18
14604.0	1.8985815304568824e+18
14605.0	1.89820864340951e+18
14606.0	1.8977977140248568e+18
14607.0	1.897485021950771e+18
14608.0	1.8971093230419965e+18
14609.0	1.8967266599108605e+18
14610.0	1.8963297378238461e+18
14611.0	1.8958358149070843e+18
14612.0	1.8954764419071997e+18
14613.0	1.895104162195046e+18
14614.0	1.8947235744055293e+18
14615.0	1.8943494156451837e+18
14616.0	1.8939752468185083e+18
14617.0	1.8935846849740792e+18
14618.0	1.8931699320619005e+18
14619.0	1.8923753362685947e+18
14620.0	1.8916590296760315e+18
14621.0	1.8920518782550013e+18
14622.0	1.8917069873479677e+18
14623.0	1.891339611616051e+18
14624.0	1.8909269038465021e+18
14625.0	1.8905864152809472e+18
14626.0	1.890213071893299e+18
14627.0	1.8898378041589755e+18
14628.0	1.8894665696673787e+18
14629.0	1.889089057141555e+18
14630.0	1.8887070533550077e+18
14631.0	1.8883316446920696e+18
14632.0	1.887810896684646e+18
14633.0	1.887536762008371e+18
14634.0	1.8871977129279483e+18
14635.0	1.886784255216844e+18
14636.0	1.8863093727625213e+18
14637.0	1.8860783572090877e+18
14638.0	1.8856805174083581e+18
14639.0	1.8852950340272125e+18
14640.0	1.8849201488134141e+18
14641.0	1.8839948937396221e+18
14642.0	1.8841633554432e+18
14643.0	1.8838090055417853e+18
14644.0	1.8834212203266043e+18
14645.0	1.8830414663647227e+18
14646.0	1.8826540317933565e+18
14647.0	1.8822645990555645e+18
14648.0	1.8819031339368445e+18
