# Flux units: erg / (cm m2 s)
# Wavelength units: Angstrom
wave	flux
14000.0	2.100504861186457e+18
14001.0	2.09993609510912e+18
14002.0	2.099502692643635e+18
14003.0	2.0990000220864504e+18
14004.0	2.0984975595667453e+18
14005.0	2.0979923959152637e+18
14006.0	2.0974788302340093e+18
14007.0	2.0969693263167488e+18
14008.0	2.096330456642355e+18
14009.0	2.0959756638224381e+18
14010.0	2.0954503926775808e+18
14011.0	2.0941686637068288e+18
14012.0	2.0944569684197373e+18
14013.0	2.0939493183848445e+18
14014.0	2.0934353987043325e+18
14015.0	2.0929394440667133e+18
14016.0	2.0924401524408315e+18
14017.0	2.0919353343999992e+18
14018.0	2.09143104316375e+18
14019.0	2.0909321441247227e+18
14020.0	2.090426638218035e+18
14021.0	2.0899209980936187e+18
14022.0	2.0894144939425787e+18
14023.0	2.088881317373542e+18
14024.0	2.08838631400407e+18
14025.0	2.08791014473728e+18
14026.0	2.087407368483635e+18
14027.0	2.0869064477900797e+18
14028.0	2.0863978833969147e+18
14029.0	2.0858982277054461e+18
14030.0	2.0845138943148037e+18
14031.0	2.0848606290378747e+18
14032.0	2.0843898821672952e+18
14033.0	2.0838174687231997e+18
14034.0	2.083389824198246e+18
14035.0	2.082884858517913e+18
14036.0	2.0823888552263677e+18
14037.0	2.0818846914969597e+18
14038.0	2.0813909464186877e+18
14039.0	2.0808848885415933e+18
14040.0	2.080373309282713e+18
14041.0	2.0798866928435197e+18
14042.0	2.0793793045331963e+18
14043.0	2.0788391318650877e+18
14044.0	2.078381946018201e+18
14045.0	2.0778911067537403e+18
14046.0	2.077389699520921e+18
14047.0	2.076885015697817e+18
14048.0	2.076398892508774e+18
14049.0	2.0759038958501883e+18
14050.0	2.0753939993460733e+18
14051.0	2.07487688025047e+18
14052.0	2.074390577545216e+18
14053.0	2.0738981008244736e+18
14054.0	2.0734029917585405e+18
14055.0	2.0729014435971064e+18
14056.0	2.0724084467826688e+18
14057.0	2.0719088800104443e+18
14058.0	2.0714141618536445e+18
14059.0	2.0709179471691779e+18
14060.0	2.0704213751300096e+18
14061.0	2.0699156024655872e+18
14062.0	2.0694286571929592e+18
14063.0	2.0689086759043072e+18
14064.0	2.0683188342882301e+18
14065.0	2.067929336119296e+18
14066.0	2.067440550386073e+18
14067.0	2.066922656183091e+18
14068.0	2.066454021564006e+18
14069.0	2.0659553943158776e+18
14070.0	2.0654631507984381e+18
14071.0	2.064964847350579e+18
14072.0	2.0644669767548928e+18
14073.0	2.0639668026474493e+18
14074.0	2.063471087924019e+18
14075.0	2.0629502879072248e+18
14076.0	2.0624533115371515e+18
14077.0	2.0617712304652283e+18
14078.0	2.0614757216157693e+18
14079.0	2.0609852883599352e+18
14080.0	2.060507954754355e+18
14081.0	2.0600141559889915e+18
14082.0	2.0594829339656187e+18
14083.0	2.059023073830502e+18
14084.0	2.058534415604121e+18
14085.0	2.0575652327456768e+18
14086.0	2.057529557673574e+18
14087.0	2.057056024107417e+18
14088.0	2.0565451293589496e+18
14089.0	2.0560425041002493e+18
14090.0	2.055572263901593e+18
14091.0	2.05508665409536e+18
14092.0	2.0545923083927547e+18
14093.0	2.0541025932017656e+18
14094.0	2.0536110509719547e+18
14095.0	2.0531196110831608e+18
14096.0	2.0525808812556283e+18
14097.0	2.0520898188541952e+18
14098.0	2.0516074772496381e+18
14099.0	2.0511419380269053e+18
14100.0	2.0506290618892288e+18
14101.0	2.0501612745195515e+18
14102.0	2.0496668902293501e+18
14103.0	2.0491621460082683e+18
14104.0	2.048685453292339e+18
14105.0	2.048190679770726e+18
14106.0	2.0477095561920507e+18
14107.0	2.047193542714982e+18
14108.0	2.0467070521049088e+18
14109.0	2.0462331293073405e+18
14110.0	2.0457105324507133e+18
14111.0	2.0451729384407037e+18
14112.0	2.044757987557376e+18
14113.0	2.0442644068958205e+18
14114.0	2.0437696887390203e+18
14115.0	2.0432999870889981e+18
14116.0	2.042675896464179e+18
14117.0	2.0409228871073792e+18
14118.0	2.041837304099635e+18
14119.0	2.041320248757452e+18
14120.0	2.040840677071257e+18
14121.0	2.040340167419494e+18
14122.0	2.0398571480154107e+18
14123.0	2.0393475451125755e+18
14124.0	2.0388557680017403e+18
14125.0	2.0377462521200635e+18
14126.0	2.0379145661841403e+18
14127.0	2.0374404991025144e+18
14128.0	2.036951641227264e+18
14129.0	2.0364492340723707e+18
14130.0	2.035943711388467e+18
14131.0	2.0354910973329405e+18
14132.0	2.0349978572488701e+18
14133.0	2.0337446210240486e+18
14134.0	2.0340343383785472e+18
14135.0	2.0335238177619963e+18
14136.0	2.0329525787230203e+18
14137.0	2.0325757339303933e+18
14138.0	2.0320705417576445e+18
14139.0	2.031606163518259e+18
14140.0	2.031052678129254e+18
14141.0	2.030633286316851e+18
14142.0	2.0299920728653821e+18
14143.0	2.0295616500334587e+18
14144.0	2.0291823725445117e+18
14145.0	2.0286964540375037e+18
14146.0	2.0282092453625848e+18
14147.0	2.0277260095324152e+18
14148.0	2.027236779202969e+18
14149.0	2.0267482921041915e+18
14150.0	2.0262766224867325e+18
14151.0	2.0257704605908987e+18
14152.0	2.0253074614386683e+18
14153.0	2.0248268277547005e+18
14154.0	2.0243044976558077e+18
14155.0	2.0234740388855805e+18
14156.0	2.023349624084889e+18
14157.0	2.022880529770086e+18
14158.0	2.022387930575667e+18
14159.0	2.0219161250627581e+18
14160.0	2.021432622474854e+18
14161.0	2.0208550366150653e+18
14162.0	2.02031498306519e+18
14163.0	2.0199868190425083e+18
14164.0	2.019440552889548e+18
14165.0	2.0183222860120061e+18
14166.0	2.01853177471959e+18
14167.0	2.018040257655603e+18
14168.0	2.017564801420492e+18
14169.0	2.0170968982880253e+18
14170.0	2.016605444977459e+18
14171.0	2.0161218937356283e+18
14172.0	2.015653866451763e+18
14173.0	2.014855737376768e+18
14174.0	2.0146850191376381e+18
14175.0	2.0142124368396288e+18
14176.0	2.013725790201446e+18
14177.0	2.0132493524991997e+18
14178.0	2.0127638903324664e+18
14179.0	2.0122226254675965e+18
14180.0	2.0118072819974136e+18
14181.0	2.011326359745331e+18
14182.0	2.0108469944188925e+18
14183.0	2.0103682850815997e+18
14184.0	2.0098814488608765e+18
14185.0	2.0094088212643837e+18
14186.0	2.008631777794457e+18
14187.0	2.0084182357114875e+18
14188.0	2.0079675241922552e+18
14189.0	2.007484545053491e+18
14190.0	2.0070146957639677e+18
14191.0	2.006536077023641e+18
14192.0	2.0060421507514365e+18
14193.0	2.0055260701655035e+18
14194.0	2.0050907433533435e+18
14195.0	2.004617201398579e+18
14196.0	2.0041392520691707e+18
14197.0	2.00365952771031e+18
14198.0	2.0031775686262781e+18
14199.0	2.002689066428006e+18
14200.0	2.0020690006573053e+18
14201.0	2.001751669682995e+18
14202.0	2.0012746145791997e+18
14203.0	2.0007242732404733e+18
14204.0	2.000319699065241e+18
14205.0	1.9998440901574653e+18
14206.0	1.9991908860297216e+18
14207.0	1.9988958553309181e+18
14208.0	1.998419905845657e+18
14209.0	1.9977387391320056e+18
14210.0	1.997347588407295e+18
14211.0	1.9969823098273787e+18
14212.0	1.9965162605772792e+18
14213.0	1.9960352577945597e+18
14214.0	1.9955669973073917e+18
14215.0	1.9950721466105856e+18
14216.0	1.9946161200693245e+18
14217.0	1.9941437156098043e+18
14218.0	1.9936510946050045e+18
14219.0	1.9931916874547192e+18
14220.0	1.9927198601314301e+18
14221.0	1.9922401928151035e+18
14222.0	1.9917134905737216e+18
14223.0	1.9912962378563581e+18
14224.0	1.9908253584457725e+18
14225.0	1.989910168023859e+18
14226.0	1.989878324867891e+18
14227.0	1.989403658839654e+18
14228.0	1.9879266145533952e+18
14229.0	1.9883305109290995e+18
14230.0	1.987985108316979e+18
14231.0	1.9874693146214392e+18
14232.0	1.9870404185161725e+18
14233.0	1.986543559586611e+18
14234.0	1.9860850332401661e+18
14235.0	1.985608959603507e+18
14236.0	1.985136924242739e+18
14237.0	1.9846640533766144e+18
14238.0	1.9841959791165435e+18
14239.0	1.9837129882337275e+18
14240.0	1.9813295766634506e+18
14241.0	1.9827784704589821e+18
14242.0	1.982310277080678e+18
14243.0	1.9816150493822973e+18
14244.0	1.981369449394995e+18
14245.0	1.9808677972148221e+18
14246.0	1.9803778068774907e+18
14247.0	1.9799481977405435e+18
14248.0	1.979467473459609e+18
14249.0	1.9790088095399933e+18
14250.0	1.9785425908400125e+18
14251.0	1.978073790126489e+18
14252.0	1.97760443744256e+18
14253.0	1.9771354404356093e+18
14254.0	1.9766631383171064e+18
14255.0	1.9761553741971453e+18
14256.0	1.9753435616247808e+18
14257.0	1.975248592515891e+18
14258.0	1.9747894638673915e+18
14259.0	1.97428702651351e+18
14260.0	1.9738377460908027e+18
14261.0	1.973348316112486e+18
14262.0	1.9729182003036155e+18
14263.0	1.9718794658185216e+18
14264.0	1.9718926761983997e+18
14265.0	1.971496750678016e+18
14266.0	1.9710428984639488e+18
14267.0	1.9705759667322875e+18
14268.0	1.9701067583324155e+18
14269.0	1.969627720161689e+18
14270.0	1.9691747051307003e+18
14271.0	1.9686933265383421e+18
14272.0	1.968239111936409e+18
14273.0	1.967771874859417e+18
14274.0	1.9664677214617605e+18
14275.0	1.966764684895846e+18
14276.0	1.9662958472724477e+18
14277.0	1.9658609013030907e+18
14278.0	1.9654387412500477e+18
14279.0	1.964971455519129e+18
14280.0	1.964494739315097e+18
14281.0	1.9640365803896827e+18
14282.0	1.963563389078732e+18
14283.0	1.963097527733452e+18
14284.0	1.9626317754400765e+18
14285.0	1.9621660147580928e+18
14286.0	1.9616965345673208e+18
14287.0	1.9612328492269565e+18
14288.0	1.9607679609602043e+18
14289.0	1.959073403423945e+18
14290.0	1.9598230446669821e+18
14291.0	1.9593727643222016e+18
14292.0	1.958907097592627e+18
14293.0	1.958443076707942e+18
14294.0	1.957782535903641e+18
14295.0	1.95749245616128e+18
14296.0	1.956052159011226e+18
14297.0	1.956589256415641e+18
14298.0	1.9558172477882363e+18
14299.0	1.9556323729342461e+18
14300.0	1.9551825103421437e+18
14301.0	1.9547164191490043e+18
14302.0	1.9542644409499645e+18
14303.0	1.9537525194358781e+18
14304.0	1.9533201756127227e+18
14305.0	1.952870873379635e+18
14306.0	1.9522529450262525e+18
14307.0	1.9519145737453563e+18
14308.0	1.9514883871604733e+18
14309.0	1.9510165313159163e+18
14310.0	1.9498330346225656e+18
14311.0	1.9498395055947773e+18
14312.0	1.9495570695520253e+18
14313.0	1.9490890103914493e+18
14314.0	1.9487100902572032e+18
14315.0	1.9482536677736443e+18
14316.0	1.9477212344352765e+18
14317.0	1.947226028061491e+18
14318.0	1.946873379369779e+18
14319.0	1.946413287709081e+18
14320.0	1.9459521206288381e+18
14321.0	1.945484841608806e+18
14322.0	1.9449632815841277e+18
14323.0	1.9445496477122555e+18
14324.0	1.94410741539799e+18
14325.0	1.9436339220971515e+18
14326.0	1.9431896580620283e+18
14327.0	1.9427173005787133e+18
14328.0	1.9422571485200381e+18
14329.0	1.9418098612305915e+18
14330.0	1.941348642140979e+18
14331.0	1.940882544236953e+18
14332.0	1.9404286685347835e+18
14333.0	1.9399708753526784e+18
14334.0	1.9395123171295232e+18
14335.0	1.9390173523476477e+18
14336.0	1.938520042110976e+18
14337.0	1.9381202494423035e+18
14338.0	1.9376609580548093e+18
14339.0	1.9371860906999805e+18
14340.0	1.9367484402434045e+18
14341.0	1.9362831057027072e+18
14342.0	1.935825228634521e+18
14343.0	1.935339155777126e+18
14344.0	1.9348915631423483e+18
14345.0	1.9344560232595453e+18
14346.0	1.9339965859102717e+18
14347.0	1.9335102446174203e+18
14348.0	1.933080887138713e+18
14349.0	1.9326283586469883e+18
14350.0	1.9321343434555387e+18
14351.0	1.9316675962732541e+18
14352.0	1.9312436611907581e+18
14353.0	1.9307972245061627e+18
14354.0	1.9303360289046525e+18
14355.0	1.9298748819570683e+18
14356.0	1.9294225044602872e+18
14357.0	1.9289740125667328e+18
14358.0	1.9285177511444477e+18
14359.0	1.9280367164850173e+18
14360.0	1.9276019970080765e+18
14361.0	1.9271489819770875e+18
14362.0	1.9266926148583421e+18
14363.0	1.926237910361702e+18
14364.0	1.9256493840793592e+18
14365.0	1.9253110278979581e+18
14366.0	1.9248497819647997e+18
14367.0	1.9244151094640635e+18
14368.0	1.9239596248268797e+18
14369.0	1.9235075342204925e+18
14370.0	1.923052717316505e+18
14371.0	1.9225982762221563e+18
14372.0	1.9221333829222397e+18
14373.0	1.9216886659022845e+18
14374.0	1.9212322266415104e+18
14375.0	1.920777550666137e+18
14376.0	1.9203248393027581e+18
14377.0	1.9198723678535675e+18
14378.0	1.919415626602905e+18
14379.0	1.9189658277642237e+18
14380.0	1.918511794356224e+18
14381.0	1.918039863014195e+18
14382.0	1.9176024642158587e+18
14383.0	1.9171011626795003e+18
14384.0	1.916663268953292e+18
14385.0	1.9162464910311421e+18
14386.0	1.9157657533284352e+18
14387.0	1.9153382967083003e+18
14388.0	1.9148813507756032e+18
14389.0	1.9144352026591227e+18
14390.0	1.9139804327313405e+18
14391.0	1.9135274059563005e+18
14392.0	1.9130571456249853e+18
14393.0	1.912627533132595e+18
14394.0	1.912119158321971e+18
14395.0	1.9116621083705341e+18
14396.0	1.911269974500966e+18
14397.0	1.9108209860018173e+18
14398.0	1.9103530627366907e+18
14399.0	1.9099136171180032e+18
14400.0	1.9094146593587197e+18
14401.0	1.9089973143666688e+18
14402.0	1.9085488056958973e+18
14403.0	1.898386317482377e+18
14404.0	1.882977350556053e+18
14405.0	1.9054525604167608e+18
14406.0	1.9067491321905147e+18
14407.0	1.8911446536552525e+18
14408.0	1.90579337110487e+18
14409.0	1.9053743702015992e+18
14410.0	1.9049378689843192e+18
14411.0	1.9044990625775613e+18
14412.0	1.904045358002995e+18
14413.0	1.9036006376275963e+18
14414.0	1.9031502398423035e+18
14415.0	1.9027026891505661e+18
14416.0	1.9022433340096507e+18
14417.0	1.9017511995441147e+18
14418.0	1.9012722653921277e+18
14419.0	1.9009056815448061e+18
14420.0	1.9004498210979837e+18
14421.0	1.9000090299465725e+18
14422.0	1.8995530419929083e+18
14423.0	1.8990973895835643e+18
14424.0	1.8462774942236362e+18
14425.0	1.898206490892697e+18
14426.0	1.8977676022775808e+18
14427.0	1.8973210112425984e+18
14428.0	1.89682515223511e+18
14429.0	1.8964221735731192e+18
14430.0	1.895978959791718e+18
14431.0	1.8953277521526781e+18
14432.0	1.8950293106458621e+18
14433.0	1.8831502347337654e+18
14434.0	1.8941667436396536e+18
14435.0	1.8936988455403512e+18
14436.0	1.8932958568120317e+18
14437.0	1.8928479554764797e+18
14438.0	1.8920357016633344e+18
14439.0	1.8918684999286774e+18
14440.0	1.891508269613056e+18
14441.0	1.8910543821668347e+18
14442.0	1.8906024425553915e+18
14443.0	1.8901024563527677e+18
14444.0	1.889718471177011e+18
14445.0	1.8892781850198013e+18
14446.0	1.8767008111788083e+18
14447.0	1.888366172202598e+18
14448.0	1.8879427320479744e+18
14449.0	1.8874974831902715e+18
14450.0	1.8870426344095744e+18
14451.0	1.8866008315920381e+18
14452.0	1.8861521266278392e+18
14453.0	1.8854697620209661e+18
14454.0	1.8852681032400893e+18
14455.0	1.8848138852827136e+18
14456.0	1.8843281462919165e+18
14457.0	1.8838527571656704e+18
14458.0	1.8834589304750077e+18
14459.0	1.883004058206208e+18
14460.0	1.8825981485645821e+18
14461.0	1.882109265523507e+18
14462.0	1.8814927380676608e+18
14463.0	1.8812539580186621e+18
14464.0	1.8808238069776381e+18
14465.0	1.8803572795768827e+18
14466.0	1.8799321734447104e+18
14467.0	1.8793142031482877e+18
14468.0	1.8790328861458424e+18
14469.0	1.87857373233152e+18
14470.0	1.8781229369262075e+18
14471.0	1.8776959215468544e+18
14472.0	1.8772633193545725e+18
14473.0	1.876837087471206e+18
14474.0	1.876397277786931e+18
14475.0	1.8759417444958203e+18
14476.0	1.8747363753459715e+18
14477.0	1.8750690490843133e+18
14478.0	1.874618136238489e+18
14479.0	1.8741643746213883e+18
14480.0	1.8737097204563965e+18
14481.0	1.8732939961434107e+18
14482.0	1.8728459941445627e+18
14483.0	1.8723895582392323e+18
14484.0	1.8719571322077181e+18
14485.0	1.8714588287598587e+18
14486.0	1.8706492777562115e+18
14487.0	1.8706395620704253e+18
14488.0	1.870138591045222e+18
14489.0	1.8697369847595003e+18
14490.0	1.869300438243737e+18
14491.0	1.8688751072968696e+18
14492.0	1.8684360811085821e+18
14493.0	1.8679800814108664e+18
14494.0	1.867523982727577e+18
14495.0	1.867115127006822e+18
14496.0	1.866477678362624e+18
14497.0	1.8662308653826043e+18
14498.0	1.8657905087610877e+18
14499.0	1.8653555745357821e+18
14500.0	1.8649156574773243e+18
14501.0	1.8641041905156093e+18
14502.0	1.8633692863791107e+18
14503.0	1.8635484737568765e+18
14504.0	1.8631476576780283e+18
14505.0	1.8623712450314227e+18
14506.0	1.861478220667289e+18
14507.0	1.8614862468874237e+18
14508.0	1.8614005874556925e+18
14509.0	1.8609607878377464e+18
14510.0	1.860519902733926e+18
14511.0	1.8600850389729277e+18
14512.0	1.8596197832851453e+18
14513.0	1.859207702983475e+18
14514.0	1.8586621112745981e+18
14515.0	1.8583228810002427e+18
14516.0	1.8549273704529943e+18
14517.0	1.8574538765762555e+18
14518.0	1.857015524832051e+18
14519.0	1.856575673204736e+18
14520.0	1.8561392357408765e+18
14521.0	1.8556954230128637e+18
14522.0	1.8552577591345147e+18
14523.0	1.8539971040247798e+18
14524.0	1.8535173695995894e+18
14525.0	1.8539432609054717e+18
14526.0	1.853510193984307e+18
14527.0	1.8530167173414907e+18
14528.0	1.8524302110359552e+18
14529.0	1.8521867669209088e+18
14530.0	1.851734810532249e+18
14531.0	1.851324651221811e+18
14532.0	1.8496108938395643e+18
14533.0	1.85045288526807e+18
14534.0	1.8500184744919037e+18
14535.0	1.8495630217314304e+18
14536.0	1.8491382712762365e+18
14537.0	1.8486856706424827e+18
14538.0	1.84826995975127e+18
14539.0	1.847834337660108e+18
14540.0	1.8474001667981312e+18
14541.0	1.8469269687762941e+18
14542.0	1.8465220020142077e+18
14543.0	1.8455542267641853e+18
14544.0	1.84565297577984e+18
14545.0	1.845202799453798e+18
14546.0	1.7978921576300334e+18
14547.0	1.8020425808215793e+18
14548.0	1.8438922455482365e+18
14549.0	1.843301907326566e+18
14550.0	1.843029121538457e+18
14551.0	1.8426081644118008e+18
14552.0	1.8421625196118013e+18
14553.0	1.8417183428182016e+18
14554.0	1.841301898762649e+18
14555.0	1.8408651643420672e+18
14556.0	1.840410526954291e+18
14557.0	1.8399982872690683e+18
14558.0	1.8395627708743677e+18
14559.0	1.8368619159224256e+18
14560.0	1.8386175374917627e+18
14561.0	1.8382505744793592e+18
14562.0	1.8377849614368765e+18
14563.0	1.837388614808371e+18
14564.0	1.836931915500748e+18
14565.0	1.8365234238455805e+18
14566.0	1.8360892982820861e+18
14567.0	1.8356514683092987e+18
14568.0	1.8351461989613568e+18
14569.0	1.834775940903731e+18
14570.0	1.8336870375096317e+18
14571.0	1.8339042823241725e+18
14572.0	1.8333951055626235e+18
14573.0	1.832966602044211e+18
14574.0	1.832543683661004e+18
14575.0	1.8321661912678397e+18
14576.0	1.8317313644167165e+18
14577.0	1.831293913609011e+18
14578.0	1.830870918050611e+18
14579.0	1.8304400103571456e+18
14580.0	1.830008119518822e+18
14581.0	1.8295409428398075e+18
14582.0	1.8291388584034304e+18
14583.0	1.8287083885953021e+18
14584.0	1.8282549440675837e+18
14585.0	1.8278418487443453e+18
14586.0	1.8274039902502907e+18
14587.0	1.8269588705771517e+18
14588.0	1.8265373128261632e+18
14589.0	1.8261269941321723e+18
14590.0	1.8257133434830843e+18
14591.0	1.8252905190522877e+18
14592.0	1.8248712161591293e+18
14593.0	1.8242970327187456e+18
14594.0	1.8240491090870272e+18
14595.0	1.823625759529369e+18
14596.0	1.8230601475686397e+18
14597.0	1.8226917870141435e+18
14598.0	1.8223816568209405e+18
14599.0	1.8219798525640704e+18
14600.0	1.8215624220082168e+18
14601.0	1.8211483653505024e+18
14602.0	1.820699907011379e+18
14603.0	1.8203147390418936e+18
14604.0	1.8198367125372925e+18
14605.0	1.819460111014297e+18
14606.0	1.8189737680437243e+18
14607.0	1.8186591801442304e+18
14608.0	1.818239184352051e+18
14609.0	1.8177468888252413e+18
14610.0	1.8173594257326075e+18
14611.0	1.8169932143394813e+18
14612.0	1.816586930565939e+18
14613.0	1.8161763769909245e+18
14614.0	1.8157570237661181e+18
14615.0	1.815333286654771e+18
14616.0	1.8149331852853243e+18
14617.0	1.814517321721446e+18
14618.0	1.8140546195259387e+18
14619.0	1.8136222522146808e+18
14620.0	1.8129619932676093e+18
14621.0	1.8128544311803896e+18
14622.0	1.8124349286383616e+18
14623.0	1.8120243784187896e+18
14624.0	1.81152378823639e+18
14625.0	1.8111904182435837e+18
14626.0	1.8107550343888893e+18
14627.0	1.8103181540065275e+18
14628.0	1.80995202482176e+18
14629.0	1.809537196412108e+18
14630.0	1.8091197507567613e+18
14631.0	1.8086990738096125e+18
14632.0	1.8031436309200922e+18
14633.0	1.807343016738814e+18
14634.0	1.8074449165156347e+18
14635.0	1.8066884922441702e+18
14636.0	1.805378705057382e+18
14637.0	1.8062182101024765e+18
14638.0	1.805792917743206e+18
14639.0	1.8053713381818365e+18
14640.0	1.8049652020477952e+18
14641.0	1.7858733577076593e+18
14642.0	1.8041338255638525e+18
14643.0	1.8037252047241213e+18
14644.0	1.803288406550118e+18
14645.0	1.802852479113625e+18
14646.0	1.8024325135204347e+18
14647.0	1.8020201228402685e+18
14648.0	1.801638291859046e+18
