# Flux units: erg / (cm m2 s)
# Wavelength units: Angstrom
wave	flux
14000.0	2.2347522462711805e+18
14001.0	2.2342304698204152e+18
14002.0	2.233753446593331e+18
14003.0	2.2332514974564347e+18
14004.0	2.232749397324595e+18
14005.0	2.2322472888041467e+18
14006.0	2.2317422040055805e+18
14007.0	2.2312390083215355e+18
14008.0	2.2306951815757814e+18
14009.0	2.230239626474291e+18
14010.0	2.2297319495958523e+18
14011.0	2.228981132269977e+18
14012.0	2.2287358711824376e+18
14013.0	2.2282350159200253e+18
14014.0	2.227731296786841e+18
14015.0	2.2272321796440061e+18
14016.0	2.2267326346821627e+18
14017.0	2.2262321166417915e+18
14018.0	2.2257314761277437e+18
14019.0	2.225231458048409e+18
14020.0	2.224730961818419e+18
14021.0	2.2242306081947643e+18
14022.0	2.2237032214429693e+18
14023.0	2.2231553128005627e+18
14024.0	2.2226543635857405e+18
14025.0	2.2221636971266043e+18
14026.0	2.2216635716730877e+18
14027.0	2.2211651591733243e+18
14028.0	2.220665921234534e+18
14029.0	2.2201664249266173e+18
14030.0	2.2192470167126013e+18
14031.0	2.2191535760080893e+18
14032.0	2.2186690248441853e+18
14033.0	2.2181481996615675e+18
14034.0	2.2176719481864187e+18
14035.0	2.2171747470016504e+18
14036.0	2.216676696889753e+18
14037.0	2.2161786937540605e+18
14038.0	2.2156807946371067e+18
14039.0	2.2151830146383864e+18
14040.0	2.2146012999057403e+18
14041.0	2.2140510323867643e+18
14042.0	2.2135502224228347e+18
14043.0	2.2130410255286267e+18
14044.0	2.2125561874743296e+18
14045.0	2.2120622125481981e+18
14046.0	2.2115639543988221e+18
14047.0	2.2110652063547387e+18
14048.0	2.2105718521855995e+18
14049.0	2.2100762398031872e+18
14050.0	2.2095797801713661e+18
14051.0	2.2090793376284664e+18
14052.0	2.2085871494758395e+18
14053.0	2.2080909868007421e+18
14054.0	2.2075951110160381e+18
14055.0	2.2070992654303227e+18
14056.0	2.206603540640563e+18
14057.0	2.2061079685234683e+18
14058.0	2.2056125037805565e+18
14059.0	2.2051171833217021e+18
14060.0	2.2045560240340987e+18
14061.0	2.2040573498097661e+18
14062.0	2.2035650156953595e+18
14063.0	2.2030625598865405e+18
14064.0	2.2025154414510077e+18
14065.0	2.2020768464371712e+18
14066.0	2.2015858058461184e+18
14067.0	2.2010829490618365e+18
14068.0	2.2005970775310333e+18
14069.0	2.200101622854451e+18
14070.0	2.1996084851113981e+18
14071.0	2.1991136579026944e+18
14072.0	2.1986210335424504e+18
14073.0	2.1981273421512701e+18
14074.0	2.1976337967218683e+18
14075.0	2.1971316093485056e+18
14076.0	2.1966374515507192e+18
14077.0	2.196056661242675e+18
14078.0	2.1956532832829437e+18
14079.0	2.1951647877955581e+18
14080.0	2.1946751632015352e+18
14081.0	2.1941825086423037e+18
14082.0	2.1936571099906043e+18
14083.0	2.1931311677571064e+18
14084.0	2.1926392530731005e+18
14085.0	2.1919865757499387e+18
14086.0	2.191646627410739e+18
14087.0	2.1911628211552253e+18
14088.0	2.1906645781053432e+18
14089.0	2.1901713027891195e+18
14090.0	2.1896857802244093e+18
14091.0	2.1891958838394875e+18
14092.0	2.1887045244813304e+18
14093.0	2.188213222165708e+18
14094.0	2.187722020513382e+18
14095.0	2.1872308171833336e+18
14096.0	2.1867185970348027e+18
14097.0	2.1862368996753405e+18
14098.0	2.1857487430877176e+18
14099.0	2.1852679315652605e+18
14100.0	2.1847727017033728e+18
14101.0	2.1842874777731072e+18
14102.0	2.183797170346393e+18
14103.0	2.183301542864486e+18
14104.0	2.1828174144864248e+18
14105.0	2.1823270198181883e+18
14106.0	2.1818379220287485e+18
14107.0	2.1813111711334392e+18
14108.0	2.1807885675659261e+18
14109.0	2.1803025232297984e+18
14110.0	2.179809789817651e+18
14111.0	2.1793150146183165e+18
14112.0	2.1788333441024e+18
14113.0	2.1783482896220152e+18
14114.0	2.177852885277081e+18
14115.0	2.1773699011051517e+18
14116.0	2.1768538406518784e+18
14117.0	2.1756953755648e+18
14118.0	2.175904555571609e+18
14119.0	2.1754021249286144e+18
14120.0	2.1749179780956155e+18
14121.0	2.1744314925187067e+18
14122.0	2.1739419518107643e+18
14123.0	2.1734481211686912e+18
14124.0	2.1729597062119424e+18
14125.0	2.1722783851479032e+18
14126.0	2.1719990176579581e+18
14127.0	2.1715162415235072e+18
14128.0	2.1710286738161664e+18
14129.0	2.1705366131703803e+18
14130.0	2.170045112883609e+18
14131.0	2.1695689218064384e+18
14132.0	2.169079533771161e+18
14133.0	2.168348206537113e+18
14134.0	2.1680984575442936e+18
14135.0	2.1675501714145275e+18
14136.0	2.1670417345282045e+18
14137.0	2.1665858388492283e+18
14138.0	2.1660926440636408e+18
14139.0	2.1656156409692152e+18
14140.0	2.165121026831155e+18
14141.0	2.1646387892453373e+18
14142.0	2.1640962677669883e+18
14143.0	2.163665282898329e+18
14144.0	2.1631885281067005e+18
14145.0	2.1627034987921403e+18
14146.0	2.1622177061142528e+18
14147.0	2.161732552648294e+18
14148.0	2.1612456509964283e+18
14149.0	2.1607602894929917e+18
14150.0	2.1602797078183933e+18
14151.0	2.1597884625453048e+18
14152.0	2.1593111020961787e+18
14153.0	2.1588268462112765e+18
14154.0	2.158330465432371e+18
14155.0	2.1578153797353467e+18
14156.0	2.15736927691735e+18
14157.0	2.1568914584502267e+18
14158.0	2.1564059358855165e+18
14159.0	2.155924481795686e+18
14160.0	2.1554385096015867e+18
14161.0	2.1549301364686843e+18
14162.0	2.154425731147366e+18
14163.0	2.1539908388651003e+18
14164.0	2.1534803853574144e+18
14165.0	2.1529329380884477e+18
14166.0	2.1525076289519616e+18
14167.0	2.1519924560134136e+18
14168.0	2.151513536960921e+18
14169.0	2.151034681661849e+18
14170.0	2.150549489608294e+18
14171.0	2.150069149525606e+18
14172.0	2.1495882776051704e+18
14173.0	2.149060258352332e+18
14174.0	2.1486216633384957e+18
14175.0	2.1481429724561405e+18
14176.0	2.1476608103677952e+18
14177.0	2.1471797421539325e+18
14178.0	2.146697335118233e+18
14179.0	2.1462081584758781e+18
14180.0	2.1457364804698104e+18
14181.0	2.1452555347296253e+18
14182.0	2.1447743541084155e+18
14183.0	2.1442939603386363e+18
14184.0	2.1438109644226555e+18
14185.0	2.1433325956628475e+18
14186.0	2.1427100133097467e+18
14187.0	2.14228380155904e+18
14188.0	2.1418054546096125e+18
14189.0	2.141323821003571e+18
14190.0	2.1408449556381693e+18
14191.0	2.140364716218777e+18
14192.0	2.1398827621679101e+18
14193.0	2.1393843010142203e+18
14194.0	2.1389261991313403e+18
14195.0	2.138448583668531e+18
14196.0	2.1379693055836155e+18
14197.0	2.1374902607020024e+18
14198.0	2.1370092193316861e+18
14199.0	2.1365306928660477e+18
14200.0	2.1359753384951803e+18
14201.0	2.1355718883934205e+18
14202.0	2.1350766400765947e+18
14203.0	2.1345466612449277e+18
14204.0	2.1340774159351803e+18
14205.0	2.1335992854118395e+18
14206.0	2.133064639158681e+18
14207.0	2.1326442809786368e+18
14208.0	2.1321665346535421e+18
14209.0	2.1316290446622715e+18
14210.0	2.131168743286374e+18
14211.0	2.130733156427366e+18
14212.0	2.1302555610972155e+18
14213.0	2.129777034631577e+18
14214.0	2.1293010767577088e+18
14215.0	2.1288191881379837e+18
14216.0	2.1283474245681152e+18
14217.0	2.12787052717015e+18
14218.0	2.1273879087415293e+18
14219.0	2.1269170561744893e+18
14220.0	2.1264405899509755e+18
14221.0	2.125961805116211e+18
14222.0	2.1254709608185853e+18
14223.0	2.1250113372422144e+18
14224.0	2.1245354347331581e+18
14225.0	2.1238370931834877e+18
14226.0	2.1235827589775357e+18
14227.0	2.123107935243468e+18
14228.0	2.1221429483667453e+18
14229.0	2.1220657748508662e+18
14230.0	2.1216814893629437e+18
14231.0	2.1211932539224061e+18
14232.0	2.1207310214889467e+18
14233.0	2.120253087259033e+18
14234.0	2.1197810955190267e+18
14235.0	2.119305169521868e+18
14236.0	2.1188313171886077e+18
14237.0	2.1183563240046587e+18
14238.0	2.1178822200131581e+18
14239.0	2.1174048260095995e+18
14240.0	2.11630074930135e+18
14241.0	2.116457045845606e+18
14242.0	2.115984428315443e+18
14243.0	2.1153839734325243e+18
14244.0	2.11497836913623e+18
14245.0	2.1144974233960445e+18
14246.0	2.1140184674336765e+18
14247.0	2.11355465458647e+18
14248.0	2.113077409900134e+18
14249.0	2.1126092098109437e+18
14250.0	2.1121357701971965e+18
14251.0	2.1116637549690875e+18
14252.0	2.1111906156675067e+18
14253.0	2.1107172683284475e+18
14254.0	2.11024362906583e+18
14255.0	2.1097581132120061e+18
14256.0	2.1090611759153152e+18
14257.0	2.1088175959048187e+18
14258.0	2.1083542242983933e+18
14259.0	2.107874607313715e+18
14260.0	2.1074030954020861e+18
14261.0	2.1069274579730427e+18
14262.0	2.106479551604326e+18
14263.0	2.1056592665378816e+18
14264.0	2.105470083294822e+18
14265.0	2.105061093356339e+18
14266.0	2.1045931315036155e+18
14267.0	2.1041216900562944e+18
14268.0	2.1036504432246781e+18
14269.0	2.103178089096806e+18
14270.0	2.1027080552579067e+18
14271.0	2.1022355232915453e+18
14272.0	2.1017657880870904e+18
14273.0	2.1012937879584765e+18
14274.0	2.1003000029904896e+18
14275.0	2.1003048851603453e+18
14276.0	2.0998700650201088e+18
14277.0	2.0994030041038843e+18
14278.0	2.09894249636823e+18
14279.0	2.0984719105589243e+18
14280.0	2.0979989373517821e+18
14281.0	2.0975323109654525e+18
14282.0	2.0970625774387197e+18
14283.0	2.0965928153907197e+18
14284.0	2.0961230617313275e+18
14285.0	2.0956534087352315e+18
14286.0	2.0951833044320253e+18
14287.0	2.0947146698129403e+18
14288.0	2.094245270152806e+18
14289.0	2.0933702611632115e+18
14290.0	2.0933051823423483e+18
14291.0	2.0928281289162747e+18
14292.0	2.0923121473159165e+18
14293.0	2.0918422711828477e+18
14294.0	2.091311156533657e+18
14295.0	2.0908992356155387e+18
14296.0	2.0901077335408637e+18
14297.0	2.0899682779660288e+18
14298.0	2.089379099049984e+18
14299.0	2.0890240059179003e+18
14300.0	2.088560070597017e+18
14301.0	2.0880928536526843e+18
14302.0	2.0876266886397947e+18
14303.0	2.0871426760245243e+18
14304.0	2.0866860354371581e+18
14305.0	2.086222195746406e+18
14306.0	2.085731517543219e+18
14307.0	2.0852783028633597e+18
14308.0	2.0848179343785984e+18
14309.0	2.0843456825917437e+18
14310.0	2.0837718380511227e+18
14311.0	2.0833503708971003e+18
14312.0	2.0829163929731072e+18
14313.0	2.0824532663140347e+18
14314.0	2.082013418042163e+18
14315.0	2.0815513265373176e+18
14316.0	2.0810617388531704e+18
14317.0	2.0806053717344253e+18
14318.0	2.0801538196766717e+18
14319.0	2.079688194890137e+18
14320.0	2.0792220063891448e+18
14321.0	2.0787563614699515e+18
14322.0	2.0782713992642555e+18
14323.0	2.0778161327308797e+18
14324.0	2.0773591616323581e+18
14325.0	2.0768884835483645e+18
14326.0	2.0763989042528253e+18
14327.0	2.0759063050584061e+18
14328.0	2.075441445312921e+18
14329.0	2.0749791357042683e+18
14330.0	2.0745140259782653e+18
14331.0	2.074048832366182e+18
14332.0	2.0735840548290555e+18
14333.0	2.07311925715927e+18
14334.0	2.0726545232429053e+18
14335.0	2.0721834156621814e+18
14336.0	2.071697498832896e+18
14337.0	2.0712606134173693e+18
14338.0	2.0707955724779517e+18
14339.0	2.0703264563527675e+18
14340.0	2.0698678461202427e+18
14341.0	2.069402085438259e+18
14342.0	2.068939985544806e+18
14343.0	2.0684721277108221e+18
14344.0	2.0680097979695101e+18
14345.0	2.067548494993817e+18
14346.0	2.067082886984499e+18
14347.0	2.0665696115490816e+18
14348.0	2.0661013980381181e+18
14349.0	2.065638826704896e+18
14350.0	2.0651566159626235e+18
14351.0	2.0646893671415805e+18
14352.0	2.0641892869865464e+18
14353.0	2.0637044808089597e+18
14354.0	2.0632393022963707e+18
14355.0	2.0627720031436797e+18
14356.0	2.0623110675890173e+18
14357.0	2.0618537408135165e+18
14358.0	2.0613910772056061e+18
14359.0	2.060920731310489e+18
14360.0	2.0604642819833853e+18
14361.0	2.0600031316803581e+18
14362.0	2.0595415854350333e+18
14363.0	2.0590792305278979e+18
14364.0	2.0585531171667963e+18
14365.0	2.0581431575052288e+18
14366.0	2.057683215161753e+18
14367.0	2.0572317688004605e+18
14368.0	2.05676982829056e+18
14369.0	2.056308449817395e+18
14370.0	2.055846970680934e+18
14371.0	2.0553856240844797e+18
14372.0	2.0549217676165115e+18
14373.0	2.0544628352614397e+18
14374.0	2.0540017839439867e+18
14375.0	2.0535407041052667e+18
14376.0	2.0530796913754107e+18
14377.0	2.052618484029849e+18
14378.0	2.0521566995480573e+18
14379.0	2.0516971749572603e+18
14380.0	2.051236026331955e+18
14381.0	2.0507701532426235e+18
14382.0	2.0503146535059448e+18
14383.0	2.0498486159998973e+18
14384.0	2.0493847125557243e+18
14385.0	2.048934506030694e+18
14386.0	2.0484669602529277e+18
14387.0	2.0480142019133435e+18
14388.0	2.0475532529369083e+18
14389.0	2.0470942903828477e+18
14390.0	2.0466337188937725e+18
14391.0	2.0461747647283197e+18
14392.0	2.0457137150885888e+18
14393.0	2.045255838020403e+18
14394.0	2.0447782695337981e+18
14395.0	2.044327083219353e+18
14396.0	2.0438773917548544e+18
14397.0	2.0434185214754808e+18
14398.0	2.0429582251327483e+18
14399.0	2.0424998866911227e+18
14400.0	2.0420314131333112e+18
14401.0	2.04157913965527e+18
14402.0	2.0411223010967547e+18
14403.0	2.0391460239048678e+18
14404.0	2.0360667118698483e+18
14405.0	2.0390906876133356e+18
14406.0	2.0392878802993147e+18
14407.0	2.036684809673114e+18
14408.0	2.038353414533939e+18
14409.0	2.0379056910368765e+18
14410.0	2.0374508540002301e+18
14411.0	2.0369617226563581e+18
14412.0	2.03648490578903e+18
14413.0	2.0360282400358397e+18
14414.0	2.0355688513404928e+18
14415.0	2.0351113282715645e+18
14416.0	2.0346510436728827e+18
14417.0	2.0341841119412221e+18
14418.0	2.0337207319461883e+18
14419.0	2.0332793183600637e+18
14420.0	2.0328199816740856e+18
14421.0	2.0323641799475197e+18
14422.0	2.0319059270696955e+18
14423.0	2.0314389802385405e+18
14424.0	2.0222613414477775e+18
14425.0	2.030525791338496e+18
14426.0	2.030076822972006e+18
14427.0	2.0296204977963003e+18
14428.0	2.02915225576407e+18
14429.0	2.0287043108077565e+18
14430.0	2.0282496012779512e+18
14431.0	2.0276890442924027e+18
14432.0	2.0273279499501568e+18
14433.0	2.0252703099715574e+18
14434.0	2.0264149455994872e+18
14435.0	2.0259473494900736e+18
14436.0	2.0255089776132093e+18
14437.0	2.025052637338009e+18
14438.0	2.0245424908533755e+18
14439.0	2.024126175982387e+18
14440.0	2.0236832574799864e+18
14441.0	2.023224727778099e+18
14442.0	2.0227667685015552e+18
14443.0	2.0222931023953917e+18
14444.0	2.0218570390634493e+18
14445.0	2.021402683532902e+18
14446.0	2.0190733617070083e+18
14447.0	2.0204822300983293e+18
14448.0	2.0200358135463933e+18
14449.0	2.0195802618003448e+18
14450.0	2.0191217891409915e+18
14451.0	2.018668212073267e+18
14452.0	2.0182109675061243e+18
14453.0	2.017726592502988e+18
14454.0	2.01730201485312e+18
14455.0	2.0168443793768443e+18
14456.0	2.0163839991480317e+18
14457.0	2.0159250382716925e+18
14458.0	2.015476311497113e+18
14459.0	2.0150193991188475e+18
14460.0	2.0145636259135483e+18
14461.0	2.0140866848948221e+18
14462.0	2.0135928576081917e+18
14463.0	2.0131910365741053e+18
14464.0	2.0127457407401984e+18
14465.0	2.0122840401444864e+18
14466.0	2.011839272792883e+18
14467.0	2.0113559681761275e+18
14468.0	2.0109270653599736e+18
14469.0	2.0104594675728376e+18
14470.0	2.0100074541416443e+18
14471.0	2.009560389989171e+18
14472.0	2.0091078010994688e+18
14473.0	2.0086579485736955e+18
14474.0	2.008203708805939e+18
14475.0	2.0077468652142587e+18
14476.0	2.007190992427417e+18
14477.0	2.0068397983203325e+18
14478.0	2.0063855820406781e+18
14479.0	2.0059305671655421e+18
14480.0	2.005468885024768e+18
14481.0	2.0050232771346427e+18
14482.0	2.0045673277685752e+18
14483.0	2.0041097963110392e+18
14484.0	2.003656044760268e+18
14485.0	2.0031878799032315e+18
14486.0	2.0026115540123643e+18
14487.0	2.0022973452779517e+18
14488.0	2.0018237160816635e+18
14489.0	2.0013301924626432e+18
14490.0	2.0008848060317693e+18
14491.0	2.0004322439856125e+18
14492.0	1.999979173589811e+18
14493.0	1.999524920400281e+18
14494.0	1.9990610169561083e+18
14495.0	1.9986175984926715e+18
14496.0	1.998099605304115e+18
14497.0	1.9977097917235197e+18
14498.0	1.9972563371294717e+18
14499.0	1.9968031258050555e+18
14500.0	1.996349273590988e+18
14501.0	1.9958440747073528e+18
14502.0	1.9952988437086205e+18
14503.0	1.9949753269747712e+18
14504.0	1.994532222245273e+18
14505.0	1.9940316236742653e+18
14506.0	1.9935236045406205e+18
14507.0	1.9930583404642301e+18
14508.0	1.9927208063664128e+18
14509.0	1.9922673198956536e+18
14510.0	1.991813749538816e+18
14511.0	1.9913601120731133e+18
14512.0	1.9908986698465277e+18
14513.0	1.9904529143169021e+18
14514.0	1.98998006693888e+18
14515.0	1.989545394438143e+18
14516.0	1.9880849881169928e+18
14517.0	1.9886380305874936e+18
14518.0	1.9881851615182843e+18
14519.0	1.9877317773885437e+18
14520.0	1.9872782556856312e+18
14521.0	1.9868242189221883e+18
14522.0	1.9863693500088317e+18
14523.0	1.985796572499148e+18
14524.0	1.9853463659741181e+18
14525.0	1.9850075333197821e+18
14526.0	1.9845567328813048e+18
14527.0	1.9840910778957821e+18
14528.0	1.983589895477657e+18
14529.0	1.983190309168742e+18
14530.0	1.982734757422694e+18
14531.0	1.9822876043509755e+18
14532.0	1.9816793782616061e+18
14533.0	1.9813802405003261e+18
14534.0	1.9809279250792443e+18
14535.0	1.9804687075115005e+18
14536.0	1.9800205998161915e+18
14537.0	1.9795610467041277e+18
14538.0	1.9791134272258043e+18
14539.0	1.9786599810203645e+18
14540.0	1.978206318388838e+18
14541.0	1.9777420072583163e+18
14542.0	1.977298738112102e+18
14543.0	1.9767692189761533e+18
14544.0	1.9763907199500283e+18
14545.0	1.9759328730808315e+18
14546.0	1.966003153639828e+18
14547.0	1.96649415228784e+18
14548.0	1.974568521354444e+18
14549.0	1.974065075689881e+18
14550.0	1.9736653836845056e+18
14551.0	1.9732149120794624e+18
14552.0	1.972760033099776e+18
14553.0	1.9723037918101501e+18
14554.0	1.9718532648402941e+18
14555.0	1.9713987583148027e+18
14556.0	1.970942065718067e+18
14557.0	1.9704906612998136e+18
14558.0	1.970035683334553e+18
14559.0	1.9688334532018163e+18
14560.0	1.969117352217805e+18
14561.0	1.968669835080499e+18
14562.0	1.9682052706140155e+18
14563.0	1.9677632748584952e+18
14564.0	1.9672994435563515e+18
14565.0	1.9668551610662912e+18
14566.0	1.9664004481810427e+18
14567.0	1.965944567601561e+18
14568.0	1.9654718527635448e+18
14569.0	1.965035032779161e+18
14570.0	1.96436489708503e+18
14571.0	1.964124006462259e+18
14572.0	1.9636461510852605e+18
14573.0	1.9631925371076605e+18
14574.0	1.962734851299737e+18
14575.0	1.9623007307694075e+18
14576.0	1.961845123658547e+18
14577.0	1.9613912127242237e+18
14578.0	1.9609384577400832e+18
14579.0	1.960455643018035e+18
14580.0	1.9599821262290936e+18
14581.0	1.9595224422547453e+18
14582.0	1.9590702476296187e+18
14583.0	1.958614870366617e+18
14584.0	1.9581508528373755e+18
14585.0	1.9577027199762427e+18
14586.0	1.957245002291609e+18
14587.0	1.9567882979508221e+18
14588.0	1.9563343601729533e+18
14589.0	1.9558903645732861e+18
14590.0	1.9554468991336443e+18
14591.0	1.9550019774316541e+18
14592.0	1.954556228612915e+18
14593.0	1.954059393171456e+18
14594.0	1.953670985521561e+18
14595.0	1.9532238609711101e+18
14596.0	1.952723232201113e+18
14597.0	1.9522756630544381e+18
14598.0	1.9518873141247997e+18
14599.0	1.9514483298795517e+18
14600.0	1.9510018160197627e+18
14601.0	1.950557442932736e+18
14602.0	1.95010819606446e+18
14603.0	1.949666458678067e+18
14604.0	1.9491982669774845e+18
14605.0	1.9487640021630973e+18
14606.0	1.9483002581024763e+18
14607.0	1.9478807773708283e+18
14608.0	1.947437038462566e+18
14609.0	1.9469807334195197e+18
14610.0	1.9465280505774077e+18
14611.0	1.9460924670738427e+18
14612.0	1.9456510434213888e+18
14613.0	1.9452049557028861e+18
14614.0	1.9447563530797053e+18
14615.0	1.9443091614203901e+18
14616.0	1.943862957939097e+18
14617.0	1.9434149928501243e+18
14618.0	1.9429584814473208e+18
14619.0	1.9424784165109755e+18
14620.0	1.9419212250349565e+18
14621.0	1.9416219329232893e+18
14622.0	1.941133969273651e+18
14623.0	1.9406052722212861e+18
14624.0	1.9401278614405115e+18
14625.0	1.9397051594833923e+18
14626.0	1.9392541526851584e+18
14627.0	1.9388002451062781e+18
14628.0	1.9383568870408187e+18
14629.0	1.9379062375972861e+18
14630.0	1.9374540110954493e+18
14631.0	1.937003499225088e+18
14632.0	1.935861532852224e+18
14633.0	1.9360084660322296e+18
14634.0	1.935645494319513e+18
14635.0	1.9351404967624696e+18
14636.0	1.934599961706496e+18
14637.0	1.9342918296797181e+18
14638.0	1.9338357192523773e+18
14639.0	1.9333785417940984e+18
14640.0	1.9329287446331387e+18
14641.0	1.9297742035615724e+18
14642.0	1.9320201577234427e+18
14643.0	1.9315686509641725e+18
14644.0	1.9311078496272384e+18
14645.0	1.9306474274553853e+18
14646.0	1.9301913421938683e+18
14647.0	1.929731921621811e+18
