# Flux units: erg / (cm m2 s)
# Wavelength units: Angstrom
wave	flux
14000.0	1.8238580803502077e+18
14001.0	1.8234112158466043e+18
14002.0	1.8229696747536381e+18
14003.0	1.8225259828215805e+18
14004.0	1.8220824402067453e+18
14005.0	1.8216388271276032e+18
14006.0	1.8211949103808507e+18
14007.0	1.82075167646679e+18
14008.0	1.820303073843609e+18
14009.0	1.819864334545715e+18
14010.0	1.8194190034796544e+18
14011.0	1.8189456964059133e+18
14012.0	1.818534166396928e+18
14013.0	1.8180916807467003e+18
14014.0	1.8176492403949565e+18
14015.0	1.817206798365491e+18
14016.0	1.8167647740887035e+18
14017.0	1.8163227414233085e+18
14018.0	1.8158804856209403e+18
14019.0	1.815439073712537e+18
14020.0	1.8149973833023485e+18
14021.0	1.8145558522757115e+18
14022.0	1.814114056169062e+18
14023.0	1.8136678895976443e+18
14024.0	1.813229809644339e+18
14025.0	1.8127911609434107e+18
14026.0	1.8123503110717437e+18
14027.0	1.8119097044697088e+18
14028.0	1.8114691549102077e+18
14029.0	1.8110283637587965e+18
14030.0	1.810376105866035e+18
14031.0	1.8101463720919035e+18
14032.0	1.8097053796139005e+18
14033.0	1.8092600502255613e+18
14034.0	1.80882555053015e+18
14035.0	1.8083860814233592e+18
14036.0	1.8079465603071997e+18
14037.0	1.8075055309193213e+18
14038.0	1.8070679509270525e+18
14039.0	1.8066288408526845e+18
14040.0	1.8061890613673981e+18
14041.0	1.805750776732057e+18
14042.0	1.8053117572546555e+18
14043.0	1.8048715935711232e+18
14044.0	1.804434736676864e+18
14045.0	1.8039969603911677e+18
14046.0	1.8035587831300093e+18
14047.0	1.8031199029035003e+18
14048.0	1.8026823363330048e+18
14049.0	1.8022450247761915e+18
14050.0	1.8018072703008763e+18
14051.0	1.8013691584708603e+18
14052.0	1.8009322546003965e+18
14053.0	1.800494886001049e+18
14054.0	1.800057883145011e+18
14055.0	1.7996204742803453e+18
14056.0	1.799183496590131e+18
14057.0	1.7987444385251323e+18
14058.0	1.798307900397977e+18
14059.0	1.7978714159579133e+18
14060.0	1.7974350892236795e+18
14061.0	1.7969984890208253e+18
14062.0	1.79656278975447e+18
14063.0	1.7961259664146427e+18
14064.0	1.7956628397555707e+18
14065.0	1.7952549168480256e+18
14066.0	1.7948196957323261e+18
14067.0	1.7943774969724925e+18
14068.0	1.7939490924396541e+18
14069.0	1.7935133126426621e+18
14070.0	1.793078819658137e+18
14071.0	1.7926438686556155e+18
14072.0	1.7922092397756413e+18
14073.0	1.7917746041847803e+18
14074.0	1.7913401078448125e+18
14075.0	1.7909045042085885e+18
14076.0	1.79046373654528e+18
14077.0	1.7899849785540605e+18
14078.0	1.7895995354382333e+18
14079.0	1.7891691847483387e+18
14080.0	1.7887358426808315e+18
14081.0	1.788302230500147e+18
14082.0	1.7878668583895037e+18
14083.0	1.7874353551048696e+18
14084.0	1.786999761534976e+18
14085.0	1.786517955123609e+18
14086.0	1.7861296280043512e+18
14087.0	1.7857006933114877e+18
14088.0	1.7852667707523072e+18
14089.0	1.7848287528747003e+18
14090.0	1.7844021166604285e+18
14091.0	1.7839707492712443e+18
14092.0	1.7835385899974656e+18
14093.0	1.7831065330647035e+18
14094.0	1.7826746690699261e+18
14095.0	1.7822429090938877e+18
14096.0	1.7818004284768253e+18
14097.0	1.7813754750173181e+18
14098.0	1.7809429147680765e+18
14099.0	1.7805170536611835e+18
14100.0	1.780085429580595e+18
14101.0	1.7796550335922176e+18
14102.0	1.7792240755671037e+18
14103.0	1.778792726632857e+18
14104.0	1.7783628322832381e+18
14105.0	1.777931486704435e+18
14106.0	1.7775020101074941e+18
14107.0	1.7770691629678587e+18
14108.0	1.7766410235150339e+18
14109.0	1.7762114579988477e+18
14110.0	1.7757798171410427e+18
14111.0	1.7753483289559037e+18
14112.0	1.7749225785786365e+18
14113.0	1.7744896727187453e+18
14114.0	1.774061551720857e+18
14115.0	1.7736328854634493e+18
14116.0	1.7731843046506493e+18
14117.0	1.7724416444071933e+18
14118.0	1.77234496234455e+18
14119.0	1.771910994486886e+18
14120.0	1.7714823684947965e+18
14121.0	1.771058535753318e+18
14122.0	1.7706255090974717e+18
14123.0	1.7701914741309435e+18
14124.0	1.7697609539911677e+18
14125.0	1.7693220603428861e+18
14126.0	1.7689161976774653e+18
14127.0	1.7684918062546941e+18
14128.0	1.7680642288386043e+18
14129.0	1.76763627896832e+18
14130.0	1.767208772016537e+18
14131.0	1.7667825334222843e+18
14132.0	1.7663555297869821e+18
14133.0	1.7658994126487547e+18
14134.0	1.7655018547052541e+18
14135.0	1.7650732220022784e+18
14136.0	1.7646197573419003e+18
14137.0	1.7642221121568768e+18
14138.0	1.7637910098477056e+18
14139.0	1.7633700678205437e+18
14140.0	1.7629407673843712e+18
14141.0	1.7625179362426875e+18
14142.0	1.762059089451417e+18
14143.0	1.761657161043148e+18
14144.0	1.7612414853840893e+18
14145.0	1.7608161561149437e+18
14146.0	1.7603904527138813e+18
14147.0	1.7599654556336125e+18
14148.0	1.7595387707654141e+18
14149.0	1.7591126563225597e+18
14150.0	1.7586912680214525e+18
14151.0	1.7582611790561277e+18
14152.0	1.7578396515041277e+18
14153.0	1.7574153137684477e+18
14154.0	1.7569896606990333e+18
14155.0	1.7563328628916224e+18
14156.0	1.7561348347002877e+18
14157.0	1.7557188151083003e+18
14158.0	1.7552931469393915e+18
14159.0	1.754871860979302e+18
14160.0	1.7544485047107581e+18
14161.0	1.7540217628000253e+18
14162.0	1.7535962976354304e+18
14163.0	1.7531789358661632e+18
14164.0	1.7527436476415997e+18
14165.0	1.7522991722135547e+18
14166.0	1.7519103401000957e+18
14167.0	1.7514872354897915e+18
14168.0	1.7510627920576507e+18
14169.0	1.750643294548787e+18
14170.0	1.7502193577885693e+18
14171.0	1.7497973017542653e+18
14172.0	1.7493771885215741e+18
14173.0	1.74894028465111e+18
14174.0	1.7485327056764923e+18
14175.0	1.748112178046566e+18
14176.0	1.7476870635257853e+18
14177.0	1.7472684703088637e+18
14178.0	1.74684791415767e+18
14179.0	1.7464239723642877e+18
14180.0	1.746006348870451e+18
14181.0	1.7455855628713984e+18
14182.0	1.7451648557252603e+18
14183.0	1.7447443666829307e+18
14184.0	1.744323671280844e+18
14185.0	1.7439036620668928e+18
14186.0	1.743419157879193e+18
14187.0	1.7430621404004352e+18
14188.0	1.7426434968518653e+18
14189.0	1.7422228249378808e+18
14190.0	1.7418036109639677e+18
14191.0	1.7413835816173565e+18
14192.0	1.740962032254976e+18
14193.0	1.740532287222579e+18
14194.0	1.7401233845256184e+18
14195.0	1.7397050245119995e+18
14196.0	1.7392861007839232e+18
14197.0	1.738867314629017e+18
14198.0	1.7384483825123325e+18
14199.0	1.7380293916753915e+18
14200.0	1.7375735765270525e+18
14201.0	1.7371929082068984e+18
14202.0	1.7367752545140733e+18
14203.0	1.736353584355737e+18
14204.0	1.735939091490406e+18
14205.0	1.7355213404897277e+18
14206.0	1.7350973752082432e+18
14207.0	1.7346862696628221e+18
14208.0	1.7342688894386168e+18
14209.0	1.7338441071067133e+18
14210.0	1.733429963207475e+18
14211.0	1.73301733261312e+18
14212.0	1.7326003919519741e+18
14213.0	1.732182224876339e+18
14214.0	1.731766943481856e+18
14215.0	1.7313493032108032e+18
14216.0	1.7309339983282176e+18
14217.0	1.7305176801017853e+18
14218.0	1.7301008652697597e+18
14219.0	1.7296854781788157e+18
14220.0	1.7292692857815037e+18
14221.0	1.728852199158579e+18
14222.0	1.728426804458291e+18
14223.0	1.7280210911100923e+18
14224.0	1.7276070696845312e+18
14225.0	1.727087234357657e+18
14226.0	1.7267765605826557e+18
14227.0	1.7263615392350203e+18
14228.0	1.7257049595314176e+18
14229.0	1.725503913118924e+18
14230.0	1.725117092593664e+18
14231.0	1.724691246586265e+18
14232.0	1.7242880733085693e+18
14233.0	1.723873325429555e+18
14234.0	1.7234595606953981e+18
14235.0	1.723045324521472e+18
14236.0	1.722631235987046e+18
14237.0	1.7222174024663037e+18
14238.0	1.7218036863860728e+18
14239.0	1.7213891314450424e+18
14240.0	1.720902583792435e+18
14241.0	1.7205603722067965e+18
14242.0	1.72014760403927e+18
14243.0	1.7197263398895616e+18
14244.0	1.7193217288044541e+18
14245.0	1.7189051203321853e+18
14246.0	1.7184897181417467e+18
14247.0	1.7180794481016827e+18
14248.0	1.7176663829774333e+18
14249.0	1.7172546197651453e+18
14250.0	1.7168423649804285e+18
14251.0	1.716430381986611e+18
14252.0	1.716018392281907e+18
14253.0	1.7156064881410043e+18
14254.0	1.7151946175545341e+18
14255.0	1.7147815876624384e+18
14256.0	1.714306114650112e+18
14257.0	1.7139597188268027e+18
14258.0	1.71354900922368e+18
14259.0	1.7131369691873277e+18
14260.0	1.7127248972742656e+18
14261.0	1.7123147429969915e+18
14262.0	1.7119067445919741e+18
14263.0	1.7113984654114813e+18
14264.0	1.7110723700195325e+18
14265.0	1.7106700406358013e+18
14266.0	1.7102648591253504e+18
14267.0	1.7098545488199677e+18
14268.0	1.7094446344568827e+18
14269.0	1.7090346110418941e+18
14270.0	1.7086249399484416e+18
14271.0	1.708214703462809e+18
14272.0	1.7078051917529085e+18
14273.0	1.707396228657971e+18
14274.0	1.7068467026919421e+18
14275.0	1.706565274959872e+18
14276.0	1.7061649940742141e+18
14277.0	1.7057577640656893e+18
14278.0	1.7053508847009787e+18
14279.0	1.7049421564870653e+18
14280.0	1.7045331564822523e+18
14281.0	1.704125116134195e+18
14282.0	1.7037167805071357e+18
14283.0	1.7033085539319805e+18
14284.0	1.7029004498305021e+18
14285.0	1.7024924514254843e+18
14286.0	1.70208416277463e+18
14287.0	1.7016768488800253e+18
14288.0	1.7012691759529981e+18
14289.0	1.7008150368485368e+18
14290.0	1.7004536002510843e+18
14291.0	1.7000469188575227e+18
14292.0	1.6996399270854653e+18
14293.0	1.6992328027734013e+18
14294.0	1.6988175113125888e+18
14295.0	1.6984174351089661e+18
14296.0	1.6979721677963261e+18
14297.0	1.69760351364055e+18
14298.0	1.697156350502502e+18
14299.0	1.696788394278912e+18
14300.0	1.6963841992687616e+18
14301.0	1.6959775866617853e+18
14302.0	1.6955723866963965e+18
14303.0	1.6951636786151421e+18
14304.0	1.6947602654232576e+18
14305.0	1.6943548725198843e+18
14306.0	1.693940069276057e+18
14307.0	1.6935414375907325e+18
14308.0	1.693139042775859e+18
14309.0	1.6927326314954747e+18
14310.0	1.6922910065164285e+18
14311.0	1.6918542788067325e+18
14312.0	1.6915108206739453e+18
14313.0	1.6911103300730877e+18
14314.0	1.690708358044057e+18
14315.0	1.6903059179307005e+18
14316.0	1.6898989110591488e+18
14317.0	1.6894838276358141e+18
14318.0	1.6890935627481088e+18
14319.0	1.688689679794176e+18
14320.0	1.6882858538827776e+18
14321.0	1.6878822007767037e+18
14322.0	1.6874761636282365e+18
14323.0	1.68707446842327e+18
14324.0	1.6866700771196928e+18
14325.0	1.6862681101238272e+18
14326.0	1.6858656129679352e+18
14327.0	1.6854625101545472e+18
14328.0	1.6850594576728061e+18
14329.0	1.6846571333222397e+18
14330.0	1.68425448013824e+18
14331.0	1.6838505753739267e+18
14332.0	1.6834495881674747e+18
14333.0	1.6830473342812152e+18
14334.0	1.6826451894468605e+18
14335.0	1.682240865252147e+18
14336.0	1.6818286876426237e+18
14337.0	1.6814393975111675e+18
14338.0	1.681037494268723e+18
14339.0	1.680635592704e+18
14340.0	1.6802348236013565e+18
14341.0	1.6798324807958525e+18
14342.0	1.67943233077248e+18
14343.0	1.67902975140823e+18
14344.0	1.678629559441817e+18
14345.0	1.6782296526880768e+18
14346.0	1.6778287242018813e+18
14347.0	1.6774229991096315e+18
14348.0	1.6770277480333307e+18
14349.0	1.6766274570813437e+18
14350.0	1.6762190560231421e+18
14351.0	1.6758189194215421e+18
14352.0	1.6754268627271675e+18
14353.0	1.6750270767693821e+18
14354.0	1.674626601268019e+18
14355.0	1.674225640905113e+18
14356.0	1.673826829703577e+18
14357.0	1.6734287013347328e+18
14358.0	1.6730293884944381e+18
14359.0	1.6726282603593725e+18
14360.0	1.672228071748403e+18
14361.0	1.671829517238272e+18
14362.0	1.6714307865673723e+18
14363.0	1.6710320156311547e+18
14364.0	1.6706021179260925e+18
14365.0	1.670231368296038e+18
14366.0	1.6698318138638333e+18
14367.0	1.669438295873945e+18
14368.0	1.6690401171734525e+18
14369.0	1.6686421062451195e+18
14370.0	1.6682442060464125e+18
14371.0	1.6678464450985981e+18
14372.0	1.6674480885596157e+18
14373.0	1.667051050709811e+18
14374.0	1.666653704159232e+18
14375.0	1.6662563173433341e+18
14376.0	1.665859136887193e+18
14377.0	1.6654620050849787e+18
14378.0	1.6650648699273213e+18
14379.0	1.6646681424560123e+18
14380.0	1.664271357942169e+18
14381.0	1.663874008036147e+18
14382.0	1.6634780053405693e+18
14383.0	1.663079278025113e+18
14384.0	1.6626841192235005e+18
14385.0	1.6622892708003837e+18
14386.0	1.6618923352915965e+18
14387.0	1.6614972234661888e+18
14388.0	1.6611012627136507e+18
14389.0	1.6607055854960637e+18
14390.0	1.6603094401941504e+18
14391.0	1.6599139240378365e+18
14392.0	1.6595165338664957e+18
14393.0	1.659123411818905e+18
14394.0	1.658726117277696e+18
14395.0	1.6583052373262333e+18
14396.0	1.657936937169715e+18
14397.0	1.6575434997104637e+18
14398.0	1.65714714469335e+18
14399.0	1.6567538129305597e+18
14400.0	1.6563395197140992e+18
14401.0	1.6559649515896824e+18
14402.0	1.6555711232212987e+18
14403.0	1.6546573085310963e+18
14404.0	1.653431050069606e+18
14405.0	1.6543231198101496e+18
14406.0	1.6539953601183741e+18
14407.0	1.652812901934695e+18
14408.0	1.6531986185191421e+18
14409.0	1.6528134723600381e+18
14410.0	1.6524187447328765e+18
14411.0	1.652026776957747e+18
14412.0	1.6516349366894595e+18
14413.0	1.6512420092575741e+18
14414.0	1.6508491388682235e+18
14415.0	1.6504564379287547e+18
14416.0	1.6500619351162877e+18
14417.0	1.6496627044843515e+18
14418.0	1.6492712165375995e+18
14419.0	1.648886526718771e+18
14420.0	1.648494161323622e+18
14421.0	1.6481023042781181e+18
14422.0	1.647710363346534e+18
14423.0	1.647318066737971e+18
14424.0	1.6436837845303273e+18
14425.0	1.646534839186227e+18
14426.0	1.646143552566067e+18
14427.0	1.6457522961448957e+18
14428.0	1.6453584509992957e+18
14429.0	1.6449697111605248e+18
14430.0	1.6445787953168381e+18
14431.0	1.6441401482936315e+18
14432.0	1.6437943698718715e+18
14433.0	1.6428209708990456e+18
14434.0	1.6430151386529784e+18
14435.0	1.6426175555436541e+18
14436.0	1.6422347531616253e+18
14437.0	1.6418421780512765e+18
14438.0	1.641432329119334e+18
14439.0	1.6410580126531581e+18
14440.0	1.6406719638798333e+18
14441.0	1.640281761067827e+18
14442.0	1.6398919038664704e+18
14443.0	1.6395003437776893e+18
14444.0	1.639113113888358e+18
14445.0	1.6387239244201981e+18
14446.0	1.6377233681678339e+18
14447.0	1.6379447502438397e+18
14448.0	1.637556523787878e+18
14449.0	1.6371675893334008e+18
14450.0	1.6367787471536123e+18
14451.0	1.6363900257697792e+18
14452.0	1.636001119836569e+18
14453.0	1.6356011057086461e+18
14454.0	1.6352244253327357e+18
14455.0	1.6348360042610685e+18
14456.0	1.634445239412326e+18
14457.0	1.6340555785043965e+18
14458.0	1.633658280607744e+18
14459.0	1.633280450992537e+18
14460.0	1.632896039675494e+18
14461.0	1.632504442676838e+18
14462.0	1.6320607088017405e+18
14463.0	1.6317326840299512e+18
14464.0	1.631346546337382e+18
14465.0	1.6309585212080125e+18
14466.0	1.6305723231174653e+18
14467.0	1.6301771508940795e+18
14468.0	1.6297980411772925e+18
14469.0	1.6294088701640704e+18
14470.0	1.6290238162796541e+18
14471.0	1.6286363649310715e+18
14472.0	1.6282507355881472e+18
14473.0	1.6278648881414144e+18
14474.0	1.6274787923918843e+18
14475.0	1.627092312444108e+18
14476.0	1.6266686172758013e+18
14477.0	1.6263207148584957e+18
14478.0	1.625935015051264e+18
14479.0	1.6255485736910843e+18
14480.0	1.6251630265565184e+18
14481.0	1.6247786336944125e+18
14482.0	1.624393116758835e+18
14483.0	1.6240075293589504e+18
14484.0	1.6236228697391107e+18
14485.0	1.623235780778393e+18
14486.0	1.622837254789529e+18
14487.0	1.6224680402747387e+18
14488.0	1.6220684204113915e+18
14489.0	1.621694075423948e+18
14490.0	1.6213129490857981e+18
14491.0	1.6209305694896125e+18
14492.0	1.6205453746765816e+18
14493.0	1.6201601144324093e+18
14494.0	1.6197765654642685e+18
14495.0	1.6193944543035387e+18
14496.0	1.6190032968679424e+18
14497.0	1.618626963780403e+18
14498.0	1.6182432436846587e+18
14499.0	1.617859963151974e+18
14500.0	1.617476575245107e+18
14501.0	1.6170759453933565e+18
14502.0	1.6166748877225981e+18
14503.0	1.6163228530769915e+18
14504.0	1.6159439614640128e+18
14505.0	1.6155447979409403e+18
14506.0	1.615139748970496e+18
14507.0	1.6147829512732672e+18
14508.0	1.6144135975075837e+18
14509.0	1.6140311927455741e+18
14510.0	1.6136488987131896e+18
14511.0	1.6132667070218235e+18
14512.0	1.612883718412697e+18
14513.0	1.6125026424061947e+18
14514.0	1.6121132096684024e+18
14515.0	1.6117382590234621e+18
14516.0	1.6112440223727613e+18
14517.0	1.6109758704517115e+18
14518.0	1.6105945411092475e+18
14519.0	1.6102132251885563e+18
14520.0	1.6098319847653376e+18
14521.0	1.609450237670195e+18
14522.0	1.6090687556550656e+18
14523.0	1.6086430908415997e+18
14524.0	1.6082659205709821e+18
14525.0	1.6079270308741123e+18
14526.0	1.6075466930651133e+18
14527.0	1.6071593658679293e+18
14528.0	1.6067632037887997e+18
14529.0	1.6064025792086013e+18
14530.0	1.6060220182626301e+18
14531.0	1.6056427172855803e+18
14532.0	1.6051887660859387e+18
14533.0	1.604882846973952e+18
14534.0	1.6045031383105528e+18
14535.0	1.6041226629283837e+18
14536.0	1.603743794803507e+18
14537.0	1.6033635996008443e+18
14538.0	1.602984716376473e+18
14539.0	1.602605710678425e+18
14540.0	1.602226513720115e+18
14541.0	1.601846590308352e+18
14542.0	1.6014684385705981e+18
14543.0	1.601063743599411e+18
14544.0	1.6007106402451453e+18
14545.0	1.6003310506999805e+18
14546.0	1.5963444553449444e+18
14547.0	1.5963999459868639e+18
14548.0	1.5991957163606013e+18
14549.0	1.5988118301704187e+18
14550.0	1.5984401376608253e+18
14551.0	1.598062108396748e+18
14552.0	1.5976832520159232e+18
14553.0	1.597305034847027e+18
14554.0	1.5969285021106168e+18
14555.0	1.596550737926553e+18
14556.0	1.596172178502451e+18
14557.0	1.5957957699174397e+18
14558.0	1.5954182825574397e+18
14559.0	1.5949227892932603e+18
14560.0	1.594632407561011e+18
14561.0	1.594286719736217e+18
14562.0	1.5939074489581563e+18
14563.0	1.5935332516102144e+18
14564.0	1.5931511085727744e+18
14565.0	1.5927798589816832e+18
14566.0	1.592403282624512e+18
14567.0	1.5920266861346813e+18
14568.0	1.591627457180467e+18
14569.0	1.591274083713024e+18
14570.0	1.5908642247147515e+18
14571.0	1.5905216255754237e+18
14572.0	1.5901369659555835e+18
14573.0	1.589765664355123e+18
14574.0	1.5893782599827453e+18
14575.0	1.5890168351293435e+18
14576.0	1.5886416613474304e+18
14577.0	1.5882672777723904e+18
14578.0	1.5878916124180477e+18
14579.0	1.5875163950153728e+18
14580.0	1.587141301764096e+18
14581.0	1.5867631013724157e+18
14582.0	1.5863910213091328e+18
14583.0	1.58601616293888e+18
14584.0	1.5856397543538685e+18
14585.0	1.5852665116295165e+18
14586.0	1.5848916482260992e+18
14587.0	1.5845164174016507e+18
14588.0	1.5841440605143037e+18
14589.0	1.5837837815447547e+18
14590.0	1.5834256349593597e+18
14591.0	1.5830665454944253e+18
14592.0	1.5827093317222397e+18
14593.0	1.5823445212266493e+18
14594.0	1.5819936794411003e+18
14595.0	1.5816355227893757e+18
14596.0	1.5812521684369405e+18
14597.0	1.5808935755775997e+18
14598.0	1.5805612222840835e+18
14599.0	1.580205469807411e+18
14600.0	1.579847066530611e+18
14601.0	1.5794905775341565e+18
14602.0	1.5791282416779264e+18
14603.0	1.5787741384015872e+18
14604.0	1.578414040625971e+18
14605.0	1.578053498254131e+18
14606.0	1.5776927361007613e+18
14607.0	1.5773481018851325e+18
14608.0	1.5769907169853437e+18
14609.0	1.5766292350894077e+18
14610.0	1.5762615288463357e+18
14611.0	1.5759203960356864e+18
14612.0	1.5755648096534525e+18
14613.0	1.5752084548747264e+18
14614.0	1.574851893736243e+18
14615.0	1.5744887106306043e+18
14616.0	1.5741395264339968e+18
14617.0	1.5737833327165437e+18
14618.0	1.5734191111012347e+18
14619.0	1.5730577248354301e+18
14620.0	1.5726434685288448e+18
14621.0	1.5723592926887933e+18
14622.0	1.5720034445819904e+18
14623.0	1.5716476652617725e+18
14624.0	1.5712887469244413e+18
14625.0	1.570936304592486e+18
14626.0	1.5705795555491835e+18
14627.0	1.5702228484489213e+18
14628.0	1.5698697182511104e+18
14629.0	1.5695143113850877e+18
14630.0	1.569158552197529e+18
14631.0	1.5688030715117563e+18
14632.0	1.568190865866752e+18
14633.0	1.568064117355315e+18
14634.0	1.5677370237190141e+18
14635.0	1.5671808321650673e+18
14636.0	1.566267718762496e+18
14637.0	1.5666733230587904e+18
14638.0	1.5663149432700925e+18
14639.0	1.565959972611686e+18
14640.0	1.5656063038652413e+18
14641.0	1.5642657036435443e+18
14642.0	1.5648968608317437e+18
14643.0	1.5645423079260157e+18
14644.0	1.564186741676441e+18
14645.0	1.5638318599372797e+18
14646.0	1.5634701381271555e+18
14647.0	1.5631166254088184e+18
