# Flux units: erg / (cm m2 s)
# Wavelength units: Angstrom
wave	flux
14000.0	2.204020899630284e+18
14001.0	2.2033926700662784e+18
14002.0	2.202941820973875e+18
14003.0	2.2024136675033083e+18
14004.0	2.201876902287769e+18
14005.0	2.201342472460697e+18
14006.0	2.2007859671728123e+18
14007.0	2.2002387967279101e+18
14008.0	2.1994597047599101e+18
14009.0	2.199189225839001e+18
14010.0	2.1986115426713595e+18
14011.0	2.1967512765726725e+18
14012.0	2.1975695164964861e+18
14013.0	2.197041609650995e+18
14014.0	2.1964852620689405e+18
14015.0	2.1959615730155515e+18
14016.0	2.195429367847321e+18
14017.0	2.1948911832793085e+18
14018.0	2.1943464287535101e+18
14019.0	2.1938138477756408e+18
14020.0	2.193268546312601e+18
14021.0	2.1927351533174781e+18
14022.0	2.192191789622886e+18
14023.0	2.191549598059724e+18
14024.0	2.1910640520069112e+18
14025.0	2.1905906912460795e+18
14026.0	2.1900556037521403e+18
14027.0	2.189519444194099e+18
14028.0	2.1889733105811453e+18
14029.0	2.188436827222835e+18
14030.0	2.183989306379472e+18
14031.0	2.1873174228500477e+18
14032.0	2.186844974769766e+18
14033.0	2.1861509684527101e+18
14034.0	2.1857788028256253e+18
14035.0	2.1852402541920256e+18
14036.0	2.1847051868307453e+18
14037.0	2.1841578033152e+18
14038.0	2.18364864668631e+18
14039.0	2.1830941798301693e+18
14040.0	2.1825374279172093e+18
14041.0	2.182031831413555e+18
14042.0	2.1814852733370358e+18
14043.0	2.1808817213800445e+18
14044.0	2.1804224048267261e+18
14045.0	2.1799014085165053e+18
14046.0	2.1793642725244925e+18
14047.0	2.1788124799565814e+18
14048.0	2.1783050446700536e+18
14049.0	2.177785432480153e+18
14050.0	2.177252086461235e+18
14051.0	2.1766877982228477e+18
14052.0	2.176177923529113e+18
14053.0	2.175656845010534e+18
14054.0	2.1751322516652027e+18
14055.0	2.1745891513729024e+18
14056.0	2.1740713259565053e+18
14057.0	2.1735333410373627e+18
14058.0	2.17300962681815e+18
14059.0	2.1724751835693048e+18
14060.0	2.171951096895897e+18
14061.0	2.171397772568166e+18
14062.0	2.1708810259267584e+18
14063.0	2.1703097734660093e+18
14064.0	2.1693283918938112e+18
14065.0	2.169275031958323e+18
14066.0	2.1687549634281467e+18
14067.0	2.1680968754528253e+18
14068.0	2.1677076775960573e+18
14069.0	2.167165785263308e+18
14070.0	2.1666503858323453e+18
14071.0	2.166115058424217e+18
14072.0	2.1655913307832315e+18
14073.0	2.1650614828138493e+18
14074.0	2.1645372786999293e+18
14075.0	2.1639599679864827e+18
14076.0	2.163337103776153e+18
14077.0	2.161967646742937e+18
14078.0	2.162348066760294e+18
14079.0	2.16187656994816e+18
14080.0	2.161379893890252e+18
14081.0	2.1608513780318203e+18
14082.0	2.1602414322778104e+18
14083.0	2.1597917626236928e+18
14084.0	2.159274809622528e+18
14085.0	2.1574687322537984e+18
14086.0	2.1581315597926395e+18
14087.0	2.1576875876810752e+18
14088.0	2.1571210127081467e+18
14089.0	2.1565006952792061e+18
14090.0	2.1560885713567736e+18
14091.0	2.1555872798867453e+18
14092.0	2.155056843037081e+18
14093.0	2.1545376033013752e+18
14094.0	2.1540134629408763e+18
14095.0	2.1534896379920376e+18
14096.0	2.1527512626495485e+18
14097.0	2.1523035492188155e+18
14098.0	2.1517882185744376e+18
14099.0	2.1513914760036347e+18
14100.0	2.1508218760986621e+18
14101.0	2.150348161338572e+18
14102.0	2.1498166255812605e+18
14103.0	2.1492711764787192e+18
14104.0	2.1487712221528064e+18
14105.0	2.148227861813657e+18
14106.0	2.1477329104535547e+18
14107.0	2.1471297678606328e+18
14108.0	2.146640193598259e+18
14109.0	2.1461538892152827e+18
14110.0	2.1455536255926267e+18
14111.0	2.144935370083532e+18
14112.0	2.1445702055886843e+18
14113.0	2.1439838251122683e+18
14114.0	2.1434870970449915e+18
14115.0	2.143005362775654e+18
14116.0	2.14204663547822e+18
14117.0	2.1359076122296346e+18
14118.0	2.141452841150054e+18
14119.0	2.140815679396249e+18
14120.0	2.1403131413790715e+18
14121.0	2.139824402622054e+18
14122.0	2.139267679230361e+18
14123.0	2.138619088837017e+18
14124.0	2.1380734417633277e+18
14125.0	2.1366485360312315e+18
14126.0	2.1372400067149824e+18
14127.0	2.13678381072384e+18
14128.0	2.1362638428569603e+18
14129.0	2.13571689554903e+18
14130.0	2.1351636064534525e+18
14131.0	2.1346981460836347e+18
14132.0	2.1341732876582904e+18
14133.0	2.1323126675603407e+18
14134.0	2.1331549710450683e+18
14135.0	2.132573234502041e+18
14136.0	2.1315796206616573e+18
14137.0	2.1315919150055421e+18
14138.0	2.130983220831846e+18
14139.0	2.1305668405297142e+18
14140.0	2.129902026568499e+18
14141.0	2.1295190178267133e+18
14142.0	2.128333707516314e+18
14143.0	2.1281866552180736e+18
14144.0	2.1279837515677693e+18
14145.0	2.127456141679001e+18
14146.0	2.1269270839164925e+18
14147.0	2.1264140282626043e+18
14148.0	2.1258666145480701e+18
14149.0	2.1253264603348987e+18
14150.0	2.124873785881395e+18
14151.0	2.124261353743974e+18
14152.0	2.1238417740267515e+18
14153.0	2.1233315503669245e+18
14154.0	2.1227456832733176e+18
14155.0	2.120275627448731e+18
14156.0	2.1216973438320627e+18
14157.0	2.121263545424281e+18
14158.0	2.12071068246999e+18
14159.0	2.1202398567464955e+18
14160.0	2.1197253381193725e+18
14161.0	2.1190402237267968e+18
14162.0	2.1184249881165814e+18
14163.0	2.1181838626127867e+18
14164.0	2.1174092216401912e+18
14165.0	2.1156514089664517e+18
14166.0	2.1166235228045304e+18
14167.0	2.1160947854868477e+18
14168.0	2.1155576595611643e+18
14169.0	2.115104168057241e+18
14170.0	2.1145563936325627e+18
14171.0	2.1140466330238973e+18
14172.0	2.1135720424931325e+18
14173.0	2.1123866248085501e+18
14174.0	2.1125232483893245e+18
14175.0	2.1120332865732603e+18
14176.0	2.1114808279498747e+18
14177.0	2.1109963069849592e+18
14178.0	2.1104816507846653e+18
14179.0	2.1098449202053117e+18
14180.0	2.1094791349534715e+18
14181.0	2.1089579423498237e+18
14182.0	2.1084445142417403e+18
14183.0	2.107934681491046e+18
14184.0	2.107408547997286e+18
14185.0	2.1069080769331197e+18
14186.0	2.1051218235228157e+18
14187.0	2.1058308236378104e+18
14188.0	2.1053716446576637e+18
14189.0	2.1048435666845693e+18
14190.0	2.1043533246889981e+18
14191.0	2.1038385997021181e+18
14192.0	2.1033194354638843e+18
14193.0	2.1026237514252288e+18
14194.0	2.1023131313373181e+18
14195.0	2.1018193258610688e+18
14196.0	2.101308310316646e+18
14197.0	2.1007971068674043e+18
14198.0	2.1002806253060093e+18
14199.0	2.099742739372441e+18
14200.0	2.0985546071343107e+18
14201.0	2.0987582288494587e+18
14202.0	2.0982555448705021e+18
14203.0	2.0975904054312955e+18
14204.0	2.097222434108211e+18
14205.0	2.096730571433574e+18
14206.0	2.0959100531638275e+18
14207.0	2.095723681782169e+18
14208.0	2.0952167313571835e+18
14209.0	2.094343494041599e+18
14210.0	2.0939929710231537e+18
14211.0	2.0936772389175293e+18
14212.0	2.0931875740581883e+18
14213.0	2.0926479768485883e+18
14214.0	2.0921756143321083e+18
14215.0	2.091626816497254e+18
14216.0	2.091160711882342e+18
14217.0	2.090661240740249e+18
14218.0	2.0901232725983227e+18
14219.0	2.089642499663462e+18
14220.0	2.0891402770579453e+18
14221.0	2.0886061878083581e+18
14222.0	2.0878804373209088e+18
14223.0	2.0876038682705915e+18
14224.0	2.087116466657689e+18
14225.0	2.0846963868041231e+18
14226.0	2.0861069849264125e+18
14227.0	2.0856012491718653e+18
14228.0	2.080972881684072e+18
14229.0	2.0840833775304666e+18
14230.0	2.084090700785254e+18
14231.0	2.0833709900955645e+18
14232.0	2.0830850224488443e+18
14233.0	2.082557410882355e+18
14234.0	2.0820800135233533e+18
14235.0	2.0815698536169472e+18
14236.0	2.0810609150918648e+18
14237.0	2.080559041452441e+18
14238.0	2.08005835563991e+18
14239.0	2.0795307977605115e+18
14240.0	2.0758590537072663e+18
14241.0	2.0785474935193597e+18
14242.0	2.0780545688469496e+18
14243.0	2.0771620779982845e+18
14244.0	2.0770584753340416e+18
14245.0	2.0765009265033208e+18
14246.0	2.0759601364336637e+18
14247.0	2.0755360419676155e+18
14248.0	2.0750192802267133e+18
14249.0	2.0745387002298368e+18
14250.0	2.0740454165250043e+18
14251.0	2.0735467842437117e+18
14252.0	2.073047056410214e+18
14253.0	2.0725435553808381e+18
14254.0	2.0720437721825275e+18
14255.0	2.0714790393479163e+18
14256.0	2.0696048062169096e+18
14257.0	2.0705258351099901e+18
14258.0	2.070050768106291e+18
14259.0	2.0694660552851456e+18
14260.0	2.0690066397462525e+18
14261.0	2.0684896699678715e+18
14262.0	2.0680549236473853e+18
14263.0	2.0654220080316431e+18
14264.0	2.0667489851539453e+18
14265.0	2.0664861264445437e+18
14266.0	2.0660583309246461e+18
14267.0	2.0655587977068536e+18
14268.0	2.0650555248476155e+18
14269.0	2.0645419373559803e+18
14270.0	2.0640624780771325e+18
14271.0	2.0635336216412155e+18
14272.0	2.0630585512820733e+18
14273.0	2.0625647491612667e+18
14274.0	2.0589854593122327e+18
14275.0	2.0612937274097664e+18
14276.0	2.0609132486721533e+18
14277.0	2.0604913536991224e+18
14278.0	2.0600823352393725e+18
14279.0	2.05958428009431e+18
14280.0	2.0590697547563003e+18
14281.0	2.0585937062854653e+18
14282.0	2.05809605714903e+18
14283.0	2.0576019379388408e+18
14284.0	2.0571041445183483e+18
14285.0	2.056610174625382e+18
14286.0	2.056101892089446e+18
14287.0	2.055612967105331e+18
14288.0	2.055120089409126e+18
14289.0	2.0525680466853824e+18
14290.0	2.0540945116168187e+18
14291.0	2.053632467088179e+18
14292.0	2.0531384065982461e+18
14293.0	2.0526455020584955e+18
14294.0	2.051795949138739e+18
14295.0	2.0516096012451837e+18
14296.0	2.049485221501339e+18
14297.0	2.0506739275202555e+18
14298.0	2.049211068370124e+18
14299.0	2.049613726587289e+18
14300.0	2.049166786586214e+18
14301.0	2.04865451107287e+18
14302.0	2.0481943892131837e+18
14303.0	2.0476056750260221e+18
14304.0	2.0471766430253056e+18
14305.0	2.0467026329862144e+18
14306.0	2.045853023023923e+18
14307.0	2.0456339058720765e+18
14308.0	2.0452257430503421e+18
14309.0	2.0446985106489344e+18
14310.0	2.042585311241829e+18
14311.0	2.0426113176043515e+18
14312.0	2.0429797284904955e+18
14313.0	2.0426101918531576e+18
14314.0	2.0422460188917755e+18
14315.0	2.041788078070169e+18
14316.0	2.041178831926067e+18
14317.0	2.0404325461262336e+18
14318.0	2.0403290793574397e+18
14319.0	2.0398423203119101e+18
14320.0	2.0393502512775165e+18
14321.0	2.038848387704422e+18
14322.0	2.0382502078119933e+18
14323.0	2.0378471368753147e+18
14324.0	2.0373713165746173e+18
14325.0	2.0368714746560507e+18
14326.0	2.0364047794831355e+18
14327.0	2.0358894085734397e+18
14328.0	2.035404013515571e+18
14329.0	2.034937140504166e+18
14330.0	2.03444488020951e+18
14331.0	2.0339246808170493e+18
14332.0	2.0334638845132792e+18
14333.0	2.032979454145331e+18
14334.0	2.0324899503472637e+18
14335.0	2.0319266351874043e+18
14336.0	2.0312473173229563e+18
14337.0	2.03101518776238e+18
14338.0	2.0305285562236928e+18
14339.0	2.030004482972057e+18
14340.0	2.0295627673960445e+18
14341.0	2.0290504851718144e+18
14342.0	2.0285738511761405e+18
14343.0	2.028025808316006e+18
14344.0	2.02756240483287e+18
14345.0	2.0271238987382781e+18
14346.0	2.0266306418769917e+18
14347.0	2.0260402533236733e+18
14348.0	2.0256529076715517e+18
14349.0	2.0251797784363005e+18
14350.0	2.0245348320542712e+18
14351.0	2.024030359624089e+18
14352.0	2.023699890411929e+18
14353.0	2.0232332187271165e+18
14354.0	2.0227288385716221e+18
14355.0	2.0222195259146237e+18
14356.0	2.021748970304307e+18
14357.0	2.0212946818826237e+18
14358.0	2.020808288580403e+18
14359.0	2.0202790898892797e+18
14360.0	2.0198273046282237e+18
14361.0	2.0193519524118525e+18
14362.0	2.0188661463121915e+18
14363.0	2.0183846049808381e+18
14364.0	2.0172971528159235e+18
14365.0	2.01734406358958e+18
14366.0	2.0168398629502973e+18
14367.0	2.016442385537433e+18
14368.0	2.0159598879047677e+18
14369.0	2.0154818580447227e+18
14370.0	2.0149969478483968e+18
14371.0	2.014515465237299e+18
14372.0	2.0140077799702528e+18
14373.0	2.013543848004812e+18
14374.0	2.0130528963330045e+18
14375.0	2.012574118209126e+18
14376.0	2.0120929912750077e+18
14377.0	2.0116130068692987e+18
14378.0	2.011124966044467e+18
14379.0	2.0106485988065275e+18
14380.0	2.0101603197452283e+18
14381.0	2.0096490256990205e+18
14382.0	2.009195321124454e+18
14383.0	2.008607635380633e+18
14384.0	2.0081706946002936e+18
14385.0	2.0077573023203325e+18
14386.0	2.007224907569561e+18
14387.0	2.006789329099161e+18
14388.0	2.006299954485657e+18
14389.0	2.005825818617446e+18
14390.0	2.0053354776363008e+18
14391.0	2.0048446299832317e+18
14392.0	2.0043201742110717e+18
14393.0	2.0038989285163e+18
14394.0	2.003315618270412e+18
14395.0	2.0025185881030648e+18
14396.0	2.0024376229363707e+18
14397.0	2.001977717502771e+18
14398.0	2.0014444889243643e+18
14399.0	2.0009962721771517e+18
14400.0	2.0002423208673277e+18
14401.0	2.0000335082815488e+18
14402.0	1.999564236128256e+18
14403.0	1.9812413050191608e+18
14404.0	1.9554874228211643e+18
14405.0	1.9952767799918464e+18
14406.0	1.9976550074023933e+18
14407.0	1.9681157524226196e+18
14408.0	1.9964951363846136e+18
14409.0	1.996171805877862e+18
14410.0	1.995687454362828e+18
14411.0	1.995251110851379e+18
14412.0	1.9947768055332861e+18
14413.0	1.9943067565948928e+18
14414.0	1.9938268963405821e+18
14415.0	1.9933530624622587e+18
14416.0	1.9928342673227766e+18
14417.0	1.9922029910163453e+18
14418.0	1.9917000704786432e+18
14419.0	1.9914431693586427e+18
14420.0	1.9909536101957627e+18
14421.0	1.9904901865799677e+18
14422.0	1.9899987013926907e+18
14423.0	1.989503191351296e+18
14424.0	1.9030201979633257e+18
14425.0	1.988563517938073e+18
14426.0	1.9881053304913915e+18
14427.0	1.9876333085523968e+18
14428.0	1.98705516904448e+18
14429.0	1.9866768042360827e+18
14430.0	1.9862080723091448e+18
14431.0	1.984834910866637e+18
14432.0	1.98513785873367e+18
14433.0	1.9624199094009715e+18
14434.0	1.9842652186869755e+18
14435.0	1.983666681439846e+18
14436.0	1.9833551218278392e+18
14437.0	1.9828797914218493e+18
14438.0	1.9815874693169155e+18
14439.0	1.9817423532195835e+18
14440.0	1.981455981241958e+18
14441.0	1.9809670529023997e+18
14442.0	1.980486689331609e+18
14443.0	1.979918119547699e+18
14444.0	1.9795466132652027e+18
14445.0	1.9790822165708797e+18
14446.0	1.9553735105577055e+18
14447.0	1.9780988938747896e+18
14448.0	1.9776662849716221e+18
14449.0	1.977193306731315e+18
14450.0	1.976703851587174e+18
14451.0	1.976233911700685e+18
14452.0	1.975754318204108e+18
14453.0	1.9747661653475328e+18
14454.0	1.9748152588369915e+18
14455.0	1.9743285736112125e+18
14456.0	1.9737610037493755e+18
14457.0	1.9732187171520507e+18
14458.0	1.972718368561561e+18
14459.0	1.9723221729279997e+18
14460.0	1.9719640213094397e+18
14461.0	1.9713255811317755e+18
14462.0	1.9700282040516608e+18
14463.0	1.9704988016050168e+18
14464.0	1.970084728170086e+18
14465.0	1.9695816985804797e+18
14466.0	1.969139068646195e+18
14467.0	1.968292439995187e+18
14468.0	1.9681638426345464e+18
14469.0	1.967644698528972e+18
14470.0	1.9671898497482744e+18
14471.0	1.9667414937501693e+18
14472.0	1.966289763853926e+18
14473.0	1.9658528314621947e+18
14474.0	1.965386622828544e+18
14475.0	1.9648927519211517e+18
14476.0	1.9628585279029256e+18
14477.0	1.9639732262666237e+18
14478.0	1.9634953474015227e+18
14479.0	1.96301064020951e+18
14480.0	1.962526818854502e+18
14481.0	1.9621047292657661e+18
14482.0	1.9616254797021181e+18
14483.0	1.9611330013036544e+18
14484.0	1.960684878508851e+18
14485.0	1.960111228583936e+18
14486.0	1.9590061905412099e+18
14487.0	1.9592810718035965e+18
14488.0	1.9585101201407997e+18
14489.0	1.9582488116461565e+18
14490.0	1.9578333188587517e+18
14491.0	1.9574150762856443e+18
14492.0	1.9569421886423035e+18
14493.0	1.956429881252249e+18
14494.0	1.9559511316496381e+18
14495.0	1.9555469416726525e+18
14496.0	1.9547352515739645e+18
14497.0	1.954606457919897e+18
14498.0	1.9541353687941117e+18
14499.0	1.9536804680040445e+18
14500.0	1.9532123316682747e+18
14501.0	1.9519562751934461e+18
14502.0	1.9508845919338504e+18
14503.0	1.951681625456639e+18
14504.0	1.9513279869091835e+18
14505.0	1.9501359690678257e+18
14506.0	1.948706473089433e+18
14507.0	1.9493321776824325e+18
14508.0	1.9494816660324347e+18
14509.0	1.9490139977809915e+18
14510.0	1.9485450695606272e+18
14511.0	1.9480854560505853e+18
14512.0	1.947572524548096e+18
14513.0	1.9471531092475901e+18
14514.0	1.9464433021485056e+18
14515.0	1.9462025541320696e+18
14516.0	1.9408960800948262e+18
14517.0	1.9452921368281083e+18
14518.0	1.9448258627633147e+18
14519.0	1.9443581844455421e+18
14520.0	1.9438963227885565e+18
14521.0	1.9434160514924541e+18
14522.0	1.9429418250272763e+18
14523.0	1.940663562980555e+18
14524.0	1.9401896250834929e+18
14525.0	1.9415566510981117e+18
14526.0	1.9410955645485053e+18
14527.0	1.94047426733015e+18
14528.0	1.9397086692769784e+18
14529.0	1.9396883621347325e+18
14530.0	1.939196972577587e+18
14531.0	1.9387827817021437e+18
14532.0	1.935492764611379e+18
14533.0	1.937857617225318e+18
14534.0	1.9373997837778941e+18
14535.0	1.936901597770547e+18
14536.0	1.9364590534000637e+18
14537.0	1.93596794905559e+18
14538.0	1.9355357797154816e+18
14539.0	1.9350804578172928e+18
14540.0	1.934620317502668e+18
14541.0	1.934090180965171e+18
14542.0	1.9336825919242235e+18
14543.0	1.932093014461644e+18
14544.0	1.9327622676742144e+18
14545.0	1.9322683346911227e+18
14546.0	1.8664635737571126e+18
14547.0	1.871628350783461e+18
14548.0	1.9308800754319355e+18
14549.0	1.930151741253222e+18
14550.0	1.9299714667118584e+18
14551.0	1.9295371985420288e+18
14552.0	1.929041366378086e+18
14553.0	1.9285651769786365e+18
14554.0	1.928150398900633e+18
14555.0	1.9276839134429181e+18
14556.0	1.9271810734358525e+18
14557.0	1.9267622755368955e+18
14558.0	1.926293337250201e+18
14559.0	1.9216980309442442e+18
14560.0	1.924885290942463e+18
14561.0	1.9248962733080573e+18
14562.0	1.9243647727828987e+18
14563.0	1.9239894983376893e+18
14564.0	1.9234208580894715e+18
14565.0	1.9230757658558456e+18
14566.0	1.9226159023652861e+18
14567.0	1.9221460060995581e+18
14568.0	1.921321400899994e+18
14569.0	1.9212249017090045e+18
14570.0	1.9195454570889216e+18
14571.0	1.920302869538406e+18
14572.0	1.919624823386931e+18
14573.0	1.919239844999987e+18
14574.0	1.9186318873460733e+18
14575.0	1.9184368991862781e+18
14576.0	1.9179840066289661e+18
14577.0	1.917527434828185e+18
14578.0	1.9170901853470715e+18
14579.0	1.9166322847907835e+18
14580.0	1.9161766994903037e+18
14581.0	1.915612850814976e+18
14582.0	1.9152488489811963e+18
14583.0	1.9148010936074235e+18
14584.0	1.914293245601382e+18
14585.0	1.9138818749759488e+18
14586.0	1.9134149197561856e+18
14587.0	1.912927397347328e+18
14588.0	1.912491293750067e+18
14589.0	1.912064061944627e+18
14590.0	1.9116273342349307e+18
14591.0	1.911162301684121e+18
14592.0	1.9107229768613883e+18
14593.0	1.9100012042518518e+18
14594.0	1.9098567004127232e+18
14595.0	1.9094039907270653e+18
14596.0	1.908419980165119e+18
14597.0	1.9080439138353137e+18
14598.0	1.908066455702732e+18
14599.0	1.9076665892143104e+18
14600.0	1.9072065629847547e+18
14601.0	1.9067740178350075e+18
14602.0	1.9062160915169277e+18
14603.0	1.9058636777062397e+18
14604.0	1.905305385644851e+18
14605.0	1.9048747463868413e+18
14606.0	1.9043302787514368e+18
14607.0	1.9041414746734584e+18
14608.0	1.9036812420841464e+18
14609.0	1.9030467965616128e+18
14610.0	1.9025570478161917e+18
14611.0	1.9023494884884477e+18
14612.0	1.9019461726044155e+18
14613.0	1.901517719417651e+18
14614.0	1.9010699405557752e+18
14615.0	1.900555359852953e+18
14616.0	1.9002014142824443e+18
14617.0	1.8997602607431672e+18
14618.0	1.8991411848282107e+18
14619.0	1.8986145429848046e+18
14620.0	1.8970777634209795e+18
14621.0	1.8980083570049021e+18
14622.0	1.8975604321812475e+18
14623.0	1.8971278635433981e+18
14624.0	1.8965376343736317e+18
14625.0	1.8962418822545405e+18
14626.0	1.8957543262912512e+18
14627.0	1.8952723504300032e+18
14628.0	1.8949357625671677e+18
14629.0	1.894496939383193e+18
14630.0	1.8940476119842813e+18
14631.0	1.89359297962967e+18
14632.0	1.8829597898440763e+18
14633.0	1.891592633843708e+18
14634.0	1.892257994742169e+18
14635.0	1.8901063587331976e+18
14636.0	1.885136413838539e+18
14637.0	1.8909836863340541e+18
14638.0	1.8904908371591163e+18
14639.0	1.8900648737112061e+18
14640.0	1.8896514260664317e+18
14641.0	1.8543486370316047e+18
14642.0	1.8887714845753341e+18
14643.0	1.888340404076544e+18
14644.0	1.8878644243922936e+18
14645.0	1.8873954038972413e+18
14646.0	1.8868471110565883e+18
14647.0	1.8864256455802875e+18
14648.0	1.8861242496057344e+18
14649.0	1.8857038645821437e+18
