# Flux units: erg / (cm m2 s)
# Wavelength units: Angstrom
wave	flux
14000.0	1.5971966456430592e+18
14001.0	1.5968100415438843e+18
14002.0	1.5964884491567101e+18
14003.0	1.596133795587686e+18
14004.0	1.595779351733862e+18
14005.0	1.5954247468187648e+18
14006.0	1.5950676974632957e+18
14007.0	1.5947127083499515e+18
14008.0	1.594328501714944e+18
14009.0	1.5940071978958843e+18
14010.0	1.593648740931993e+18
14011.0	1.5930922926866432e+18
14012.0	1.592944973630668e+18
14013.0	1.5925911723442179e+18
14014.0	1.5922355087867901e+18
14015.0	1.5918828970049533e+18
14016.0	1.591530124161843e+18
14017.0	1.5911766382870523e+18
14018.0	1.5908228957208568e+18
14019.0	1.5904699181957123e+18
14020.0	1.5901164373540864e+18
14021.0	1.589763125962342e+18
14022.0	1.5894087945158653e+18
14023.0	1.589044096427622e+18
14024.0	1.5886968047009784e+18
14025.0	1.5883516722020347e+18
14026.0	1.587998666155622e+18
14027.0	1.587646765727744e+18
14028.0	1.587292256442777e+18
14029.0	1.586940513720729e+18
14030.0	1.5860991413714947e+18
14031.0	1.5862047354912765e+18
14032.0	1.585859227182694e+18
14033.0	1.5854868082196475e+18
14034.0	1.5851518527799293e+18
14035.0	1.5848002878963707e+18
14036.0	1.5844485871173632e+18
14037.0	1.584095510606643e+18
14038.0	1.5837454321844221e+18
14039.0	1.5833926241091584e+18
14040.0	1.583038183610777e+18
14041.0	1.5826899808813053e+18
14042.0	1.5823369832235005e+18
14043.0	1.5819748587601915e+18
14044.0	1.5816342024224765e+18
14045.0	1.5812861792092157e+18
14046.0	1.5809348894719995e+18
14047.0	1.5805814790946816e+18
14048.0	1.5802339692642301e+18
14049.0	1.579884659238502e+18
14050.0	1.579534235205632e+18
14051.0	1.579178739420364e+18
14052.0	1.5788290300968952e+18
14053.0	1.5784800539377656e+18
14054.0	1.5781301013446653e+18
14055.0	1.577779585037107e+18
14056.0	1.5774302414569467e+18
14057.0	1.577080443214233e+18
14058.0	1.5767307590565888e+18
14059.0	1.5763811755622397e+18
14060.0	1.576031650788147e+18
14061.0	1.575679840957235e+18
14062.0	1.575332891485798e+18
14063.0	1.5749785029967867e+18
14064.0	1.5745535394709504e+18
14065.0	1.5742826193092605e+18
14066.0	1.573935757079347e+18
14067.0	1.5735772212625405e+18
14068.0	1.573238838237593e+18
14069.0	1.5728887531044864e+18
14070.0	1.5725412382408701e+18
14071.0	1.572188782487142e+18
14072.0	1.5718412911116285e+18
14073.0	1.5714929508089856e+18
14074.0	1.5711447464017915e+18
14075.0	1.5707905760165888e+18
14076.0	1.570435974456934e+18
14077.0	1.5699853954777085e+18
14078.0	1.569744815233433e+18
14079.0	1.5694016104366075e+18
14080.0	1.569057236267827e+18
14081.0	1.5687095653761021e+18
14082.0	1.568356955271987e+18
14083.0	1.5680141984268285e+18
14084.0	1.5676673680736256e+18
14085.0	1.5671765741076475e+18
14086.0	1.5669646594146301e+18
14087.0	1.5666259458785277e+18
14088.0	1.566274251810406e+18
14089.0	1.5659221433450493e+18
14090.0	1.5655827503316992e+18
14091.0	1.5652386412429307e+18
14092.0	1.564892047448473e+18
14093.0	1.564543930282803e+18
14094.0	1.5641958332497915e+18
14095.0	1.5638495297011707e+18
14096.0	1.5634808956780544e+18
14097.0	1.5631475525287933e+18
14098.0	1.5628008396161027e+18
14099.0	1.5624650469933053e+18
14100.0	1.5621152353288187e+18
14101.0	1.561773433107251e+18
14102.0	1.5614270389616632e+18
14103.0	1.561077232330342e+18
14104.0	1.5607356633120768e+18
14105.0	1.5603903898845181e+18
14106.0	1.5600457875455997e+18
14107.0	1.5596980998766587e+18
14108.0	1.5593512930115581e+18
14109.0	1.5590086754172923e+18
14110.0	1.5586594408890363e+18
14111.0	1.5583073106132992e+18
14112.0	1.5579725145571325e+18
14113.0	1.5576249611059197e+18
14114.0	1.5572817160437757e+18
14115.0	1.5569401705136123e+18
14116.0	1.55655964983296e+18
14117.0	1.555469026774221e+18
14118.0	1.5559065010700288e+18
14119.0	1.5555484450815997e+18
14120.0	1.555205545630105e+18
14121.0	1.5548672162922493e+18
14122.0	1.5545093129764864e+18
14123.0	1.5541665343209467e+18
14124.0	1.5538168702959616e+18
14125.0	1.5533462257663997e+18
14126.0	1.553149673970073e+18
14127.0	1.5528112137699325e+18
14128.0	1.5524673781497853e+18
14129.0	1.5521209319948285e+18
14130.0	1.5517743801434107e+18
14131.0	1.5514382972747776e+18
14132.0	1.5510935707844605e+18
14133.0	1.5505747538345976e+18
14134.0	1.5504093959159805e+18
14135.0	1.5500606798036987e+18
14136.0	1.5496747853807613e+18
14137.0	1.5493810213617664e+18
14138.0	1.5490282871062528e+18
14139.0	1.5486965730246653e+18
14140.0	1.5483446071656448e+18
14141.0	1.5480116247265277e+18
14142.0	1.5476009553887232e+18
14143.0	1.5473176402198525e+18
14144.0	1.546986186185113e+18
14145.0	1.5466433035108347e+18
14146.0	1.5462976928612347e+18
14147.0	1.5459567647326205e+18
14148.0	1.5456125835018237e+18
14149.0	1.545269387093606e+18
14150.0	1.5449331414859773e+18
14151.0	1.5445840025878528e+18
14152.0	1.544250067202867e+18
14153.0	1.5439094930735104e+18
14154.0	1.5435603659194365e+18
14155.0	1.5429058917564416e+18
14156.0	1.542876397410713e+18
14157.0	1.5425456144646144e+18
14158.0	1.5422025422077947e+18
14159.0	1.5418640568418301e+18
14160.0	1.541523668939571e+18
14161.0	1.5411624621899776e+18
14162.0	1.540808610571878e+18
14163.0	1.5405024616120315e+18
14164.0	1.540135084202393e+18
14165.0	1.5397214771740672e+18
14166.0	1.539482155220992e+18
14167.0	1.5391383162454013e+18
14168.0	1.5387974099271672e+18
14169.0	1.5384633386467325e+18
14170.0	1.5381200633855997e+18
14171.0	1.537782247430553e+18
14172.0	1.5374447116550141e+18
14173.0	1.5370576478601213e+18
14174.0	1.536763967727206e+18
14175.0	1.5364267305861115e+18
14176.0	1.5360856397185021e+18
14177.0	1.535746505074278e+18
14178.0	1.5354056004337664e+18
14179.0	1.53505755037696e+18
14180.0	1.5347290306772992e+18
14181.0	1.534390357406515e+18
14182.0	1.534051511330406e+18
14183.0	1.5337132709117947e+18
14184.0	1.5333731866771453e+18
14185.0	1.533036511572787e+18
14186.0	1.532554060916326e+18
14187.0	1.532352210875187e+18
14188.0	1.532020771939942e+18
14189.0	1.5316817933238272e+18
14190.0	1.5313450645323773e+18
14191.0	1.5310066798297085e+18
14192.0	1.5306674042568701e+18
14193.0	1.530309296259072e+18
14194.0	1.5299939366076416e+18
14195.0	1.529658125529907e+18
14196.0	1.5293206451191805e+18
14197.0	1.5289828224532475e+18
14198.0	1.528644379030323e+18
14199.0	1.5283067325251581e+18
14200.0	1.5278819602595837e+18
14201.0	1.527634268153446e+18
14202.0	1.5272976064708603e+18
14203.0	1.5269502006591485e+18
14204.0	1.5266239844712448e+18
14205.0	1.5262874821722107e+18
14206.0	1.5259109628575741e+18
14207.0	1.525615420453683e+18
14208.0	1.5252792570544123e+18
14209.0	1.524895996654387e+18
14210.0	1.524580160530022e+18
14211.0	1.5242685002547197e+18
14212.0	1.5239345346707453e+18
14213.0	1.5235954923012093e+18
14214.0	1.5232597198110715e+18
14215.0	1.522919669130854e+18
14216.0	1.5225887234457597e+18
14217.0	1.5222531287941115e+18
14218.0	1.5219139756949504e+18
14219.0	1.521582365632102e+18
14220.0	1.521246328061952e+18
14221.0	1.520909319090995e+18
14222.0	1.520555652022272e+18
14223.0	1.5202409097723904e+18
14224.0	1.5199068821127163e+18
14225.0	1.5193076637106176e+18
14226.0	1.519237232957849e+18
14227.0	1.5189026499723264e+18
14228.0	1.5178578857558016e+18
14229.0	1.5181608235565048e+18
14230.0	1.5178991577071613e+18
14231.0	1.517546275812147e+18
14232.0	1.5172305957158907e+18
14233.0	1.516893986042675e+18
14234.0	1.516562392757043e+18
14235.0	1.516227509459353e+18
14236.0	1.5158943022055421e+18
14237.0	1.5155601453613053e+18
14238.0	1.5152266948378621e+18
14239.0	1.5148893218013181e+18
14240.0	1.5140446174969853e+18
14241.0	1.5142242645704704e+18
14242.0	1.513892372650393e+18
14243.0	1.5135091894255613e+18
14244.0	1.5132265117908992e+18
14245.0	1.5128865433190397e+18
14246.0	1.512548871648051e+18
14247.0	1.5122182866731005e+18
14248.0	1.5118615560847352e+18
14249.0	1.5115325431349243e+18
14250.0	1.5112006059163648e+18
14251.0	1.5108688213704704e+18
14252.0	1.5105362835275773e+18
14253.0	1.5102036450213883e+18
14254.0	1.5098679966826493e+18
14255.0	1.509525447874969e+18
14256.0	1.508958752106086e+18
14257.0	1.5088682524475387e+18
14258.0	1.5085398904537085e+18
14259.0	1.5082017473429501e+18
14260.0	1.5078678337683453e+18
14261.0	1.507537906460262e+18
14262.0	1.5072194598010877e+18
14263.0	1.5065252102144e+18
14264.0	1.5065062519603197e+18
14265.0	1.5062204470525947e+18
14266.0	1.5058929155309563e+18
14267.0	1.505562317134233e+18
14268.0	1.5052312573640704e+18
14269.0	1.5048972582256635e+18
14270.0	1.5045692066103293e+18
14271.0	1.5042367392317437e+18
14272.0	1.5039073454391293e+18
14273.0	1.503576565848473e+18
14274.0	1.5027202114453507e+18
14275.0	1.502868637797581e+18
14276.0	1.502573466170163e+18
14277.0	1.5022461443637248e+18
14278.0	1.501924285218816e+18
14279.0	1.5015939871342587e+18
14280.0	1.5012612647419901e+18
14281.0	1.5009338456276987e+18
14282.0	1.5006039720067067e+18
14283.0	1.5002740933525504e+18
14284.0	1.4999442885181437e+18
14285.0	1.499614535693107e+18
14286.0	1.499283655439155e+18
14287.0	1.4989554008195072e+18
14288.0	1.498625882875494e+18
14289.0	1.4979687864336369e+18
14290.0	1.4979651306782715e+18
14291.0	1.4976377065308157e+18
14292.0	1.4973081902645243e+18
14293.0	1.496979140404838e+18
14294.0	1.4966054094635005e+18
14295.0	1.4963176483323901e+18
14296.0	1.495728263056589e+18
14297.0	1.4956646237208576e+18
14298.0	1.4952196030332925e+18
14299.0	1.4949998265368573e+18
14300.0	1.494675850107289e+18
14301.0	1.4943484293152765e+18
14302.0	1.494020652846285e+18
14303.0	1.4936794596376573e+18
14304.0	1.4933572834033664e+18
14305.0	1.493033655939891e+18
14306.0	1.4926796281610237e+18
14307.0	1.4923715112337403e+18
14308.0	1.4920510227873792e+18
14309.0	1.4917215534972925e+18
14310.0	1.491287979904204e+18
14311.0	1.4909192301182976e+18
14312.0	1.490718287724544e+18
14313.0	1.4903772790652925e+18
14314.0	1.49008236412928e+18
14315.0	1.4897577468100603e+18
14316.0	1.4894151342489597e+18
14317.0	1.4890865759617021e+18
14318.0	1.488778089935667e+18
14319.0	1.4884513905639421e+18
14320.0	1.4881244428894203e+18
14321.0	1.4877969700880384e+18
14322.0	1.4874558339219453e+18
14323.0	1.4871405766115323e+18
14324.0	1.4868172930809856e+18
14325.0	1.4864889377980413e+18
14326.0	1.486165716343193e+18
14327.0	1.4858373291835392e+18
14328.0	1.4855112438579197e+18
14329.0	1.4851873580253181e+18
14330.0	1.4848614002065405e+18
14331.0	1.4845334811312123e+18
14332.0	1.4842097144168448e+18
14333.0	1.4838840283889664e+18
14334.0	1.4835584145031165e+18
14335.0	1.4832241469292541e+18
14336.0	1.4828760633180157e+18
14337.0	1.4825809772543997e+18
14338.0	1.4822558247419901e+18
14339.0	1.4819268352802816e+18
14340.0	1.4816064072318973e+18
14341.0	1.481278630762905e+18
14342.0	1.4809555921797115e+18
14343.0	1.4806269030301693e+18
14344.0	1.4803032101355515e+18
14345.0	1.479982226761318e+18
14346.0	1.4796565826764797e+18
14347.0	1.4793170051137536e+18
14348.0	1.4790082523299835e+18
14349.0	1.4786842004029435e+18
14350.0	1.4783392960741373e+18
14351.0	1.4780122175373307e+18
14352.0	1.4777083335016445e+18
14353.0	1.477386952507392e+18
14354.0	1.4770607598075901e+18
14355.0	1.4767320891129853e+18
14356.0	1.476411070506598e+18
14357.0	1.4760920936873981e+18
14358.0	1.4757668539334653e+18
14359.0	1.4754370893643776e+18
14360.0	1.4751163542929403e+18
14361.0	1.474794532057907e+18
14362.0	1.47447166795776e+18
14363.0	1.4741483257069568e+18
14364.0	1.4737535494258685e+18
14365.0	1.473494883342745e+18
14366.0	1.4731665012162557e+18
14367.0	1.472856360956723e+18
14368.0	1.472533349217075e+18
14369.0	1.4722107669741565e+18
14370.0	1.4718881444659197e+18
14371.0	1.4715656461090813e+18
14372.0	1.4712406529802237e+18
14373.0	1.470920157822976e+18
14374.0	1.470598280223129e+18
14375.0	1.4702754161229827e+18
14376.0	1.4699538824560637e+18
14377.0	1.4696315602599936e+18
14378.0	1.4693088689651707e+18
14379.0	1.468987798349414e+18
14380.0	1.4686658670624763e+18
14381.0	1.4682883998351357e+18
14382.0	1.4679410259001341e+18
14383.0	1.4676129843511293e+18
14384.0	1.4672919556784128e+18
14385.0	1.4669770322345981e+18
14386.0	1.4666500375838712e+18
14387.0	1.466334327288627e+18
14388.0	1.4660118373203965e+18
14389.0	1.4656920870715387e+18
14390.0	1.4653703218790397e+18
14391.0	1.4650500129488893e+18
14392.0	1.4647258150600701e+18
14393.0	1.4644085881044987e+18
14394.0	1.464075669418803e+18
14395.0	1.4637557916631037e+18
14396.0	1.4634463325585403e+18
14397.0	1.4631263407177725e+18
14398.0	1.462804396009062e+18
14399.0	1.4624855534075901e+18
14400.0	1.462154812404531e+18
14401.0	1.4618433484226552e+18
14402.0	1.4615243514707965e+18
14403.0	1.4595071613599706e+18
14404.0	1.4559292589866995e+18
14405.0	1.4601080054743017e+18
14406.0	1.4602457212518397e+18
14407.0	1.4572636365389834e+18
14408.0	1.459591403116953e+18
14409.0	1.4592805162713085e+18
14410.0	1.4589620947779581e+18
14411.0	1.458647223343513e+18
14412.0	1.4583279025913853e+18
14413.0	1.4580098132869115e+18
14414.0	1.4576898298347515e+18
14415.0	1.4573709016694781e+18
14416.0	1.457049270694707e+18
14417.0	1.456717484471091e+18
14418.0	1.4563944710537213e+18
14419.0	1.456095427244851e+18
14420.0	1.4557755981430781e+18
14421.0	1.4554585104383997e+18
14422.0	1.4551376512155645e+18
14423.0	1.4548164262494208e+18
14424.0	1.4438884607786926e+18
14425.0	1.4541809841602557e+18
14426.0	1.4538641011376128e+18
14427.0	1.4535460000890877e+18
14428.0	1.4532193292386304e+18
14429.0	1.4529096637743104e+18
14430.0	1.452592576069632e+18
14431.0	1.4521581720043515e+18
14432.0	1.451949465115033e+18
14433.0	1.4496425257730028e+18
14434.0	1.4513169959485437e+18
14435.0	1.4509859529555963e+18
14436.0	1.4506870953738235e+18
14437.0	1.450369878484582e+18
14438.0	1.4499928927633408e+18
14439.0	1.4497236570341373e+18
14440.0	1.449418153997107e+18
14441.0	1.4490988298895357e+18
14442.0	1.4487793413652477e+18
14443.0	1.4484496120283136e+18
14444.0	1.4481492092649467e+18
14445.0	1.4478340878499835e+18
14446.0	1.4453153479000074e+18
14447.0	1.4471980854018048e+18
14448.0	1.4468847239167997e+18
14449.0	1.4465683676987392e+18
14450.0	1.4462500636459008e+18
14451.0	1.4459347224494075e+18
14452.0	1.445618928268083e+18
14453.0	1.445269388394496e+18
14454.0	1.444987272796569e+18
14455.0	1.4446687875497981e+18
14456.0	1.4443478008201213e+18
14457.0	1.4440280673484797e+18
14458.0	1.4437205929885693e+18
14459.0	1.4434049565130747e+18
14460.0	1.4430921654534141e+18
14461.0	1.4427668552351741e+18
14462.0	1.4423343755165693e+18
14463.0	1.4421442057732093e+18
14464.0	1.441831629461913e+18
14465.0	1.4415089364893693e+18
14466.0	1.4412005981028347e+18
14467.0	1.4408589401653248e+18
14468.0	1.4405688839110656e+18
14469.0	1.440243370688512e+18
14470.0	1.4399313782243325e+18
14471.0	1.439621789935206e+18
14472.0	1.4393096632532987e+18
14473.0	1.4389976036802557e+18
14474.0	1.4386840089919485e+18
14475.0	1.4383675806318592e+18
14476.0	1.4379243836276736e+18
14477.0	1.4377409079934976e+18
14478.0	1.4374258570428413e+18
14479.0	1.4371098279804925e+18
14480.0	1.4367933778100221e+18
14481.0	1.436485415233126e+18
14482.0	1.4361705018556413e+18
14483.0	1.435854076850995e+18
14484.0	1.435542708499251e+18
14485.0	1.4352157641801723e+18
14486.0	1.4348163590651901e+18
14487.0	1.434603050185523e+18
14488.0	1.4342676283391997e+18
14489.0	1.433965264319283e+18
14490.0	1.4336595968655357e+18
14491.0	1.4333502585569277e+18
14492.0	1.4330364340207613e+18
14493.0	1.432719995594342e+18
14494.0	1.4324039732428797e+18
14495.0	1.432098872859033e+18
14496.0	1.4317403269758976e+18
14497.0	1.4314731716214781e+18
14498.0	1.4311602111119357e+18
14499.0	1.4308481767047165e+18
14500.0	1.430533365668249e+18
14501.0	1.4301654480322557e+18
14502.0	1.4297735876313088e+18
14503.0	1.4295843188244477e+18
14504.0	1.4292814380662781e+18
14505.0	1.4289233636229115e+18
14506.0	1.4285415024427008e+18
14507.0	1.4282647169662976e+18
14508.0	1.4280355368402941e+18
14509.0	1.427723698726502e+18
14510.0	1.4274108053258237e+18
14511.0	1.4271002221477885e+18
14512.0	1.4267832216846336e+18
14513.0	1.4264770341371901e+18
14514.0	1.4261458602819581e+18
14515.0	1.425852876403507e+18
14516.0	1.4247278046871557e+18
14517.0	1.425231468455526e+18
14518.0	1.4249202678759421e+18
14519.0	1.424609201514086e+18
14520.0	1.4242978264514557e+18
14521.0	1.4239852434292736e+18
14522.0	1.4236747021942781e+18
14523.0	1.4232348186902523e+18
14524.0	1.4229265625120763e+18
14525.0	1.422742023202406e+18
14526.0	1.4224324617568253e+18
14527.0	1.4221165769785341e+18
14528.0	1.421755720872755e+18
14529.0	1.421498349990707e+18
14530.0	1.4211847301365757e+18
14531.0	1.4208804233150464e+18
14532.0	1.4203770044940285e+18
14533.0	1.4202606041694203e+18
14534.0	1.4199508497858557e+18
14535.0	1.4196368943874045e+18
14536.0	1.419329567666995e+18
14537.0	1.4190159746564093e+18
14538.0	1.4187111309639675e+18
14539.0	1.4184016064282621e+18
14540.0	1.4180919577411581e+18
14541.0	1.4177749153349632e+18
14542.0	1.4174721570504701e+18
14543.0	1.417083484320563e+18
14544.0	1.4168539233517565e+18
14545.0	1.4165411557801981e+18
14546.0	1.4026962238439327e+18
14547.0	1.4039907689299848e+18
14548.0	1.4156125955948541e+18
14549.0	1.415267484906291e+18
14550.0	1.4149963248304125e+18
14551.0	1.4146903788748795e+18
14552.0	1.4143807184437248e+18
14553.0	1.414069189030707e+18
14554.0	1.413764120523571e+18
14555.0	1.413455163057766e+18
14556.0	1.4131435581472765e+18
14557.0	1.4128384007208957e+18
14558.0	1.4125298643632125e+18
14559.0	1.4116012957892585e+18
14560.0	1.411891637256192e+18
14561.0	1.4116026849427453e+18
14562.0	1.4112865568948221e+18
14563.0	1.4109882529611773e+18
14564.0	1.4106692677533693e+18
14565.0	1.4103728730669053e+18
14566.0	1.4100649675325435e+18
14567.0	1.4097567952404477e+18
14568.0	1.4094198013689853e+18
14569.0	1.4091415428530176e+18
14570.0	1.4086509485359101e+18
14571.0	1.4085251680698365e+18
14572.0	1.408193945560678e+18
14573.0	1.407892663671193e+18
14574.0	1.4075720410071037e+18
14575.0	1.407293915870003e+18
14576.0	1.4069854474600445e+18
14577.0	1.4066798445985792e+18
14578.0	1.4063736755060733e+18
14579.0	1.406067845313331e+18
14580.0	1.4057609136963581e+18
14581.0	1.4054497911308283e+18
14582.0	1.405145446560563e+18
14583.0	1.4048401364615165e+18
14584.0	1.4045264117497856e+18
14585.0	1.404226642326323e+18
14586.0	1.403918809772851e+18
14587.0	1.4036108908167165e+18
14588.0	1.4033070873116667e+18
14589.0	1.403012076745523e+18
14590.0	1.4027171878141947e+18
14591.0	1.4024193846804477e+18
14592.0	1.4021241442664445e+18
14593.0	1.4017928873639933e+18
14594.0	1.401538093462323e+18
14595.0	1.4012417021313021e+18
14596.0	1.4008826000834557e+18
14597.0	1.4005837433405437e+18
14598.0	1.4003572760903677e+18
14599.0	1.4000691332775936e+18
14600.0	1.399773334182297e+18
14601.0	1.3994814651498493e+18
14602.0	1.3991780710088701e+18
14603.0	1.3988940075761661e+18
14604.0	1.3985815428333565e+18
14605.0	1.3982887124664317e+18
14606.0	1.3979828453638144e+18
14607.0	1.3977194296508413e+18
14608.0	1.3974257193189373e+18
14609.0	1.397123244569395e+18
14610.0	1.3968053976956925e+18
14611.0	1.3965446956974077e+18
14612.0	1.3962538416865277e+18
14613.0	1.3959609291112445e+18
14614.0	1.395666462126899e+18
14615.0	1.3953700229808125e+18
14616.0	1.3950818063482877e+18
14617.0	1.3947888484745213e+18
14618.0	1.3944839527727104e+18
14619.0	1.3941739375034363e+18
14620.0	1.393741679244083e+18
14621.0	1.3936173592346621e+18
14622.0	1.3933235373342717e+18
14623.0	1.3930317949698045e+18
14624.0	1.3927193746866173e+18
14625.0	1.3924452123279357e+18
14626.0	1.392150083482419e+18
14627.0	1.3918534480429053e+18
14628.0	1.3915684366974973e+18
14629.0	1.3912758546333693e+18
14630.0	1.3909818171457533e+18
14631.0	1.3906636565381117e+18
14632.0	1.3894688402571267e+18
14633.0	1.3899913465167864e+18
14634.0	1.3897786877542397e+18
14635.0	1.389215708977559e+18
14636.0	1.388109228094259e+18
14637.0	1.3889056207273981e+18
14638.0	1.3886097922719741e+18
14639.0	1.388315017425715e+18
14640.0	1.3880274106449917e+18
14641.0	1.384341202953827e+18
14642.0	1.3874425929662464e+18
14643.0	1.3871515351121917e+18
14644.0	1.3868549248385021e+18
14645.0	1.3865589017673728e+18
14646.0	1.38625891172352e+18
14647.0	1.385966156854067e+18
