# Flux units: erg / (cm m2 s)
# Wavelength units: Angstrom
wave	flux
14000.0	1.6443366933790707e+18
14001.0	1.644008339773849e+18
14002.0	1.643905522283315e+18
14003.0	1.6436137463644157e+18
14004.0	1.6433126607683581e+18
14005.0	1.643020574470963e+18
14006.0	1.6427136822804477e+18
14007.0	1.6424156283273213e+18
14008.0	1.6419994074087421e+18
14009.0	1.6418319271723003e+18
14010.0	1.6415219496517624e+18
14011.0	1.6404124186705915e+18
14012.0	1.640943756456755e+18
14013.0	1.640647871797657e+18
14014.0	1.6403449960726523e+18
14015.0	1.6400525356433405e+18
14016.0	1.6397592061542397e+18
14017.0	1.6394631637893115e+18
14018.0	1.6391551777243139e+18
14019.0	1.6388710455050237e+18
14020.0	1.6385742951415805e+18
14021.0	1.638277494446489e+18
14022.0	1.6379570345213947e+18
14023.0	1.6376272095543293e+18
14024.0	1.6373412519739387e+18
14025.0	1.6370906842529787e+18
14026.0	1.6367983026765821e+18
14027.0	1.6365051241824253e+18
14028.0	1.636202389386035e+18
14029.0	1.6359086387888125e+18
14030.0	1.6292305669455923e+18
14031.0	1.635150119043071e+18
14032.0	1.6350173374447608e+18
14033.0	1.6346200261263357e+18
14034.0	1.6344284689072125e+18
14035.0	1.6341429794111485e+18
14036.0	1.6338273295138813e+18
14037.0	1.6335507000655872e+18
14038.0	1.6332594895388672e+18
14039.0	1.6329601705836541e+18
14040.0	1.6326617055887352e+18
14041.0	1.632371667789414e+18
14042.0	1.6320659214827515e+18
14043.0	1.6317343550406653e+18
14044.0	1.6314693975015421e+18
14045.0	1.6311861980954621e+18
14046.0	1.6308992976355325e+18
14047.0	1.6305779954941947e+18
14048.0	1.6303028978057208e+18
14049.0	1.6300212788133885e+18
14050.0	1.6297275047280637e+18
14051.0	1.6294216745353216e+18
14052.0	1.6291358142627835e+18
14053.0	1.6288455935918075e+18
14054.0	1.6285522775244797e+18
14055.0	1.6282586762444797e+18
14056.0	1.6279650078556157e+18
14057.0	1.6276714736844797e+18
14058.0	1.627377926091571e+18
14059.0	1.627066841274777e+18
14060.0	1.6267907587637243e+18
14061.0	1.6264889400033275e+18
14062.0	1.6262046634999805e+18
14063.0	1.6258920284684285e+18
14064.0	1.6242758993838085e+18
14065.0	1.6253140164673533e+18
14066.0	1.6250317616185341e+18
14067.0	1.6246823156973565e+18
14068.0	1.6244441798934528e+18
14069.0	1.6241397438873597e+18
14070.0	1.6238573682425853e+18
14071.0	1.623564740041113e+18
14072.0	1.623275963888435e+18
14073.0	1.6229834178953216e+18
14074.0	1.6226909088120832e+18
14075.0	1.6223713531789307e+18
14076.0	1.6220435314114552e+18
14077.0	1.6203444222165e+18
14078.0	1.6214170248675325e+18
14079.0	1.6212173642530813e+18
14080.0	1.6209325643005947e+18
14081.0	1.620644804847206e+18
14082.0	1.6203501398917115e+18
14083.0	1.620057976419123e+18
14084.0	1.6197690526269435e+18
14085.0	1.618513549800243e+18
14086.0	1.6190680535662587e+18
14087.0	1.6188870324387837e+18
14088.0	1.6185710721630203e+18
14089.0	1.618266756952883e+18
14090.0	1.6179949257883643e+18
14091.0	1.617728767000576e+18
14092.0	1.6174376974024704e+18
14093.0	1.6171464214446077e+18
14094.0	1.6168550985105403e+18
14095.0	1.6165633091698685e+18
14096.0	1.6159908705599488e+18
14097.0	1.615931381907456e+18
14098.0	1.615562403951411e+18
14099.0	1.6153995240275965e+18
14100.0	1.615089512952627e+18
14101.0	1.6148189417570301e+18
14102.0	1.614528046641971e+18
14103.0	1.6142167739203581e+18
14104.0	1.6139439143124992e+18
14105.0	1.6136562924322816e+18
14106.0	1.6133660600172541e+18
14107.0	1.613065613633126e+18
14108.0	1.6127619124690941e+18
14109.0	1.6124877945700347e+18
14110.0	1.6121956529078272e+18
14111.0	1.611902964308377e+18
14112.0	1.6116126731730944e+18
14113.0	1.6113021436821496e+18
14114.0	1.6110271349129208e+18
14115.0	1.610745131722342e+18
14116.0	1.6103153816567803e+18
14117.0	1.5992008568995853e+18
14118.0	1.6098717685776384e+18
14119.0	1.6094245316198397e+18
14120.0	1.6091599448571901e+18
14121.0	1.6089844434337787e+18
14122.0	1.6084666498940925e+18
14123.0	1.6083157203812347e+18
14124.0	1.6079865765691387e+18
14125.0	1.60728445175726e+18
14126.0	1.6075442670796795e+18
14127.0	1.6072751253028861e+18
14128.0	1.606988738225766e+18
14129.0	1.6066875351891965e+18
14130.0	1.6063907814703104e+18
14131.0	1.6061213846798328e+18
14132.0	1.6058289225727997e+18
14133.0	1.6048788758069235e+18
14134.0	1.6052499425263608e+18
14135.0	1.6049258251681787e+18
14136.0	1.6044542880907261e+18
14137.0	1.604371663657369e+18
14138.0	1.603977392370483e+18
14139.0	1.6038154872029181e+18
14140.0	1.6035200471400443e+18
14141.0	1.6031905057079293e+18
14142.0	1.602121528613274e+18
14143.0	1.6026562688188413e+18
14144.0	1.6023753645359101e+18
14145.0	1.6020858048872448e+18
14146.0	1.6017761947877376e+18
14147.0	1.6014991794634747e+18
14148.0	1.60119492968448e+18
14149.0	1.6009136227483643e+18
14150.0	1.6006471670038525e+18
14151.0	1.6003238012649472e+18
14152.0	1.6000744415035392e+18
14153.0	1.5997867659362301e+18
14154.0	1.5994704600498168e+18
14155.0	1.5982151317061632e+18
14156.0	1.598760631140351e+18
14157.0	1.5986366491918328e+18
14158.0	1.5983432307834877e+18
14159.0	1.5980628180729853e+18
14160.0	1.5977665022394365e+18
14161.0	1.5974177576058877e+18
14162.0	1.5970720093831165e+18
14163.0	1.5969042238013437e+18
14164.0	1.5962955296276475e+18
14165.0	1.5962598595887104e+18
14166.0	1.596052781767065e+18
14167.0	1.5957514445127675e+18
14168.0	1.5954573701152765e+18
14169.0	1.5951878105858048e+18
14170.0	1.5948911055208448e+18
14171.0	1.5945728081788918e+18
14172.0	1.5939370892656635e+18
14173.0	1.5936000601620477e+18
14174.0	1.593352129819443e+18
14175.0	1.5930761630711803e+18
14176.0	1.5927892156350467e+18
14177.0	1.5925053099081725e+18
14178.0	1.5922197717581821e+18
14179.0	1.5919247360262141e+18
14180.0	1.5916493095043072e+18
14181.0	1.591363558283673e+18
14182.0	1.5910768222404605e+18
14183.0	1.5907921565057021e+18
14184.0	1.5905000567865341e+18
14185.0	1.5902189813759995e+18
14186.0	1.588018277043405e+18
14187.0	1.5896154008977405e+18
14188.0	1.5893597278699515e+18
14189.0	1.5890619255750653e+18
14190.0	1.5887789912489981e+18
14191.0	1.5884850628132864e+18
14192.0	1.5882133541224448e+18
14193.0	1.5876097283457021e+18
14194.0	1.587635971266969e+18
14195.0	1.5873696077971453e+18
14196.0	1.5870845930962944e+18
14197.0	1.5867998619303933e+18
14198.0	1.5865087923322877e+18
14199.0	1.5862273109131256e+18
14200.0	1.5846890734092293e+18
14201.0	1.5855827420184566e+18
14202.0	1.585370510236057e+18
14203.0	1.585080693895987e+18
14204.0	1.5848049150525437e+18
14205.0	1.5845208096767997e+18
14206.0	1.5840849376051197e+18
14207.0	1.5839550500765693e+18
14208.0	1.5836718087274496e+18
14209.0	1.5832255767248893e+18
14210.0	1.582986657424998e+18
14211.0	1.5828141238910968e+18
14212.0	1.5825350416138235e+18
14213.0	1.5822397995220987e+18
14214.0	1.581967354311475e+18
14215.0	1.5816612321951741e+18
14216.0	1.5814009403998205e+18
14217.0	1.581118071504896e+18
14218.0	1.580819801125683e+18
14219.0	1.5805313353515003e+18
14220.0	1.580234643708313e+18
14221.0	1.5799491659563005e+18
14222.0	1.579582711293542e+18
14223.0	1.5793935465054203e+18
14224.0	1.579113291500748e+18
14225.0	1.5748167068811295e+18
14226.0	1.57852765257728e+18
14227.0	1.5782592456425472e+18
14228.0	1.5675258405126172e+18
14229.0	1.575335644626936e+18
14230.0	1.577415584881049e+18
14231.0	1.5770396628353021e+18
14232.0	1.5768511372591101e+18
14233.0	1.5765635824877565e+18
14234.0	1.5762862215528443e+18
14235.0	1.5760004384555003e+18
14236.0	1.5757209451364347e+18
14237.0	1.5754138566524923e+18
14238.0	1.575132361811558e+18
14239.0	1.5748295397736443e+18
14240.0	1.5724048478633981e+18
14241.0	1.5742606596112381e+18
14242.0	1.5739938028912635e+18
14243.0	1.5735334427951104e+18
14244.0	1.5734431159418875e+18
14245.0	1.5731422937481216e+18
14246.0	1.572855782519603e+18
14247.0	1.5725919775752192e+18
14248.0	1.5722923717296125e+18
14249.0	1.572031110211174e+18
14250.0	1.5717490835324928e+18
14251.0	1.5714704055861243e+18
14252.0	1.571188560101376e+18
14253.0	1.5709057985806333e+18
14254.0	1.5706217871572987e+18
14255.0	1.5702966145122301e+18
14256.0	1.5661512278409244e+18
14257.0	1.5695630374535158e+18
14258.0	1.5694789181702141e+18
14259.0	1.5691752522383357e+18
14260.0	1.568788832688537e+18
14261.0	1.5686132909998077e+18
14262.0	1.5683712729481213e+18
14263.0	1.5624665602981926e+18
14264.0	1.566674735700376e+18
14265.0	1.5675195540897787e+18
14266.0	1.5672499173851133e+18
14267.0	1.566922647588044e+18
14268.0	1.566505020738765e+18
14269.0	1.5662182796623867e+18
14270.0	1.5659480960204795e+18
14271.0	1.565665878081536e+18
14272.0	1.5653847640834043e+18
14273.0	1.5650952094679037e+18
14274.0	1.5563650005729318e+18
14275.0	1.5637672139685893e+18
14276.0	1.56424378253312e+18
14277.0	1.5639654267092987e+18
14278.0	1.5637036618743805e+18
14279.0	1.5634171204468733e+18
14280.0	1.5631159962632187e+18
14281.0	1.5628446029840381e+18
14282.0	1.5625648714285053e+18
14283.0	1.5622847506415613e+18
14284.0	1.5620045359022077e+18
14285.0	1.5617229554974715e+18
14286.0	1.5614281361915901e+18
14287.0	1.5611642591051768e+18
14288.0	1.5608844050759675e+18
14289.0	1.5592165182799852e+18
14290.0	1.5603235729440765e+18
14291.0	1.5600445930078203e+18
14292.0	1.5597662220845053e+18
14293.0	1.559483650146304e+18
14294.0	1.559033990558515e+18
14295.0	1.5589113423986685e+18
14296.0	1.5575291145486344e+18
14297.0	1.558365854708531e+18
14298.0	1.5569220561534973e+18
14299.0	1.557780599983308e+18
14300.0	1.557523735773184e+18
14301.0	1.5572497822908413e+18
14302.0	1.556971805632102e+18
14303.0	1.556652593931878e+18
14304.0	1.5563916394364925e+18
14305.0	1.5561132701908992e+18
14306.0	1.5557610291855357e+18
14307.0	1.5555000981782528e+18
14308.0	1.5552575113789435e+18
14309.0	1.554952342208512e+18
14310.0	1.5544380836282365e+18
14311.0	1.552827048106393e+18
14312.0	1.5539079487684605e+18
14313.0	1.5536530978242557e+18
14314.0	1.5535440073326584e+18
14315.0	1.5533175149166587e+18
14316.0	1.5529836667731963e+18
14317.0	1.5526329894043648e+18
14318.0	1.5524961896628221e+18
14319.0	1.552220424241152e+18
14320.0	1.5519423553077248e+18
14321.0	1.5516623553167352e+18
14322.0	1.5513399140024315e+18
14323.0	1.5510862978613248e+18
14324.0	1.5508309100462083e+18
14325.0	1.5505447343620093e+18
14326.0	1.5502778390544381e+18
14327.0	1.5499926364487675e+18
14328.0	1.5497140927201272e+18
14329.0	1.549445194212966e+18
14330.0	1.5491676168519677e+18
14331.0	1.5488805402312696e+18
14332.0	1.5486077745758203e+18
14333.0	1.548316887849369e+18
14334.0	1.5480394849714173e+18
14335.0	1.547742786617344e+18
14336.0	1.5470754409742339e+18
14337.0	1.5472042228842496e+18
14338.0	1.546926477751091e+18
14339.0	1.546635007177523e+18
14340.0	1.546374099658342e+18
14341.0	1.5460705595555837e+18
14342.0	1.5458177906638843e+18
14343.0	1.5455421577822203e+18
14344.0	1.5452564921253885e+18
14345.0	1.5449886992367613e+18
14346.0	1.5447013223038973e+18
14347.0	1.544246963417907e+18
14348.0	1.5441547860377597e+18
14349.0	1.543885087257395e+18
14350.0	1.5432893618716667e+18
14351.0	1.542983872256409e+18
14352.0	1.543045276866969e+18
14353.0	1.542777797712281e+18
14354.0	1.542463617499136e+18
14355.0	1.542111685194547e+18
14356.0	1.5418615671029757e+18
14357.0	1.541673746169856e+18
14358.0	1.5413999772368893e+18
14359.0	1.5411080234795003e+18
14360.0	1.5408201683959805e+18
14361.0	1.540560405082931e+18
14362.0	1.5402965212856312e+18
14363.0	1.5400198431834107e+18
14364.0	1.5387800689967104e+18
14365.0	1.5392460612042742e+18
14366.0	1.53898195091456e+18
14367.0	1.5389007642886144e+18
14368.0	1.5386245257494525e+18
14369.0	1.538349582411366e+18
14370.0	1.5380747498029053e+18
14371.0	1.5378004976861181e+18
14372.0	1.5375160416665597e+18
14373.0	1.537238155604787e+18
14374.0	1.536971859243827e+18
14375.0	1.5366933020934141e+18
14376.0	1.536423408697344e+18
14377.0	1.5361473245085693e+18
14378.0	1.5358694418022397e+18
14379.0	1.5355977498886141e+18
14380.0	1.535320004755456e+18
14381.0	1.5350340824072192e+18
14382.0	1.5347704687230973e+18
14383.0	1.5344915206635515e+18
14384.0	1.534201078533324e+18
14385.0	1.5339476721074173e+18
14386.0	1.533652408205312e+18
14387.0	1.5333977116114941e+18
14388.0	1.533120661055078e+18
14389.0	1.5328480883376125e+18
14390.0	1.532215778554675e+18
14391.0	1.531808827047936e+18
14392.0	1.5315357879238653e+18
14393.0	1.5312638393188347e+18
14394.0	1.530944124302131e+18
14395.0	1.530688073786982e+18
14396.0	1.5304389640060923e+18
14397.0	1.5301672200830976e+18
14398.0	1.5298922364796925e+18
14399.0	1.5296168787443712e+18
14400.0	1.5293135567454203e+18
14401.0	1.5290533823905787e+18
14402.0	1.5287764173979643e+18
14403.0	1.5269982606721e+18
14404.0	1.5220992985006057e+18
14405.0	1.5255286906355666e+18
14406.0	1.527680519582515e+18
14407.0	1.5252712576778248e+18
14408.0	1.5270601467887613e+18
14409.0	1.5268336610836475e+18
14410.0	1.526510199714611e+18
14411.0	1.5263093932163067e+18
14412.0	1.5260353759805437e+18
14413.0	1.5257671636615165e+18
14414.0	1.5254903832182781e+18
14415.0	1.525218328916787e+18
14416.0	1.524922756313907e+18
14417.0	1.5246072054022141e+18
14418.0	1.5242659652173821e+18
14419.0	1.5241231508439037e+18
14420.0	1.523845323502387e+18
14421.0	1.5235780456742907e+18
14422.0	1.523298834212454e+18
14423.0	1.522995867890483e+18
14424.0	1.5138391150559188e+18
14425.0	1.5224731468824573e+18
14426.0	1.5222128349544443e+18
14427.0	1.5219392975470587e+18
14428.0	1.521642894471987e+18
14429.0	1.5213885736878075e+18
14430.0	1.5211209150169088e+18
14431.0	1.519061087289344e+18
14432.0	1.5205702431670272e+18
14433.0	1.5186822225199094e+18
14434.0	1.5200084916436987e+18
14435.0	1.5195367163297792e+18
14436.0	1.5194851163242493e+18
14437.0	1.5192143236694013e+18
14438.0	1.5187286786310144e+18
14439.0	1.5186427021099005e+18
14440.0	1.5183964293562365e+18
14441.0	1.518109889606451e+18
14442.0	1.517820200773222e+18
14443.0	1.5174846967185405e+18
14444.0	1.5172831117574141e+18
14445.0	1.5170173874995197e+18
14446.0	1.5141752935546895e+18
14447.0	1.5164565385904125e+18
14448.0	1.5162015081299965e+18
14449.0	1.515926687265587e+18
14450.0	1.5156509973413885e+18
14451.0	1.515380013426278e+18
14452.0	1.5151112776581115e+18
14453.0	1.5148152990466048e+18
14454.0	1.5145586999164925e+18
14455.0	1.5142833203707901e+18
14456.0	1.5140006326697981e+18
14457.0	1.5137403610071035e+18
14458.0	1.5134678470098941e+18
14459.0	1.51319029481472e+18
14460.0	1.512897628025651e+18
14461.0	1.5124431080783867e+18
14462.0	1.5109021425991683e+18
14463.0	1.5120258352283643e+18
14464.0	1.5118250807394301e+18
14465.0	1.5115328887455741e+18
14466.0	1.5112992140034048e+18
14467.0	1.5109937294213115e+18
14468.0	1.5107574508552192e+18
14469.0	1.5103208741404672e+18
14470.0	1.510178539595366e+18
14471.0	1.509936472889753e+18
14472.0	1.5096704533528573e+18
14473.0	1.509404304631398e+18
14474.0	1.5091393538031613e+18
14475.0	1.5088646738673664e+18
14476.0	1.508490167818649e+18
14477.0	1.5083182919516157e+18
14478.0	1.5080535894261757e+18
14479.0	1.5077746614992896e+18
14480.0	1.5074895226470397e+18
14481.0	1.5072452296048635e+18
14482.0	1.5069694037852157e+18
14483.0	1.5066900597833725e+18
14484.0	1.5064191161335805e+18
14485.0	1.5061139536740347e+18
14486.0	1.5054897355423744e+18
14487.0	1.505610383858073e+18
14488.0	1.5052452411736064e+18
14489.0	1.5049100089098235e+18
14490.0	1.5047713636745213e+18
14491.0	1.5045368467161088e+18
14492.0	1.5042492030255101e+18
14493.0	1.5039551873482747e+18
14494.0	1.5036747662491648e+18
14495.0	1.50344055128064e+18
14496.0	1.5029909386690557e+18
14497.0	1.5028992327286781e+18
14498.0	1.5026306949316605e+18
14499.0	1.5023608317345792e+18
14500.0	1.502090228662272e+18
14501.0	1.501771146146611e+18
14502.0	1.5011636918091773e+18
14503.0	1.5012297940402173e+18
14504.0	1.5010017732198397e+18
14505.0	1.500698067022643e+18
14506.0	1.5003836485730301e+18
14507.0	1.4998682189430784e+18
14508.0	1.4999300664721403e+18
14509.0	1.4996602989051904e+18
14510.0	1.4993856340688893e+18
14511.0	1.499119938332262e+18
14512.0	1.4988297914810363e+18
14513.0	1.4985804216532992e+18
14514.0	1.498264682836787e+18
14515.0	1.4980392792621056e+18
14516.0	1.4941841770151956e+18
14517.0	1.4974982274678781e+18
14518.0	1.4972311509663741e+18
14519.0	1.4969554828525565e+18
14520.0	1.4966903709630464e+18
14521.0	1.4964206335950843e+18
14522.0	1.4961413885788157e+18
14523.0	1.4956311632412672e+18
14524.0	1.4955097465290747e+18
14525.0	1.4953359714811901e+18
14526.0	1.4950654942380032e+18
14527.0	1.4947657004875768e+18
14528.0	1.4943343297429501e+18
14529.0	1.4942499806117885e+18
14530.0	1.4939724451938301e+18
14531.0	1.4937231038873597e+18
14532.0	1.492773394343526e+18
14533.0	1.4926012752068605e+18
14534.0	1.4923343480225787e+18
14535.0	1.4920513717534723e+18
14536.0	1.4917911151902715e+18
14537.0	1.4915104038453248e+18
14538.0	1.4912575477121021e+18
14539.0	1.490988494854553e+18
14540.0	1.4907193547554816e+18
14541.0	1.490422515472793e+18
14542.0	1.4901787844673536e+18
14543.0	1.4898380861865984e+18
14544.0	1.489642124948275e+18
14545.0	1.4893547715035136e+18
14546.0	1.4772727550312397e+18
14547.0	1.4779881875308472e+18
14548.0	1.488532867435724e+18
14549.0	1.4881173880700925e+18
14550.0	1.4880007813857277e+18
14551.0	1.4877427729694715e+18
14552.0	1.487471277349273e+18
14553.0	1.4871918058405888e+18
14554.0	1.4869360103391232e+18
14555.0	1.4866665883828221e+18
14556.0	1.4863954417287165e+18
14557.0	1.4861285933973504e+18
14558.0	1.485857763832627e+18
14559.0	1.4829110740123612e+18
14560.0	1.4852741415305213e+18
14561.0	1.4850418743967744e+18
14562.0	1.4847164198944765e+18
14563.0	1.4845050068402173e+18
14564.0	1.4840792765956093e+18
14565.0	1.4839772124020736e+18
14566.0	1.4837085840080893e+18
14567.0	1.483432206218035e+18
14568.0	1.4830392435539968e+18
14569.0	1.4828956758835197e+18
14570.0	1.4818100255916024e+18
14571.0	1.4823580684517373e+18
14572.0	1.4819790744977405e+18
14573.0	1.4817436280815613e+18
14574.0	1.4811942782763003e+18
14575.0	1.481250760451686e+18
14576.0	1.4809670275301376e+18
14577.0	1.4807426758868992e+18
14578.0	1.4802394097385472e+18
14579.0	1.4799295614025725e+18
14580.0	1.4796584684355581e+18
14581.0	1.4793716870938621e+18
14582.0	1.4790983543685115e+18
14583.0	1.4788533868822525e+18
14584.0	1.478503865463603e+18
14585.0	1.4783162727006205e+18
14586.0	1.4780445589766144e+18
14587.0	1.4777778868060157e+18
14588.0	1.4775108807688187e+18
14589.0	1.4772480237371392e+18
14590.0	1.476985602913075e+18
14591.0	1.4767025847009277e+18
14592.0	1.4764464955981821e+18
14593.0	1.4760354621947896e+18
14594.0	1.4759302925385725e+18
14595.0	1.4756559850569723e+18
14596.0	1.4744243813744622e+18
14597.0	1.473964004501093e+18
14598.0	1.4747674100105213e+18
14599.0	1.4746099222839293e+18
14600.0	1.4743174920536064e+18
14601.0	1.4740720128622587e+18
14602.0	1.473724036625203e+18
14603.0	1.4735439919316992e+18
14604.0	1.473141996414566e+18
14605.0	1.472779907183411e+18
14606.0	1.4726326988570627e+18
14607.0	1.4724755869401085e+18
14608.0	1.4722183116881915e+18
14609.0	1.471929423128166e+18
14610.0	1.4712726739746816e+18
14611.0	1.4713719061741565e+18
14612.0	1.4711720777875453e+18
14613.0	1.4708997550505981e+18
14614.0	1.4706220921257984e+18
14615.0	1.4703584079773693e+18
14616.0	1.4701095649542144e+18
14617.0	1.4698263605149693e+18
14618.0	1.4695143512735741e+18
14619.0	1.4686214342836204e+18
14620.0	1.4667407587016704e+18
14621.0	1.4687879548633088e+18
14622.0	1.4685209823805437e+18
14623.0	1.4682607862153213e+18
14624.0	1.467887036819046e+18
14625.0	1.467383300908646e+18
14626.0	1.4671102064197632e+18
14627.0	1.4668426618339323e+18
14628.0	1.4665938439766013e+18
14629.0	1.4663288042291197e+18
14630.0	1.466033746686771e+18
14631.0	1.4657922235629565e+18
14632.0	1.4648102094897155e+18
14633.0	1.465131667659161e+18
14634.0	1.4649711952658432e+18
14635.0	1.4631774441177044e+18
14636.0	1.461035797263154e+18
14637.0	1.4642107075526653e+18
14638.0	1.4638881051770877e+18
14639.0	1.4636125528260603e+18
14640.0	1.463409236456243e+18
14641.0	1.4603840024215532e+18
14642.0	1.4628737060438013e+18
14643.0	1.4626036532641792e+18
14644.0	1.462315789792051e+18
14645.0	1.4620394153574397e+18
14646.0	1.4617330482937853e+18
14647.0	1.4613520259743741e+18
