# Flux units: erg / (cm m2 s)
# Wavelength units: Angstrom
wave	flux
14000.0	1.6779414452830205e+18
14001.0	1.6774125905248256e+18
14002.0	1.6771346138660861e+18
14003.0	1.676783748592435e+18
14004.0	1.6764330695458816e+18
14005.0	1.6760822395043835e+18
14006.0	1.6757266682216443e+18
14007.0	1.6753751519920125e+18
14008.0	1.6749693816012797e+18
14009.0	1.6746796961234936e+18
14010.0	1.674321437130752e+18
14011.0	1.6735847546093568e+18
14012.0	1.6736286891048957e+18
14013.0	1.6732786157158397e+18
14014.0	1.6729251013197821e+18
14015.0	1.6725770646847485e+18
14016.0	1.6722286807613437e+18
14017.0	1.6718788724523003e+18
14018.0	1.6715288611389432e+18
14019.0	1.671179512525619e+18
14020.0	1.6708294659801085e+18
14021.0	1.6704796643819515e+18
14022.0	1.6701289568141312e+18
14023.0	1.6697666763227133e+18
14024.0	1.6694211176824832e+18
14025.0	1.6690830332919803e+18
14026.0	1.668733183039897e+18
14027.0	1.668385463494246e+18
14028.0	1.6680329154658304e+18
14029.0	1.667685598573363e+18
14030.0	1.6667826253201413e+18
14031.0	1.6669789841784835e+18
14032.0	1.666641735293337e+18
14033.0	1.6662633671294976e+18
14034.0	1.6659447610867712e+18
14035.0	1.665596907323392e+18
14036.0	1.6652487045939195e+18
14037.0	1.664899136199065e+18
14038.0	1.664552629646131e+18
14039.0	1.6642022140018688e+18
14040.0	1.6638493925048315e+18
14041.0	1.6635067396784128e+18
14042.0	1.6631554281308157e+18
14043.0	1.662786540771737e+18
14044.0	1.6624585529098237e+18
14045.0	1.6621167557214203e+18
14046.0	1.6617687308304381e+18
14047.0	1.6614175904104443e+18
14048.0	1.6610756472602621e+18
14049.0	1.6607300600987643e+18
14050.0	1.660383075395174e+18
14051.0	1.6600294603358203e+18
14052.0	1.659687020580044e+18
14053.0	1.6593424970940408e+18
14054.0	1.658995938531737e+18
14055.0	1.6586488766529539e+18
14056.0	1.6583004356870144e+18
14057.0	1.6579502599569403e+18
14058.0	1.6576039194984443e+18
14059.0	1.6572576763478008e+18
14060.0	1.6569115120500733e+18
14061.0	1.656560989031628e+18
14062.0	1.6562194233688061e+18
14063.0	1.655864001403289e+18
14064.0	1.655428275293388e+18
14065.0	1.6551765449113595e+18
14066.0	1.654835021191577e+18
14067.0	1.6544815084732416e+18
14068.0	1.654145214211686e+18
14069.0	1.653798060058214e+18
14070.0	1.653454298257817e+18
14071.0	1.653107394084864e+18
14072.0	1.6527640231935997e+18
14073.0	1.6524189645144067e+18
14074.0	1.652070637633536e+18
14075.0	1.6517122612002816e+18
14076.0	1.6513668837539835e+18
14077.0	1.6509036983746557e+18
14078.0	1.650679771194982e+18
14079.0	1.6503380310491133e+18
14080.0	1.6499996211806203e+18
14081.0	1.6496551262158843e+18
14082.0	1.649305218921267e+18
14083.0	1.6489657135005696e+18
14084.0	1.6486224197844992e+18
14085.0	1.6480672466075643e+18
14086.0	1.6479247694561277e+18
14087.0	1.6475904297402365e+18
14088.0	1.647238831302246e+18
14089.0	1.646894197086617e+18
14090.0	1.6465558643933181e+18
14091.0	1.6462156392300541e+18
14092.0	1.645872139154227e+18
14093.0	1.6455286558556157e+18
14094.0	1.645179850824089e+18
14095.0	1.6448360554692605e+18
14096.0	1.6444673291714557e+18
14097.0	1.644135672132403e+18
14098.0	1.6437952808747005e+18
14099.0	1.643463794963251e+18
14100.0	1.643113352475443e+18
14101.0	1.6427782544293888e+18
14102.0	1.642434319823667e+18
14103.0	1.642083447839129e+18
14104.0	1.6417487205695485e+18
14105.0	1.6414073394561021e+18
14106.0	1.6409743832645624e+18
14107.0	1.6406231623139323e+18
14108.0	1.6402763588042747e+18
14109.0	1.639938004300595e+18
14110.0	1.6395923231866875e+18
14111.0	1.6392406307962877e+18
14112.0	1.638910671611494e+18
14113.0	1.6385679869083643e+18
14114.0	1.6382237972889595e+18
14115.0	1.637888234514022e+18
14116.0	1.637508881527603e+18
14117.0	1.6362888037924861e+18
14118.0	1.6368593616764928e+18
14119.0	1.636502766983577e+18
14120.0	1.636164043381145e+18
14121.0	1.6358271132631035e+18
14122.0	1.635471171203891e+18
14123.0	1.6351364674224125e+18
14124.0	1.6347896437800952e+18
14125.0	1.6341874759434237e+18
14126.0	1.6341274923630587e+18
14127.0	1.6337913323192315e+18
14128.0	1.63344991429591e+18
14129.0	1.6331036728229885e+18
14130.0	1.6327571159384056e+18
14131.0	1.6324296901132285e+18
14132.0	1.6320862856675325e+18
14133.0	1.6314169502466035e+18
14134.0	1.631409095154073e+18
14135.0	1.6310599847772157e+18
14136.0	1.6306850811084797e+18
14137.0	1.6303889615683581e+18
14138.0	1.63003755439063e+18
14139.0	1.6297099742150653e+18
14140.0	1.6293595334049787e+18
14141.0	1.6290281867444221e+18
14142.0	1.6286075416739837e+18
14143.0	1.628336903369523e+18
14144.0	1.6280073434824701e+18
14145.0	1.6276671686508541e+18
14146.0	1.6273266683412477e+18
14147.0	1.6269889345945597e+18
14148.0	1.6266477598408701e+18
14149.0	1.6263077259378688e+18
14150.0	1.6259735841931261e+18
14151.0	1.6256271162277885e+18
14152.0	1.6252952561844221e+18
14153.0	1.6249577908731901e+18
14154.0	1.6246045080027128e+18
14155.0	1.6240491435655165e+18
14156.0	1.623935534969651e+18
14157.0	1.6236045305643005e+18
14158.0	1.6232632870240256e+18
14159.0	1.6229279876513792e+18
14160.0	1.6225899502370808e+18
14161.0	1.622211909228953e+18
14162.0	1.6218502008406013e+18
14163.0	1.6215762070929405e+18
14164.0	1.6212056420122621e+18
14165.0	1.620785131159552e+18
14166.0	1.6205639151779837e+18
14167.0	1.6202188883755003e+18
14168.0	1.6198840352767997e+18
14169.0	1.619547549754982e+18
14170.0	1.6192056653250557e+18
14171.0	1.618868815737651e+18
14172.0	1.6185357125025787e+18
14173.0	1.6181398272475128e+18
14174.0	1.617859604119552e+18
14175.0	1.6175252610482176e+18
14176.0	1.6171873595293693e+18
14177.0	1.616851696091136e+18
14178.0	1.6165143633199101e+18
14179.0	1.6161666756509693e+18
14180.0	1.615842809951027e+18
14181.0	1.6155065458884603e+18
14182.0	1.6151698556846077e+18
14183.0	1.6148342710992893e+18
14184.0	1.6144951330996221e+18
14185.0	1.6141622848782333e+18
14186.0	1.613654713696256e+18
14187.0	1.6134757830098941e+18
14188.0	1.6131525615550461e+18
14189.0	1.612816703501107e+18
14190.0	1.6124824174723072e+18
14191.0	1.6121463463477243e+18
14192.0	1.6118068375715835e+18
14193.0	1.611450207646515e+18
14194.0	1.6111404113199101e+18
14195.0	1.610807361771929e+18
14196.0	1.610472095953715e+18
14197.0	1.6101361573691392e+18
14198.0	1.609798717223731e+18
14199.0	1.6094640721625085e+18
14200.0	1.6090252523339776e+18
14201.0	1.608791262180147e+18
14202.0	1.6084563503611901e+18
14203.0	1.608109263316582e+18
14204.0	1.6077869109215232e+18
14205.0	1.607452681935257e+18
14206.0	1.607043269210931e+18
14207.0	1.6067857641111547e+18
14208.0	1.6064519025459195e+18
14209.0	1.6060292324655101e+18
14210.0	1.6057340256059384e+18
14211.0	1.6054457125044221e+18
14212.0	1.605115595613798e+18
14213.0	1.6047802828193792e+18
14214.0	1.6044482734587901e+18
14215.0	1.6041067732271101e+18
14216.0	1.6037810066685947e+18
14217.0	1.6034484621148157e+18
14218.0	1.603108220174336e+18
14219.0	1.6027818714464253e+18
14220.0	1.6024478404313085e+18
14221.0	1.602113233957683e+18
14222.0	1.6017611993120763e+18
14223.0	1.6014491883929595e+18
14224.0	1.6011169407959037e+18
14225.0	1.6004673588690944e+18
14226.0	1.600451400381235e+18
14227.0	1.6001189296472061e+18
14228.0	1.5989017526927363e+18
14229.0	1.5993675167301622e+18
14230.0	1.5991216030089216e+18
14231.0	1.5987725781958653e+18
14232.0	1.5984571027816448e+18
14233.0	1.5981200686448635e+18
14234.0	1.5977928793784315e+18
14235.0	1.597459296314982e+18
14236.0	1.597128874079027e+18
14237.0	1.5967912661614587e+18
14238.0	1.5964594547720187e+18
14239.0	1.596122744435507e+18
14240.0	1.594796279018292e+18
14241.0	1.5954622791286781e+18
14242.0	1.5951327343411197e+18
14243.0	1.594707133281075e+18
14244.0	1.594470859748147e+18
14245.0	1.5941277757472765e+18
14246.0	1.5937887887425533e+18
14247.0	1.5934745514868733e+18
14248.0	1.5931360493436925e+18
14249.0	1.5928127842680832e+18
14250.0	1.592483304911667e+18
14251.0	1.5921541124456443e+18
14252.0	1.5918233949306875e+18
14253.0	1.5914924207243264e+18
14254.0	1.5911607703961595e+18
14255.0	1.590811144958771e+18
14256.0	1.5901907990085635e+18
14257.0	1.590165342938726e+18
14258.0	1.589841111495475e+18
14259.0	1.5894994753683453e+18
14260.0	1.5891692376817664e+18
14261.0	1.5888391241465853e+18
14262.0	1.588532908077875e+18
14263.0	1.587742561953383e+18
14264.0	1.587808056849203e+18
14265.0	1.5875390945886205e+18
14266.0	1.5872128784007163e+18
14267.0	1.5868846372028413e+18
14268.0	1.5865543290519547e+18
14269.0	1.5862205144629243e+18
14270.0	1.585896702450073e+18
14271.0	1.5855647534874621e+18
14272.0	1.5852382990630907e+18
14273.0	1.5849090025783293e+18
14274.0	1.5839119678636037e+18
14275.0	1.5841917715611643e+18
14276.0	1.5839072148783104e+18
14277.0	1.5835776734461947e+18
14278.0	1.583259547231846e+18
14279.0	1.5829308496936957e+18
14280.0	1.5825974310469632e+18
14281.0	1.5822739797442557e+18
14282.0	1.581945829143347e+18
14283.0	1.5816175510355965e+18
14284.0	1.5812893467475965e+18
14285.0	1.5809611441373181e+18
14286.0	1.5806316312264701e+18
14287.0	1.580305205323366e+18
14288.0	1.5799772409495547e+18
14289.0	1.579010787744151e+18
14290.0	1.5793193090023421e+18
14291.0	1.578993436747366e+18
14292.0	1.5786651418624e+18
14293.0	1.5783375516205056e+18
14294.0	1.5779264796295165e+18
14295.0	1.5776752039100416e+18
14296.0	1.5768388462706688e+18
14297.0	1.576852736127795e+18
14298.0	1.576362138455244e+18
14299.0	1.5761874540822525e+18
14300.0	1.5758658734391293e+18
14301.0	1.5755417074270205e+18
14302.0	1.5752152681021437e+18
14303.0	1.5748704342376448e+18
14304.0	1.5745538095841275e+18
14305.0	1.574236455121715e+18
14306.0	1.5738803285131264e+18
14307.0	1.573576236439961e+18
14308.0	1.573258551466393e+18
14309.0	1.572930204572057e+18
14310.0	1.572479862151577e+18
14311.0	1.5721185127956483e+18
14312.0	1.5719235883892733e+18
14313.0	1.5715516593209341e+18
14314.0	1.571298234440089e+18
14315.0	1.5709761404141565e+18
14316.0	1.570619451768832e+18
14317.0	1.5703070952390653e+18
14318.0	1.5700002567356413e+18
14319.0	1.5696750958346237e+18
14320.0	1.5693493846409213e+18
14321.0	1.5690226450038784e+18
14322.0	1.5686699795349504e+18
14323.0	1.5683662884372475e+18
14324.0	1.5680483702603776e+18
14325.0	1.5677183758434301e+18
14326.0	1.567396155988377e+18
14327.0	1.567064584513126e+18
14328.0	1.5667383750361085e+18
14329.0	1.566418967042457e+18
14330.0	1.566094307780198e+18
14331.0	1.5657678047019003e+18
14332.0	1.5654451654164475e+18
14333.0	1.5651207058030587e+18
14334.0	1.564796231090176e+18
14335.0	1.564459363047833e+18
14336.0	1.564110623447449e+18
14337.0	1.563821654356787e+18
14338.0	1.5634978456993792e+18
14339.0	1.5631687656407037e+18
14340.0	1.5628515588177915e+18
14341.0	1.562524067561472e+18
14342.0	1.562202241970995e+18
14343.0	1.5618746852835323e+18
14344.0	1.561551549392486e+18
14345.0	1.5612331497095165e+18
14346.0	1.560907812647731e+18
14347.0	1.5605656379719675e+18
14348.0	1.5602627102375933e+18
14349.0	1.5599397387632635e+18
14350.0	1.559591841379123e+18
14351.0	1.559263937403289e+18
14352.0	1.558964292970086e+18
14353.0	1.5586464335134715e+18
14354.0	1.558320948812185e+18
14355.0	1.5579923049611264e+18
14356.0	1.5576731536588797e+18
14357.0	1.557356495450931e+18
14358.0	1.557033909852569e+18
14359.0	1.5567026286231547e+18
14360.0	1.5563863126704125e+18
14361.0	1.556066050716467e+18
14362.0	1.5557443526328315e+18
14363.0	1.5554219465506813e+18
14364.0	1.5550153725313021e+18
14365.0	1.554769549407027e+18
14366.0	1.5544402327896064e+18
14367.0	1.5541341358391293e+18
14368.0	1.553811971348889e+18
14369.0	1.5534905232457728e+18
14370.0	1.5531688805269504e+18
14371.0	1.552847366992691e+18
14372.0	1.552522051741286e+18
14373.0	1.5522035295846395e+18
14374.0	1.551882764314214e+18
14375.0	1.5515591871823872e+18
14376.0	1.5512403009601533e+18
14377.0	1.5509187052175357e+18
14378.0	1.550596307523993e+18
14379.0	1.5502769431511037e+18
14380.0	1.549955855758131e+18
14381.0	1.5496275222855675e+18
14382.0	1.5493081780453373e+18
14383.0	1.5489796180803581e+18
14384.0	1.5486557708353533e+18
14385.0	1.5483466120429568e+18
14386.0	1.5480155556282365e+18
14387.0	1.5477053499375616e+18
14388.0	1.5473825261027323e+18
14389.0	1.5470647069114363e+18
14390.0	1.5467429417189376e+18
14391.0	1.5464241662263288e+18
14392.0	1.546100609227161e+18
14393.0	1.545784162412134e+18
14394.0	1.545441227728486e+18
14395.0	1.5451339228184568e+18
14396.0	1.5448242019893248e+18
14397.0	1.5445047084318715e+18
14398.0	1.5441836076171264e+18
14399.0	1.543865259943526e+18
14400.0	1.5435313614684157e+18
14401.0	1.5432226187509757e+18
14402.0	1.5429052223455232e+18
14403.0	1.5406023900659666e+18
14404.0	1.5358252204163052e+18
14405.0	1.541064978176405e+18
14406.0	1.5416287966527488e+18
14407.0	1.5381760825098255e+18
14408.0	1.5409772266258424e+18
14409.0	1.5406602915938304e+18
14410.0	1.5403474267144187e+18
14411.0	1.5400342548119547e+18
14412.0	1.5397143183359997e+18
14413.0	1.5393981030465539e+18
14414.0	1.539077903168307e+18
14415.0	1.5387601745739773e+18
14416.0	1.5384387684139005e+18
14417.0	1.5381086632673275e+18
14418.0	1.53778233802752e+18
14419.0	1.5374864718233597e+18
14420.0	1.5371660488081403e+18
14421.0	1.536850776398233e+18
14422.0	1.536530870121267e+18
14423.0	1.5362103028219901e+18
14424.0	1.5234809827688353e+18
14425.0	1.5355767397810173e+18
14426.0	1.535261766005555e+18
14427.0	1.5349438142742523e+18
14428.0	1.5346111204032507e+18
14429.0	1.5343081154936832e+18
14430.0	1.5339919941566456e+18
14431.0	1.5335346690588672e+18
14432.0	1.5333483798855677e+18
14433.0	1.5306850354331628e+18
14434.0	1.5327137078706173e+18
14435.0	1.5323817438085115e+18
14436.0	1.5320886072573947e+18
14437.0	1.5317718131539968e+18
14438.0	1.5313846335963133e+18
14439.0	1.531123742854348e+18
14440.0	1.530820769821491e+18
14441.0	1.5304994794242043e+18
14442.0	1.5301772914458621e+18
14443.0	1.5298359237541888e+18
14444.0	1.5295517848240125e+18
14445.0	1.5292383864291323e+18
14446.0	1.52614342628475e+18
14447.0	1.528595564042649e+18
14448.0	1.528284348363571e+18
14449.0	1.527968223671091e+18
14450.0	1.5276483324936192e+18
14451.0	1.5273339962523648e+18
14452.0	1.527019118107033e+18
14453.0	1.5266645433909243e+18
14454.0	1.5263877461704701e+18
14455.0	1.5260668684926976e+18
14456.0	1.5257473782906877e+18
14457.0	1.525426844545843e+18
14458.0	1.525122854813696e+18
14459.0	1.5248057671090173e+18
14460.0	1.524492546552627e+18
14461.0	1.5241605690687488e+18
14462.0	1.5237230360526843e+18
14463.0	1.523543404078694e+18
14464.0	1.5232328192229373e+18
14465.0	1.5229024640958464e+18
14466.0	1.5226013214572541e+18
14467.0	1.522250479671705e+18
14468.0	1.5219691962236923e+18
14469.0	1.5216380257239037e+18
14470.0	1.5213224563572736e+18
14471.0	1.5210197148499965e+18
14472.0	1.5207092071694336e+18
14473.0	1.5203982632812544e+18
14474.0	1.5200853161934843e+18
14475.0	1.519767938242969e+18
14476.0	1.5193019309359101e+18
14477.0	1.519142082655027e+18
14478.0	1.5188261861326843e+18
14479.0	1.518509967487795e+18
14480.0	1.5181890143125504e+18
14481.0	1.5178863030042621e+18
14482.0	1.517570329306726e+18
14483.0	1.5172513306771453e+18
14484.0	1.516941846406758e+18
14485.0	1.5166025154691072e+18
14486.0	1.5161241550979067e+18
14487.0	1.5160030437310464e+18
14488.0	1.5156696234065915e+18
14489.0	1.5153627664482304e+18
14490.0	1.515057447960576e+18
14491.0	1.5147488730152957e+18
14492.0	1.5144355417292797e+18
14493.0	1.5141168970989565e+18
14494.0	1.5137960563310587e+18
14495.0	1.5134967306649597e+18
14496.0	1.5130961763106816e+18
14497.0	1.5128692392984568e+18
14498.0	1.5125564230729725e+18
14499.0	1.5122446185136123e+18
14500.0	1.5119317402124288e+18
14501.0	1.511553610285056e+18
14502.0	1.511098288386867e+18
14503.0	1.5109772676169725e+18
14504.0	1.5106771970424832e+18
14505.0	1.510312886507929e+18
14506.0	1.5099189155332093e+18
14507.0	1.5095851177213955e+18
14508.0	1.5094310911344637e+18
14509.0	1.5091184712024056e+18
14510.0	1.5088046969978875e+18
14511.0	1.5084947513540603e+18
14512.0	1.5081724643901435e+18
14513.0	1.5078705650991104e+18
14514.0	1.5075297527332864e+18
14515.0	1.5072451675291643e+18
14516.0	1.5053278689624074e+18
14517.0	1.506622670739865e+18
14518.0	1.5063110222086141e+18
14519.0	1.5059993820659707e+18
14520.0	1.5056870423134203e+18
14521.0	1.5052342839738363e+18
14522.0	1.5048607593922552e+18
14523.0	1.5043997751836667e+18
14524.0	1.5040851537297403e+18
14525.0	1.503919086134886e+18
14526.0	1.5036098384232443e+18
14527.0	1.503292213847654e+18
14528.0	1.502888609395507e+18
14529.0	1.5026714149126141e+18
14530.0	1.5023539950190587e+18
14531.0	1.5020544428605437e+18
14532.0	1.5015268715593728e+18
14533.0	1.5014336187596797e+18
14534.0	1.5011233543487485e+18
14535.0	1.5008054814703613e+18
14536.0	1.500499461695078e+18
14537.0	1.5001817297453053e+18
14538.0	1.4998804881211387e+18
14539.0	1.4995701062696957e+18
14540.0	1.4992596002668541e+18
14541.0	1.4989352228618237e+18
14542.0	1.4986375967277056e+18
14543.0	1.4982324152172541e+18
14544.0	1.4980179285770235e+18
14545.0	1.4977025890582523e+18
14546.0	1.4812280122245005e+18
14547.0	1.4827950394310513e+18
14548.0	1.4967690342957056e+18
14549.0	1.4963893105328125e+18
14550.0	1.496152047144141e+18
14551.0	1.495847668180582e+18
14552.0	1.4955369776283648e+18
14553.0	1.4952213931622395e+18
14554.0	1.494918245646336e+18
14555.0	1.4946081506852856e+18
14556.0	1.4942949368397827e+18
14557.0	1.493989185499955e+18
14558.0	1.4936794059505664e+18
14559.0	1.492177534740066e+18
14560.0	1.493047040802816e+18
14561.0	1.492746446779187e+18
14562.0	1.4924242386681853e+18
14563.0	1.4921314041069565e+18
14564.0	1.4918098217861115e+18
14565.0	1.4915140361125888e+18
14566.0	1.4912048555098107e+18
14567.0	1.4908942756872187e+18
14568.0	1.4905599745589245e+18
14569.0	1.4902774311419904e+18
14570.0	1.4896257738735613e+18
14571.0	1.4896573402054653e+18
14572.0	1.489316343290265e+18
14573.0	1.489008743101235e+18
14574.0	1.4886978008907773e+18
14575.0	1.4884214801432573e+18
14576.0	1.488110158767718e+18
14577.0	1.487801446249267e+18
14578.0	1.4874958677147648e+18
14579.0	1.4871895274946557e+18
14580.0	1.4868810347577341e+18
14581.0	1.4865677823246336e+18
14582.0	1.486261977297715e+18
14583.0	1.4859554441396221e+18
14584.0	1.4856363112923136e+18
14585.0	1.4853386079830016e+18
14586.0	1.4850279761510397e+18
14587.0	1.4847188995670013e+18
14588.0	1.4844135794016253e+18
14589.0	1.4841157771067392e+18
14590.0	1.483818384175923e+18
14591.0	1.483517320390246e+18
14592.0	1.483218486296576e+18
14593.0	1.4828500468891645e+18
14594.0	1.482627495441203e+18
14595.0	1.4823255172972541e+18
14596.0	1.481949942539878e+18
14597.0	1.481646383982182e+18
14598.0	1.481432058403225e+18
14599.0	1.4811421112008701e+18
14600.0	1.4808425976299515e+18
14601.0	1.4805473605713915e+18
14602.0	1.4802389785640952e+18
14603.0	1.4799528515338237e+18
14604.0	1.479623518139187e+18
14605.0	1.4793378474491901e+18
14606.0	1.4790077339140093e+18
14607.0	1.478763014730547e+18
14608.0	1.4784655429468157e+18
14609.0	1.4781589695234048e+18
14610.0	1.4778346374168576e+18
14611.0	1.4775725219381245e+18
14612.0	1.4772795313487872e+18
14613.0	1.4769830175440893e+18
14614.0	1.4766820242227197e+18
14615.0	1.476380571205632e+18
14616.0	1.4760871242760192e+18
14617.0	1.4757899897143293e+18
14618.0	1.4754817620574203e+18
14619.0	1.4751622584336381e+18
14620.0	1.474697187295232e+18
14621.0	1.4746025403088893e+18
14622.0	1.4743037330587645e+18
14623.0	1.474008754369331e+18
14624.0	1.473674208293683e+18
14625.0	1.4734128293347325e+18
14626.0	1.4731134348820475e+18
14627.0	1.4728116882636797e+18
14628.0	1.472524281131827e+18
14629.0	1.4722273697071101e+18
14630.0	1.471928559101542e+18
14631.0	1.471632639210291e+18
14632.0	1.4702579392970755e+18
14633.0	1.4709443891560445e+18
14634.0	1.470738267635712e+18
14635.0	1.4702493258743788e+18
14636.0	1.4693397860188157e+18
14637.0	1.469852299768627e+18
14638.0	1.4695505128849403e+18
14639.0	1.469135451271987e+18
14640.0	1.4687181918437373e+18
14641.0	1.4644920161664986e+18
14642.0	1.4681232314990592e+18
14643.0	1.4678286621736952e+18
14644.0	1.4675239275331581e+18
14645.0	1.467218761718169e+18
14646.0	1.4669205148270592e+18
14647.0	1.4666200701206525e+18
14648.0	1.4663414961930237e+18
