# Flux units: erg / (cm m2 s)
# Wavelength units: Angstrom
wave	flux
14000.0	2.1863937414791165e+18
14001.0	2.1858919802470395e+18
14002.0	2.1854656544112632e+18
14003.0	2.1849988787077115e+18
14004.0	2.1845314453372923e+18
14005.0	2.184063991834214e+18
14006.0	2.1835921024352256e+18
14007.0	2.1831232077692923e+18
14008.0	2.1825963578884093e+18
14009.0	2.1821938238226427e+18
14010.0	2.1817187568189437e+18
14011.0	2.1808837983993853e+18
14012.0	2.180794402681651e+18
14013.0	2.1803284759052285e+18
14014.0	2.17985813839872e+18
14015.0	2.1793942735421437e+18
14016.0	2.1789296839098365e+18
14017.0	2.1784636984131584e+18
14018.0	2.1779976139309053e+18
14019.0	2.177531960623104e+18
14020.0	2.1770657570226168e+18
14021.0	2.17659969938391e+18
14022.0	2.1761346534113275e+18
14023.0	2.1756616818819067e+18
14024.0	2.175195001808486e+18
14025.0	2.174739404763955e+18
14026.0	2.1742731843862525e+18
14027.0	2.1738096433299453e+18
14028.0	2.1733449211576315e+18
14029.0	2.1728800010141693e+18
14030.0	2.1722690654044157e+18
14031.0	2.1719356098478075e+18
14032.0	2.1714852305174525e+18
14033.0	2.1709942402580475e+18
14034.0	2.1705584269066237e+18
14035.0	2.1700948774617083e+18
14036.0	2.1696311199793147e+18
14037.0	2.1691674497384443e+18
14038.0	2.1687038818385917e+18
14039.0	2.1682404196351995e+18
14040.0	2.1677716491206653e+18
14041.0	2.1673113343229947e+18
14042.0	2.166842892641894e+18
14043.0	2.1663631749939195e+18
14044.0	2.165918045254451e+18
14045.0	2.1654600826224637e+18
14046.0	2.164995917453721e+18
14047.0	2.1645325290700795e+18
14048.0	2.1640735749046267e+18
14049.0	2.1636121645547512e+18
14050.0	2.1631500025856e+18
14051.0	2.1626821145526267e+18
14052.0	2.1622258682298365e+18
14053.0	2.1617640837480445e+18
14054.0	2.1613024452280315e+18
14055.0	2.1608408469733373e+18
14056.0	2.1603792956948477e+18
14057.0	2.1599179558092792e+18
14058.0	2.159456726653337e+18
14059.0	2.1589955847389181e+18
14060.0	2.1585345669758973e+18
14061.0	2.1580695512023032e+18
14062.0	2.1576128216956925e+18
14063.0	2.1571415312433142e+18
14064.0	2.1566692861673467e+18
14065.0	2.1562258693816317e+18
14066.0	2.1557708024971261e+18
14067.0	2.1553106437275643e+18
14068.0	2.1548505252233216e+18
14069.0	2.1543898312605693e+18
14070.0	2.1539305734275067e+18
14071.0	2.15346916139991e+18
14072.0	2.1530112524550144e+18
14073.0	2.1525517345751037e+18
14074.0	2.152092372723302e+18
14075.0	2.15162102522839e+18
14076.0	2.1511738251804672e+18
14077.0	2.1506810733133821e+18
14078.0	2.1502532392058875e+18
14079.0	2.1497926626836477e+18
14080.0	2.149338339029811e+18
14081.0	2.1488797338304504e+18
14082.0	2.1484174309326843e+18
14083.0	2.1479618389213176e+18
14084.0	2.1475042973974525e+18
14085.0	2.1468801514078203e+18
14086.0	2.146584942870528e+18
14087.0	2.1461304849989627e+18
14088.0	2.1456652561547261e+18
14089.0	2.1452149489664e+18
14090.0	2.144747966903091e+18
14091.0	2.144260714607411e+18
14092.0	2.1438034012536827e+18
14093.0	2.1433461768192e+18
14094.0	2.1428890396262395e+18
14095.0	2.1424319728975872e+18
14096.0	2.141966462196121e+18
14097.0	2.1415087092793344e+18
14098.0	2.141058301427712e+18
14099.0	2.140605121980006e+18
14100.0	2.1401413980520443e+18
14101.0	2.1396925488037888e+18
14102.0	2.1392361783296e+18
14103.0	2.1387716490952701e+18
14104.0	2.13832432657367e+18
14105.0	2.1378680131420157e+18
14106.0	2.1374126543339517e+18
14107.0	2.136955807386828e+18
14108.0	2.136493306517913e+18
14109.0	2.1360428701450237e+18
14110.0	2.1355860433305595e+18
14111.0	2.1351253342683133e+18
14112.0	2.13467495661568e+18
14113.0	2.1342255704965117e+18
14114.0	2.1337615479341048e+18
14115.0	2.1333150458183677e+18
14116.0	2.1328458139303933e+18
14117.0	2.132155147957043e+18
14118.0	2.1319520010371067e+18
14119.0	2.1314903289626621e+18
14120.0	2.1310403925508093e+18
14121.0	2.1305805424820224e+18
14122.0	2.1301320992423936e+18
14123.0	2.129677072623206e+18
14124.0	2.1292228932534267e+18
14125.0	2.1284684570820605e+18
14126.0	2.1283210205855744e+18
14127.0	2.1278683327102968e+18
14128.0	2.1274143278235645e+18
14129.0	2.126953664059801e+18
14130.0	2.126494230065971e+18
14131.0	2.12605612326912e+18
14132.0	2.125598836758937e+18
14133.0	2.1247919885647862e+18
14134.0	2.124697162062233e+18
14135.0	2.1242363120713725e+18
14136.0	2.123785879053926e+18
14137.0	2.1233403567276027e+18
14138.0	2.1228861505142784e+18
14139.0	2.1224366586986493e+18
14140.0	2.121977672656486e+18
14141.0	2.1215304960966653e+18
14142.0	2.1210598029131773e+18
14143.0	2.120623972784537e+18
14144.0	2.1201788933767163e+18
14145.0	2.1197276114321403e+18
14146.0	2.119275317821439e+18
14147.0	2.118824780785254e+18
14148.0	2.1183740709437437e+18
14149.0	2.1179236278599672e+18
14150.0	2.1174728156774395e+18
14151.0	2.117020605952819e+18
14152.0	2.1165649048895488e+18
14153.0	2.1159846866845693e+18
14154.0	2.1155163154677755e+18
14155.0	2.1150741401960443e+18
14156.0	2.1146312653144061e+18
14157.0	2.114182701278822e+18
14158.0	2.1137296476602365e+18
14159.0	2.1132823318495227e+18
14160.0	2.1128269747191803e+18
14161.0	2.1123434754867195e+18
14162.0	2.1118616489426936e+18
14163.0	2.1114815980240893e+18
14164.0	2.1110176778027005e+18
14165.0	2.110505261360742e+18
14166.0	2.1101315203530747e+18
14167.0	2.1096751918219261e+18
14168.0	2.1092349593518075e+18
14169.0	2.108787210688921e+18
14170.0	2.108323949812121e+18
14171.0	2.1077500247408635e+18
14172.0	2.1073026015559677e+18
14173.0	2.106810789212979e+18
14174.0	2.1060607704825848e+18
14175.0	2.105590431298355e+18
14176.0	2.1051418639073277e+18
14177.0	2.1046933653028861e+18
14178.0	2.1042437090705403e+18
14179.0	2.1037882579877888e+18
14180.0	2.1033486060093435e+18
14181.0	2.1029005587120128e+18
14182.0	2.1024521104392184e+18
14183.0	2.1019863044587515e+18
14184.0	2.1014657862991864e+18
14185.0	2.1010214534774781e+18
14186.0	2.1005127213121533e+18
14187.0	2.1001103130755067e+18
14188.0	2.0996788383121405e+18
14189.0	2.0992312339333115e+18
14190.0	2.0987412150747128e+18
14191.0	2.0981969739317245e+18
14192.0	2.0977447054868477e+18
14193.0	2.0972952791023616e+18
14194.0	2.0968553234563072e+18
14195.0	2.0964094773297147e+18
14196.0	2.0959625322954747e+18
14197.0	2.095515869118464e+18
14198.0	2.0950663152271352e+18
14199.0	2.094620906985881e+18
14200.0	2.0941488833691643e+18
14201.0	2.0937287198048248e+18
14202.0	2.093284195722854e+18
14203.0	2.092828756384153e+18
14204.0	2.0923902486118397e+18
14205.0	2.0919444997931005e+18
14206.0	2.09141716001751e+18
14207.0	2.091054802350899e+18
14208.0	2.0906096021471227e+18
14209.0	2.090076422222643e+18
14210.0	2.0896559482798075e+18
14211.0	2.0892703776571392e+18
14212.0	2.0888281822527483e+18
14213.0	2.088305375680921e+18
14214.0	2.0877959506165755e+18
14215.0	2.087343925441331e+18
14216.0	2.0869063806812155e+18
14217.0	2.08646138012631e+18
14218.0	2.086008177190502e+18
14219.0	2.0855716877172736e+18
14220.0	2.0851270982041597e+18
14221.0	2.0846821983125501e+18
14222.0	2.0842319565553661e+18
14223.0	2.0837935276359675e+18
14224.0	2.0833493290319872e+18
14225.0	2.0828242508251133e+18
14226.0	2.0824605023272955e+18
14227.0	2.0820171761385464e+18
14228.0	2.0813938186780667e+18
14229.0	2.0810906896171003e+18
14230.0	2.080685971157811e+18
14231.0	2.0802392157061117e+18
14232.0	2.0797988876058621e+18
14233.0	2.0793521422204925e+18
14234.0	2.078912409711411e+18
14235.0	2.0784676473929725e+18
14236.0	2.078026022413926e+18
14237.0	2.0775823137046525e+18
14238.0	2.077078893205913e+18
14239.0	2.0765514192125947e+18
14240.0	2.0751665573396477e+18
14241.0	2.0756676156063744e+18
14242.0	2.075225539320217e+18
14243.0	2.0746804106625021e+18
14244.0	2.0743406552612861e+18
14245.0	2.0738867443269627e+18
14246.0	2.0734412521996283e+18
14247.0	2.073010049227161e+18
14248.0	2.0725619146883067e+18
14249.0	2.072127668328857e+18
14250.0	2.0716854410477563e+18
14251.0	2.071245156568268e+18
14252.0	2.0708032128221181e+18
14253.0	2.0703608865554427e+18
14254.0	2.0699181660241917e+18
14255.0	2.0694577354637307e+18
14256.0	2.0689490871844861e+18
14257.0	2.0685896000995328e+18
14258.0	2.0681538790227965e+18
14259.0	2.0676990184980475e+18
14260.0	2.067267255166566e+18
14261.0	2.0668162768895997e+18
14262.0	2.0664089395068925e+18
14263.0	2.0658390359343101e+18
14264.0	2.0654950694518781e+18
14265.0	2.065083923641139e+18
14266.0	2.064535828771635e+18
14267.0	2.064065580184371e+18
14268.0	2.0636248997625848e+18
14269.0	2.0631826389270525e+18
14270.0	2.062743686558515e+18
14271.0	2.0623020548685821e+18
14272.0	2.0618626579038205e+18
14273.0	2.061421106744525e+18
14274.0	2.0607835809251325e+18
14275.0	2.060522842855833e+18
14276.0	2.060088046203699e+18
14277.0	2.0596507497463803e+18
14278.0	2.0592223938674688e+18
14279.0	2.0587819684593661e+18
14280.0	2.0583385818726392e+18
14281.0	2.0579037566992381e+18
14282.0	2.0574645241511936e+18
14283.0	2.0570251926175744e+18
14284.0	2.0565859298705403e+18
14285.0	2.0561466637680635e+18
14286.0	2.055707303713177e+18
14287.0	2.055268487240089e+18
14288.0	2.054828920825446e+18
14289.0	2.053783247283813e+18
14290.0	2.0539497712189437e+18
14291.0	2.0535125301264376e+18
14292.0	2.0530747001536507e+18
14293.0	2.052634658943795e+18
14294.0	2.052105992090419e+18
14295.0	2.0517494628286461e+18
14296.0	2.050829292929024e+18
14297.0	2.050880911389491e+18
14298.0	2.049829142685286e+18
14299.0	2.0494026574659576e+18
14300.0	2.048968149381939e+18
14301.0	2.0485317739937787e+18
14302.0	2.048095876756275e+18
14303.0	2.047634838860595e+18
14304.0	2.0472101219598333e+18
14305.0	2.046782026127769e+18
14306.0	2.0463282141790205e+18
14307.0	2.0459010780037117e+18
14308.0	2.0454696200175608e+18
14309.0	2.0450298422099965e+18
14310.0	2.0445122063761408e+18
14311.0	2.0441354320478203e+18
14312.0	2.043696743081574e+18
14313.0	2.0432399246557181e+18
14314.0	2.0428457322217467e+18
14315.0	2.0424100396662784e+18
14316.0	2.0419391870992376e+18
14317.0	2.041530089786572e+18
14318.0	2.0411008581369853e+18
14319.0	2.0406648250040312e+18
14320.0	2.0402281073606656e+18
14321.0	2.039792176568729e+18
14322.0	2.0393293368000507e+18
14323.0	2.0389063076872187e+18
14324.0	2.0384838204784637e+18
14325.0	2.0380406620618747e+18
14326.0	2.0376120008376317e+18
14327.0	2.0371714814771197e+18
14328.0	2.0367362435842043e+18
14329.0	2.0363048208302075e+18
14330.0	2.0358692423598077e+18
14331.0	2.0354334709514237e+18
14332.0	2.0349982162812925e+18
14333.0	2.0345629062463483e+18
14334.0	2.0340834536783872e+18
14335.0	2.0335414338387965e+18
14336.0	2.0331023707406333e+18
14337.0	2.0326783752601597e+18
14338.0	2.032242043492761e+18
14339.0	2.0317999823060992e+18
14340.0	2.031372834386739e+18
14341.0	2.0309372995371003e+18
14342.0	2.0305027964862461e+18
14343.0	2.0300641041645563e+18
14344.0	2.029628460263014e+18
14345.0	2.029198331032371e+18
14346.0	2.0287618935685115e+18
14347.0	2.0283215671459837e+18
14348.0	2.0278941726015483e+18
14349.0	2.0274600940142587e+18
14350.0	2.02701886497751e+18
14351.0	2.026579998172774e+18
14352.0	2.0261515265310717e+18
14353.0	2.0257221774409725e+18
14354.0	2.0252877498875901e+18
14355.0	2.0248525824589821e+18
14356.0	2.024419302467174e+18
14357.0	2.0239875257139197e+18
14358.0	2.023553603154739e+18
14359.0	2.0231089515659261e+18
14360.0	2.0226855919419387e+18
14361.0	2.022252637428121e+18
14362.0	2.0218194362892283e+18
14363.0	2.021385842563481e+18
14364.0	2.020930279073382e+18
14365.0	2.0205143366565888e+18
14366.0	2.0200825531924475e+18
14367.0	2.0196532829552637e+18
14368.0	2.019219897266995e+18
14369.0	2.0187873319845888e+18
14370.0	2.0183544882003965e+18
14371.0	2.0179217383686144e+18
14372.0	2.0174854166675453e+18
14373.0	2.0170562001174525e+18
14374.0	2.0166238596497405e+18
14375.0	2.016112092486041e+18
14376.0	2.0156195654336507e+18
14377.0	2.0151864364367864e+18
14378.0	2.0147524232806397e+18
14379.0	2.0143215726297088e+18
14380.0	2.0138881181548544e+18
14381.0	2.0134485131526136e+18
14382.0	2.013023093286502e+18
14383.0	2.012586491405926e+18
14384.0	2.012145884803891e+18
14385.0	2.01172752311255e+18
14386.0	2.011284839491174e+18
14387.0	2.0108632465080315e+18
14388.0	2.0104299849711608e+18
14389.0	2.009999265182515e+18
14390.0	2.009566428109209e+18
14391.0	2.009135882803609e+18
14392.0	2.00870301049815e+18
14393.0	2.008272846035353e+18
14394.0	2.0078153011560445e+18
14395.0	2.0074018635775992e+18
14396.0	2.0069783445700605e+18
14397.0	2.0065470325456893e+18
14398.0	2.0061148598501373e+18
14399.0	2.005684188715417e+18
14400.0	2.005241298734285e+18
14401.0	2.0048168771125243e+18
14402.0	2.0043877159272443e+18
14403.0	2.002624601653246e+18
14404.0	1.9994996455243766e+18
14405.0	2.002081429218916e+18
14406.0	2.0026631020085243e+18
14407.0	2.000411383195239e+18
14408.0	2.0017878732374008e+18
14409.0	2.0013617856380925e+18
14410.0	2.0009418200449021e+18
14411.0	2.0005130111811581e+18
14412.0	2.0000810230349821e+18
14413.0	1.9996529792122875e+18
14414.0	1.9992208635592701e+18
14415.0	1.998791391995494e+18
14416.0	1.9981471301238781e+18
14417.0	1.997656049267507e+18
14418.0	1.9972203097358333e+18
14419.0	1.9967992334909435e+18
14420.0	1.9963666984075264e+18
14421.0	1.9959394598911992e+18
14422.0	1.9955083374493696e+18
14423.0	1.995064954218086e+18
14424.0	1.9872532039466972e+18
14425.0	1.994064584192819e+18
14426.0	1.9936509620649984e+18
14427.0	1.993222738726092e+18
14428.0	1.9927780670046203e+18
14429.0	1.992359925094809e+18
14430.0	1.9919340555993083e+18
14431.0	1.9914666624942077e+18
14432.0	1.991066697020211e+18
14433.0	1.9892726673702902e+18
14434.0	1.990202173790617e+18
14435.0	1.9897749168193533e+18
14436.0	1.9893568806060032e+18
14437.0	1.988927462729318e+18
14438.0	1.988459968960921e+18
14439.0	1.988056443361689e+18
14440.0	1.9876392208433152e+18
14441.0	1.987206236130508e+18
14442.0	1.9867745902395387e+18
14443.0	1.9863194042367992e+18
14444.0	1.9859200981073915e+18
14445.0	1.9854931833913336e+18
14446.0	1.9832825301696517e+18
14447.0	1.9846215516553219e+18
14448.0	1.9842079110725627e+18
14449.0	1.9837795283501053e+18
14450.0	1.9833468573712381e+18
14451.0	1.9829207395729405e+18
14452.0	1.9824903754612733e+18
14453.0	1.9820395666341883e+18
14454.0	1.9816353330364408e+18
14455.0	1.981203453942169e+18
14456.0	1.9807723415666683e+18
14457.0	1.9803414103851e+18
14458.0	1.979919322474086e+18
14459.0	1.9794890003054587e+18
14460.0	1.9790615554293755e+18
14461.0	1.978619697247027e+18
14462.0	1.978188136919859e+18
14463.0	1.9777733605195768e+18
14464.0	1.9773495831429112e+18
14465.0	1.9769083809497083e+18
14466.0	1.976494429988454e+18
14467.0	1.9760368666542077e+18
14468.0	1.975634924824166e+18
14469.0	1.975194945690009e+18
14470.0	1.9747626521985021e+18
14471.0	1.974346233308774e+18
14472.0	1.9739207396229115e+18
14473.0	1.9734989251805181e+18
14474.0	1.9730711044947965e+18
14475.0	1.9726405893881848e+18
14476.0	1.9721278877335547e+18
14477.0	1.9717874327224315e+18
14478.0	1.9713596556574715e+18
14479.0	1.970931683976806e+18
14480.0	1.970446030549811e+18
14481.0	1.9699442542182397e+18
14482.0	1.9695135377850368e+18
14483.0	1.9690810379337728e+18
14484.0	1.9686520394874877e+18
14485.0	1.968205638035046e+18
14486.0	1.9675980058591224e+18
14487.0	1.9673760667795456e+18
14488.0	1.9669451070767101e+18
14489.0	1.9665179407024125e+18
14490.0	1.9660911618818043e+18
14491.0	1.9656648477900797e+18
14492.0	1.96523844477911e+18
14493.0	1.9648072770387963e+18
14494.0	1.9643685377409021e+18
14495.0	1.9639550498308093e+18
14496.0	1.9634340568760315e+18
14497.0	1.9630991836446717e+18
14498.0	1.962672354492416e+18
14499.0	1.962244993502412e+18
14500.0	1.9618169563906043e+18
14501.0	1.961344122434355e+18
14502.0	1.9607940260429821e+18
14503.0	1.9605223223853053e+18
14504.0	1.960102074934886e+18
14505.0	1.9596354133164024e+18
14506.0	1.9591653878661112e+18
14507.0	1.9586539344363515e+18
14508.0	1.9583961239912443e+18
14509.0	1.957968880441753e+18
14510.0	1.9575394004893693e+18
14511.0	1.957113398453862e+18
14512.0	1.9566747598192635e+18
14513.0	1.9562581698019325e+18
14514.0	1.9558055440023547e+18
14515.0	1.9554017214463997e+18
14516.0	1.9534573998178312e+18
14517.0	1.9545445080498173e+18
14518.0	1.9541197508837373e+18
14519.0	1.953692435192217e+18
14520.0	1.9532648057667581e+18
14521.0	1.9528366612807677e+18
14522.0	1.952408988234547e+18
14523.0	1.9518869970354173e+18
14524.0	1.9514554014760955e+18
14525.0	1.9511221405351933e+18
14526.0	1.9506986148167675e+18
14527.0	1.9502526579605501e+18
14528.0	1.949760738243379e+18
14529.0	1.949407294311628e+18
14530.0	1.9489751199383547e+18
14531.0	1.9485579141971968e+18
14532.0	1.9480039674347523e+18
14533.0	1.9477030781321208e+18
14534.0	1.9472774066077693e+18
14535.0	1.9468416570097661e+18
14536.0	1.9464217920798715e+18
14537.0	1.945985487156019e+18
14538.0	1.9455665298735101e+18
14539.0	1.9451389625237501e+18
14540.0	1.9447111955251192e+18
14541.0	1.9442662771785725e+18
14542.0	1.9438534083477501e+18
14543.0	1.943360104510259e+18
14544.0	1.9429981981507581e+18
14545.0	1.942472120021811e+18
14546.0	1.933678479828578e+18
14547.0	1.9339935962103752e+18
14548.0	1.941147911140147e+18
14549.0	1.940648483618816e+18
14550.0	1.9402996232224765e+18
14551.0	1.939876357550899e+18
14552.0	1.9394468658544637e+18
14553.0	1.9390150723239933e+18
14554.0	1.9385911825399803e+18
14555.0	1.9381621589278717e+18
14556.0	1.937731449205555e+18
14557.0	1.9373049404981243e+18
14558.0	1.9368749186416637e+18
14559.0	1.93533167481651e+18
14560.0	1.9360152792596477e+18
14561.0	1.935584963801907e+18
14562.0	1.935144028366438e+18
14563.0	1.9347310739718141e+18
14564.0	1.9342994448580608e+18
14565.0	1.9338738555420672e+18
14566.0	1.9334448117972987e+18
14567.0	1.933015278157824e+18
14568.0	1.9325793440104443e+18
14569.0	1.9321564491153405e+18
14570.0	1.931416243378585e+18
14571.0	1.9312958316216315e+18
14572.0	1.9308426504962043e+18
14573.0	1.9304064781123581e+18
14574.0	1.9300024760401915e+18
14575.0	1.92957918520279e+18
14576.0	1.9291498663116797e+18
14577.0	1.928716371571507e+18
14578.0	1.928290523886387e+18
14579.0	1.9278621696851963e+18
14580.0	1.9274325186052093e+18
14581.0	1.9269995439587325e+18
14582.0	1.9265725067689981e+18
14583.0	1.9261424698130427e+18
14584.0	1.9257049216974843e+18
14585.0	1.9252815939502075e+18
14586.0	1.9248486511804408e+18
14587.0	1.92441868133335e+18
14588.0	1.9239897248301053e+18
14589.0	1.92356820231127e+18
14590.0	1.923146988493209e+18
14591.0	1.922725227737907e+18
14592.0	1.922299920279142e+18
14593.0	1.9218006739517437e+18
14594.0	1.9214604622102528e+18
14595.0	1.921034893026918e+18
14596.0	1.92059205002199e+18
14597.0	1.9201725239918587e+18
14598.0	1.9197705133752315e+18
14599.0	1.9193512759132155e+18
14600.0	1.9189285538234365e+18
14601.0	1.9185061840551933e+18
14602.0	1.9180817238458363e+18
14603.0	1.9176601325404155e+18
14604.0	1.9172083254689787e+18
14605.0	1.9168102239436792e+18
14606.0	1.916350160804249e+18
14607.0	1.9159605502279675e+18
14608.0	1.915543092828569e+18
14609.0	1.9151130441285632e+18
14610.0	1.914691657505177e+18
14611.0	1.9142695142293504e+18
14612.0	1.913848781917388e+18
14613.0	1.913425162246553e+18
14614.0	1.9129986636054525e+18
14615.0	1.912576394500505e+18
14616.0	1.9121522278924288e+18
14617.0	1.9117273985843197e+18
14618.0	1.9113022068883453e+18
14619.0	1.9108613821825024e+18
14620.0	1.9103996044115963e+18
14621.0	1.910027086462976e+18
14622.0	1.9096016045211643e+18
14623.0	1.9091006888607741e+18
14624.0	1.9085053443178488e+18
14625.0	1.9081176782209021e+18
14626.0	1.9076910084521981e+18
14627.0	1.9072603893268477e+18
14628.0	1.906839618427289e+18
14629.0	1.9064122826031104e+18
14630.0	1.9059841968373755e+18
14631.0	1.9055560993275904e+18
14632.0	1.9045440708149245e+18
14633.0	1.9046165852979197e+18
14634.0	1.9042703908012027e+18
14635.0	1.903830809287065e+18
14636.0	1.903383389457612e+18
14637.0	1.9029868230475773e+18
14638.0	1.902556504234393e+18
14639.0	1.9021211925217275e+18
14640.0	1.901692722557747e+18
14641.0	1.898956507945368e+18
14642.0	1.9008317795860477e+18
14643.0	1.9004077673283581e+18
14644.0	1.899969554835046e+18
14645.0	1.8995306897080317e+18
14646.0	1.8991104204472315e+18
14647.0	1.898677168976691e+18
14648.0	1.8982518548070392e+18
14649.0	1.897821403453849e+18
