# Flux units: erg / (cm m2 s)
# Wavelength units: Angstrom
wave	flux
14000.0	2.1621251126591483e+18
14001.0	2.1616012541558781e+18
14002.0	2.161097610520166e+18
14003.0	2.1605841891229693e+18
14004.0	2.1600709321424893e+18
14005.0	2.159557634896691e+18
14006.0	2.159043069293363e+18
14007.0	2.1585303743496187e+18
14008.0	2.1579978369925112e+18
14009.0	2.1575057780244477e+18
14010.0	2.1569902577975293e+18
14011.0	2.1563685830918144e+18
14012.0	2.155968401191731e+18
14013.0	2.155456372303462e+18
14014.0	2.1549443501260795e+18
14015.0	2.1544320578355195e+18
14016.0	2.1539208795521021e+18
14017.0	2.1534092851937275e+18
14018.0	2.1528975465512957e+18
14019.0	2.152386633347891e+18
14020.0	2.151875356078899e+18
14021.0	2.1513642633592827e+18
14022.0	2.1508314592444416e+18
14023.0	2.150315301483315e+18
14024.0	2.1498053546475517e+18
14025.0	2.1492991440977915e+18
14026.0	2.1487885647609853e+18
14027.0	2.1482788377067515e+18
14028.0	2.1477688774492157e+18
14029.0	2.147258690699264e+18
14030.0	2.1465530846150653e+18
14031.0	2.1462349114245117e+18
14032.0	2.1457301789474816e+18
14033.0	2.1452099309010936e+18
14034.0	2.1447115771215867e+18
14035.0	2.1442030060175355e+18
14036.0	2.1436942184873984e+18
14037.0	2.1431851558109181e+18
14038.0	2.1426770410471421e+18
14039.0	2.14216530240471e+18
14040.0	2.1416354863120381e+18
14041.0	2.1411289821609981e+18
14042.0	2.140619818821222e+18
14043.0	2.140106180997939e+18
14044.0	2.1396043207802877e+18
14045.0	2.1390981924388861e+18
14046.0	2.138590018954854e+18
14047.0	2.13808193774551e+18
14048.0	2.137576453649203e+18
14049.0	2.1370699243323387e+18
14050.0	2.1365631047696381e+18
14051.0	2.136054572253184e+18
14052.0	2.1355498531979261e+18
14053.0	2.1350433356251133e+18
14054.0	2.1345372156723195e+18
14055.0	2.1340307199098877e+18
14056.0	2.133525141861171e+18
14057.0	2.1330193222205437e+18
14058.0	2.1325136468639744e+18
14059.0	2.131995965731635e+18
14060.0	2.1314806015328256e+18
14061.0	2.130974083960012e+18
14062.0	2.1304701500784637e+18
14063.0	2.129961793722777e+18
14064.0	2.129434230810214e+18
14065.0	2.1289539645472763e+18
14066.0	2.1284508611379195e+18
14067.0	2.127940996510515e+18
14068.0	2.1274422669213693e+18
14069.0	2.126937460624588e+18
14070.0	2.1264340166377467e+18
14071.0	2.1259297472118781e+18
14072.0	2.125426534750617e+18
14073.0	2.1249229817118715e+18
14074.0	2.1244195142369277e+18
14075.0	2.1239123054428155e+18
14076.0	2.1234069152989181e+18
14077.0	2.122863769708134e+18
14078.0	2.122403701535539e+18
14079.0	2.121903205305548e+18
14080.0	2.1214020346314747e+18
14081.0	2.1208993976287227e+18
14082.0	2.120371220670054e+18
14083.0	2.1198730262740987e+18
14084.0	2.1193712683974653e+18
14085.0	2.1187933604151293e+18
14086.0	2.1183639559602173e+18
14087.0	2.1178660115447803e+18
14088.0	2.1173617421189117e+18
14089.0	2.1168578837348352e+18
14090.0	2.1163611858665464e+18
14091.0	2.1158609782046715e+18
14092.0	2.1153600927432701e+18
14093.0	2.1148593280778237e+18
14094.0	2.1143586993078267e+18
14095.0	2.1138582198550525e+18
14096.0	2.1133476774281216e+18
14097.0	2.1128515600515072e+18
14098.0	2.1123526073253888e+18
14099.0	2.1118576727425021e+18
14100.0	2.1113558108471293e+18
14101.0	2.1108583932362747e+18
14102.0	2.1103587895541752e+18
14103.0	2.109857068587417e+18
14104.0	2.1093604025958397e+18
14105.0	2.1088604885352443e+18
14106.0	2.1083595896520701e+18
14107.0	2.1078397190930424e+18
14108.0	2.107340826764902e+18
14109.0	2.1068438369730555e+18
14110.0	2.1063416630214653e+18
14111.0	2.1058386166546427e+18
14112.0	2.1053497906561021e+18
14113.0	2.1048520844771325e+18
14114.0	2.1043511251959803e+18
14115.0	2.1038562694660096e+18
14116.0	2.1033381353488381e+18
14117.0	2.1025480996028408e+18
14118.0	2.1023642078937083e+18
14119.0	2.1018617453740027e+18
14120.0	2.1013648914776061e+18
14121.0	2.1008682422632443e+18
14122.0	2.1003702324166653e+18
14123.0	2.0998696774664184e+18
14124.0	2.099372102149734e+18
14125.0	2.0987933435625467e+18
14126.0	2.0983885227622397e+18
14127.0	2.0978952239579133e+18
14128.0	2.0973990998704125e+18
14129.0	2.096901190687129e+18
14130.0	2.0964032462716925e+18
14131.0	2.095912635177369e+18
14132.0	2.0954172861972475e+18
14133.0	2.094812465882725e+18
14134.0	2.0944116128940027e+18
14135.0	2.0939070565777405e+18
14136.0	2.093393628469657e+18
14137.0	2.0929210595934208e+18
14138.0	2.0924223803359227e+18
14139.0	2.0919325812588536e+18
14140.0	2.0914303737528317e+18
14141.0	2.090943265741209e+18
14142.0	2.090418004662681e+18
14143.0	2.089946533016371e+18
14144.0	2.089462891177574e+18
14145.0	2.0889693809803261e+18
14146.0	2.0884755889258493e+18
14147.0	2.087982223012659e+18
14148.0	2.0874877934239744e+18
14149.0	2.0869938654740475e+18
14150.0	2.0865036603883517e+18
14151.0	2.0860067846815736e+18
14152.0	2.0855184737435645e+18
14153.0	2.085026003733708e+18
14154.0	2.084528195213721e+18
14155.0	2.0839872289832955e+18
14156.0	2.0835468354519037e+18
14157.0	2.083057548079923e+18
14158.0	2.0825645093224445e+18
14159.0	2.0820741750521853e+18
14160.0	2.0815824801497083e+18
14161.0	2.081078413728153e+18
14162.0	2.0805785567100928e+18
14163.0	2.0801089171357693e+18
14164.0	2.079604942988902e+18
14165.0	2.0790426797604861e+18
14166.0	2.0786152634056701e+18
14167.0	2.0781224679178235e+18
14168.0	2.077632836612915e+18
14169.0	2.0771448813518843e+18
14170.0	2.0766530153218043e+18
14171.0	2.0761638370017275e+18
14172.0	2.0756748902072317e+18
14173.0	2.0751473172283387e+18
14174.0	2.0746944112492544e+18
14175.0	2.0742061271547896e+18
14176.0	2.0737158935478272e+18
14177.0	2.0732272806199293e+18
14178.0	2.0727375855616e+18
14179.0	2.072241627568537e+18
14180.0	2.07176088986583e+18
14181.0	2.0712722551275517e+18
14182.0	2.070783591868006e+18
14183.0	2.0702953849487355e+18
14184.0	2.0698060908658683e+18
14185.0	2.0693190197641216e+18
14186.0	2.0687666366382077e+18
14187.0	2.0683382522380283e+18
14188.0	2.0678553737625597e+18
14189.0	2.067366572929843e+18
14190.0	2.0668800957415421e+18
14191.0	2.0663925951430653e+18
14192.0	2.0659044603658237e+18
14193.0	2.0654088077180925e+18
14194.0	2.064931529477324e+18
14195.0	2.0644456243920893e+18
14196.0	2.0639532047138808e+18
14197.0	2.0634650565148667e+18
14198.0	2.06297772368855e+18
14199.0	2.0624911559032827e+18
14200.0	2.061970573990297e+18
14201.0	2.0615200705085435e+18
14202.0	2.0610166852419581e+18
14203.0	2.0605197776584701e+18
14204.0	2.0600425010954237e+18
14205.0	2.0595571664355325e+18
14206.0	2.0590481322803197e+18
14207.0	2.0585872604790781e+18
14208.0	2.0581023133728765e+18
14209.0	2.0575895295098875e+18
14210.0	2.0571155983237115e+18
14211.0	2.0566479183282173e+18
14212.0	2.05616336380887e+18
14213.0	2.0556781063241725e+18
14214.0	2.0551948470059003e+18
14215.0	2.0547083295522808e+18
14216.0	2.0542269912252408e+18
14217.0	2.0537431782588416e+18
14218.0	2.053256905752576e+18
14219.0	2.0527759415574525e+18
14220.0	2.0522925631209472e+18
14221.0	2.0518079314264061e+18
14222.0	2.0513158472925176e+18
14223.0	2.0508430418575355e+18
14224.0	2.050360220424601e+18
14225.0	2.0497791046385664e+18
14226.0	2.049394788951654e+18
14227.0	2.048912430569881e+18
14228.0	2.048206396666675e+18
14229.0	2.0479204726407165e+18
14230.0	2.047465806731673e+18
14231.0	2.0469754842054653e+18
14232.0	2.0465020378808315e+18
14233.0	2.0460188255387643e+18
14234.0	2.0455388159672315e+18
14235.0	2.0450569239920635e+18
14236.0	2.044575807124275e+18
14237.0	2.044094693611929e+18
14238.0	2.0436138485350397e+18
14239.0	2.043131468342886e+18
14240.0	2.04237959069696e+18
14241.0	2.0421716421378043e+18
14242.0	2.041680626712576e+18
14243.0	2.041159372033228e+18
14244.0	2.0407105865383933e+18
14245.0	2.0402271158272e+18
14246.0	2.0397437625565181e+18
14247.0	2.039270431994675e+18
14248.0	2.0387881474326525e+18
14249.0	2.038310731618713e+18
14250.0	2.0378311884537853e+18
14251.0	2.0373523465764861e+18
14252.0	2.036873110434611e+18
14253.0	2.0363938927476733e+18
14254.0	2.0359145509093373e+18
14255.0	2.035430313479372e+18
14256.0	2.0348632100241403e+18
14257.0	2.0344778558275581e+18
14258.0	2.0340005306105856e+18
14259.0	2.0335189423030272e+18
14260.0	2.0330414929346555e+18
14261.0	2.0325613826998264e+18
14262.0	2.032094598607667e+18
14263.0	2.031477143371776e+18
14264.0	2.0311183558967293e+18
14265.0	2.0306603915870203e+18
14266.0	2.030184250841497e+18
14267.0	2.0297068350275581e+18
14268.0	2.0292298352885755e+18
14269.0	2.028752345654886e+18
14270.0	2.028275968350617e+18
14271.0	2.0277978780925947e+18
14272.0	2.0273224453455872e+18
14273.0	2.026845880136499e+18
14274.0	2.0261661193535483e+18
14275.0	2.0258751722291197e+18
14276.0	2.0254080878247936e+18
14277.0	2.0249357940948987e+18
14278.0	2.0244655119532027e+18
14279.0	2.0239897302401021e+18
14280.0	2.0235125862170621e+18
14281.0	2.0230387338838008e+18
14282.0	2.0225634655535101e+18
14283.0	2.0220882492325883e+18
14284.0	2.0216131671293947e+18
14285.0	2.0211381655568381e+18
14286.0	2.020662929103257e+18
14287.0	2.020188695927193e+18
14288.0	2.0197140785528827e+18
14289.0	2.0190652012691446e+18
14290.0	2.0187635754467328e+18
14291.0	2.0182762593976315e+18
14292.0	2.0177974879846397e+18
14293.0	2.0173230920695803e+18
14294.0	2.0168215204200443e+18
14295.0	2.0163729765171197e+18
14296.0	2.0157606383321088e+18
14297.0	2.0154288755965947e+18
14298.0	2.0149006969602043e+18
14299.0	2.014478421144371e+18
14300.0	2.0140074729471997e+18
14301.0	2.0135354073874427e+18
14302.0	2.0130629156863997e+18
14303.0	2.0125831913275387e+18
14304.0	2.012115591862681e+18
14305.0	2.0116444473720827e+18
14306.0	2.0111527424032765e+18
14307.0	2.0106951908130816e+18
14308.0	2.0102279352811517e+18
14309.0	2.00975389336535e+18
14310.0	2.009193433687654e+18
14311.0	2.0087675339931643e+18
14312.0	2.0083257060098045e+18
14313.0	2.007857259295539e+18
14314.0	2.00739677840343e+18
14315.0	2.006927489472921e+18
14316.0	2.0064461209468925e+18
14317.0	2.0059739933114363e+18
14318.0	2.0055050231480315e+18
14319.0	2.0050318268039163e+18
14320.0	2.0045612040847355e+18
14321.0	2.004090895099494e+18
14322.0	2.0036113401905147e+18
14323.0	2.0031474954665981e+18
14324.0	2.0026799681437693e+18
14325.0	2.0022082129625083e+18
14326.0	2.0017406436966392e+18
14327.0	2.001269386798694e+18
14328.0	2.000800149877555e+18
14329.0	2.0003319749541883e+18
14330.0	1.9998626507915261e+18
14331.0	1.9993933266288637e+18
14332.0	1.9989243631763453e+18
14333.0	1.998455424889651e+18
14334.0	1.9979865906216955e+18
14335.0	1.9975137818312701e+18
14336.0	1.9970355036684283e+18
14337.0	1.9965807068971005e+18
14338.0	1.996112073955737e+18
14339.0	1.99564165424087e+18
14340.0	1.9951761351507963e+18
14341.0	1.994707225385369e+18
14342.0	1.9942403288858621e+18
14343.0	1.9937688605949947e+18
14344.0	1.993302990861107e+18
14345.0	1.9928375841783803e+18
14346.0	1.9923638845177848e+18
14347.0	1.9918775885234173e+18
14348.0	1.991416423120896e+18
14349.0	1.990949640706457e+18
14350.0	1.9904745502146552e+18
14351.0	1.9900073349480443e+18
14352.0	1.9895479126982656e+18
14353.0	1.9890827308302333e+18
14354.0	1.9886151196213245e+18
14355.0	1.9881470185177083e+18
14356.0	1.987681816517017e+18
14357.0	1.987217676514099e+18
14358.0	1.9867517178609661e+18
14359.0	1.986282341688934e+18
14360.0	1.9858193240817661e+18
14361.0	1.9853543435403261e+18
14362.0	1.9848890710753275e+18
14363.0	1.9844236258050045e+18
14364.0	1.983928447952486e+18
14365.0	1.983489602958131e+18
14366.0	1.9830238473093115e+18
14367.0	1.982563465402777e+18
14368.0	1.9820985838469115e+18
14369.0	1.9816340445462528e+18
14370.0	1.9811695354445821e+18
14371.0	1.9807051555274747e+18
14372.0	1.980240653136691e+18
14373.0	1.9797766137970683e+18
14374.0	1.979312633177702e+18
14375.0	1.9788486810796027e+18
14376.0	1.9783848464220155e+18
14377.0	1.977921010086707e+18
14378.0	1.9774570009460733e+18
14379.0	1.976994042059161e+18
14380.0	1.976530606699315e+18
14381.0	1.976064728576819e+18
14382.0	1.9756038970408952e+18
14383.0	1.9751354587152381e+18
14384.0	1.974673613835468e+18
14385.0	1.974215577383731e+18
14386.0	1.973749627119206e+18
14387.0	1.9732902937886717e+18
14388.0	1.9728274020106237e+18
14389.0	1.972365488344268e+18
14390.0	1.9719029153333243e+18
14391.0	1.9714411476287488e+18
14392.0	1.970977255928627e+18
14393.0	1.9705174612246528e+18
14394.0	1.9700476823994365e+18
14395.0	1.9695849785262075e+18
14396.0	1.9691322319306747e+18
14397.0	1.9686712410111997e+18
14398.0	1.9682083509108733e+18
14399.0	1.9677483431362555e+18
14400.0	1.967280344373657e+18
14401.0	1.9668252976218107e+18
14402.0	1.9663655700267003e+18
14403.0	1.964657104178378e+18
14404.0	1.962110326145023e+18
14405.0	1.9647340109365235e+18
14406.0	1.964523421643571e+18
14407.0	1.9621886925209605e+18
14408.0	1.9635942742556672e+18
14409.0	1.963139380176486e+18
14410.0	1.9626760387690493e+18
14411.0	1.9622043624407037e+18
14412.0	1.961744468751155e+18
14413.0	1.9612854994862077e+18
14414.0	1.9608254111809533e+18
14415.0	1.9603662372339707e+18
14416.0	1.959905704332492e+18
14417.0	1.9594394889879552e+18
14418.0	1.9589769847635968e+18
14419.0	1.95852948775895e+18
14420.0	1.9580699128365053e+18
14421.0	1.9576119569154045e+18
14422.0	1.957153281251737e+18
14423.0	1.9566924379717627e+18
14424.0	1.9486272493977544e+18
14425.0	1.9557761704525821e+18
14426.0	1.9553197983006717e+18
14427.0	1.9548618457350141e+18
14428.0	1.9543976738553853e+18
14429.0	1.953945391988736e+18
14430.0	1.9534881742651387e+18
14431.0	1.952984919860838e+18
14432.0	1.952566400463667e+18
14433.0	1.9507159976902643e+18
14434.0	1.951655553662976e+18
14435.0	1.9511922525208573e+18
14436.0	1.9507435794333696e+18
14437.0	1.9502865210933243e+18
14438.0	1.9497845987999744e+18
14439.0	1.9493623515054077e+18
14440.0	1.9489071738912763e+18
14441.0	1.948449714575769e+18
14442.0	1.9479921361420283e+18
14443.0	1.9475282847072253e+18
14444.0	1.9470805008121853e+18
14445.0	1.9466250597957624e+18
14446.0	1.944663231142298e+18
14447.0	1.9457101948518397e+18
14448.0	1.9452572016312315e+18
14449.0	1.944801409970995e+18
14450.0	1.944344339886899e+18
14451.0	1.9438898551717888e+18
14452.0	1.943433444432281e+18
14453.0	1.942950371341107e+18
14454.0	1.9425235824541693e+18
14455.0	1.94206747370455e+18
14456.0	1.9416071387742203e+18
14457.0	1.9411486795366397e+18
14458.0	1.9406989931053053e+18
14459.0	1.9402438725337083e+18
14460.0	1.9397919312445435e+18
14461.0	1.9393275932704763e+18
14462.0	1.938841696573849e+18
14463.0	1.938425646782873e+18
14464.0	1.9379749100978173e+18
14465.0	1.9375174776258555e+18
14466.0	1.9370674355175421e+18
14467.0	1.9365916403826683e+18
14468.0	1.936157722856652e+18
14469.0	1.935699584063897e+18
14470.0	1.9352460690718715e+18
14471.0	1.9347948508807165e+18
14472.0	1.9343425656586237e+18
14473.0	1.933891807163187e+18
14474.0	1.9334385270521853e+18
14475.0	1.9329841027350525e+18
14476.0	1.9324409823100925e+18
14477.0	1.932078716918169e+18
14478.0	1.9316255240486912e+18
14479.0	1.9311721499852797e+18
14480.0	1.9307165344858107e+18
14481.0	1.9302675493421053e+18
14482.0	1.9298142272880637e+18
14483.0	1.9293600462405632e+18
14484.0	1.928908754229657e+18
14485.0	1.9284484998299643e+18
14486.0	1.9279440139780093e+18
14487.0	1.9275526199836664e+18
14488.0	1.9270769859100672e+18
14489.0	1.9266261150072827e+18
14490.0	1.9261773781663744e+18
14491.0	1.9257267924762621e+18
14492.0	1.9252750105706493e+18
14493.0	1.924822988750848e+18
14494.0	1.9243671719247864e+18
14495.0	1.9239203510419453e+18
14496.0	1.9234407944552445e+18
14497.0	1.923017350945177e+18
14498.0	1.9225657737215997e+18
14499.0	1.922114976638566e+18
14500.0	1.9216637517365245e+18
14501.0	1.9211687366230016e+18
14502.0	1.9206747969290237e+18
14503.0	1.920303929858457e+18
14504.0	1.9198589527916536e+18
14505.0	1.9193684171948027e+18
14506.0	1.9188641226031104e+18
14507.0	1.9184578119860221e+18
14508.0	1.9180576065978365e+18
14509.0	1.9176071886798843e+18
14510.0	1.9171570190647293e+18
14511.0	1.916706745430835e+18
14512.0	1.9162530794438653e+18
14513.0	1.9158064078782456e+18
14514.0	1.9153442895298555e+18
14515.0	1.914905619018547e+18
14516.0	1.9140290749136896e+18
14517.0	1.9140065733115904e+18
14518.0	1.9135568315154432e+18
14519.0	1.913107215548416e+18
14520.0	1.9126575928705021e+18
14521.0	1.912207476942438e+18
14522.0	1.9117576227389437e+18
14523.0	1.911198018699264e+18
14524.0	1.9107424837304317e+18
14525.0	1.9103945863462912e+18
14526.0	1.9099465709256704e+18
14527.0	1.9094911886295037e+18
14528.0	1.9090189351649277e+18
14529.0	1.9085971324665853e+18
14530.0	1.9081469141975037e+18
14531.0	1.907701063037747e+18
14532.0	1.9071084615696381e+18
14533.0	1.9068035742564352e+18
14534.0	1.9063551578603515e+18
14535.0	1.9059039044370427e+18
14536.0	1.90545778484183e+18
14537.0	1.9050066874466296e+18
14538.0	1.904560668514713e+18
14539.0	1.9041124970659835e+18
14540.0	1.9036641242906621e+18
14541.0	1.9032111847571453e+18
14542.0	1.902767544834457e+18
14543.0	1.9022555864104952e+18
14544.0	1.9018711197286397e+18
14545.0	1.901422184916582e+18
14546.0	1.8928103862566856e+18
14547.0	1.8933016969609144e+18
14548.0	1.9000764408004603e+18
14549.0	1.8996066217099261e+18
14550.0	1.8991822386757627e+18
14551.0	1.8987359328534528e+18
14552.0	1.898287231244697e+18
14553.0	1.8978384155508733e+18
14554.0	1.8973929653665787e+18
14555.0	1.8969453123338235e+18
14556.0	1.8964955252391933e+18
14557.0	1.8960507042004987e+18
14558.0	1.895603104854835e+18
14559.0	1.8948300258410483e+18
14560.0	1.8946962946523133e+18
14561.0	1.8942598001459197e+18
14562.0	1.8938078253023232e+18
14563.0	1.8933664570146813e+18
14564.0	1.8929143110434813e+18
14565.0	1.8924721257054203e+18
14566.0	1.8920249088802816e+18
14567.0	1.891577428652851e+18
14568.0	1.891118043312947e+18
14569.0	1.8906832282058747e+18
14570.0	1.8901418274455547e+18
14571.0	1.8897884070019064e+18
14572.0	1.8893294427701243e+18
14573.0	1.8888851955122173e+18
14574.0	1.8884340779843581e+18
14575.0	1.8879991890575352e+18
14576.0	1.8875519219007483e+18
14577.0	1.887105302344499e+18
14578.0	1.8866558642159616e+18
14579.0	1.886195754100326e+18
14580.0	1.8857488610754555e+18
14581.0	1.8852892307881981e+18
14582.0	1.8848444902801403e+18
14583.0	1.8843976308097021e+18
14584.0	1.883947355498086e+18
14585.0	1.8835036685991933e+18
14586.0	1.8830559904006141e+18
14587.0	1.8826077384212477e+18
14588.0	1.8821636455137275e+18
14589.0	1.8817323905318907e+18
14590.0	1.8813029240012792e+18
14591.0	1.880872533046067e+18
14592.0	1.8804430530936827e+18
14593.0	1.879989274699366e+18
14594.0	1.8795838616633341e+18
14595.0	1.8791527006339072e+18
14596.0	1.878694924229017e+18
14597.0	1.8782675514949624e+18
14598.0	1.877862279387545e+18
14599.0	1.8774343026737152e+18
14600.0	1.877003321160499e+18
14601.0	1.876573676791398e+18
14602.0	1.8761398112747517e+18
14603.0	1.8757130559422461e+18
14604.0	1.8752723654541307e+18
14605.0	1.8748461335707643e+18
14606.0	1.8744073540075517e+18
14607.0	1.8739913964912637e+18
14608.0	1.8735590157582333e+18
14609.0	1.873103447234969e+18
14610.0	1.8726712963497981e+18
14611.0	1.8722495288836093e+18
14612.0	1.8718211646160893e+18
14613.0	1.87139068306391e+18
14614.0	1.8709590891823104e+18
14615.0	1.8705271194910717e+18
14616.0	1.8700977032921083e+18
14617.0	1.869666317447987e+18
14618.0	1.8692288330858493e+18
14619.0	1.8687897766985725e+18
14620.0	1.868302571379097e+18
14621.0	1.8679400241299453e+18
14622.0	1.8675082121445376e+18
14623.0	1.8670762642636797e+18
14624.0	1.8666318911766525e+18
14625.0	1.8662120799338493e+18
14626.0	1.8657774711865341e+18
14627.0	1.865341897749299e+18
14628.0	1.8649151088623613e+18
14629.0	1.8644824630493181e+18
14630.0	1.8640491075600381e+18
14631.0	1.8636159450087421e+18
14632.0	1.8625685098594307e+18
14633.0	1.8626872858378237e+18
14634.0	1.8623153131487227e+18
14635.0	1.86183399327662e+18
14636.0	1.8612701898997755e+18
14637.0	1.861017070364262e+18
14638.0	1.8605819515895803e+18
14639.0	1.860146232190566e+18
14640.0	1.8597136501309435e+18
14641.0	1.8569277481156588e+18
14642.0	1.8588444695461883e+18
14643.0	1.85841061241815e+18
14644.0	1.8579729669947387e+18
14645.0	1.8575356218834936e+18
14646.0	1.8570977684226043e+18
14647.0	1.856662119487897e+18
14648.0	1.856233124397056e+18
