# Flux units: erg / (cm m2 s)
# Wavelength units: Angstrom
wave	flux
14000.0	1.6667073241415677e+18
14001.0	1.6663464210595835e+18
14002.0	1.665997624416665e+18
14003.0	1.6656429372932093e+18
14004.0	1.66528834076672e+18
14005.0	1.6649338063159293e+18
14006.0	1.6645789363208187e+18
14007.0	1.664224755869286e+18
14008.0	1.663865409712947e+18
14009.0	1.663516259070771e+18
14010.0	1.6631621708939267e+18
14011.0	1.662773889073152e+18
14012.0	1.6624542579425275e+18
14013.0	1.6621004432343037e+18
14014.0	1.6617467073789947e+18
14015.0	1.661392934613811e+18
14016.0	1.6610395108147197e+18
14017.0	1.6606860350062587e+18
14018.0	1.6603326263066621e+18
14019.0	1.6599793618911232e+18
14020.0	1.6596261159305213e+18
14021.0	1.6592729672777725e+18
14022.0	1.6589199343878141e+18
14023.0	1.658566710237593e+18
14024.0	1.658213623660544e+18
14025.0	1.6578614279536635e+18
14026.0	1.657508665176883e+18
14027.0	1.657156184257331e+18
14028.0	1.6568036915937277e+18
14029.0	1.6564512442286075e+18
14030.0	1.6560802429403133e+18
14031.0	1.6557466867204096e+18
14032.0	1.6553945665110008e+18
14033.0	1.6550402015100925e+18
14034.0	1.654690524063334e+18
14035.0	1.6543386555121661e+18
14036.0	1.6539868591030267e+18
14037.0	1.653635148257689e+18
14038.0	1.6532835347202043e+18
14039.0	1.6529319966801923e+18
14040.0	1.6525805475594237e+18
14041.0	1.6522291907133435e+18
14042.0	1.651877392626483e+18
14043.0	1.6515243597365248e+18
14044.0	1.6511749675024381e+18
14045.0	1.6508246390996992e+18
14046.0	1.650473716783513e+18
14047.0	1.650122802855936e+18
14048.0	1.6497721003212797e+18
14049.0	1.6494214699286528e+18
14050.0	1.6490709016117248e+18
14051.0	1.6487199390302205e+18
14052.0	1.6483662451179512e+18
14053.0	1.6480134991183872e+18
14054.0	1.647663269701222e+18
14055.0	1.6473131191369725e+18
14056.0	1.6469630507810813e+18
14057.0	1.6466130746998781e+18
14058.0	1.6462631841824765e+18
14059.0	1.6459133825843197e+18
14060.0	1.6455636631945213e+18
14061.0	1.6452136669806592e+18
14062.0	1.6448644878172157e+18
14063.0	1.644514199679795e+18
14064.0	1.644162265697485e+18
14065.0	1.6438159101394941e+18
14066.0	1.643467183960883e+18
14067.0	1.6431180853280768e+18
14068.0	1.6427690588372987e+18
14069.0	1.642420040735129e+18
14070.0	1.6420665515048957e+18
14071.0	1.6417162113581053e+18
14072.0	1.6413676697288704e+18
14073.0	1.641019066023936e+18
14074.0	1.6406705562714112e+18
14075.0	1.6403221018836992e+18
14076.0	1.639973778358272e+18
14077.0	1.6396216044617725e+18
14078.0	1.639277020577792e+18
14079.0	1.6389289067675643e+18
14080.0	1.6385812610416637e+18
14081.0	1.63823335023575e+18
14082.0	1.6378849646346237e+18
14083.0	1.637537704784691e+18
14084.0	1.6371901244899328e+18
14085.0	1.6368288338542587e+18
14086.0	1.636494740763443e+18
14087.0	1.6361476788846592e+18
14088.0	1.635800320049152e+18
14089.0	1.6354523320680448e+18
14090.0	1.6350998427598848e+18
14091.0	1.6347528563785725e+18
14092.0	1.634405871674982e+18
14093.0	1.6340589809238016e+18
14094.0	1.6337121656700925e+18
14095.0	1.633365442691072e+18
14096.0	1.6330179043393533e+18
14097.0	1.6326722467135485e+18
14098.0	1.6323253509292032e+18
14099.0	1.6319794030575613e+18
14100.0	1.6316324502306813e+18
14101.0	1.631286889912729e+18
14102.0	1.6309405293215741e+18
14103.0	1.6305936788357112e+18
14104.0	1.6302485480144893e+18
14105.0	1.6299026051760125e+18
14106.0	1.6295568871522304e+18
14107.0	1.6292109829013501e+18
14108.0	1.628865587000115e+18
14109.0	1.6285198035451901e+18
14110.0	1.628173986535833e+18
14111.0	1.6278278557925376e+18
14112.0	1.6274807167385595e+18
14113.0	1.6271327673450493e+18
14114.0	1.6267876499455997e+18
14115.0	1.626442554356531e+18
14116.0	1.6260956719939584e+18
14117.0	1.625720337150771e+18
14118.0	1.6254080393412605e+18
14119.0	1.6250628950982653e+18
14120.0	1.624718281015296e+18
14121.0	1.6243738984579067e+18
14122.0	1.6240289236647933e+18
14123.0	1.6236847390785533e+18
14124.0	1.6233402994786301e+18
14125.0	1.622971935568691e+18
14126.0	1.6226529050623997e+18
14127.0	1.6223089033478141e+18
14128.0	1.6219649033109504e+18
14129.0	1.621620530819891e+18
14130.0	1.621276547560243e+18
14131.0	1.620933693407232e+18
14132.0	1.6205901094453248e+18
14133.0	1.6202173046063101e+18
14134.0	1.6199031814356987e+18
14135.0	1.6195591495221248e+18
14136.0	1.6192148860829693e+18
14137.0	1.6188697166741496e+18
14138.0	1.6185237688025088e+18
14139.0	1.6181811579191293e+18
14140.0	1.6178371578822656e+18
14141.0	1.617495372437913e+18
14142.0	1.6171496493809661e+18
14143.0	1.6168090114981885e+18
14144.0	1.6164673955037181e+18
14145.0	1.6161248936722432e+18
14146.0	1.6157823633195003e+18
14147.0	1.615440069525504e+18
14148.0	1.6150978277408763e+18
14149.0	1.614755711785369e+18
14150.0	1.614413617640243e+18
14151.0	1.6140714815520765e+18
14152.0	1.6137297128849403e+18
14153.0	1.6133878687203325e+18
14154.0	1.6130447880749053e+18
14155.0	1.612696083706675e+18
14156.0	1.6123625895624701e+18
14157.0	1.6120213728657403e+18
14158.0	1.611679731705446e+18
14159.0	1.6113385754066944e+18
14160.0	1.6109973184446461e+18
14161.0	1.6106527228166141e+18
14162.0	1.610309432455987e+18
14163.0	1.6099740542304253e+18
14164.0	1.6096313242288128e+18
14165.0	1.6092750315257856e+18
14166.0	1.6089456645767165e+18
14167.0	1.6086050652815357e+18
14168.0	1.6082642713706493e+18
14169.0	1.6079239606435837e+18
14170.0	1.6075832925618176e+18
14171.0	1.6072430221000701e+18
14172.0	1.6069029244436475e+18
14173.0	1.6065570671689725e+18
14174.0	1.6062224791502843e+18
14175.0	1.605882636507545e+18
14176.0	1.605542715011891e+18
14177.0	1.6052028807577597e+18
14178.0	1.6048629877833725e+18
14179.0	1.6045222207160315e+18
14180.0	1.604183827624755e+18
14181.0	1.6038443171708925e+18
14182.0	1.6035048385937405e+18
14183.0	1.6031655412105213e+18
14184.0	1.6028260039131133e+18
14185.0	1.6024870890504192e+18
14186.0	1.6021411998990333e+18
14187.0	1.6018076688449533e+18
14188.0	1.6014699753635835e+18
14189.0	1.6011310235910141e+18
14190.0	1.600792355353395e+18
14191.0	1.6004536636276733e+18
14192.0	1.6001146850115581e+18
14193.0	1.5997756325756925e+18
14194.0	1.599438071634329e+18
14195.0	1.599099819471667e+18
14196.0	1.598758787324313e+18
14197.0	1.5984175018409981e+18
14198.0	1.5980790735175677e+18
14199.0	1.5977411669655547e+18
14200.0	1.5973996684115963e+18
14201.0	1.5970654880792576e+18
14202.0	1.5967277241335805e+18
14203.0	1.5963886968635384e+18
14204.0	1.5960522163748864e+18
14205.0	1.5957146789216253e+18
14206.0	1.595370898666291e+18
14207.0	1.595039966402969e+18
14208.0	1.5947026822856701e+18
14209.0	1.5943578870087675e+18
14210.0	1.594023931491123e+18
14211.0	1.593691230909235e+18
14212.0	1.5933542454263805e+18
14213.0	1.5930173253746685e+18
14214.0	1.5926805412184064e+18
14215.0	1.592343171537305e+18
14216.0	1.5920072312750075e+18
14217.0	1.591670663544832e+18
14218.0	1.591334172989849e+18
14219.0	1.5909977679986688e+18
14220.0	1.5906614586376187e+18
14221.0	1.590325199608217e+18
14222.0	1.5899890462752763e+18
14223.0	1.589652975150694e+18
14224.0	1.5893169946230781e+18
14225.0	1.588970030052147e+18
14226.0	1.588645248316211e+18
14227.0	1.5883095060250621e+18
14228.0	1.587943407039283e+18
14229.0	1.5876351642828797e+18
14230.0	1.5873027791126525e+18
14231.0	1.5869673220341757e+18
14232.0	1.586631009317683e+18
14233.0	1.5862909670260733e+18
14234.0	1.585955768316723e+18
14235.0	1.5856205209534464e+18
14236.0	1.585285594034995e+18
14237.0	1.5849505983299581e+18
14238.0	1.584615775430246e+18
14239.0	1.5842807193272315e+18
14240.0	1.5838593461256192e+18
14241.0	1.5836116624080893e+18
14242.0	1.5832771247210493e+18
14243.0	1.582934307477913e+18
14244.0	1.5826082791948285e+18
14245.0	1.582205263622963e+18
14246.0	1.5818189548027904e+18
14247.0	1.5814866317082621e+18
14248.0	1.5811517299556355e+18
14249.0	1.5808185914884093e+18
14250.0	1.580484718179123e+18
14251.0	1.5801510881394685e+18
14252.0	1.5798174027350013e+18
14253.0	1.579483762629017e+18
14254.0	1.5791501376225275e+18
14255.0	1.578815027832422e+18
14256.0	1.5784726283419648e+18
14257.0	1.5781500880420864e+18
14258.0	1.577816973062963e+18
14259.0	1.5774838463397885e+18
14260.0	1.5771504864133115e+18
14261.0	1.5768182421716992e+18
14262.0	1.5764957538811904e+18
14263.0	1.5761467492007933e+18
14264.0	1.575827706950451e+18
14265.0	1.575497571604889e+18
14266.0	1.575164998529843e+18
14267.0	1.574832507663155e+18
14268.0	1.574500105715712e+18
14269.0	1.574167633303961e+18
14270.0	1.5738355350241277e+18
14271.0	1.5735031750197243e+18
14272.0	1.5731712629669888e+18
14273.0	1.5728352153305085e+18
14274.0	1.572478177719091e+18
14275.0	1.5721676918489085e+18
14276.0	1.571837073319526e+18
14277.0	1.5715059145637885e+18
14278.0	1.5711746484338688e+18
14279.0	1.5708430970912763e+18
14280.0	1.570511186716262e+18
14281.0	1.5701802544529403e+18
14282.0	1.569848949735424e+18
14283.0	1.5695177205153787e+18
14284.0	1.5691865684705275e+18
14285.0	1.568855498634035e+18
14286.0	1.5685244506079232e+18
14287.0	1.5681935955197955e+18
14288.0	1.567862748820275e+18
14289.0	1.567476552407449e+18
14290.0	1.5672010906533885e+18
14291.0	1.5668706684174333e+18
14292.0	1.5665402042384381e+18
14293.0	1.5662096461070333e+18
14294.0	1.565871964369715e+18
14295.0	1.565549127113113e+18
14296.0	1.5651740892266493e+18
14297.0	1.5648888027348987e+18
14298.0	1.5645495271620603e+18
14299.0	1.5642285739868157e+18
14300.0	1.5638989067255805e+18
14301.0	1.5635690062610424e+18
14302.0	1.5632391829716987e+18
14303.0	1.5629078564438013e+18
14304.0	1.5625793719762944e+18
14305.0	1.5622504395571197e+18
14306.0	1.5619184452960256e+18
14307.0	1.5615911838875648e+18
14308.0	1.5612625752686587e+18
14309.0	1.5609332821393405e+18
14310.0	1.5605925888917501e+18
14311.0	1.5602696878817275e+18
14312.0	1.559945340675686e+18
14313.0	1.5596113079828477e+18
14314.0	1.5592885193801725e+18
14315.0	1.5589599342493693e+18
14316.0	1.5586285204799485e+18
14317.0	1.558301832852275e+18
14318.0	1.5579742795202557e+18
14319.0	1.557645897393766e+18
14320.0	1.557317547143987e+18
14321.0	1.5569893260787707e+18
14322.0	1.5566541475020797e+18
14323.0	1.5563267703308285e+18
14324.0	1.5559994334248957e+18
14325.0	1.5556714824728573e+18
14326.0	1.5553436070182912e+18
14327.0	1.5550158087389181e+18
14328.0	1.5546877369909248e+18
14329.0	1.554360443705753e+18
14330.0	1.5540328870182907e+18
14331.0	1.553705375629312e+18
14332.0	1.553377993424896e+18
14333.0	1.553050646452633e+18
14334.0	1.5527234202763264e+18
14335.0	1.5523950515716093e+18
14336.0	1.5520679780679677e+18
14337.0	1.5517420470927357e+18
14338.0	1.5514150205652992e+18
14339.0	1.551088165165465e+18
14340.0	1.5507614758600704e+18
14341.0	1.550434659047833e+18
14342.0	1.5501081106710525e+18
14343.0	1.5497810623332347e+18
14344.0	1.5494548327235581e+18
14345.0	1.5491286836445181e+18
14346.0	1.548802212442931e+18
14347.0	1.5484751339061243e+18
14348.0	1.5481499042185213e+18
14349.0	1.5478238138597373e+18
14350.0	1.5474969131614205e+18
14351.0	1.5471709117218813e+18
14352.0	1.5468459538251773e+18
14353.0	1.5465201520345088e+18
14354.0	1.5461942630023163e+18
14355.0	1.5458684578562043e+18
14356.0	1.5455430050316285e+18
14357.0	1.5452177317232637e+18
14358.0	1.544892305742233e+18
14359.0	1.544566928415129e+18
14360.0	1.5442415863201792e+18
14361.0	1.5439164858171387e+18
14362.0	1.5435913869918205e+18
14363.0	1.5432663284318203e+18
14364.0	1.542938406001049e+18
14365.0	1.5426161911791613e+18
14366.0	1.5422911779176448e+18
14367.0	1.5419669531852797e+18
14368.0	1.5416422570131453e+18
14369.0	1.541317705125068e+18
14370.0	1.5409931918245885e+18
14371.0	1.5406687590547453e+18
14372.0	1.5403443833274365e+18
14373.0	1.5400201032302592e+18
14374.0	1.539695907019161e+18
14375.0	1.5393717745614843e+18
14376.0	1.539047710890393e+18
14377.0	1.5387224342265856e+18
14378.0	1.5383941695406077e+18
14379.0	1.5380704699351037e+18
14380.0	1.5377466931544064e+18
14381.0	1.537422825776742e+18
14382.0	1.5370992855547904e+18
14383.0	1.5367750121684987e+18
14384.0	1.5364522520870904e+18
14385.0	1.5361287470972928e+18
14386.0	1.5358053528371197e+18
14387.0	1.5354820827283453e+18
14388.0	1.5351587975200765e+18
14389.0	1.534835800879923e+18
14390.0	1.5345126264012797e+18
14391.0	1.5341898143105021e+18
14392.0	1.5338666062774272e+18
14393.0	1.5335441431527421e+18
14394.0	1.5332194167816192e+18
14395.0	1.532898087796736e+18
14396.0	1.5325761934196733e+18
14397.0	1.5322536917073915e+18
14398.0	1.5319311161753597e+18
14399.0	1.5316088879316992e+18
14400.0	1.5312854584393725e+18
14401.0	1.5309640556347387e+18
14402.0	1.5306422099116032e+18
14403.0	1.5301227503943672e+18
14404.0	1.5293715304153085e+18
14405.0	1.5295992391794685e+18
14406.0	1.5293543757119485e+18
14407.0	1.5287252955430917e+18
14408.0	1.5287105517256701e+18
14409.0	1.5283881791979515e+18
14410.0	1.5280674625814525e+18
14411.0	1.5277461939945467e+18
14412.0	1.5274246401949693e+18
14413.0	1.527103517569843e+18
14414.0	1.526782103021158e+18
14415.0	1.5264609686519803e+18
14416.0	1.5261399332683773e+18
14417.0	1.5258184901984253e+18
14418.0	1.5254962669879293e+18
14419.0	1.525176897581875e+18
14420.0	1.5248558655537147e+18
14421.0	1.524535351941529e+18
14422.0	1.524214694045286e+18
14423.0	1.5238937576472573e+18
14424.0	1.5223024923967475e+18
14425.0	1.5232528327639035e+18
14426.0	1.5229326916059136e+18
14427.0	1.5226123809980413e+18
14428.0	1.522290721502003e+18
14429.0	1.5219718319243264e+18
14430.0	1.5216518400835581e+18
14431.0	1.5213269056749568e+18
14432.0	1.521010953787801e+18
14433.0	1.5204618623516667e+18
14434.0	1.520371515365785e+18
14435.0	1.5200512097910784e+18
14436.0	1.5197326758903805e+18
14437.0	1.519413063214694e+18
14438.0	1.5190874694615037e+18
14439.0	1.5187727993536507e+18
14440.0	1.5184545959641088e+18
14441.0	1.5181345353367547e+18
14442.0	1.5178097888329728e+18
14443.0	1.5174884195827707e+18
14444.0	1.517172085175091e+18
14445.0	1.5168532945829883e+18
14446.0	1.5162674694324227e+18
14447.0	1.5162149718458363e+18
14448.0	1.51589662752768e+18
14449.0	1.5155778604236795e+18
14450.0	1.5152590815756285e+18
14451.0	1.514940463788851e+18
14452.0	1.514621797348147e+18
14453.0	1.5142994885738493e+18
14454.0	1.5139849191292925e+18
14455.0	1.5136662744989693e+18
14456.0	1.5133474973286397e+18
14457.0	1.5130288124329981e+18
14458.0	1.5127117465387005e+18
14459.0	1.5123934357749757e+18
14460.0	1.5120757239578621e+18
14461.0	1.5117567806930944e+18
14462.0	1.5114350255669248e+18
14463.0	1.5111219258064893e+18
14464.0	1.5108044270600192e+18
14465.0	1.5104854267527163e+18
14466.0	1.5101691577761787e+18
14467.0	1.5098486777184253e+18
14468.0	1.5095339220467707e+18
14469.0	1.5092155475296253e+18
14470.0	1.5088975639216123e+18
14471.0	1.508581305011404e+18
14472.0	1.5082648313528315e+18
14473.0	1.5079478745104384e+18
14474.0	1.5076308186824701e+18
14475.0	1.5073136940679165e+18
14476.0	1.5069818910670848e+18
14477.0	1.506680013586432e+18
14478.0	1.5063631926394875e+18
14479.0	1.5060462928396285e+18
14480.0	1.5057293796179963e+18
14481.0	1.5054132784136192e+18
14482.0	1.5050965849735168e+18
14483.0	1.5047796767850493e+18
14484.0	1.5044636611444728e+18
14485.0	1.5041296318070781e+18
14486.0	1.5036950817800192e+18
14487.0	1.5033958148341757e+18
14488.0	1.5030797069189115e+18
14489.0	1.5027632097722363e+18
14490.0	1.5024474021691387e+18
14491.0	1.502131701940224e+18
14492.0	1.501815927891558e+18
14493.0	1.5015000984780795e+18
14494.0	1.5011832691425275e+18
14495.0	1.500868775195443e+18
14496.0	1.5005455352856573e+18
14497.0	1.500237624718131e+18
14498.0	1.4999221476261885e+18
14499.0	1.4996068030742523e+18
14500.0	1.4992914602000384e+18
14501.0	1.4988421428674552e+18
14502.0	1.4985083584774141e+18
14503.0	1.4982101937946621e+18
14504.0	1.4978958776860667e+18
14505.0	1.4975757331726328e+18
14506.0	1.4972528892051453e+18
14507.0	1.496937601695744e+18
14508.0	1.4966367023267835e+18
14509.0	1.4963219919536125e+18
14510.0	1.4960073637887997e+18
14511.0	1.4956927909887997e+18
14512.0	1.4953773474512893e+18
14513.0	1.4950637728956416e+18
14514.0	1.494746757332992e+18
14515.0	1.4944350081384448e+18
14516.0	1.4939811492134912e+18
14517.0	1.4938065302716416e+18
14518.0	1.4934923886460928e+18
14519.0	1.4931768796774397e+18
14520.0	1.492859003443609e+18
14521.0	1.4925448282636288e+18
14522.0	1.492231080902656e+18
14523.0	1.4919034839498747e+18
14524.0	1.491588818875187e+18
14525.0	1.4912893472473085e+18
14526.0	1.4909759857623037e+18
14527.0	1.490661600867123e+18
14528.0	1.4903403255693307e+18
14529.0	1.490034708447232e+18
14530.0	1.4897208788779003e+18
14531.0	1.4894083428319235e+18
14532.0	1.4890738101780477e+18
14533.0	1.4887817993781245e+18
14534.0	1.4884686190870523e+18
14535.0	1.4881554203410432e+18
14536.0	1.48784233400238e+18
14537.0	1.4875286168403963e+18
14538.0	1.4872163257417725e+18
14539.0	1.4869034088529915e+18
14540.0	1.4865905322295293e+18
14541.0	1.4862774509240315e+18
14542.0	1.4859649534656507e+18
14543.0	1.4856436026703872e+18
14544.0	1.485339574350643e+18
14545.0	1.4850268353003515e+18
14546.0	1.482944222435736e+18
14547.0	1.4828497616764908e+18
14548.0	1.484088983892787e+18
14549.0	1.4837706479632381e+18
14550.0	1.48346480099328e+18
14551.0	1.4831525736480765e+18
14552.0	1.4828402590613501e+18
14553.0	1.4825276122857472e+18
14554.0	1.4822160577069056e+18
14555.0	1.4819039578685435e+18
14556.0	1.4815916013387773e+18
14557.0	1.4812800618594301e+18
14558.0	1.4809681381818365e+18
14559.0	1.4805533785587707e+18
14560.0	1.48034392508334e+18
14561.0	1.4800323067510784e+18
14562.0	1.4797196532645885e+18
14563.0	1.479409363687833e+18
14564.0	1.479097278948966e+18
14565.0	1.4787862025207805e+18
14566.0	1.4784746949181437e+18
14567.0	1.4781632074481664e+18
14568.0	1.4778510757330944e+18
14569.0	1.4775404455788541e+18
14570.0	1.4772004167090173e+18
14571.0	1.476917676998656e+18
14572.0	1.4766042098171904e+18
14573.0	1.4762935494639616e+18
14574.0	1.4759830820487163e+18
14575.0	1.4756731531821056e+18
14576.0	1.4753621019197435e+18
14577.0	1.4750514298224635e+18
14578.0	1.4747403567497213e+18
14579.0	1.4744295940554747e+18
14580.0	1.4741187172761597e+18
14581.0	1.4738075334737915e+18
14582.0	1.4734970861912064e+18
14583.0	1.4731863486627837e+18
14584.0	1.4728750004436987e+18
14585.0	1.4725649809801213e+18
14586.0	1.4722541109116923e+18
14587.0	1.4719434673356797e+18
14588.0	1.4716342229794813e+18
14589.0	1.4713333940748288e+18
14590.0	1.4710341338398715e+18
14591.0	1.4707348232732672e+18
14592.0	1.470435610014515e+18
14593.0	1.4701298939068416e+18
14594.0	1.4698373596577784e+18
14595.0	1.469537869574963e+18
14596.0	1.4692356330618877e+18
14597.0	1.4689369499631613e+18
14598.0	1.4686407431815163e+18
14599.0	1.4683420382724093e+18
14600.0	1.4680429944635392e+18
14601.0	1.4677441100382205e+18
14602.0	1.4674447709503485e+18
14603.0	1.4671462606569467e+18
14604.0	1.4668449183694848e+18
14605.0	1.4665477921964032e+18
14606.0	1.466245257048883e+18
14607.0	1.4659507263111165e+18
14608.0	1.4656520314683392e+18
14609.0	1.4653521907417085e+18
14610.0	1.465049872020275e+18
14611.0	1.4647504775675901e+18
14612.0	1.4644519756627965e+18
14613.0	1.4641533529620475e+18
14614.0	1.4638545926881277e+18
14615.0	1.463556085750169e+18
14616.0	1.4632574999592957e+18
14617.0	1.4629588034387965e+18
14618.0	1.462660041487155e+18
14619.0	1.4623602896797693e+18
14620.0	1.4620557295222781e+18
14621.0	1.4617642019061757e+18
14622.0	1.4614655523618813e+18
14623.0	1.4611668994621437e+18
14624.0	1.4608649766830077e+18
14625.0	1.460569650705203e+18
14626.0	1.4602706790383613e+18
14627.0	1.459971482556825e+18
14628.0	1.4596737607925757e+18
14629.0	1.459375126347776e+18
14630.0	1.459076426471833e+18
14631.0	1.4587777534394365e+18
14632.0	1.4583746153938941e+18
14633.0	1.458171896292966e+18
14634.0	1.4578816219348987e+18
14635.0	1.457471821656883e+18
14636.0	1.4570947151396864e+18
14637.0	1.456825479410483e+18
14638.0	1.4565266704826365e+18
14639.0	1.4562274756788221e+18
14640.0	1.455929206977331e+18
14641.0	1.4552349624238072e+18
14642.0	1.4553316998512637e+18
14643.0	1.455033189557862e+18
14644.0	1.454734370563686e+18
14645.0	1.4544343251550208e+18
14646.0	1.454136472528486e+18
14647.0	1.453837364966195e+18
