# Flux units: erg / (cm m2 s)
# Wavelength units: Angstrom
wave	flux
14000.0	2.1390539106549752e+18
14001.0	2.139044367774515e+18
14002.0	2.1387155024642043e+18
14003.0	2.138301501171302e+18
14004.0	2.137881589265203e+18
14005.0	2.1374593436483576e+18
14006.0	2.1370311454752763e+18
14007.0	2.136604631734681e+18
14008.0	2.1361279037865976e+18
14009.0	2.1357519179874301e+18
14010.0	2.1353217182924792e+18
14011.0	2.1344792285806587e+18
14012.0	2.134479210125721e+18
14013.0	2.1340729146081275e+18
14014.0	2.133646927672115e+18
14015.0	2.1332281817825277e+18
14016.0	2.1328067800596477e+18
14017.0	2.1323845545754624e+18
14018.0	2.1319619432153083e+18
14019.0	2.1315393519878144e+18
14020.0	2.1311161232261115e+18
14021.0	2.1306927384363005e+18
14022.0	2.1302682211844093e+18
14023.0	2.1298341778292733e+18
14024.0	2.129413834748723e+18
14025.0	2.1290027845681152e+18
14026.0	2.128580332591513e+18
14027.0	2.128157652444774e+18
14028.0	2.1277250166980605e+18
14029.0	2.127278512904601e+18
14030.0	2.1255725367951365e+18
14031.0	2.1262195165757435e+18
14032.0	2.1260319137464315e+18
14033.0	2.1255891613384701e+18
14034.0	2.12520715419648e+18
14035.0	2.1247897454510072e+18
14036.0	2.1243640068177915e+18
14037.0	2.123950673258086e+18
14038.0	2.1235305986129917e+18
14039.0	2.1231066870185981e+18
14040.0	2.12268738412544e+18
14041.0	2.122268594615091e+18
14042.0	2.1218413342883837e+18
14043.0	2.1214019842998267e+18
14044.0	2.121001871186329e+18
14045.0	2.1205879151919101e+18
14046.0	2.1201651025051643e+18
14047.0	2.1197406976606203e+18
14048.0	2.1193298672615414e+18
14049.0	2.118911606233497e+18
14050.0	2.1184922748190715e+18
14051.0	2.1180677407899645e+18
14052.0	2.117649246558617e+18
14053.0	2.1172349566975995e+18
14054.0	2.116816157120921e+18
14055.0	2.1163972820467704e+18
14056.0	2.1159784992473083e+18
14057.0	2.1155598221443067e+18
14058.0	2.1151412004061181e+18
14059.0	2.1147226390659072e+18
14060.0	2.1143040039059453e+18
14061.0	2.1138808338644984e+18
14062.0	2.1134656782991357e+18
14063.0	2.1130297558958077e+18
14064.0	2.1123836871180283e+18
14065.0	2.1122041037979645e+18
14066.0	2.1117949595090944e+18
14067.0	2.1113708398772221e+18
14068.0	2.1109600732315645e+18
14069.0	2.110540966631833e+18
14070.0	2.1101243078279165e+18
14071.0	2.1097058840608768e+18
14072.0	2.1092906647420925e+18
14073.0	2.1088733415604221e+18
14074.0	2.1084556543131645e+18
14075.0	2.1080219028815872e+18
14076.0	2.1076047625715704e+18
14077.0	2.1068979787268093e+18
14078.0	2.1067448698535933e+18
14079.0	2.106359592832204e+18
14080.0	2.1059540405452797e+18
14081.0	2.105538774250291e+18
14082.0	2.105121690982809e+18
14083.0	2.1047028544962557e+18
14084.0	2.1042723058352125e+18
14085.0	2.1035810644033533e+18
14086.0	2.103411388029337e+18
14087.0	2.1030361806929915e+18
14088.0	2.102614005540454e+18
14089.0	2.102205057545011e+18
14090.0	2.1017949837983736e+18
14091.0	2.1013815327981563e+18
14092.0	2.1009667027107835e+18
14093.0	2.1005511159709693e+18
14094.0	2.100134529309081e+18
14095.0	2.0997143741333501e+18
14096.0	2.099267576738611e+18
14097.0	2.0988525100924925e+18
14098.0	2.0984556517588987e+18
14099.0	2.098057377428275e+18
14100.0	2.097638799310848e+18
14101.0	2.0972340858847227e+18
14102.0	2.0968201600892925e+18
14103.0	2.0963962367508477e+18
14104.0	2.0959900569960443e+18
14105.0	2.0955786930814973e+18
14106.0	2.0951624520302587e+18
14107.0	2.0947482611548157e+18
14108.0	2.0943241012576248e+18
14109.0	2.0939170406989814e+18
14110.0	2.0935040376504312e+18
14111.0	2.0930855954284544e+18
14112.0	2.0926696144240637e+18
14113.0	2.0922572354879483e+18
14114.0	2.091830077502259e+18
14115.0	2.0914075550613501e+18
14116.0	2.0908184382210043e+18
14117.0	2.0881373887725565e+18
14118.0	2.0900939326029821e+18
14119.0	2.0897280500432893e+18
14120.0	2.089336909384908e+18
14121.0	2.0889368952569848e+18
14122.0	2.0885316197941243e+18
14123.0	2.0881153636433915e+18
14124.0	2.087685340109209e+18
14125.0	2.0869822791286776e+18
14126.0	2.086880402839961e+18
14127.0	2.086487359645286e+18
14128.0	2.0860778361913344e+18
14129.0	2.0856580115267581e+18
14130.0	2.0852374570532861e+18
14131.0	2.0848425968861181e+18
14132.0	2.0844070435815421e+18
14133.0	2.0836400714743803e+18
14134.0	2.0835870084956157e+18
14135.0	2.0831814511755256e+18
14136.0	2.0827740332621821e+18
14137.0	2.0823656691138555e+18
14138.0	2.0819497283747835e+18
14139.0	2.0815500749570043e+18
14140.0	2.0811324262973437e+18
14141.0	2.0806789196939261e+18
14142.0	2.0802183331053563e+18
14143.0	2.079896019297894e+18
14144.0	2.0795015617839096e+18
14145.0	2.079095840047104e+18
14146.0	2.0786825735962621e+18
14147.0	2.0782770783518717e+18
14148.0	2.0778666036297728e+18
14149.0	2.0774575432269821e+18
14150.0	2.077051923831193e+18
14151.0	2.0766365317070843e+18
14152.0	2.0762338651013115e+18
14153.0	2.0758246402818043e+18
14154.0	2.0753931655184381e+18
14155.0	2.0749797631721472e+18
14156.0	2.07459352313856e+18
14157.0	2.0741876151746555e+18
14158.0	2.073776712633548e+18
14159.0	2.073369553089331e+18
14160.0	2.072946470289408e+18
14161.0	2.072511801144115e+18
14162.0	2.0720666982481917e+18
14163.0	2.0717177975865336e+18
14164.0	2.071272270227046e+18
14165.0	2.0708900147822587e+18
14166.0	2.0705054457593853e+18
14167.0	2.070090410989977e+18
14168.0	2.0696953528516603e+18
14169.0	2.0692895170297848e+18
14170.0	2.0688799499550715e+18
14171.0	2.068472919595417e+18
14172.0	2.068067095517593e+18
14173.0	2.0676449706967035e+18
14174.0	2.067246186338713e+18
14175.0	2.0668460849692667e+18
14176.0	2.0664395864473597e+18
14177.0	2.0660327188267003e+18
14178.0	2.06562521031639e+18
14179.0	2.065215661696614e+18
14180.0	2.0648120002019325e+18
14181.0	2.0644050822496253e+18
14182.0	2.0639973086593021e+18
14183.0	2.0635894763487224e+18
14184.0	2.0631748056449021e+18
14185.0	2.0627455253413883e+18
14186.0	2.0619708793356288e+18
14187.0	2.0618792740585467e+18
14188.0	2.0615469576749056e+18
14189.0	2.0611479065591805e+18
14190.0	2.0607437300039675e+18
14191.0	2.06033640268759e+18
14192.0	2.0599212102123517e+18
14193.0	2.0594665493364733e+18
14194.0	2.059120687028633e+18
14195.0	2.0587220435992573e+18
14196.0	2.0583179710627835e+18
14197.0	2.057912938869555e+18
14198.0	2.0575037996138493e+18
14199.0	2.0570948851728376e+18
14200.0	2.0564472544362493e+18
14201.0	2.0562296740773888e+18
14202.0	2.0558837010399227e+18
14203.0	2.0554801888624637e+18
14204.0	2.05507808764887e+18
14205.0	2.054671075744153e+18
14206.0	2.0541839945760768e+18
14207.0	2.0538600466677755e+18
14208.0	2.0534604167380987e+18
14209.0	2.052964384925286e+18
14210.0	2.0525780995932152e+18
14211.0	2.0522461321756664e+18
14212.0	2.0518489450086397e+18
14213.0	2.0514460602990587e+18
14214.0	2.0510424927567867e+18
14215.0	2.0506319979020288e+18
14216.0	2.0502105542361088e+18
14217.0	2.0497477933203448e+18
14218.0	2.0493338306150397e+18
14219.0	2.0489409887469568e+18
14220.0	2.04853438620631e+18
14221.0	2.0481319930691581e+18
14222.0	2.0477112943116288e+18
14223.0	2.0473232960258045e+18
14224.0	2.0469053453762555e+18
14225.0	2.0456983756800003e+18
14226.0	2.046033495536435e+18
14227.0	2.0456872339308544e+18
14228.0	2.0433530785890307e+18
14229.0	2.0443328998801395e+18
14230.0	2.0444943738732547e+18
14231.0	2.0440935980597245e+18
14232.0	2.0437059671949307e+18
14233.0	2.043303639488921e+18
14234.0	2.042879253099315e+18
14235.0	2.04240882499584e+18
14236.0	2.0420083864043515e+18
14237.0	2.041604694710681e+18
14238.0	2.04120014234583e+18
14239.0	2.0407723518590973e+18
14240.0	2.03926275138519e+18
14241.0	2.039940490513612e+18
14242.0	2.039575419971174e+18
14243.0	2.0390911791857661e+18
14244.0	2.0387925682290683e+18
14245.0	2.0383881869918203e+18
14246.0	2.0379882299064315e+18
14247.0	2.037590416949248e+18
14248.0	2.0371830074245115e+18
14249.0	2.0367917241597947e+18
14250.0	2.0363909164695547e+18
14251.0	2.0359910919241725e+18
14252.0	2.0355888984358907e+18
14253.0	2.0351840793133053e+18
14254.0	2.0347355102445563e+18
14255.0	2.0342148595449856e+18
14256.0	2.03309499547648e+18
14257.0	2.033196672116326e+18
14258.0	2.033055340848742e+18
14259.0	2.032656289733017e+18
14260.0	2.032245356992921e+18
14261.0	2.0318434235514877e+18
14262.0	2.0314317492584445e+18
14263.0	2.0299332972445696e+18
14264.0	2.030090729606348e+18
14265.0	2.0302493195960315e+18
14266.0	2.02989787718615e+18
14267.0	2.029509630597529e+18
14268.0	2.029113936602726e+18
14269.0	2.0287073827160061e+18
14270.0	2.0283130006994944e+18
14271.0	2.0279060055719928e+18
14272.0	2.027482810364723e+18
14273.0	2.026956475544371e+18
14274.0	2.0247435976638461e+18
14275.0	2.0258312259895293e+18
14276.0	2.025852033092812e+18
14277.0	2.025448562858393e+18
14278.0	2.0250209485324283e+18
14279.0	2.0246270765432827e+18
14280.0	2.024229295462809e+18
14281.0	2.0238371683041275e+18
14282.0	2.0234403720462333e+18
14283.0	2.0230428929556477e+18
14284.0	2.0226450883870717e+18
14285.0	2.0222468543217661e+18
14286.0	2.0218480615751677e+18
14287.0	2.021448178309529e+18
14288.0	2.021031096719769e+18
14289.0	2.0199232501710833e+18
14290.0	2.0202375679574008e+18
14291.0	2.0198570690871293e+18
14292.0	2.0194618347880443e+18
14293.0	2.0190598879248381e+18
14294.0	2.018572821856256e+18
14295.0	2.0182359689134075e+18
14296.0	2.0172960119652355e+18
14297.0	2.017413090089369e+18
14298.0	2.0167780338761725e+18
14299.0	2.016640370108006e+18
14300.0	2.016275370029875e+18
14301.0	2.0158849860239355e+18
14302.0	2.0154576938205181e+18
14303.0	2.0149554695372792e+18
14304.0	2.014576155138457e+18
14305.0	2.0141882608713725e+18
14306.0	2.01378000577495e+18
14307.0	2.0133808825171968e+18
14308.0	2.0129885020225533e+18
14309.0	2.0125832903131133e+18
14310.0	2.0121587965493245e+18
14311.0	2.0117458924863483e+18
14312.0	2.011359679296307e+18
14313.0	2.0109411011788797e+18
14314.0	2.0106089475342333e+18
14315.0	2.0102190852997115e+18
14316.0	2.0097960125661176e+18
14317.0	2.0094193036689405e+18
14318.0	2.0090440845885435e+18
14319.0	2.008654930352537e+18
14320.0	2.0082616975753216e+18
14321.0	2.007864837564006e+18
14322.0	2.0074486434889725e+18
14323.0	2.007061636736614e+18
14324.0	2.006685813676441e+18
14325.0	2.0062835144916984e+18
14326.0	2.005898794473881e+18
14327.0	2.0054984347353083e+18
14328.0	2.005106196847001e+18
14329.0	2.0047167322324987e+18
14330.0	2.0042629571936253e+18
14331.0	2.0038154367008763e+18
14332.0	2.0034213214420987e+18
14333.0	2.003026927681536e+18
14334.0	2.0026320188604416e+18
14335.0	2.0022232621252608e+18
14336.0	2.001757385680486e+18
14337.0	2.0014448244686845e+18
14338.0	2.0010540864634877e+18
14339.0	2.000652475144601e+18
14340.0	2.0002677417050112e+18
14341.0	1.9998731432624125e+18
14342.0	1.9994799188738043e+18
14343.0	1.999087712862208e+18
14344.0	1.9986912219496445e+18
14345.0	1.9983008933085181e+18
14346.0	1.9979036306440187e+18
14347.0	1.9974980162813947e+18
14348.0	1.997115452135833e+18
14349.0	1.996723848426291e+18
14350.0	1.9962574351106045e+18
14351.0	1.9958606908620792e+18
14352.0	1.9955394960949245e+18
14353.0	1.995155723989811e+18
14354.0	1.9947562215669755e+18
14355.0	1.994347780243456e+18
14356.0	1.9939592501198845e+18
14357.0	1.993588228698931e+18
14358.0	1.9931981030621174e+18
14359.0	1.9927919233073152e+18
14360.0	1.9924090135511035e+18
14361.0	1.992017976911462e+18
14362.0	1.991572504916787e+18
14363.0	1.9911096383045624e+18
14364.0	1.9905207160799232e+18
14365.0	1.9902283496030205e+18
14366.0	1.9898978988457981e+18
14367.0	1.9895513537052664e+18
14368.0	1.9891618807021563e+18
14369.0	1.9887714329427965e+18
14370.0	1.9883805439426555e+18
14371.0	1.9879897019187197e+18
14372.0	1.987593796530995e+18
14373.0	1.987205457667686e+18
14374.0	1.986815815214694e+18
14375.0	1.9864237534871547e+18
14376.0	1.9860337989779448e+18
14377.0	1.985642269088153e+18
14378.0	1.9852499255033848e+18
14379.0	1.984860752812441e+18
14380.0	1.9844690786385917e+18
14381.0	1.9840691030982653e+18
14382.0	1.9836872855388155e+18
14383.0	1.9832967538933755e+18
14384.0	1.9828909566590968e+18
14385.0	1.982517177063833e+18
14386.0	1.9821102960214008e+18
14387.0	1.9817361473273853e+18
14388.0	1.981345315369779e+18
14389.0	1.98095521489879e+18
14390.0	1.9805644836044797e+18
14391.0	1.9801758008082427e+18
14392.0	1.979785408413696e+18
14393.0	1.9793960142635003e+18
14394.0	1.9789718862430205e+18
14395.0	1.978606569075507e+18
14396.0	1.9782261389918205e+18
14397.0	1.9778364998942715e+18
14398.0	1.977446142731878e+18
14399.0	1.976963848103526e+18
14400.0	1.9765287595278333e+18
14401.0	1.976141261203046e+18
14402.0	1.975740351171788e+18
14403.0	1.9749503305252856e+18
14404.0	1.9727492638048246e+18
14405.0	1.9732134373621737e+18
14406.0	1.9741535671156733e+18
14407.0	1.9733624324620283e+18
14408.0	1.97337749169111e+18
14409.0	1.9730201319571448e+18
14410.0	1.9726341318377464e+18
14411.0	1.9722596543102973e+18
14412.0	1.971872677756928e+18
14413.0	1.9714871742431232e+18
14414.0	1.971096951298457e+18
14415.0	1.9707085872693245e+18
14416.0	1.9703174432555003e+18
14417.0	1.9699179576098808e+18
14418.0	1.9695280265887744e+18
14419.0	1.9691493430132733e+18
14420.0	1.9687582375870461e+18
14421.0	1.9683694256062461e+18
14422.0	1.9679642206076925e+18
14423.0	1.9674980639834107e+18
14424.0	1.9653597910269944e+18
14425.0	1.9667175375634427e+18
14426.0	1.9664191329665021e+18
14427.0	1.9660441974210555e+18
14428.0	1.9656391031521277e+18
14429.0	1.965268472640307e+18
14430.0	1.9648566976839675e+18
14431.0	1.9641171093487616e+18
14432.0	1.9640817563992061e+18
14433.0	1.9633728519143424e+18
14434.0	1.963305684330086e+18
14435.0	1.962918008166809e+18
14436.0	1.9625590009102333e+18
14437.0	1.9621771061755901e+18
14438.0	1.9617518020722688e+18
14439.0	1.9613927058964477e+18
14440.0	1.9609155702620155e+18
14441.0	1.9605023021334528e+18
14442.0	1.960111523862937e+18
14443.0	1.9596947224526845e+18
14444.0	1.9593370020085755e+18
14445.0	1.958941534506188e+18
14446.0	1.9577235472121856e+18
14447.0	1.9581197428457464e+18
14448.0	1.957794397395353e+18
14449.0	1.9574127207645181e+18
14450.0	1.9570218049208317e+18
14451.0	1.9566371268460541e+18
14452.0	1.956252785993318e+18
14453.0	1.9558637525532664e+18
14454.0	1.9554792003076093e+18
14455.0	1.9550852981194747e+18
14456.0	1.9546995144261632e+18
14457.0	1.95431492527063e+18
14458.0	1.9539253952249853e+18
14459.0	1.9535333083316221e+18
14460.0	1.9531379297484797e+18
14461.0	1.9527243428528125e+18
14462.0	1.952321879251353e+18
14463.0	1.95196745720791e+18
14464.0	1.951599514406092e+18
14465.0	1.951207226186137e+18
14466.0	1.9508397229473787e+18
14467.0	1.950442614633267e+18
14468.0	1.9500697007423483e+18
14469.0	1.9496601437339645e+18
14470.0	1.9492809769746427e+18
14471.0	1.9489187602366461e+18
14472.0	1.9485383569965048e+18
14473.0	1.9481583295660024e+18
14474.0	1.9477774397865981e+18
14475.0	1.94739046491095e+18
14476.0	1.9469889878097917e+18
14477.0	1.946623138804531e+18
14478.0	1.946238917070028e+18
14479.0	1.945854369857536e+18
14480.0	1.9454573655621632e+18
14481.0	1.9450892080119805e+18
14482.0	1.9447007433195517e+18
14483.0	1.94431297823703e+18
14484.0	1.943919911554252e+18
14485.0	1.9435083245027325e+18
14486.0	1.9429446956089341e+18
14487.0	1.9427747726098427e+18
14488.0	1.9423812562976765e+18
14489.0	1.9419356718956536e+18
14490.0	1.941496029983539e+18
14491.0	1.94112237118423e+18
14492.0	1.9407401761374205e+18
14493.0	1.9403430443352061e+18
14494.0	1.9399520412499965e+18
14495.0	1.9395772265005053e+18
14496.0	1.9391068906717181e+18
14497.0	1.9388159066374141e+18
14498.0	1.9384375888052221e+18
14499.0	1.9380544827555837e+18
14500.0	1.9376696889180155e+18
14501.0	1.9372632172396541e+18
14502.0	1.936735377503027e+18
14503.0	1.9364967853588475e+18
14504.0	1.936125651530547e+18
14505.0	1.9357359453241341e+18
14506.0	1.9353337887457277e+18
14507.0	1.934798999886233e+18
14508.0	1.9345931954552827e+18
14509.0	1.9342176391528443e+18
14510.0	1.9338329426231293e+18
14511.0	1.9334508801163261e+18
14512.0	1.933058848587776e+18
14513.0	1.932680732082176e+18
14514.0	1.9322751177195517e+18
14515.0	1.9318836515831805e+18
14516.0	1.9296827526348805e+18
14517.0	1.931056086882713e+18
14518.0	1.9307630811938808e+18
14519.0	1.9303892428783616e+18
14520.0	1.9300091818934272e+18
14521.0	1.9296269432258555e+18
14522.0	1.9292399515729917e+18
14523.0	1.928823005878681e+18
14524.0	1.92845298270208e+18
14525.0	1.928093525816115e+18
14526.0	1.9277145603833853e+18
14527.0	1.9273048154701821e+18
14528.0	1.9268614037176323e+18
14529.0	1.9265625880788987e+18
14530.0	1.9261774704410621e+18
14531.0	1.9258069808578555e+18
14532.0	1.9254043394179072e+18
14533.0	1.9250447097266173e+18
14534.0	1.9246670680162304e+18
14535.0	1.9242755431596027e+18
14536.0	1.9238999449141243e+18
14537.0	1.9235126210723835e+18
14538.0	1.9231414989881344e+18
14539.0	1.9227607904026621e+18
14540.0	1.9223792094019581e+18
14541.0	1.9219762642943997e+18
14542.0	1.9216116131823616e+18
14543.0	1.921208382862131e+18
14544.0	1.9208429415432187e+18
14545.0	1.9204145655316475e+18
14546.0	1.9176342754951155e+18
14547.0	1.9173358574764014e+18
14548.0	1.919144778583244e+18
14549.0	1.918715850601267e+18
14550.0	1.9184193904836605e+18
14551.0	1.9180555815878653e+18
14552.0	1.9176753830297597e+18
14553.0	1.9172910589542397e+18
14554.0	1.916915695589785e+18
14555.0	1.9165342555176955e+18
14556.0	1.9161516796280827e+18
14557.0	1.9157662633558016e+18
14558.0	1.9153502957731835e+18
14559.0	1.9136286749097969e+18
14560.0	1.9145835132485624e+18
14561.0	1.9142363003748347e+18
14562.0	1.913839128307302e+18
14563.0	1.9134771800047608e+18
14564.0	1.9130902470721533e+18
14565.0	1.9127255523393536e+18
14566.0	1.9123475364970496e+18
14567.0	1.9119654874120187e+18
14568.0	1.9115761737924605e+18
14569.0	1.9111904941178875e+18
14570.0	1.910442299070873e+18
14571.0	1.9104327729676283e+18
14572.0	1.9100316448325632e+18
14573.0	1.9096345751060477e+18
14574.0	1.909274084743577e+18
14575.0	1.908909388333056e+18
14576.0	1.908522960394649e+18
14577.0	1.908161855986073e+18
14578.0	1.9077877911781368e+18
14579.0	1.9074113255505917e+18
14580.0	1.9070310397509627e+18
14581.0	1.9066483866861565e+18
14582.0	1.906264124686336e+18
14583.0	1.905892955625881e+18
14584.0	1.9054959848849403e+18
14585.0	1.9051313773936637e+18
14586.0	1.904754445359513e+18
14587.0	1.9043773874962427e+18
14588.0	1.90399868043264e+18
14589.0	1.903621387688345e+18
14590.0	1.9032439959584765e+18
14591.0	1.9028642772287488e+18
14592.0	1.902473809336729e+18
14593.0	1.9020233964519421e+18
14594.0	1.901727248390553e+18
14595.0	1.9013445047287805e+18
14596.0	1.900758451408076e+18
14597.0	1.9003395880779773e+18
14598.0	1.900189364885913e+18
14599.0	1.8998457624690683e+18
14600.0	1.8994694411255805e+18
14601.0	1.899092935232716e+18
14602.0	1.8987143154106365e+18
14603.0	1.8983358247731197e+18
14604.0	1.897925700694835e+18
14605.0	1.8975626618732541e+18
14606.0	1.8971417936658427e+18
14607.0	1.896825915598438e+18
14608.0	1.8964515253125115e+18
14609.0	1.89607171934126e+18
14610.0	1.8956592783294461e+18
14611.0	1.895186214525337e+18
14612.0	1.894821310077337e+18
14613.0	1.8944476680552445e+18
14614.0	1.8940677698093053e+18
14615.0	1.8936934852198397e+18
14616.0	1.8933164441337853e+18
14617.0	1.8929304121376765e+18
14618.0	1.8925325337493496e+18
14619.0	1.8918898388697083e+18
14620.0	1.8912991332270075e+18
14621.0	1.8914081398325245e+18
14622.0	1.8910505838051328e+18
14623.0	1.890680250250035e+18
14624.0	1.8902664788049915e+18
14625.0	1.889925537254604e+18
14626.0	1.889554863122022e+18
14627.0	1.889177927732428e+18
14628.0	1.8888057906266107e+18
14629.0	1.8884290431418363e+18
14630.0	1.8880491247632381e+18
14631.0	1.887672536662016e+18
14632.0	1.887159534695219e+18
14633.0	1.8868827492188152e+18
14634.0	1.8865415526547453e+18
14635.0	1.8861421643169787e+18
14636.0	1.8857049467125755e+18
14637.0	1.885420093072998e+18
14638.0	1.8850301570187267e+18
14639.0	1.884645077968486e+18
14640.0	1.8842631513571325e+18
14641.0	1.8833407450546173e+18
14642.0	1.883507930012057e+18
14643.0	1.8831550883823613e+18
14644.0	1.882769036253593e+18
14645.0	1.8823892235714552e+18
14646.0	1.882010615493427e+18
14647.0	1.8816268551323645e+18
14648.0	1.8812618013671421e+18
