# Flux units: erg / (cm m2 s)
# Wavelength units: Angstrom
wave	flux
14000.0	1.8427781998182397e+18
14001.0	1.8430310727286781e+18
14002.0	1.8428769639333883e+18
14003.0	1.8425572069736443e+18
14004.0	1.8422261136490493e+18
14005.0	1.8418902857940987e+18
14006.0	1.841546906514227e+18
14007.0	1.841203418182451e+18
14008.0	1.840798151108198e+18
14009.0	1.8405158727712765e+18
14010.0	1.8401644337168384e+18
14011.0	1.8393399694458877e+18
14012.0	1.8394833240457213e+18
14013.0	1.839182812230451e+18
14014.0	1.8388437228847104e+18
14015.0	1.8385112789942264e+18
14016.0	1.8381747683065853e+18
14017.0	1.837837573108531e+18
14018.0	1.8374817904328704e+18
14019.0	1.8371617482604541e+18
14020.0	1.836823029691187e+18
14021.0	1.8364841097953277e+18
14022.0	1.836144547332096e+18
14023.0	1.8357951970410493e+18
14024.0	1.8354595151478781e+18
14025.0	1.8351310373912576e+18
14026.0	1.834792251713126e+18
14027.0	1.8344518151569405e+18
14028.0	1.8340977538236413e+18
14029.0	1.833711475202457e+18
14030.0	1.832227243556864e+18
14031.0	1.832738329565593e+18
14032.0	1.8327328954253307e+18
14033.0	1.832385127225753e+18
14034.0	1.8320935190790144e+18
14035.0	1.8317616288366587e+18
14036.0	1.8314117500633085e+18
14037.0	1.831089567118131e+18
14038.0	1.830756735673958e+18
14039.0	1.83041690477527e+18
14040.0	1.8300830868307965e+18
14041.0	1.8297475844538365e+18
14042.0	1.8294029586268155e+18
14043.0	1.8290454076325885e+18
14044.0	1.828721387582259e+18
14045.0	1.8283919216476155e+18
14046.0	1.8280644438130688e+18
14047.0	1.8277244367536128e+18
14048.0	1.82739746726871e+18
14049.0	1.827063119164211e+18
14050.0	1.8267276570525693e+18
14051.0	1.8263873261928443e+18
14052.0	1.8260519597113341e+18
14053.0	1.8257221011898365e+18
14054.0	1.8253871944040445e+18
14055.0	1.8250521668222976e+18
14056.0	1.8247171375628288e+18
14057.0	1.8243822190329853e+18
14058.0	1.82404722500567e+18
14059.0	1.8236930562981885e+18
14060.0	1.8233770658234365e+18
14061.0	1.8230365302816763e+18
14062.0	1.8227039924387835e+18
14063.0	1.8223426581823485e+18
14064.0	1.8217461677555712e+18
14065.0	1.821690012735897e+18
14066.0	1.8213667141058555e+18
14067.0	1.821030560772915e+18
14068.0	1.820701920277299e+18
14069.0	1.8203668792737787e+18
14070.0	1.820033388485017e+18
14071.0	1.8196978307432443e+18
14072.0	1.819366217324953e+18
14073.0	1.8190321275895803e+18
14074.0	1.818697328177971e+18
14075.0	1.818344100672307e+18
14076.0	1.8180095545966587e+18
14077.0	1.8174112975290365e+18
14078.0	1.8173025090273275e+18
14079.0	1.8170146271002621e+18
14080.0	1.816686058746675e+18
14081.0	1.816361394451251e+18
14082.0	1.8160289035845627e+18
14083.0	1.8156909433454587e+18
14084.0	1.8153336775639037e+18
14085.0	1.8147639618961405e+18
14086.0	1.8146330274693117e+18
14087.0	1.8143438939619325e+18
14088.0	1.8140188756672512e+18
14089.0	1.8136978302173181e+18
14090.0	1.8133686159409147e+18
14091.0	1.8130376920662013e+18
14092.0	1.8127058001461245e+18
14093.0	1.8123730660098045e+18
14094.0	1.8120390786154493e+18
14095.0	1.811701353257369e+18
14096.0	1.811347451307622e+18
14097.0	1.8110080129957885e+18
14098.0	1.8106960356311035e+18
14099.0	1.8103754481991675e+18
14100.0	1.8100391891697661e+18
14101.0	1.8097186050932733e+18
14102.0	1.8093856360759293e+18
14103.0	1.8090438204325885e+18
14104.0	1.808722526679859e+18
14105.0	1.8083943777566715e+18
14106.0	1.80806298411991e+18
14107.0	1.8077176855265275e+18
14108.0	1.8073863707426816e+18
14109.0	1.807064895796019e+18
14110.0	1.806734141371187e+18
14111.0	1.8063979830050816e+18
14112.0	1.8060615478149115e+18
14113.0	1.8057332478967805e+18
14114.0	1.8053782604611581e+18
14115.0	1.8050224811409405e+18
14116.0	1.804401678850457e+18
14117.0	1.8020643358375933e+18
14118.0	1.8038966443835384e+18
14119.0	1.8036839881375741e+18
14120.0	1.8033856238059512e+18
14121.0	1.8030659356327933e+18
14122.0	1.8027452609593341e+18
14123.0	1.8024140267061248e+18
14124.0	1.8020503067295741e+18
14125.0	1.801440619344691e+18
14126.0	1.801412655081062e+18
14127.0	1.80111310627799e+18
14128.0	1.8007881634807805e+18
14129.0	1.8004500488912893e+18
14130.0	1.800107015222067e+18
14131.0	1.7997924390666237e+18
14132.0	1.7994251858083837e+18
14133.0	1.798754941062348e+18
14134.0	1.798756764745728e+18
14135.0	1.7984678778634235e+18
14136.0	1.7981483524292605e+18
14137.0	1.7978182892257277e+18
14138.0	1.797486395627929e+18
14139.0	1.7971636288356347e+18
14140.0	1.7968275275120635e+18
14141.0	1.7964633662947325e+18
14142.0	1.7961064125693947e+18
14143.0	1.795836814452326e+18
14144.0	1.7955247548792827e+18
14145.0	1.7952001123942397e+18
14146.0	1.7948695660068861e+18
14147.0	1.7945479987855355e+18
14148.0	1.7942204102213632e+18
14149.0	1.7938934994567165e+18
14150.0	1.7935676993437693e+18
14151.0	1.7932367184265216e+18
14152.0	1.792911258891059e+18
14153.0	1.7925856013844475e+18
14154.0	1.7922333570236413e+18
14155.0	1.7919014667812861e+18
14156.0	1.79160004731863e+18
14157.0	1.7912742757269504e+18
14158.0	1.7909449641426941e+18
14159.0	1.7906179862691835e+18
14160.0	1.7902721558380541e+18
14161.0	1.7899186733187072e+18
14162.0	1.7895592281767939e+18
14163.0	1.789276735091507e+18
14164.0	1.7889386842554365e+18
14165.0	1.7886354947964923e+18
14166.0	1.788325752156979e+18
14167.0	1.7879900434202624e+18
14168.0	1.7876762524385277e+18
14169.0	1.7873503399182339e+18
14170.0	1.787024903870873e+18
14171.0	1.7866962533089275e+18
14172.0	1.7863741861265403e+18
14173.0	1.786037759324979e+18
14174.0	1.7857150680301565e+18
14175.0	1.7853959200833533e+18
14176.0	1.7850714571145213e+18
14177.0	1.784745678811955e+18
14178.0	1.7844193384726523e+18
14179.0	1.7840910721089533e+18
14180.0	1.783767651005235e+18
14181.0	1.7834413911965696e+18
14182.0	1.7831139653713915e+18
14183.0	1.7827857124294653e+18
14184.0	1.7824490272587776e+18
14185.0	1.7820887147347965e+18
14186.0	1.7814719591088125e+18
14187.0	1.7813756276899837e+18
14188.0	1.781137772065587e+18
14189.0	1.7808275042992125e+18
14190.0	1.7805065326690296e+18
14191.0	1.7801800782446587e+18
14192.0	1.7798413177323515e+18
14193.0	1.7794851810574339e+18
14194.0	1.7792056340512765e+18
14195.0	1.7788891301937147e+18
14196.0	1.7785661385867261e+18
14197.0	1.7782414944239616e+18
14198.0	1.7779116728123387e+18
14199.0	1.7775757442940928e+18
14200.0	1.7770394924613632e+18
14201.0	1.7768580821024765e+18
14202.0	1.776609752462131e+18
14203.0	1.7762917202001915e+18
14204.0	1.7759697889132536e+18
14205.0	1.7756403967983613e+18
14206.0	1.7752367738912765e+18
14207.0	1.7749867933728765e+18
14208.0	1.774670101610496e+18
14209.0	1.7742532398022653e+18
14210.0	1.7739444786298875e+18
14211.0	1.77369577989079e+18
14212.0	1.7733843679182848e+18
14213.0	1.7730629147820027e+18
14214.0	1.7727389568073723e+18
14215.0	1.7724048704274424e+18
14216.0	1.7720946144051197e+18
14217.0	1.7717720153849853e+18
14218.0	1.7714372293951488e+18
14219.0	1.7711255355654141e+18
14220.0	1.7707977070870525e+18
14221.0	1.7704768579305464e+18
14222.0	1.770139152705126e+18
14223.0	1.769822762932633e+18
14224.0	1.7694692384702461e+18
14225.0	1.7683497401450496e+18
14226.0	1.7687067542683643e+18
14227.0	1.7684670598610941e+18
14228.0	1.7659491940040707e+18
14229.0	1.767030493963877e+18
14230.0	1.767536305215897e+18
14231.0	1.7672376489607165e+18
14232.0	1.7669289884516347e+18
14233.0	1.7666090972741627e+18
14234.0	1.7662894309113853e+18
14235.0	1.7659664342712315e+18
14236.0	1.7656457377873915e+18
14237.0	1.7653191826997243e+18
14238.0	1.7649889651458043e+18
14239.0	1.7645895667417085e+18
14240.0	1.7629484245057533e+18
14241.0	1.7638883881648125e+18
14242.0	1.7636504637538296e+18
14243.0	1.763263819389337e+18
14244.0	1.7630417041489912e+18
14245.0	1.7627227071971325e+18
14246.0	1.7624053024030715e+18
14247.0	1.7620840036171768e+18
14248.0	1.761754433663795e+18
14249.0	1.7614430602788861e+18
14250.0	1.7611243955159037e+18
14251.0	1.760803355099136e+18
14252.0	1.7604791823761403e+18
14253.0	1.7601503506202616e+18
14254.0	1.7598104207359997e+18
14255.0	1.7593949581475835e+18
14256.0	1.758440777475686e+18
14257.0	1.7584669566435325e+18
14258.0	1.7584651262492672e+18
14259.0	1.758159467184128e+18
14260.0	1.7578297110036477e+18
14261.0	1.7574958041399293e+18
14262.0	1.7571183218130941e+18
14263.0	1.7558067428196352e+18
14264.0	1.7558883706863616e+18
14265.0	1.7561902599110653e+18
14266.0	1.75595488060375e+18
14267.0	1.755656598480486e+18
14268.0	1.7553423712911357e+18
14269.0	1.7550166215098365e+18
14270.0	1.7546994767626237e+18
14271.0	1.7543644575694843e+18
14272.0	1.753998234432307e+18
14273.0	1.7534609826775035e+18
14274.0	1.7515399528579072e+18
14275.0	1.7524467966148605e+18
14276.0	1.7526637830602747e+18
14277.0	1.7524092324282363e+18
14278.0	1.7521202415271933e+18
14279.0	1.7518114417672187e+18
14280.0	1.7514969142657021e+18
14281.0	1.7511859972210688e+18
14282.0	1.7508699832582141e+18
14283.0	1.7505527261036541e+18
14284.0	1.7502347190075395e+18
14285.0	1.749915824396697e+18
14286.0	1.7495955490209784e+18
14287.0	1.7492713913974784e+18
14288.0	1.7489073090330621e+18
14289.0	1.7477514645471227e+18
14290.0	1.7482750747475963e+18
14291.0	1.7479978127982584e+18
14292.0	1.7476821729673216e+18
14293.0	1.7473590605643776e+18
14294.0	1.7469542850625533e+18
14295.0	1.7466720553795581e+18
14296.0	1.7457290080681984e+18
14297.0	1.745968521281536e+18
14298.0	1.7454899931381757e+18
14299.0	1.745397666440806e+18
14300.0	1.745103540033945e+18
14301.0	1.7447960824512504e+18
14302.0	1.7444809425813504e+18
14303.0	1.7441299145687037e+18
14304.0	1.7438331608498179e+18
14305.0	1.743525592537497e+18
14306.0	1.7432006832947197e+18
14307.0	1.7428791898931197e+18
14308.0	1.742562543429222e+18
14309.0	1.7422364245491707e+18
14310.0	1.741898841797427e+18
14311.0	1.741554761229926e+18
14312.0	1.7412445958045693e+18
14313.0	1.7408663366926333e+18
14314.0	1.7406596145479675e+18
14315.0	1.7403457463910397e+18
14316.0	1.7400060329328635e+18
14317.0	1.7397132671582203e+18
14318.0	1.7394126177697787e+18
14319.0	1.7391030127034365e+18
14320.0	1.7387892972191741e+18
14321.0	1.7384705334706176e+18
14322.0	1.7381336201297915e+18
14323.0	1.737825491458457e+18
14324.0	1.7375297410170875e+18
14325.0	1.73718146950103e+18
14326.0	1.7368732066119675e+18
14327.0	1.7365509414584312e+18
14328.0	1.7362361975308285e+18
14329.0	1.735928021883289e+18
14330.0	1.7356131286384637e+18
14331.0	1.7352978226741248e+18
14332.0	1.7349827465576443e+18
14333.0	1.734667299664691e+18
14334.0	1.7343506615894013e+18
14335.0	1.7340151961223165e+18
14336.0	1.7336397354500096e+18
14337.0	1.7333984908279805e+18
14338.0	1.7330893186138107e+18
14339.0	1.732766519944806e+18
14340.0	1.7324617014181885e+18
14341.0	1.7321451522621435e+18
14342.0	1.7318279102070781e+18
14343.0	1.7315186725617661e+18
14344.0	1.7311927415865336e+18
14345.0	1.7308842991812603e+18
14346.0	1.730569892475699e+18
14347.0	1.7302453137440765e+18
14348.0	1.729938733609779e+18
14349.0	1.72962333369303e+18
14350.0	1.729238900565606e+18
14351.0	1.728920364987187e+18
14352.0	1.7286711058890747e+18
14353.0	1.7283418245038077e+18
14354.0	1.728022468519526e+18
14355.0	1.727694348117606e+18
14356.0	1.7273805672022013e+18
14357.0	1.7270862528905213e+18
14358.0	1.7267795603488765e+18
14359.0	1.7264512738525184e+18
14360.0	1.726148129692057e+18
14361.0	1.725834571913625e+18
14362.0	1.72552084300759e+18
14363.0	1.7251923719618552e+18
14364.0	1.7247036768255995e+18
14365.0	1.724458964353024e+18
14366.0	1.7242167231643643e+18
14367.0	1.72395612602368e+18
14368.0	1.7236479352766456e+18
14369.0	1.7233370719191035e+18
14370.0	1.7230253529235453e+18
14371.0	1.7227134762221565e+18
14372.0	1.7223957207842813e+18
14373.0	1.7220849815781376e+18
14374.0	1.721774114865152e+18
14375.0	1.7214588961423357e+18
14376.0	1.7211514201047037e+18
14377.0	1.7208384595951613e+18
14378.0	1.7205247575326715e+18
14379.0	1.7202141944872957e+18
14380.0	1.7199011668688893e+18
14381.0	1.7195789721796605e+18
14382.0	1.7192765712498688e+18
14383.0	1.7189652465188861e+18
14384.0	1.7186361110953981e+18
14385.0	1.7183127067688957e+18
14386.0	1.717981766116966e+18
14387.0	1.7176875222695928e+18
14388.0	1.7173731860283387e+18
14389.0	1.7170631145553915e+18
14390.0	1.71675080500183e+18
14391.0	1.7164405171027965e+18
14392.0	1.7161286135578621e+18
14393.0	1.715817342513971e+18
14394.0	1.7154665879699456e+18
14395.0	1.7151837022978043e+18
14396.0	1.7148801135411195e+18
14397.0	1.714569973281587e+18
14398.0	1.714257287918387e+18
14399.0	1.7139417621725181e+18
14400.0	1.7136144017784827e+18
14401.0	1.713302238186701e+18
14402.0	1.71297123378135e+18
14403.0	1.7124164884234237e+18
14404.0	1.7101097604743155e+18
14405.0	1.710249388854475e+18
14406.0	1.7116634313392125e+18
14407.0	1.7112202494345213e+18
14408.0	1.711097928430387e+18
14409.0	1.710810522976256e+18
14410.0	1.7105077529477115e+18
14411.0	1.7102107089829885e+18
14412.0	1.7099036808970237e+18
14413.0	1.7095975571030016e+18
14414.0	1.7092862122393595e+18
14415.0	1.7089762212970488e+18
14416.0	1.7086646365192187e+18
14417.0	1.708347161260851e+18
14418.0	1.708035487563776e+18
14419.0	1.7077302160523261e+18
14420.0	1.7074171599126528e+18
14421.0	1.707100810405478e+18
14422.0	1.706747998974771e+18
14423.0	1.7063696945643515e+18
14424.0	1.7052883375620093e+18
14425.0	1.7057454193901563e+18
14426.0	1.7055160899469312e+18
14427.0	1.7052177105158141e+18
14428.0	1.704887610402406e+18
14429.0	1.7045945191497725e+18
14430.0	1.7042410768957437e+18
14431.0	1.7036174040236027e+18
14432.0	1.7036348892381181e+18
14433.0	1.7031878552846333e+18
14434.0	1.7030252102418432e+18
14435.0	1.702722515710771e+18
14436.0	1.702435798122496e+18
14437.0	1.702131284941209e+18
14438.0	1.701788385489715e+18
14439.0	1.7014984634531837e+18
14440.0	1.7012090145341432e+18
14441.0	1.700891759057305e+18
14442.0	1.7005775167684603e+18
14443.0	1.7002362497400824e+18
14444.0	1.699957882172211e+18
14445.0	1.6996339476856832e+18
14446.0	1.69857341456384e+18
14447.0	1.6989434880720893e+18
14448.0	1.6987307160633341e+18
14449.0	1.6984314642169853e+18
14450.0	1.6981193509568507e+18
14451.0	1.697814154942873e+18
14452.0	1.6975090730139643e+18
14453.0	1.697199664241049e+18
14454.0	1.696889530692403e+18
14455.0	1.6965747146227712e+18
14456.0	1.696266634605363e+18
14457.0	1.6959592743305213e+18
14458.0	1.6956482281013248e+18
14459.0	1.69533317882839e+18
14460.0	1.6950150291259387e+18
14461.0	1.6946802196479997e+18
14462.0	1.6943516798156797e+18
14463.0	1.6940480289832957e+18
14464.0	1.693755872221593e+18
14465.0	1.693439027786547e+18
14466.0	1.693154392250777e+18
14467.0	1.6928370411438075e+18
14468.0	1.6925402672922621e+18
14469.0	1.69220259226583e+18
14470.0	1.6919061573140475e+18
14471.0	1.691623036760883e+18
14472.0	1.691322167590912e+18
14473.0	1.691020977976115e+18
14474.0	1.6907188169605115e+18
14475.0	1.6904108443172856e+18
14476.0	1.6900973385482237e+18
14477.0	1.6897983685591037e+18
14478.0	1.6894915719987197e+18
14479.0	1.6891852049350653e+18
14480.0	1.6888638239408123e+18
14481.0	1.6885748582055933e+18
14482.0	1.6882633942237181e+18
14483.0	1.687951603086131e+18
14484.0	1.6876320172539904e+18
14485.0	1.6872845007126525e+18
14486.0	1.68681077253079e+18
14487.0	1.6867150652243963e+18
14488.0	1.6864156154068987e+18
14489.0	1.6860917178302456e+18
14490.0	1.685806157869875e+18
14491.0	1.6855131689582587e+18
14492.0	1.6852093637754877e+18
14493.0	1.6848894776311803e+18
14494.0	1.6845732908630013e+18
14495.0	1.68427229586391e+18
14496.0	1.6838888408481787e+18
14497.0	1.6836693797634043e+18
14498.0	1.6833748154712061e+18
14499.0	1.683070263702323e+18
14500.0	1.682762878261657e+18
14501.0	1.6824269883310075e+18
14502.0	1.681965581336576e+18
14503.0	1.681827113939763e+18
14504.0	1.6815326217895933e+18
14505.0	1.6812285129392125e+18
14506.0	1.680895441580851e+18
14507.0	1.6804388513251328e+18
14508.0	1.6803060546273277e+18
14509.0	1.6800148004798461e+18
14510.0	1.6797091128934397e+18
14511.0	1.679405113094963e+18
14512.0	1.6790706022514685e+18
14513.0	1.678753308187033e+18
14514.0	1.6784213860679683e+18
14515.0	1.6780626808012795e+18
14516.0	1.6755716182245379e+18
14517.0	1.6773110044819456e+18
14518.0	1.677213530534707e+18
14519.0	1.6769212999532541e+18
14520.0	1.6766311665238016e+18
14521.0	1.6763296346537981e+18
14522.0	1.676022353231872e+18
14523.0	1.6757014352887803e+18
14524.0	1.6754041547653115e+18
14525.0	1.6751094025682941e+18
14526.0	1.674806218142515e+18
14527.0	1.6744602669154304e+18
14528.0	1.6740986826784768e+18
14529.0	1.6738876420784125e+18
14530.0	1.6735821793067005e+18
14531.0	1.6732911281635323e+18
14532.0	1.6729814341779453e+18
14533.0	1.6726859488165885e+18
14534.0	1.6723849823387643e+18
14535.0	1.6720700840607741e+18
14536.0	1.6717725686562808e+18
14537.0	1.671464334288486e+18
14538.0	1.6711701055406075e+18
14539.0	1.6708674999287803e+18
14540.0	1.6705636091822075e+18
14541.0	1.67023714804695e+18
14542.0	1.669951334750617e+18
14543.0	1.669631034209075e+18
14544.0	1.669336770229043e+18
14545.0	1.6689958370672637e+18
14546.0	1.6673707304943608e+18
14547.0	1.6670472187936763e+18
14548.0	1.6680620289687547e+18
14549.0	1.6677228238602237e+18
14550.0	1.6675032000364541e+18
14551.0	1.6672246428860413e+18
14552.0	1.666921411484057e+18
14553.0	1.6666156249120765e+18
14554.0	1.6663203693985784e+18
14555.0	1.666016337723392e+18
14556.0	1.6657097475227648e+18
14557.0	1.6653948408561656e+18
14558.0	1.665008075695718e+18
14559.0	1.6630978353037297e+18
14560.0	1.664394499352166e+18
14561.0	1.6641766623019005e+18
14562.0	1.6638624233684987e+18
14563.0	1.6635842235727867e+18
14564.0	1.663268902508953e+18
14565.0	1.662990821831475e+18
14566.0	1.6626914928099325e+18
14567.0	1.662386582008627e+18
14568.0	1.662065952633651e+18
14569.0	1.6617167483043835e+18
14570.0	1.6609848472895485e+18
14571.0	1.661120803137126e+18
14572.0	1.660807141339955e+18
14573.0	1.660488790310912e+18
14574.0	1.6602186989436925e+18
14575.0	1.6599273340665853e+18
14576.0	1.6596152661049341e+18
14577.0	1.65933048964055e+18
14578.0	1.659035980713164e+18
14579.0	1.65873921860567e+18
14580.0	1.6584368713629693e+18
14581.0	1.6581330343034877e+18
14582.0	1.657825469346611e+18
14583.0	1.657532285819289e+18
14584.0	1.6572157282746365e+18
14585.0	1.6569264605495293e+18
14586.0	1.656629270623027e+18
14587.0	1.6563303559987197e+18
14588.0	1.6560298894819325e+18
14589.0	1.6557292484820995e+18
14590.0	1.655428156175155e+18
14591.0	1.6551226598490107e+18
14592.0	1.654804095749324e+18
14593.0	1.654435872768e+18
14594.0	1.6542083888185344e+18
14595.0	1.653903451173683e+18
14596.0	1.6533764469424123e+18
14597.0	1.6530359147560957e+18
14598.0	1.652974446392115e+18
14599.0	1.652716256781926e+18
14600.0	1.6524195332620288e+18
14601.0	1.65211989386199e+18
14602.0	1.65181585883136e+18
14603.0	1.6515146708942843e+18
14604.0	1.6511802489700347e+18
14605.0	1.6508834516303872e+18
14606.0	1.6505283819864061e+18
14607.0	1.6503131806367741e+18
14608.0	1.6500056945328123e+18
14609.0	1.649696216973312e+18
14610.0	1.6493898079666168e+18
14611.0	1.6490874808565757e+18
14612.0	1.6488231004536832e+18
14613.0	1.648526793008742e+18
14614.0	1.6482117890342907e+18
14615.0	1.6479169143635963e+18
14616.0	1.6476274117574653e+18
14617.0	1.6472887451975675e+18
14618.0	1.6469620760248315e+18
14619.0	1.6463894528655352e+18
14620.0	1.6459380954234875e+18
14621.0	1.6460826982481915e+18
14622.0	1.645820305945395e+18
14623.0	1.6455309442678781e+18
14624.0	1.6452005203542013e+18
14625.0	1.644932849939251e+18
14626.0	1.6446312392163325e+18
14627.0	1.6443348831174656e+18
14628.0	1.644050291202457e+18
14629.0	1.6437513950330875e+18
14630.0	1.643440318604902e+18
14631.0	1.6431402564190205e+18
14632.0	1.6427638948102141e+18
14633.0	1.6425142817128443e+18
14634.0	1.642219843249766e+18
14635.0	1.6418962946392056e+18
14636.0	1.641525086991155e+18
14637.0	1.6413290032791547e+18
14638.0	1.6410152324300797e+18
14639.0	1.6407086539735037e+18
14640.0	1.6404049242882043e+18
14641.0	1.639864075498291e+18
14642.0	1.6398060045205496e+18
14643.0	1.6395284019937275e+18
14644.0	1.639218536880537e+18
14645.0	1.638907487295897e+18
14646.0	1.6386081834401792e+18
14647.0	1.638315328746291e+18
14648.0	1.6380246819340285e+18
