# Flux units: erg / (cm m2 s)
# Wavelength units: Angstrom
wave	flux
14000.0	1.9763800479629307e+18
14001.0	1.9759330945400827e+18
14002.0	1.9756422849888256e+18
14003.0	1.9752574743740408e+18
14004.0	1.97487188026327e+18
14005.0	1.9744861888446461e+18
14006.0	1.9740931691380733e+18
14007.0	1.9737058134196221e+18
14008.0	1.9732318050582525e+18
14009.0	1.972941768936652e+18
14010.0	1.9725444643291133e+18
14011.0	1.9715650406580221e+18
14012.0	1.9717867113021437e+18
14013.0	1.9714032512532477e+18
14014.0	1.971012686053376e+18
14015.0	1.970631289602048e+18
14016.0	1.9702488630296568e+18
14017.0	1.9698642654855163e+18
14018.0	1.9694795639226365e+18
14019.0	1.969095160994201e+18
14020.0	1.9687099812806653e+18
14021.0	1.968324919007641e+18
14022.0	1.9679387729264637e+18
14023.0	1.9675426494349307e+18
14024.0	1.9671571794755581e+18
14025.0	1.9667890420580347e+18
14026.0	1.9664039596523517e+18
14027.0	1.9660220649177083e+18
14028.0	1.965631855394816e+18
14029.0	1.965250193863475e+18
14030.0	1.964025824516506e+18
14031.0	1.9644504441094136e+18
14032.0	1.9641016726323192e+18
14033.0	1.963674668997017e+18
14034.0	1.9633357524566016e+18
14035.0	1.962954718393139e+18
14036.0	1.962572038484787e+18
14037.0	1.9621892679794688e+18
14038.0	1.9618065176068093e+18
14039.0	1.9614195712524288e+18
14040.0	1.9610348394905597e+18
14041.0	1.9606559982092283e+18
14042.0	1.960265107531366e+18
14043.0	1.9598546797854717e+18
14044.0	1.95950000776151e+18
14045.0	1.9591255352672253e+18
14046.0	1.95874251645911e+18
14047.0	1.958356133819187e+18
14048.0	1.9579814969081853e+18
14049.0	1.9576014996766715e+18
14050.0	1.9572198264012797e+18
14051.0	1.956829502793318e+18
14052.0	1.956452466740428e+18
14053.0	1.9560749290487803e+18
14054.0	1.9556938043883515e+18
14055.0	1.9553125136334845e+18
14056.0	1.954931274887987e+18
14057.0	1.9545501804265472e+18
14058.0	1.9541691413299197e+18
14059.0	1.9537881995411453e+18
14060.0	1.9534073298943997e+18
14061.0	1.95301994397696e+18
14062.0	1.9526457533399037e+18
14063.0	1.9522493798678525e+18
14064.0	1.951738268693299e+18
14065.0	1.951495826178048e+18
14066.0	1.951123964218572e+18
14067.0	1.9507367326515197e+18
14068.0	1.9503635922681853e+18
14069.0	1.9499812260937725e+18
14070.0	1.9496029250387965e+18
14071.0	1.9492208289775608e+18
14072.0	1.948843808024166e+18
14073.0	1.9484640842612733e+18
14074.0	1.9480844695502843e+18
14075.0	1.9476869703270397e+18
14076.0	1.9473168750084093e+18
14077.0	1.94675808969687e+18
14078.0	1.946552208090726e+18
14079.0	1.946177242346291e+18
14080.0	1.9458084892049405e+18
14081.0	1.9454295371939837e+18
14082.0	1.9450477733216253e+18
14083.0	1.9446701584547835e+18
14084.0	1.9442918624329725e+18
14085.0	1.9435999968886784e+18
14086.0	1.9435182868135933e+18
14087.0	1.9431568871260155e+18
14088.0	1.9427657934438397e+18
14089.0	1.9423939985932288e+18
14090.0	1.94201944892375e+18
14091.0	1.9416441342132221e+18
14092.0	1.9412662374891517e+18
14093.0	1.940888250168115e+18
14094.0	1.9405102527807488e+18
14095.0	1.9401319047495677e+18
14096.0	1.9397161703702528e+18
14097.0	1.9393553260085245e+18
14098.0	1.9389821621370877e+18
14099.0	1.9386217623715835e+18
14100.0	1.9382329705234427e+18
14101.0	1.9378677355642877e+18
14102.0	1.9374903471898621e+18
14103.0	1.9370990052048893e+18
14104.0	1.9367335924072443e+18
14105.0	1.9363592927182843e+18
14106.0	1.9359826341527552e+18
14107.0	1.935605049484902e+18
14108.0	1.93521750418391e+18
14109.0	1.934847583348326e+18
14110.0	1.9344719431598075e+18
14111.0	1.9340901742542843e+18
14112.0	1.9337150793252861e+18
14113.0	1.9333467422588925e+18
14114.0	1.9329570729623544e+18
14115.0	1.9325918178705408e+18
14116.0	1.9321853478699003e+18
14117.0	1.9303779216130045e+18
14118.0	1.9314619092828155e+18
14119.0	1.931061599875891e+18
14120.0	1.9306944992903165e+18
14121.0	1.9303236590632955e+18
14122.0	1.9299412291354621e+18
14123.0	1.9295697463410688e+18
14124.0	1.9291912674476027e+18
14125.0	1.9283744552648696e+18
14126.0	1.928458203771699e+18
14127.0	1.9280882762252283e+18
14128.0	1.9277123726344187e+18
14129.0	1.9273269664284672e+18
14130.0	1.9269428436795387e+18
14131.0	1.926589473567539e+18
14132.0	1.9262076341977088e+18
14133.0	1.9252986614120435e+18
14134.0	1.9254637223739387e+18
14135.0	1.925074405398937e+18
14136.0	1.9246913513586683e+18
14137.0	1.924338917415321e+18
14138.0	1.923952808244019e+18
14139.0	1.9235943244365821e+18
14140.0	1.9232148942749693e+18
14141.0	1.9228324542808061e+18
14142.0	1.9223646618779645e+18
14143.0	1.9220942970421243e+18
14144.0	1.921726491813478e+18
14145.0	1.9213520293855227e+18
14146.0	1.9209763774529533e+18
14147.0	1.920604881236787e+18
14148.0	1.9202299826012155e+18
14149.0	1.9198573992214525e+18
14150.0	1.919487761920819e+18
14151.0	1.9191074643771387e+18
14152.0	1.9187420247359483e+18
14153.0	1.9183690923900925e+18
14154.0	1.9179708197371904e+18
14155.0	1.9175738892615675e+18
14156.0	1.9172441884459003e+18
14157.0	1.9168788008140797e+18
14158.0	1.9165023301533693e+18
14159.0	1.916134145759641e+18
14160.0	1.9157551618719741e+18
14161.0	1.9153297654939643e+18
14162.0	1.9149111320117243e+18
14163.0	1.9146423945658365e+18
14164.0	1.9142198603808765e+18
14165.0	1.9138379186700283e+18
14166.0	1.9135277465337853e+18
14167.0	1.9131441052909565e+18
14168.0	1.912784027648e+18
14169.0	1.9124159741165565e+18
14170.0	1.9120406292070397e+18
14171.0	1.9116705808646144e+18
14172.0	1.9113021766893565e+18
14173.0	1.910889728966656e+18
14174.0	1.9105548305694715e+18
14175.0	1.9101892969758717e+18
14176.0	1.909818540634931e+18
14177.0	1.9094478178484221e+18
14178.0	1.909076192447692e+18
14179.0	1.9086984836284416e+18
14180.0	1.908336095762841e+18
14181.0	1.9079656867102715e+18
14182.0	1.9075945293938683e+18
14183.0	1.9072249927565307e+18
14184.0	1.9068494901411837e+18
14185.0	1.9064832183500792e+18
14186.0	1.905832425108275e+18
14187.0	1.9057166690287608e+18
14188.0	1.9053705315745787e+18
14189.0	1.9050022716833787e+18
14190.0	1.9046331729313787e+18
14191.0	1.9042626313388027e+18
14192.0	1.9038875397652475e+18
14193.0	1.903481995866931e+18
14194.0	1.9031545851412475e+18
14195.0	1.9027885817855997e+18
14196.0	1.902419196143206e+18
14197.0	1.9020501728886781e+18
14198.0	1.9016761886113787e+18
14199.0	1.9013099973509115e+18
14200.0	1.900778520313856e+18
14201.0	1.9005660435841016e+18
14202.0	1.9002060884148221e+18
14203.0	1.899828840969011e+18
14204.0	1.8994335043289088e+18
14205.0	1.8989924430643197e+18
14206.0	1.8985004293947387e+18
14207.0	1.8982573711556603e+18
14208.0	1.897889612903219e+18
14209.0	1.8973862561579003e+18
14210.0	1.8970592279527421e+18
14211.0	1.8967796205486075e+18
14212.0	1.8964158770839547e+18
14213.0	1.89604752827351e+18
14214.0	1.895679926049177e+18
14215.0	1.8953010545688573e+18
14216.0	1.8949453826228221e+18
14217.0	1.8945776411475965e+18
14218.0	1.894197831820902e+18
14219.0	1.8938422370500605e+18
14220.0	1.8934748680290304e+18
14221.0	1.8931050797334525e+18
14222.0	1.8926895835906043e+18
14223.0	1.8922658364129277e+18
14224.0	1.8918979774971904e+18
14225.0	1.8910353517707261e+18
14226.0	1.8911592263450621e+18
14227.0	1.89079558857687e+18
14228.0	1.8892017933221883e+18
14229.0	1.8898394617479153e+18
14230.0	1.8896948253687805e+18
14231.0	1.889316948777369e+18
14232.0	1.8889614966128637e+18
14233.0	1.8885908174471165e+18
14234.0	1.888228104103526e+18
14235.0	1.8878589315317755e+18
14236.0	1.8874947568926715e+18
14237.0	1.8871269281759232e+18
14238.0	1.8867611328577533e+18
14239.0	1.8863879270432763e+18
14240.0	1.8844641323384835e+18
14241.0	1.8856539104215035e+18
14242.0	1.8851477116157947e+18
14243.0	1.8844362905485307e+18
14244.0	1.8842259025821693e+18
14245.0	1.8838462794825725e+18
14246.0	1.8834769777262587e+18
14247.0	1.883123352600576e+18
14248.0	1.8827465145188347e+18
14249.0	1.8823945117499387e+18
14250.0	1.8820285721477115e+18
14251.0	1.881665437696e+18
14252.0	1.8812997229084664e+18
14253.0	1.8809333269659643e+18
14254.0	1.8805659076132861e+18
14255.0	1.880168611394355e+18
14256.0	1.879308213682176e+18
14257.0	1.8794367506448381e+18
14258.0	1.8791067176402941e+18
14259.0	1.8787224019533821e+18
14260.0	1.8783579857223677e+18
14261.0	1.8779914169745403e+18
14262.0	1.877669354825318e+18
14263.0	1.8764053593718787e+18
14264.0	1.8765532236873728e+18
14265.0	1.8762757989990397e+18
14266.0	1.8758706678202365e+18
14267.0	1.8755063270866941e+18
14268.0	1.8751417061736443e+18
14269.0	1.8747676984082432e+18
14270.0	1.874412263020953e+18
14271.0	1.8740465616551933e+18
14272.0	1.8736819390644221e+18
14273.0	1.8733112313774075e+18
14274.0	1.871770692039475e+18
14275.0	1.8724699580137472e+18
14276.0	1.8722081411694587e+18
14277.0	1.8718476289966077e+18
14278.0	1.8714975522521083e+18
14279.0	1.8711328155762683e+18
14280.0	1.8707628343427072e+18
14281.0	1.870406378900684e+18
14282.0	1.8700429542031352e+18
14283.0	1.869679261070131e+18
14284.0	1.869315547804467e+18
14285.0	1.8689516332122107e+18
14286.0	1.8685869703561213e+18
14287.0	1.8682246764429312e+18
14288.0	1.8678596646207483e+18
14289.0	1.8664957423910894e+18
14290.0	1.8670920180695035e+18
14291.0	1.8666618267631613e+18
14292.0	1.8662995647266813e+18
14293.0	1.865933705655091e+18
14294.0	1.8654336506658816e+18
14295.0	1.8651943220019197e+18
14296.0	1.864036184070554e+18
14297.0	1.864478277133926e+18
14298.0	1.8638617949765627e+18
14299.0	1.86374196035584e+18
14300.0	1.8633865065136125e+18
14301.0	1.8630271167365115e+18
14302.0	1.8626663747158013e+18
14303.0	1.8622698317938688e+18
14304.0	1.8619251271139325e+18
14305.0	1.8615777632452603e+18
14306.0	1.861196054737715e+18
14307.0	1.8608409582501883e+18
14308.0	1.8604863818563581e+18
14309.0	1.8601159258275837e+18
14310.0	1.8596686821588987e+18
14311.0	1.85927627482071e+18
14312.0	1.8589798700679163e+18
14313.0	1.8585760726777853e+18
14314.0	1.8583095548575741e+18
14315.0	1.857955756926566e+18
14316.0	1.8575436934021117e+18
14317.0	1.8572147156844541e+18
14318.0	1.856806816265011e+18
14319.0	1.8564066242985981e+18
14320.0	1.856044728005427e+18
14321.0	1.8556808905883645e+18
14322.0	1.8552815760703488e+18
14323.0	1.8549417787260923e+18
14324.0	1.8545999161065464e+18
14325.0	1.8542285994065923e+18
14326.0	1.8538775093182467e+18
14327.0	1.8535095195402235e+18
14328.0	1.853148569482035e+18
14329.0	1.8527941440831488e+18
14330.0	1.8524331520819197e+18
14331.0	1.8520719101001725e+18
14332.0	1.851711240221491e+18
14333.0	1.8513504461914107e+18
14334.0	1.8509896286732283e+18
14335.0	1.85061621146583e+18
14336.0	1.8502136237129725e+18
14337.0	1.8499044196220925e+18
14338.0	1.8495438772502523e+18
14339.0	1.8491746728017917e+18
14340.0	1.8488255070601213e+18
14341.0	1.84846226858967e+18
14342.0	1.848103006319411e+18
14343.0	1.8477415462338555e+18
14344.0	1.8473794335145981e+18
14345.0	1.8470244762779643e+18
14346.0	1.8466601271558144e+18
14347.0	1.8462796249300987e+18
14348.0	1.8459425605943293e+18
14349.0	1.8455845801033725e+18
14350.0	1.8451207035027453e+18
14351.0	1.8447090409537533e+18
14352.0	1.8443890910560256e+18
14353.0	1.8440368215293947e+18
14354.0	1.8436725378383872e+18
14355.0	1.8433030431440893e+18
14356.0	1.8429470826299387e+18
14357.0	1.8425994838802424e+18
14358.0	1.8422398172790781e+18
14359.0	1.8418645109571581e+18
14360.0	1.8415166337056765e+18
14361.0	1.841159560862105e+18
14362.0	1.8408017313660925e+18
14363.0	1.8404417527087104e+18
14364.0	1.8399497038069755e+18
14365.0	1.8396958225858555e+18
14366.0	1.8393411488841725e+18
14367.0	1.839005695161139e+18
14368.0	1.8386461778771965e+18
14369.0	1.8382877410459643e+18
14370.0	1.8379289149833216e+18
14371.0	1.8375702214606845e+18
14372.0	1.8372059327365115e+18
14373.0	1.8368523109662715e+18
14374.0	1.836493520135782e+18
14375.0	1.836133511279411e+18
14376.0	1.835776673316864e+18
14377.0	1.835417468089139e+18
14378.0	1.835056892162867e+18
14379.0	1.834701198406451e+18
14380.0	1.8343418589609984e+18
14381.0	1.8339722652811261e+18
14382.0	1.8336246849863675e+18
14383.0	1.8332634010615803e+18
14384.0	1.8328906650091517e+18
14385.0	1.8325519464398843e+18
14386.0	1.8321753751158781e+18
14387.0	1.831740455990067e+18
14388.0	1.8313709478739965e+18
14389.0	1.8310144756547581e+18
14390.0	1.8306544969973755e+18
14391.0	1.830298563326771e+18
14392.0	1.8299391718719485e+18
14393.0	1.8295827348848637e+18
14394.0	1.8291856701915133e+18
14395.0	1.828854296687411e+18
14396.0	1.8285088739426304e+18
14397.0	1.828151247450931e+18
14398.0	1.827792785453875e+18
14399.0	1.8274352730472443e+18
14400.0	1.827057943393075e+18
14401.0	1.8267124938047485e+18
14402.0	1.8263576825298941e+18
14403.0	1.824910817099774e+18
14404.0	1.8211054492319718e+18
14405.0	1.8236443772059602e+18
14406.0	1.8249252203397115e+18
14407.0	1.823055642886144e+18
14408.0	1.8241948678619133e+18
14409.0	1.823839351943987e+18
14410.0	1.823492489714073e+18
14411.0	1.8231448708317181e+18
14412.0	1.8227854038794237e+18
14413.0	1.8224322518712317e+18
14414.0	1.8220520180809725e+18
14415.0	1.8214230905847805e+18
14416.0	1.8210651100938237e+18
14417.0	1.8206998835232765e+18
14418.0	1.8203325430235133e+18
14419.0	1.819995020669747e+18
14420.0	1.819634624259686e+18
14421.0	1.819282198704947e+18
14422.0	1.8189194283188224e+18
14423.0	1.8185393253908477e+18
14424.0	1.812042226021167e+18
14425.0	1.8178315869224955e+18
14426.0	1.8174989870039037e+18
14427.0	1.8171444542308347e+18
14428.0	1.8166651509800955e+18
14429.0	1.8163275866832893e+18
14430.0	1.8159750084558843e+18
14431.0	1.8153926897434621e+18
14432.0	1.8152552239464443e+18
14433.0	1.8137573138366454e+18
14434.0	1.8145307938258941e+18
14435.0	1.8141575007698936e+18
14436.0	1.813838087743078e+18
14437.0	1.8134828234833915e+18
14438.0	1.8130776654610427e+18
14439.0	1.81276043682775e+18
14440.0	1.81241432286167e+18
14441.0	1.8120509635952637e+18
14442.0	1.811689438078566e+18
14443.0	1.8112918197370875e+18
14444.0	1.810986142217011e+18
14445.0	1.8106335388237821e+18
14446.0	1.8082802255790088e+18
14447.0	1.8095609395281915e+18
14448.0	1.8092237694959613e+18
14449.0	1.8088687787048955e+18
14450.0	1.8085071642689533e+18
14451.0	1.8081529603293184e+18
14452.0	1.8077993268150264e+18
14453.0	1.8074267098808315e+18
14454.0	1.8070893502660605e+18
14455.0	1.8067244793724925e+18
14456.0	1.8063733255307261e+18
14457.0	1.8060152057888763e+18
14458.0	1.8056627533905917e+18
14459.0	1.8053034324000763e+18
14460.0	1.804943114842931e+18
14461.0	1.8045457934581755e+18
14462.0	1.8041207141695485e+18
14463.0	1.8038632124252155e+18
14464.0	1.8035264098140155e+18
14465.0	1.8031517309599741e+18
14466.0	1.802819369277849e+18
14467.0	1.8024358186319872e+18
14468.0	1.8021078525804536e+18
14469.0	1.8017228456722427e+18
14470.0	1.8013715207028733e+18
14471.0	1.8010383990128637e+18
14472.0	1.800688072287846e+18
14473.0	1.8003378713919485e+18
14474.0	1.7999854944911355e+18
14475.0	1.7996277086158848e+18
14476.0	1.7992033071267837e+18
14477.0	1.7988608455606272e+18
14478.0	1.79846230614999e+18
14479.0	1.7981088018202621e+18
14480.0	1.7977362066964475e+18
14481.0	1.7974004929265661e+18
14482.0	1.797041418561126e+18
14483.0	1.796679044117299e+18
14484.0	1.7963236657725437e+18
14485.0	1.795938140448358e+18
14486.0	1.7953050756907005e+18
14487.0	1.7952686389329917e+18
14488.0	1.794899739829862e+18
14489.0	1.7945392830218237e+18
14490.0	1.7941984673005565e+18
14491.0	1.7938497293778941e+18
14492.0	1.7934966042132477e+18
14493.0	1.7931369275457533e+18
14494.0	1.792764223370035e+18
14495.0	1.7924311889215485e+18
14496.0	1.7919329559379965e+18
14497.0	1.7917214623531005e+18
14498.0	1.7913682264588288e+18
14499.0	1.7910137658277888e+18
14500.0	1.7906585955205112e+18
14501.0	1.7902647520526333e+18
14502.0	1.7896986887847939e+18
14503.0	1.789571925173862e+18
14504.0	1.7892336696557568e+18
14505.0	1.7888518688735227e+18
14506.0	1.7884625233772541e+18
14507.0	1.787912611535257e+18
14508.0	1.7878214072336384e+18
14509.0	1.7874675472269307e+18
14510.0	1.7871096388780032e+18
14511.0	1.7867580538617856e+18
14512.0	1.786386799237529e+18
14513.0	1.786048583984742e+18
14514.0	1.7856580322066432e+18
14515.0	1.7853362888245248e+18
14516.0	1.7824364711903247e+18
14517.0	1.7846217471950848e+18
14518.0	1.78427553424343e+18
14519.0	1.7839218722078715e+18
14520.0	1.783567565927219e+18
14521.0	1.7832124946055165e+18
14522.0	1.7828565206695933e+18
14523.0	1.7824119395450875e+18
14524.0	1.782070501389107e+18
14525.0	1.781788837098291e+18
14526.0	1.7814380154454013e+18
14527.0	1.7810630849331197e+18
14528.0	1.7805896016986107e+18
14529.0	1.780365120870809e+18
14530.0	1.780003034995097e+18
14531.0	1.7796654505656317e+18
14532.0	1.7792117157920765e+18
14533.0	1.7789187134586877e+18
14534.0	1.77850966647767e+18
14535.0	1.778143017199206e+18
14536.0	1.7777956919181312e+18
14537.0	1.777431936709427e+18
14538.0	1.7770904381554685e+18
14539.0	1.7767357124444155e+18
14540.0	1.7763807954731008e+18
14541.0	1.7760010280894461e+18
14542.0	1.7756681278586877e+18
14543.0	1.7752563663241213e+18
14544.0	1.7749585153753085e+18
14545.0	1.7745935958278141e+18
14546.0	1.7667090106286034e+18
14547.0	1.7669897773383624e+18
14548.0	1.7735196107341821e+18
14549.0	1.7730546167709693e+18
14550.0	1.772820928607027e+18
14551.0	1.7724768211959805e+18
14552.0	1.772120939534745e+18
14553.0	1.7717591506157563e+18
14554.0	1.7714127027830781e+18
14555.0	1.7710574402011133e+18
14556.0	1.7707008387973115e+18
14557.0	1.7703473193680896e+18
14558.0	1.7699888942809088e+18
14559.0	1.767757482609865e+18
14560.0	1.769273629553459e+18
14561.0	1.7689194944004096e+18
14562.0	1.7685432233885696e+18
14563.0	1.7682145795375104e+18
14564.0	1.7678432041172987e+18
14565.0	1.7674897048207355e+18
14566.0	1.7667989700607995e+18
14567.0	1.766442251216486e+18
14568.0	1.766070652659302e+18
14569.0	1.7657313233993723e+18
14570.0	1.764850165560115e+18
14571.0	1.7650185534439421e+18
14572.0	1.764622636312166e+18
14573.0	1.7642581361950715e+18
14574.0	1.7639154078711803e+18
14575.0	1.7635938842705915e+18
14576.0	1.763236566479667e+18
14577.0	1.762884293597593e+18
14578.0	1.762534381269811e+18
14579.0	1.7621813517352957e+18
14580.0	1.7618260321107963e+18
14581.0	1.7614649193136128e+18
14582.0	1.7611107304734715e+18
14583.0	1.760758739448627e+18
14584.0	1.7603850991042557e+18
14585.0	1.760047167386419e+18
14586.0	1.759688113153638e+18
14587.0	1.759334519904665e+18
14588.0	1.7589800626290685e+18
14589.0	1.7586302694195195e+18
14590.0	1.758280534930227e+18
14591.0	1.7579283039911933e+18
14592.0	1.7575732679016443e+18
14593.0	1.7571034521665528e+18
14594.0	1.756879419290419e+18
14595.0	1.7565205814837243e+18
14596.0	1.7560566813949947e+18
14597.0	1.7556844788580347e+18
14598.0	1.7551567884386296e+18
14599.0	1.754568918145433e+18
14600.0	1.7542152275886077e+18
14601.0	1.7538652179529725e+18
14602.0	1.7535082273177597e+18
14603.0	1.7531621116739581e+18
14604.0	1.7527604282130432e+18
14605.0	1.752436577612595e+18
14606.0	1.7520331207999485e+18
14607.0	1.751748488619622e+18
14608.0	1.7514027907284987e+18
14609.0	1.7510453403975675e+18
14610.0	1.7506706128895995e+18
14611.0	1.7503395430531064e+18
14612.0	1.7499986770001915e+18
14613.0	1.7496490364633085e+18
14614.0	1.7492938879664123e+18
14615.0	1.7489449755607037e+18
14616.0	1.7485942864478205e+18
14617.0	1.7482416612442112e+18
14618.0	1.7478820332306432e+18
14619.0	1.7474446814085115e+18
14620.0	1.7468657768595453e+18
14621.0	1.7468308651507707e+18
14622.0	1.746475451573862e+18
14623.0	1.7461258127147005e+18
14624.0	1.7457096622604288e+18
14625.0	1.7454157103366141e+18
14626.0	1.7450642930925565e+18
14627.0	1.7447068041740285e+18
14628.0	1.7443594570825725e+18
14629.0	1.7440055786209277e+18
14630.0	1.743648915141427e+18
14631.0	1.7432970482679805e+18
14632.0	1.742445314310144e+18
14633.0	1.7425211422932984e+18
14634.0	1.742229856269107e+18
14635.0	1.7418163314491384e+18
14636.0	1.7413539211771896e+18
14637.0	1.74117226587095e+18
14638.0	1.740810124630425e+18
14639.0	1.7404454097649661e+18
14640.0	1.7400986347765757e+18
14641.0	1.737823260088728e+18
14642.0	1.7393860023943163e+18
14643.0	1.7390388348190715e+18
14644.0	1.7386705380179965e+18
14645.0	1.7383024962306048e+18
14646.0	1.7379571271729147e+18
14647.0	1.7375875502702587e+18
