# Flux units: erg / (cm m2 s)
# Wavelength units: Angstrom
wave	flux
14000.0	2.323922785245593e+18
14001.0	2.323420455265894e+18
14002.0	2.3229650125717494e+18
14003.0	2.3224712591048704e+18
14004.0	2.321977113051136e+18
14005.0	2.321482896533094e+18
14006.0	2.320984205531545e+18
14007.0	2.320487873406566e+18
14008.0	2.3199338444357627e+18
14009.0	2.3195036950724603e+18
14010.0	2.3190020680581115e+18
14011.0	2.318138809830605e+18
14012.0	2.31802429023191e+18
14013.0	2.3175332529963003e+18
14014.0	2.3170360534892544e+18
14015.0	2.316545814849126e+18
14016.0	2.316054494078566e+18
14017.0	2.315561859651993e+18
14018.0	2.315069111140352e+18
14019.0	2.3145767082393595e+18
14020.0	2.3140837500125184e+18
14021.0	2.3135909494915067e+18
14022.0	2.313098576789504e+18
14023.0	2.3125972853194747e+18
14024.0	2.3120809312649216e+18
14025.0	2.3115842115862523e+18
14026.0	2.3110915889037307e+18
14027.0	2.310601306642841e+18
14028.0	2.3101098013229056e+18
14029.0	2.309617314535833e+18
14030.0	2.3087553330544635e+18
14031.0	2.3086073798197243e+18
14032.0	2.3081434931527675e+18
14033.0	2.307623015258521e+18
14034.0	2.3071632792748027e+18
14035.0	2.3066736278372347e+18
14036.0	2.3061834529505275e+18
14037.0	2.3056932881301501e+18
14038.0	2.305203190418636e+18
14039.0	2.304709908391526e+18
14040.0	2.3042185372893181e+18
14041.0	2.303731481287065e+18
14042.0	2.3032362715578365e+18
14043.0	2.302729353009561e+18
14044.0	2.3022581665759227e+18
14045.0	2.3017735248150523e+18
14046.0	2.3012822728310776e+18
14047.0	2.3007916768362493e+18
14048.0	2.3003076323442683e+18
14049.0	2.2998196569505787e+18
14050.0	2.2993310222123005e+18
14051.0	2.2988365842350077e+18
14052.0	2.2983503939371003e+18
14053.0	2.2978655575605245e+18
14054.0	2.2973775955886077e+18
14055.0	2.296889539664281e+18
14056.0	2.2964015693037565e+18
14057.0	2.2959137700708347e+18
14058.0	2.2954260664680443e+18
14059.0	2.2949384853389312e+18
14060.0	2.2944510015176701e+18
14061.0	2.2939595247190013e+18
14062.0	2.293476273789337e+18
14063.0	2.2929781683126267e+18
14064.0	2.2924472063361021e+18
14065.0	2.2920100508073984e+18
14066.0	2.291528774556057e+18
14067.0	2.2910378396614648e+18
14068.0	2.2905557010612214e+18
14069.0	2.2900682625384445e+18
14070.0	2.289582743329177e+18
14071.0	2.289095172266393e+18
14072.0	2.2886109147037696e+18
14073.0	2.2881250247180283e+18
14074.0	2.2876392572059643e+18
14075.0	2.2871404219203581e+18
14076.0	2.2866628047798267e+18
14077.0	2.286098368901939e+18
14078.0	2.2856905751789565e+18
14079.0	2.2852074249125885e+18
14080.0	2.2847271083180027e+18
14081.0	2.284242250131046e+18
14082.0	2.2837548468404221e+18
14083.0	2.2832715187355643e+18
14084.0	2.2827866236387323e+18
14085.0	2.2821068863438845e+18
14086.0	2.2818093843611645e+18
14087.0	2.2813348106076155e+18
14088.0	2.2808424530051072e+18
14089.0	2.2803632101523448e+18
14090.0	2.2798825093595133e+18
14091.0	2.2793997885898747e+18
14092.0	2.278916317878681e+18
14093.0	2.2784328253571067e+18
14094.0	2.2779493127028733e+18
14095.0	2.2774654225612795e+18
14096.0	2.2769667080716283e+18
14097.0	2.276485769042329e+18
14098.0	2.27600965346263e+18
14099.0	2.2755339153702912e+18
14100.0	2.275044401505894e+18
14101.0	2.27456950730752e+18
14102.0	2.2740870298075128e+18
14103.0	2.2735963683815421e+18
14104.0	2.273122834815385e+18
14105.0	2.272640511665766e+18
14106.0	2.2721588411498493e+18
14107.0	2.2716762076217344e+18
14108.0	2.2711863682793472e+18
14109.0	2.27071036007383e+18
14110.0	2.2702284731318267e+18
14111.0	2.2697430008987645e+18
14112.0	2.2692632429854717e+18
14113.0	2.2687883487870973e+18
14114.0	2.268297147134771e+18
14115.0	2.2678242494251003e+18
14116.0	2.2673224663826427e+18
14117.0	2.2662197956050944e+18
14118.0	2.2663796958953467e+18
14119.0	2.2658888213987323e+18
14120.0	2.2654146284879867e+18
14121.0	2.264932449622425e+18
14122.0	2.2644580654514173e+18
14123.0	2.2639739622391803e+18
14124.0	2.2634914511847421e+18
14125.0	2.2627070492278776e+18
14126.0	2.2625424110518267e+18
14127.0	2.2620655069429752e+18
14128.0	2.261585841304371e+18
14129.0	2.261098802079334e+18
14130.0	2.2606122712039421e+18
14131.0	2.260149416335769e+18
14132.0	2.259663435753062e+18
14133.0	2.258821539954687e+18
14134.0	2.2587097533644795e+18
14135.0	2.2582226956845048e+18
14136.0	2.257744236327731e+18
14137.0	2.2572757023719414e+18
14138.0	2.2567940368891896e+18
14139.0	2.2563216223633403e+18
14140.0	2.255838381500006e+18
14141.0	2.2553552412999677e+18
14142.0	2.2548449169768443e+18
14143.0	2.2544057850920957e+18
14144.0	2.2539344694738936e+18
14145.0	2.253457672739225e+18
14146.0	2.252979599258419e+18
14147.0	2.252502817623244e+18
14148.0	2.2520251753168893e+18
14149.0	2.251548267852595e+18
14150.0	2.2510737142317056e+18
14151.0	2.250592578908979e+18
14152.0	2.2501208757370877e+18
14153.0	2.249644473266995e+18
14154.0	2.2491490504671227e+18
14155.0	2.248680001450803e+18
14156.0	2.2482141468164093e+18
14157.0	2.2477403179712504e+18
14158.0	2.24726180996055e+18
14159.0	2.2467889458053117e+18
14160.0	2.2463070940954624e+18
14161.0	2.245797556623769e+18
14162.0	2.2452890257850365e+18
14163.0	2.2448842301505533e+18
14164.0	2.2443860927971328e+18
14165.0	2.2438800701521917e+18
14166.0	2.243458487235379e+18
14167.0	2.2429770901880827e+18
14168.0	2.2425122254094333e+18
14169.0	2.2420395055382523e+18
14170.0	2.2415630124711933e+18
14171.0	2.241089307777433e+18
14172.0	2.240616772455628e+18
14173.0	2.2401094512541696e+18
14174.0	2.2396641201881083e+18
14175.0	2.2391955140902904e+18
14176.0	2.238722069443379e+18
14177.0	2.2382486029860861e+18
14178.0	2.2377741433176061e+18
14179.0	2.23729548263424e+18
14180.0	2.2368288864468987e+18
14181.0	2.2363558880739328e+18
14182.0	2.235882456848793e+18
14183.0	2.2354100591001595e+18
14184.0	2.2349336029429755e+18
14185.0	2.2343525777539072e+18
14186.0	2.2336224970670077e+18
14187.0	2.2332625737744381e+18
14188.0	2.232810214732595e+18
14189.0	2.2323370821419e+18
14190.0	2.2318649461178365e+18
14191.0	2.2313921138393085e+18
14192.0	2.2309149345841152e+18
14193.0	2.2304286184570877e+18
14194.0	2.229975511151411e+18
14195.0	2.2295051753226237e+18
14196.0	2.2290332204924923e+18
14197.0	2.2285614804107261e+18
14198.0	2.2280866583543805e+18
14199.0	2.227616458421043e+18
14200.0	2.227075535811379e+18
14201.0	2.2266699063492605e+18
14202.0	2.2262041238568955e+18
14203.0	2.2256116012417024e+18
14204.0	2.2250161174478843e+18
14205.0	2.2245443740106747e+18
14206.0	2.2239886639628285e+18
14207.0	2.2236027678621693e+18
14208.0	2.2231325226303483e+18
14209.0	2.2225697611186173e+18
14210.0	2.2221248629047293e+18
14211.0	2.2217162269655037e+18
14212.0	2.2212490267983867e+18
14213.0	2.2207785869508603e+18
14214.0	2.220308175624601e+18
14215.0	2.2198310869663744e+18
14216.0	2.2193683646382075e+18
14217.0	2.2188982586572795e+18
14218.0	2.2184190577475581e+18
14219.0	2.2179582513774587e+18
14220.0	2.2174884691967992e+18
14221.0	2.2170173901373437e+18
14222.0	2.216535852161433e+18
14223.0	2.2159210611474427e+18
14224.0	2.2153578130964475e+18
14225.0	2.2146828925403133e+18
14226.0	2.2144147943063547e+18
14227.0	2.2139481377210368e+18
14228.0	2.2130266189332477e+18
14229.0	2.212920952671436e+18
14230.0	2.2125401182568445e+18
14231.0	2.2120645613584376e+18
14232.0	2.211602033645977e+18
14233.0	2.2111299026550781e+18
14234.0	2.210664016143974e+18
14235.0	2.2101934924103677e+18
14236.0	2.209726173125017e+18
14237.0	2.209256597304115e+18
14238.0	2.2087882210541565e+18
14239.0	2.2083141220958205e+18
14240.0	2.2068959557713915e+18
14241.0	2.207377778959974e+18
14242.0	2.206912622257766e+18
14243.0	2.2063410879397883e+18
14244.0	2.2059791228600317e+18
14245.0	2.2055016818802685e+18
14246.0	2.20482234220544e+18
14247.0	2.2043140311482365e+18
14248.0	2.203840344909414e+18
14249.0	2.2033800737325053e+18
14250.0	2.2029119977947133e+18
14251.0	2.2024458009051133e+18
14252.0	2.2019778977726461e+18
14253.0	2.201509506423193e+18
14254.0	2.2010404775395328e+18
14255.0	2.2005522756534267e+18
14256.0	2.199883443548979e+18
14257.0	2.199614108834201e+18
14258.0	2.1991719385956347e+18
14259.0	2.198690737841766e+18
14260.0	2.1982304062668792e+18
14261.0	2.1977553812062203e+18
14262.0	2.1973260673482747e+18
14263.0	2.1965337331236861e+18
14264.0	2.1963025867079677e+18
14265.0	2.195923658185113e+18
14266.0	2.1954631890370555e+18
14267.0	2.1949974652649467e+18
14268.0	2.1945314898345981e+18
14269.0	2.194063803128217e+18
14270.0	2.193599342680473e+18
14271.0	2.1929595116716027e+18
14272.0	2.192399580476211e+18
14273.0	2.1919263790989304e+18
14274.0	2.1909486818033661e+18
14275.0	2.1909393972920317e+18
14276.0	2.1905205423505405e+18
14277.0	2.1900592863510523e+18
14278.0	2.1896040147845115e+18
14279.0	2.189137715553894e+18
14280.0	2.1886682873724928e+18
14281.0	2.1882076001206267e+18
14282.0	2.187742342755123e+18
14283.0	2.1872769562050555e+18
14284.0	2.186811593143091e+18
14285.0	2.186346225047961e+18
14286.0	2.1858807730667515e+18
14287.0	2.1854157220610045e+18
14288.0	2.1849483423776765e+18
14289.0	2.1838710018408433e+18
14290.0	2.1840179182436352e+18
14291.0	2.1835556472225784e+18
14292.0	2.183092008858419e+18
14293.0	2.182625593865011e+18
14294.0	2.1820684560760827e+18
14295.0	2.1816854993436667e+18
14296.0	2.1807375010758659e+18
14297.0	2.18076352086016e+18
14298.0	2.1801669817794557e+18
14299.0	2.1795800929533947e+18
14300.0	2.1791021335576573e+18
14301.0	2.1786399833325565e+18
14302.0	2.1781778180079616e+18
14303.0	2.177688138049126e+18
14304.0	2.1772385724137467e+18
14305.0	2.176784139708006e+18
14306.0	2.1763064403591165e+18
14307.0	2.1758484945043448e+18
14308.0	2.1753903053799421e+18
14309.0	2.174922264674304e+18
14310.0	2.174398599109017e+18
14311.0	2.17397372953559e+18
14312.0	2.1735097573048315e+18
14313.0	2.1730307711434747e+18
14314.0	2.1726079064473595e+18
14315.0	2.1721475127967744e+18
14316.0	2.1716504860950525e+18
14317.0	2.1712139379015677e+18
14318.0	2.1707613204905981e+18
14319.0	2.1702997893447677e+18
14320.0	2.169837078760652e+18
14321.0	2.169374896658841e+18
14322.0	2.1688850187288573e+18
14323.0	2.1684356946853883e+18
14324.0	2.1679880819179517e+18
14325.0	2.1675179893587968e+18
14326.0	2.1670640280928253e+18
14327.0	2.1665968430252027e+18
14328.0	2.1661357799636987e+18
14329.0	2.1656782501838843e+18
14330.0	2.1652165076451325e+18
14331.0	2.1644533087338493e+18
14332.0	2.163975246997094e+18
14333.0	2.1635129541656568e+18
14334.0	2.1630506613342203e+18
14335.0	2.1625807097036795e+18
14336.0	2.1621014534291448e+18
14337.0	2.1616638986027e+18
14338.0	2.1612009866919933e+18
14339.0	2.1607313974493181e+18
14340.0	2.1602783991955453e+18
14341.0	2.159815844639539e+18
14342.0	2.159355398979584e+18
14343.0	2.1588913764171773e+18
14344.0	2.1584279846780925e+18
14345.0	2.1579710370676733e+18
14346.0	2.1575076973379581e+18
14347.0	2.1570389922545661e+18
14348.0	2.1565864486633467e+18
14349.0	2.15612642075607e+18
14350.0	2.155647255078502e+18
14351.0	2.1551816386805757e+18
14352.0	2.1547095513104381e+18
14353.0	2.1541480883552253e+18
14354.0	2.1536856327847933e+18
14355.0	2.1532211203276795e+18
14356.0	2.1527620638212093e+18
14357.0	2.15230717141975e+18
14358.0	2.1518469438636027e+18
14359.0	2.1513742642577405e+18
14360.0	2.1509249049821176e+18
14361.0	2.150465798144e+18
14362.0	2.150006588964864e+18
14363.0	2.1495461634375677e+18
14364.0	2.1490283464097787e+18
14365.0	2.1486114040709112e+18
14366.0	2.1481578068705277e+18
14367.0	2.1476247192207363e+18
14368.0	2.1469786923859965e+18
14369.0	2.1465188658053117e+18
14370.0	2.1460587875663867e+18
14371.0	2.145598818379366e+18
14372.0	2.145134940101017e+18
14373.0	2.1446786921005053e+18
14374.0	2.1442190618132475e+18
14375.0	2.1437592973082621e+18
14376.0	2.1432996049453048e+18
14377.0	2.1428395686494205e+18
14378.0	2.1423786280615933e+18
14379.0	2.1419209472868352e+18
14380.0	2.141460796905881e+18
14381.0	2.1409932427395064e+18
14382.0	2.1405418148331517e+18
14383.0	2.1400800706166784e+18
14384.0	2.1396099075932157e+18
14385.0	2.1391657492545533e+18
14386.0	2.1386950996918267e+18
14387.0	2.1382476697960443e+18
14388.0	2.1377877240971256e+18
14389.0	2.1373299091046392e+18
14390.0	2.1368702335188987e+18
14391.0	2.1364129386201088e+18
14392.0	2.1359534459060221e+18
14393.0	2.1354959698132987e+18
14394.0	2.1350090429956093e+18
14395.0	2.1345701577359352e+18
14396.0	2.1341205249916925e+18
14397.0	2.1336623593553917e+18
14398.0	2.1332034370666493e+18
14399.0	2.132745444235673e+18
14400.0	2.1322750278762493e+18
14401.0	2.131823106719744e+18
14402.0	2.131363889152e+18
14403.0	2.1299516737060849e+18
14404.0	2.1271731150782446e+18
14405.0	2.1289798819905508e+18
14406.0	2.1295287553228795e+18
14407.0	2.1277853559554048e+18
14408.0	2.1284716195872768e+18
14409.0	2.1278866316197888e+18
14410.0	2.1274375038697472e+18
14411.0	2.1269837456080893e+18
14412.0	2.1265243300691965e+18
14413.0	2.126068657527193e+18
14414.0	2.125608773903974e+18
14415.0	2.1251515310145533e+18
14416.0	2.1246928956162043e+18
14417.0	2.1242292153090043e+18
14418.0	2.1237673620406267e+18
14419.0	2.1233186570764288e+18
14420.0	2.122858149340774e+18
14421.0	2.1224023241261053e+18
14422.0	2.1219374945796093e+18
14423.0	2.1214488044765181e+18
14424.0	2.1157229033947108e+18
14425.0	2.1205290640736253e+18
14426.0	2.120111131879014e+18
14427.0	2.1196584976908283e+18
14428.0	2.1191854087208963e+18
14429.0	2.1187425002848253e+18
14430.0	2.1182877873995768e+18
14431.0	2.117734057063219e+18
14432.0	2.1173637285412861e+18
14433.0	2.1159365897617403e+18
14434.0	2.1164429714391037e+18
14435.0	2.115986775447961e+18
14436.0	2.1155466738401277e+18
14437.0	2.11509044093911e+18
14438.0	2.1146026014408707e+18
14439.0	2.1141668065443837e+18
14440.0	2.113720435290931e+18
14441.0	2.1132606590418936e+18
14442.0	2.1128013391331325e+18
14443.0	2.1123181150470136e+18
14444.0	2.1118909201514493e+18
14445.0	2.1114341117919227e+18
14446.0	2.109583828136756e+18
14447.0	2.1105022230069243e+18
14448.0	2.11006902019031e+18
14449.0	2.109614077457203e+18
14450.0	2.1091536636739581e+18
14451.0	2.1087008684244987e+18
14452.0	2.1082426793000955e+18
14453.0	2.107773799733657e+18
14454.0	2.1073330152931328e+18
14455.0	2.1068709153996797e+18
14456.0	2.106417011176243e+18
14457.0	2.1059304299692027e+18
14458.0	2.105243582490214e+18
14459.0	2.1047845645713405e+18
14460.0	2.1043266724036603e+18
14461.0	2.103853204268646e+18
14462.0	2.1033933240008696e+18
14463.0	2.102951603391692e+18
14464.0	2.1025030192234493e+18
14465.0	2.1020353258061821e+18
14466.0	2.101591053382451e+18
14467.0	2.1011134446305275e+18
14468.0	2.1006765407600635e+18
14469.0	2.100207683004006e+18
14470.0	2.0997494284484605e+18
14471.0	2.0993075014795261e+18
14472.0	2.098853526791782e+18
14473.0	2.0984036675551227e+18
14474.0	2.0979473507680256e+18
14475.0	2.0974879486509053e+18
14476.0	2.0969738846863357e+18
14477.0	2.0965791755141117e+18
14478.0	2.0961238066397181e+18
14479.0	2.095667681112883e+18
14480.0	2.095198952541388e+18
14481.0	2.0947565038010365e+18
14482.0	2.0942976670760952e+18
14483.0	2.0938372902027264e+18
14484.0	2.093379320859852e+18
14485.0	2.0929034653270016e+18
14486.0	2.09226316120064e+18
14487.0	2.0920199284785147e+18
14488.0	2.0915573420457981e+18
14489.0	2.0911019731714045e+18
14490.0	2.0906529997717501e+18
14491.0	2.0901986727624707e+18
14492.0	2.0897445034590205e+18
14493.0	2.0892850241667067e+18
14494.0	2.0888174012137467e+18
14495.0	2.0883759591063547e+18
14496.0	2.0878252167921661e+18
14497.0	2.0874655703236605e+18
14498.0	2.087011580536422e+18
14499.0	2.0865563458797565e+18
14500.0	2.0861003226939387e+18
14501.0	2.0856101712953344e+18
14502.0	2.085027624412774e+18
14503.0	2.0847212858703872e+18
14504.0	2.0842742586277883e+18
14505.0	2.0837904204955645e+18
14506.0	2.0833060891131901e+18
14507.0	2.0827373331021821e+18
14508.0	2.0824579236691963e+18
14509.0	2.082004021123481e+18
14510.0	2.0815470366031867e+18
14511.0	2.081093367260774e+18
14512.0	2.0806271351390205e+18
14513.0	2.0801794300968952e+18
14514.0	2.079393395716915e+18
14515.0	2.078958015217664e+18
14516.0	2.0769718126247944e+18
14517.0	2.0780387714203643e+18
14518.0	2.0775940309123067e+18
14519.0	2.0771392660176896e+18
14520.0	2.076683682394931e+18
14521.0	2.076227766583296e+18
14522.0	2.075769998567014e+18
14523.0	2.0752405364735992e+18
14524.0	2.074787511376281e+18
14525.0	2.0743997462937597e+18
14526.0	2.0739486421876733e+18
14527.0	2.0734759273496568e+18
14528.0	2.072950503532134e+18
14529.0	2.0725131819089917e+18
14530.0	2.0720478356242427e+18
14531.0	2.0716026572308472e+18
14532.0	2.0710600099233787e+18
14533.0	2.070691030289612e+18
14534.0	2.0702382199406587e+18
14535.0	2.0697735514554365e+18
14536.0	2.069322900334182e+18
14537.0	2.0688613457002496e+18
14538.0	2.068414313424486e+18
14539.0	2.0679584278118397e+18
14540.0	2.0675022485979133e+18
14541.0	2.067027260447129e+18
14542.0	2.0665868753043456e+18
14543.0	2.0660812855115773e+18
14544.0	2.0656733827366912e+18
14545.0	2.0652058134708224e+18
14546.0	2.0590593495269345e+18
14547.0	2.0590836731346903e+18
14548.0	2.0638313668935675e+18
14549.0	2.0633075654328315e+18
14550.0	2.062934669996851e+18
14551.0	2.0624853543419901e+18
14552.0	2.0620287405981693e+18
14553.0	2.0615692428509184e+18
14554.0	2.0611175481868283e+18
14555.0	2.0606608924999677e+18
14556.0	2.0602031848816635e+18
14557.0	2.059747920026009e+18
14558.0	2.0592871706984445e+18
14559.0	2.0577042403688425e+18
14560.0	2.0583719534329853e+18
14561.0	2.057917804262195e+18
14562.0	2.0574476848594944e+18
14563.0	2.057008541230694e+18
14564.0	2.0565471594020856e+18
14565.0	2.056097758183424e+18
14566.0	2.0556413105340416e+18
14567.0	2.0551834301104125e+18
14568.0	2.0547185351327736e+18
14569.0	2.0542681021153277e+18
14570.0	2.053496439098572e+18
14571.0	2.0533530459111421e+18
14572.0	2.0528714525704187e+18
14573.0	2.052406430085939e+18
14574.0	2.0519713431879677e+18
14575.0	2.0515244065423355e+18
14576.0	2.0510666485923835e+18
14577.0	2.0506101321564155e+18
14578.0	2.050101069479936e+18
14579.0	2.0494558378852347e+18
14580.0	2.0489980463808507e+18
14581.0	2.0485365638889467e+18
14582.0	2.0480814282178555e+18
14583.0	2.0476236534906877e+18
14584.0	2.0471557302255616e+18
14585.0	2.0467068054798333e+18
14586.0	2.04624643531735e+18
14587.0	2.0457895028064248e+18
14588.0	2.0453323454808061e+18
14589.0	2.044881300094976e+18
14590.0	2.0444306556846075e+18
14591.0	2.043979063361536e+18
14592.0	2.043523310288896e+18
14593.0	2.042992975780249e+18
14594.0	2.042625769498214e+18
14595.0	2.042171101911449e+18
14596.0	2.041671629091635e+18
14597.0	2.0412136966586363e+18
14598.0	2.040815544801689e+18
14599.0	2.040370789194137e+18
14600.0	2.039918812672819e+18
14601.0	2.0394676162920443e+18
14602.0	2.0390145626734587e+18
14603.0	2.038563565941555e+18
14604.0	2.0380816135684093e+18
14605.0	2.037652781216563e+18
14606.0	2.0371643897479163e+18
14607.0	2.0367513464340475e+18
14608.0	2.036303476975206e+18
14609.0	2.035846747468595e+18
14610.0	2.0353941116026875e+18
14611.0	2.0349434017611768e+18
14612.0	2.0344952957435901e+18
14613.0	2.0340438946807803e+18
14614.0	2.0335893713780733e+18
14615.0	2.0331391447203837e+18
14616.0	2.032686872920063e+18
14617.0	2.032233799168819e+18
14618.0	2.031775907001139e+18
14619.0	2.0312799003541501e+18
14620.0	2.0307365601476603e+18
14621.0	2.0304207777103872e+18
14622.0	2.0299657292808187e+18
14623.0	2.0295143835828221e+18
14624.0	2.029018272917094e+18
14625.0	2.0286036340899835e+18
14626.0	2.0281511945175037e+18
14627.0	2.027694216708096e+18
14628.0	2.027244875887411e+18
14629.0	2.0267903962054653e+18
14630.0	2.0263347404406781e+18
14631.0	2.025879653423513e+18
14632.0	2.0250098051055616e+18
14633.0	2.0249060497686528e+18
14634.0	2.0245127163281403e+18
14635.0	2.024045459118489e+18
14636.0	2.0234202695860221e+18
14637.0	2.0229682527993856e+18
14638.0	2.0225091694493693e+18
14639.0	2.0220465662394365e+18
14640.0	2.0215880533147645e+18
14641.0	2.0195065007702003e+18
14642.0	2.0206742218473472e+18
14643.0	2.0202299527790587e+18
14644.0	2.0197653295923197e+18
14645.0	2.019301610697523e+18
14646.0	2.0188518571573245e+18
14647.0	2.0183919500460027e+18
14648.0	2.017943498417766e+18
