# Flux units: erg / (cm m2 s)
# Wavelength units: Angstrom
wave	flux
14000.0	2.040196856440422e+18
14001.0	2.039705398096691e+18
14002.0	2.0392354229780475e+18
14003.0	2.038754183636582e+18
14004.0	2.0382730701242365e+18
14005.0	2.037791904602521e+18
14006.0	2.0373094069698555e+18
14007.0	2.0368279226810363e+18
14008.0	2.036328287122227e+18
14009.0	2.035868455508377e+18
14010.0	2.035385072038707e+18
14011.0	2.034791606543974e+18
14012.0	2.0344272641327101e+18
14013.0	2.0339472528834552e+18
14014.0	2.03346605548503e+18
14015.0	2.032986965304934e+18
14016.0	2.0325077845278717e+18
14017.0	2.0320282396852221e+18
14018.0	2.031548473383321e+18
14019.0	2.0310695459422203e+18
14020.0	2.0305902410137597e+18
14021.0	2.030111103857459e+18
14022.0	2.029622172162457e+18
14023.0	2.0291239744110587e+18
14024.0	2.0286533953126392e+18
14025.0	2.028183604743372e+18
14026.0	2.027705366845849e+18
14027.0	2.0272275601227779e+18
14028.0	2.0267494983860221e+18
14029.0	2.026271164858368e+18
14030.0	2.0250226379980803e+18
14031.0	2.0253082264797181e+18
14032.0	2.024838209418035e+18
14033.0	2.0243425081163773e+18
14034.0	2.0238826664361976e+18
14035.0	2.023406705206886e+18
14036.0	2.0229277609885693e+18
14037.0	2.0224511202820093e+18
14038.0	2.0219762730598397e+18
14039.0	2.0214997112061947e+18
14040.0	2.0210107107246077e+18
14041.0	2.0205336270995453e+18
14042.0	2.0200562347737083e+18
14043.0	2.0195743981633533e+18
14044.0	2.019104313992806e+18
14045.0	2.0186300556509181e+18
14046.0	2.018153728678297e+18
14047.0	2.017675084772147e+18
14048.0	2.0172023749672955e+18
14049.0	2.0167287474487293e+18
14050.0	2.0162536653455355e+18
14051.0	2.0157768669331456e+18
14052.0	2.0153038383611901e+18
14053.0	2.01482901127168e+18
14054.0	2.014354580124467e+18
14055.0	2.01387970438103e+18
14056.0	2.0134058386259965e+18
14057.0	2.0129316473929725e+18
14058.0	2.0124576356761597e+18
14059.0	2.0119811862298621e+18
14060.0	2.011497745717657e+18
14061.0	2.011022841452953e+18
14062.0	2.010550571211161e+18
14063.0	2.010073875139788e+18
14064.0	2.0094963815546875e+18
14065.0	2.0091291954053117e+18
14066.0	2.0086577271144443e+18
14067.0	2.008163606226534e+18
14068.0	2.0077122739503101e+18
14069.0	2.007237550879539e+18
14070.0	2.006766859373772e+18
14071.0	2.0062944079380475e+18
14072.0	2.0058227467091965e+18
14073.0	2.0053408295682045e+18
14074.0	2.0048665963921403e+18
14075.0	2.0043903231066107e+18
14076.0	2.0038988479856637e+18
14077.0	2.0032644712497147e+18
14078.0	2.002966457561907e+18
14079.0	2.0025077483438075e+18
14080.0	2.002038048371507e+18
14081.0	2.001567098496614e+18
14082.0	2.001084043860377e+18
14083.0	2.0006131527057403e+18
14084.0	2.000142837009612e+18
14085.0	1.9995035227389947e+18
14086.0	1.999187874519449e+18
14087.0	1.9987318983098365e+18
14088.0	1.9982572138266624e+18
14089.0	1.997772130825011e+18
14090.0	1.9973188406476792e+18
14091.0	1.996852477663641e+18
14092.0	1.9963829706293243e+18
14093.0	1.9959135810355197e+18
14094.0	1.9954443189485565e+18
14095.0	1.9949751927570432e+18
14096.0	1.994467324618342e+18
14097.0	1.9940232031895547e+18
14098.0	1.993550701422182e+18
14099.0	1.99309998990295e+18
14100.0	1.9926294208708603e+18
14101.0	1.9921633414217725e+18
14102.0	1.9916950322806781e+18
14103.0	1.9912244934475773e+18
14104.0	1.9907591689732093e+18
14105.0	1.9902904991219712e+18
14106.0	1.9898236781199355e+18
14107.0	1.9893443916464125e+18
14108.0	1.9888727690051584e+18
14109.0	1.9884083404341243e+18
14110.0	1.9879368385888253e+18
14111.0	1.9874655246483453e+18
14112.0	1.9870068254965755e+18
14113.0	1.9865300270841853e+18
14114.0	1.986070749118464e+18
14115.0	1.985605887695257e+18
14116.0	1.9850859886149627e+18
14117.0	1.9834465006125056e+18
14118.0	1.9842091743969277e+18
14119.0	1.9837217878835197e+18
14120.0	1.9832576562692093e+18
14121.0	1.9828058525532155e+18
14122.0	1.9823192747016187e+18
14123.0	1.981843724514099e+18
14124.0	1.981370766406451e+18
14125.0	1.9808566890201083e+18
14126.0	1.9804753328340987e+18
14127.0	1.980020687057715e+18
14128.0	1.979555656184627e+18
14129.0	1.9790888284717053e+18
14130.0	1.978622116521574e+18
14131.0	1.978160327006617e+18
14132.0	1.9776964990599168e+18
14133.0	1.977124548666982e+18
14134.0	1.9767655145668603e+18
14135.0	1.9762859244257277e+18
14136.0	1.975740369626726e+18
14137.0	1.975365118669619e+18
14138.0	1.9748850755436544e+18
14139.0	1.9744398501740536e+18
14140.0	1.9739684187930621e+18
14141.0	1.9735107111747581e+18
14142.0	1.9729330783387645e+18
14143.0	1.9725769987063803e+18
14144.0	1.9721250607726587e+18
14145.0	1.9716625011834877e+18
14146.0	1.97119818334208e+18
14147.0	1.970736148879769e+18
14148.0	1.9702684168749053e+18
14149.0	1.9698029950926843e+18
14150.0	1.9693514078027773e+18
14151.0	1.9688746681106432e+18
14152.0	1.9684280300994555e+18
14153.0	1.9679664150675453e+18
14154.0	1.9674996343308283e+18
14155.0	1.9667434365517821e+18
14156.0	1.966564621628211e+18
14157.0	1.966120922985267e+18
14158.0	1.9656573752180733e+18
14159.0	1.9651996323676155e+18
14160.0	1.9647386817134587e+18
14161.0	1.9642657789706237e+18
14162.0	1.9637966343241725e+18
14163.0	1.9633575779368952e+18
14164.0	1.962852790095052e+18
14165.0	1.9623533709623296e+18
14166.0	1.9619681878933501e+18
14167.0	1.9615035479293947e+18
14168.0	1.9610380439388155e+18
14169.0	1.9605874548932603e+18
14170.0	1.9601223401340928e+18
14171.0	1.9596664511660027e+18
14172.0	1.9592097233371133e+18
14173.0	1.9587122084184064e+18
14174.0	1.958289050121011e+18
14175.0	1.9578331158544381e+18
14176.0	1.9573705126445053e+18
14177.0	1.9569147964817405e+18
14178.0	1.956456647622656e+18
14179.0	1.955991251006259e+18
14180.0	1.9555413481488381e+18
14181.0	1.9550833737727992e+18
14182.0	1.9546253792641021e+18
14183.0	1.9541678075412475e+18
14184.0	1.9537091671097341e+18
14185.0	1.9532526708064253e+18
14186.0	1.9525588272283645e+18
14187.0	1.9523331115974653e+18
14188.0	1.9518809052282875e+18
14189.0	1.9514211390455805e+18
14190.0	1.9509654614704125e+18
14191.0	1.950507693454131e+18
14192.0	1.9500523463901181e+18
14193.0	1.949557354764697e+18
14194.0	1.94913881859031e+18
14195.0	1.9486851693805565e+18
14196.0	1.9482290505646075e+18
14197.0	1.9477731313975293e+18
14198.0	1.9473163213602816e+18
14199.0	1.9468602411319293e+18
14200.0	1.94626496537559e+18
14201.0	1.94594784411648e+18
14202.0	1.9454889335717883e+18
14203.0	1.9450196664516605e+18
14204.0	1.9445730989047803e+18
14205.0	1.9441182434131965e+18
14206.0	1.9436385576419325e+18
14207.0	1.943209227006771e+18
14208.0	1.9427547708129275e+18
14209.0	1.9422730029891581e+18
14210.0	1.9418286013808637e+18
14211.0	1.9413917075767293e+18
14212.0	1.9409375869272061e+18
14213.0	1.9404793206276093e+18
14214.0	1.9400298959208445e+18
14215.0	1.939573704962867e+18
14216.0	1.93912286258135e+18
14217.0	1.938669454963507e+18
14218.0	1.9382136196825083e+18
14219.0	1.9377629568172024e+18
14220.0	1.93730883616768e+18
14221.0	1.9368519154008061e+18
14222.0	1.9363671058677755e+18
14223.0	1.9359497759752195e+18
14224.0	1.9354989923139581e+18
14225.0	1.9346533568741379e+18
14226.0	1.9345939806289917e+18
14227.0	1.9341421752352763e+18
14228.0	1.9327818114531328e+18
14229.0	1.933115998496357e+18
14230.0	1.932786467130572e+18
14231.0	1.9322991326265344e+18
14232.0	1.9318832623517693e+18
14233.0	1.9314303295291387e+18
14234.0	1.9309805894107133e+18
14235.0	1.93052894340055e+18
14236.0	1.9300780909527037e+18
14237.0	1.9296269717471232e+18
14238.0	1.9291763155927035e+18
14239.0	1.9287213913145341e+18
14240.0	1.9279950133592061e+18
14241.0	1.9278217466609656e+18
14242.0	1.927371739784806e+18
14243.0	1.9268821386788861e+18
14244.0	1.9264634129219581e+18
14245.0	1.926009991882342e+18
14246.0	1.9255569147756544e+18
14247.0	1.9251127748919293e+18
14248.0	1.9246616204541952e+18
14249.0	1.9242145042923515e+18
14250.0	1.923765129917235e+18
14251.0	1.9233164383748093e+18
14252.0	1.9228673492123645e+18
14253.0	1.9224182583721981e+18
14254.0	1.9219690484137981e+18
14255.0	1.921514827100979e+18
14256.0	1.9207092892073984e+18
14257.0	1.9206193146757117e+18
14258.0	1.920175500269977e+18
14259.0	1.9197241042403325e+18
14260.0	1.9192686498021373e+18
14261.0	1.9188268369182715e+18
14262.0	1.9183892284047352e+18
14263.0	1.9174073284165635e+18
14264.0	1.9174170608795645e+18
14265.0	1.91704073282519e+18
14266.0	1.9165992051539963e+18
14267.0	1.9161518574665725e+18
14268.0	1.9157049023660024e+18
14269.0	1.9152574506598392e+18
14270.0	1.914811094505881e+18
14271.0	1.914362991843737e+18
14272.0	1.9139172430249981e+18
14273.0	1.9134708952596477e+18
14274.0	1.9122467473719296e+18
14275.0	1.9125086598463483e+18
14276.0	1.912123158010265e+18
14277.0	1.9116808132886528e+18
14278.0	1.9112406210838525e+18
14279.0	1.9107947883790333e+18
14280.0	1.9103476806057981e+18
14281.0	1.9099037454041083e+18
14282.0	1.9094584361484283e+18
14283.0	1.9090131789021184e+18
14284.0	1.9085680139304955e+18
14285.0	1.9081228355371003e+18
14286.0	1.907676350198579e+18
14287.0	1.9072332437913592e+18
14288.0	1.9067886005911547e+18
14289.0	1.9061649092640755e+18
14290.0	1.9058978948382715e+18
14291.0	1.905450946448588e+18
14292.0	1.905000231573913e+18
14293.0	1.9045557259468797e+18
14294.0	1.9040832292126715e+18
14295.0	1.903664991672729e+18
14296.0	1.9030792118206467e+18
14297.0	1.9027811629006845e+18
14298.0	1.9021847412604925e+18
14299.0	1.901886358473932e+18
14300.0	1.9014496961953787e+18
14301.0	1.901007331341107e+18
14302.0	1.9005645839663104e+18
14303.0	1.9001138103713784e+18
14304.0	1.8996769098563581e+18
14305.0	1.8992354811707387e+18
14306.0	1.8987673230245888e+18
14307.0	1.8983412102594555e+18
14308.0	1.8979070192648187e+18
14309.0	1.897459587691315e+18
14310.0	1.8969107495911421e+18
14311.0	1.896369301854617e+18
14312.0	1.8960981417787384e+18
14313.0	1.895679337168896e+18
14314.0	1.8952497062215677e+18
14315.0	1.89481427706839e+18
14316.0	1.894364860750233e+18
14317.0	1.893904738890547e+18
14318.0	1.8934935930798075e+18
14319.0	1.8930529277575165e+18
14320.0	1.892612086274457e+18
14321.0	1.8921715484590075e+18
14322.0	1.8917220650319872e+18
14323.0	1.891287484805939e+18
14324.0	1.8908482254143483e+18
14325.0	1.8904079224799224e+18
14326.0	1.8899700136542203e+18
14327.0	1.8895285212151805e+18
14328.0	1.8890847437193208e+18
14329.0	1.8886447327084541e+18
14330.0	1.8882051159621627e+18
14331.0	1.8877614189969403e+18
14332.0	1.8873262096252928e+18
14333.0	1.886886955266867e+18
14334.0	1.8864478049271805e+18
14335.0	1.8860041264168955e+18
14336.0	1.8855241755656187e+18
14337.0	1.8851309176225787e+18
14338.0	1.884691950154547e+18
14339.0	1.8842492111683584e+18
14340.0	1.883815268476518e+18
14341.0	1.8833732978868221e+18
14342.0	1.8829389575749627e+18
14343.0	1.8824971849564152e+18
14344.0	1.8820607760138237e+18
14345.0	1.8816251891548155e+18
14346.0	1.8811859129860093e+18
14347.0	1.8807182732558333e+18
14348.0	1.8803009181974528e+18
14349.0	1.8798641569333245e+18
14350.0	1.879394836126105e+18
14351.0	1.8789547932385275e+18
14352.0	1.8785509035737083e+18
14353.0	1.8781155683729403e+18
14354.0	1.8776751328985088e+18
14355.0	1.8772310987112443e+18
14356.0	1.87679814755287e+18
14357.0	1.8763692296372221e+18
14358.0	1.8759328290832384e+18
14359.0	1.875493262668595e+18
14360.0	1.8750576506437627e+18
14361.0	1.874623655942553e+18
14362.0	1.874188607632179e+18
14363.0	1.8737527422713853e+18
14364.0	1.8732016107257853e+18
14365.0	1.8728662744432635e+18
14366.0	1.8724282582433787e+18
14367.0	1.872011025658675e+18
14368.0	1.8715757072351227e+18
14369.0	1.871140722678169e+18
14370.0	1.870705842139955e+18
14371.0	1.8702711511842813e+18
14372.0	1.8698344771616765e+18
14373.0	1.869401264278732e+18
14374.0	1.868967209179545e+18
14375.0	1.8685326172094461e+18
14376.0	1.8680985252003835e+18
14377.0	1.8676642217984e+18
14378.0	1.867229740557926e+18
14379.0	1.8667963280261117e+18
14380.0	1.8663623937228797e+18
14381.0	1.8659261559078907e+18
14382.0	1.8654947583197181e+18
14383.0	1.8650557841407992e+18
14384.0	1.8646236282224635e+18
14385.0	1.86419498713088e+18
14386.0	1.8637586469748736e+18
14387.0	1.8633287207485437e+18
14388.0	1.8628953384157181e+18
14389.0	1.8624629341945853e+18
14390.0	1.862029863917977e+18
14391.0	1.8615974999621627e+18
14392.0	1.8611628408831997e+18
14393.0	1.8607328592920576e+18
14394.0	1.86029263856599e+18
14395.0	1.859838316589875e+18
14396.0	1.8594349705068544e+18
14397.0	1.8590045493526525e+18
14398.0	1.8585710680342525e+18
14399.0	1.858140076454707e+18
14400.0	1.8576901400428536e+18
14401.0	1.8572763954413568e+18
14402.0	1.8568463836512253e+18
14403.0	1.855085282643146e+18
14404.0	1.8524909948895224e+18
14405.0	1.8552823914430454e+18
14406.0	1.8551221958737917e+18
14407.0	1.8527002000621576e+18
14408.0	1.8542335184863224e+18
14409.0	1.8538263874633728e+18
14410.0	1.85339123681198e+18
14411.0	1.8529583930277888e+18
14412.0	1.8525280775700477e+18
14413.0	1.8520985976176637e+18
14414.0	1.851668008691302e+18
14415.0	1.851238298891059e+18
14416.0	1.8508019419578363e+18
14417.0	1.8503526061703165e+18
14418.0	1.8499249465458683e+18
14419.0	1.84951944291287e+18
14420.0	1.8490893505921021e+18
14421.0	1.848660907471667e+18
14422.0	1.8482316758220797e+18
14423.0	1.8477994779607037e+18
14424.0	1.8392954913685443e+18
14425.0	1.8469432812634107e+18
14426.0	1.8465161870311421e+18
14427.0	1.8460876935790587e+18
14428.0	1.8456531267747837e+18
14429.0	1.8452301077282808e+18
14430.0	1.8448024648810493e+18
14431.0	1.84419427066839e+18
14432.0	1.84393963447255e+18
14433.0	1.8420367492120558e+18
14434.0	1.8430869307916283e+18
14435.0	1.8426341170872315e+18
14436.0	1.842234804246937e+18
14437.0	1.8418073425936384e+18
14438.0	1.841323308167987e+18
14439.0	1.8409419586928637e+18
14440.0	1.840525098562355e+18
14441.0	1.8400970027302912e+18
14442.0	1.8396689152868347e+18
14443.0	1.8392344206245888e+18
14444.0	1.8388164028661755e+18
14445.0	1.838390489749913e+18
14446.0	1.8363751199670277e+18
14447.0	1.8375344071376893e+18
14448.0	1.8371111095894016e+18
14449.0	1.8366848206635005e+18
14450.0	1.836257308678553e+18
14451.0	1.83583225455575e+18
14452.0	1.8354055294222328e+18
14453.0	1.834951489303347e+18
14454.0	1.8345546678796285e+18
14455.0	1.8341280182435835e+18
14456.0	1.8336957046194176e+18
14457.0	1.8332675701997563e+18
14458.0	1.8328402813517821e+18
14459.0	1.83242157237207e+18
14460.0	1.8319974560956408e+18
14461.0	1.8315469895237632e+18
14462.0	1.8309596913336317e+18
14463.0	1.8307153412489216e+18
14464.0	1.830299710888345e+18
14465.0	1.8298727844282363e+18
14466.0	1.8294527768920061e+18
14467.0	1.8290065650221053e+18
14468.0	1.8286025109405693e+18
14469.0	1.8281639041826813e+18
14470.0	1.827750151192576e+18
14471.0	1.827328509555507e+18
14472.0	1.8269059787259904e+18
14473.0	1.826484582036275e+18
14474.0	1.8260609841758203e+18
14475.0	1.825635540821606e+18
14476.0	1.8251170745155584e+18
14477.0	1.8247897778749437e+18
14478.0	1.8243668309704704e+18
14479.0	1.8239418993213437e+18
14480.0	1.8235170599469053e+18
14481.0	1.8230979130818563e+18
14482.0	1.8226742816669693e+18
14483.0	1.8222498399125507e+18
14484.0	1.82182831236055e+18
14485.0	1.8213983190253565e+18
14486.0	1.8209233174528e+18
14487.0	1.8205597702815741e+18
14488.0	1.8200893975429117e+18
14489.0	1.8196880244604925e+18
14490.0	1.8192802995240955e+18
14491.0	1.8188627079069693e+18
14492.0	1.8184395881971707e+18
14493.0	1.818014493809049e+18
14494.0	1.8175911996162043e+18
14495.0	1.817175562544742e+18
14496.0	1.8167260807954432e+18
14497.0	1.8163325359620093e+18
14498.0	1.8159108305715197e+18
14499.0	1.8154899455868928e+18
14500.0	1.8150686294278141e+18
14501.0	1.8146025113911293e+18
14502.0	1.8141210455572477e+18
14503.0	1.8137912658886653e+18
14504.0	1.813383520819609e+18
14505.0	1.812921831967948e+18
14506.0	1.812446790130073e+18
14507.0	1.8120724115881984e+18
14508.0	1.81170209816576e+18
14509.0	1.8112816846209024e+18
14510.0	1.8108607610486781e+18
14511.0	1.8104410857013243e+18
14512.0	1.8100175146844155e+18
14513.0	1.8096008441364475e+18
14514.0	1.8091677805707261e+18
14515.0	1.8087600841555963e+18
14516.0	1.8079009363460093e+18
14517.0	1.80792135254016e+18
14518.0	1.8075017426239485e+18
14519.0	1.8070822551814141e+18
14520.0	1.8066627257958397e+18
14521.0	1.8062425991413755e+18
14522.0	1.8058206068604928e+18
14523.0	1.80528312525783e+18
14524.0	1.8048801600176123e+18
14525.0	1.8045655284973563e+18
14526.0	1.8041477305204733e+18
14527.0	1.8037221042946043e+18
14528.0	1.803268617823846e+18
14529.0	1.8028891121647613e+18
14530.0	1.8024693445427197e+18
14531.0	1.8020538182008827e+18
14532.0	1.8014834700320763e+18
14533.0	1.8012170579083261e+18
14534.0	1.8007990938370043e+18
14535.0	1.8003782910607352e+18
14536.0	1.7999625868804093e+18
14537.0	1.7995419149664256e+18
14538.0	1.7991264322453496e+18
14539.0	1.7987087768748027e+18
14540.0	1.7982909386326016e+18
14541.0	1.7978686695276541e+18
14542.0	1.7974554970292221e+18
14543.0	1.796972828268953e+18
14544.0	1.7966204664676347e+18
14545.0	1.796201351479296e+18
14546.0	1.786804040210836e+18
14547.0	1.7874023425769393e+18
14548.0	1.7949418405756923e+18
14549.0	1.7945027825106941e+18
14550.0	1.7941090984263675e+18
14551.0	1.7936934898761723e+18
14552.0	1.7932755560038397e+18
14553.0	1.7928574895915003e+18
14554.0	1.7924427987550205e+18
14555.0	1.7920231334739965e+18
14556.0	1.7916040402960381e+18
14557.0	1.79119009604567e+18
14558.0	1.7907731654508541e+18
14559.0	1.7899787172970483e+18
14560.0	1.789888934025625e+18
14561.0	1.7895229424140285e+18
14562.0	1.7890988043272187e+18
14563.0	1.7886917991333885e+18
14564.0	1.7882564723212288e+18
14565.0	1.7878601642803195e+18
14566.0	1.7874441530769403e+18
14567.0	1.7870245783928827e+18
14568.0	1.7865459864961024e+18
14569.0	1.7861814008152056e+18
14570.0	1.785642717963878e+18
14571.0	1.7853493884747768e+18
14572.0	1.7849038963474427e+18
14573.0	1.784503586940518e+18
14574.0	1.7840483891937277e+18
14575.0	1.7836819177537533e+18
14576.0	1.783266490397491e+18
14577.0	1.782855753950822e+18
14578.0	1.7824410564034555e+18
14579.0	1.7820185624838144e+18
14580.0	1.7816018013388795e+18
14581.0	1.7811817854140416e+18
14582.0	1.7807688159199227e+18
14583.0	1.7803561987473405e+18
14584.0	1.7799333709611005e+18
14585.0	1.7795261979951104e+18
14586.0	1.7791105089142781e+18
14587.0	1.778694234308608e+18
14588.0	1.778282197627699e+18
14589.0	1.7778826717167613e+18
14590.0	1.7774849342570496e+18
14591.0	1.7770842205192187e+18
14592.0	1.776688412439347e+18
14593.0	1.7762662842630141e+18
14594.0	1.775893264675635e+18
14595.0	1.7754942118821885e+18
14596.0	1.7750022703546363e+18
14597.0	1.7745933039042552e+18
14598.0	1.7742939312619515e+18
14599.0	1.7739041243922427e+18
14600.0	1.7735026439356416e+18
14601.0	1.773107156300595e+18
14602.0	1.7726976764674048e+18
14603.0	1.7723096312053755e+18
14604.0	1.7718951886716925e+18
14605.0	1.7714880710705147e+18
14606.0	1.7710942292803581e+18
14607.0	1.7707201359511547e+18
14608.0	1.7703219304071165e+18
14609.0	1.7699136836993021e+18
14610.0	1.7694759241908221e+18
14611.0	1.769122944987955e+18
14612.0	1.7687314603966461e+18
14613.0	1.7683344795893755e+18
14614.0	1.7679361398276093e+18
14615.0	1.767531008648806e+18
14616.0	1.7671413192196093e+18
14617.0	1.766743415665459e+18
14618.0	1.7663228259598333e+18
14619.0	1.7658915525230584e+18
14620.0	1.7652833398554621e+18
14621.0	1.765151876946329e+18
14622.0	1.7647532972703741e+18
14623.0	1.7643559926628347e+18
14624.0	1.7639457461108733e+18
14625.0	1.7635591587889147e+18
14626.0	1.7631592302247933e+18
14627.0	1.7627578202324987e+18
14628.0	1.762365585699635e+18
14629.0	1.761967365056102e+18
14630.0	1.7615669080096765e+18
14631.0	1.7611703365664763e+18
14632.0	1.760121227051008e+18
14633.0	1.760292453639782e+18
14634.0	1.7599715323412475e+18
14635.0	1.759273200857905e+18
14636.0	1.7582001066344443e+18
14637.0	1.7587806167629821e+18
14638.0	1.7583753865986043e+18
14639.0	1.757976773368217e+18
14640.0	1.7575836144107517e+18
14641.0	1.7546863737569257e+18
14642.0	1.7567855641886717e+18
14643.0	1.756386659034726e+18
14644.0	1.7559838783438843e+18
14645.0	1.755583228359475e+18
14646.0	1.7551619574988797e+18
14647.0	1.7547621581193213e+18
14648.0	1.7543871118442493e+18
