# Flux units: erg / (cm m2 s)
# Wavelength units: Angstrom
wave	flux
14000.0	1.4379053851082747e+18
14001.0	1.4374321552097283e+18
14002.0	1.4375165345398781e+18
14003.0	1.4372839956152315e+18
14004.0	1.4370471667564541e+18
14005.0	1.4368075495243776e+18
14006.0	1.436561377434009e+18
14007.0	1.4363138916876285e+18
14008.0	1.436013020839936e+18
14009.0	1.435820102988595e+18
14010.0	1.4355335196180477e+18
14011.0	1.434882961257267e+18
14012.0	1.4350344242855936e+18
14013.0	1.4348893315661821e+18
14014.0	1.4346616244797437e+18
14015.0	1.434434361989529e+18
14016.0	1.4341997208797181e+18
14017.0	1.433963594986291e+18
14018.0	1.433693602604646e+18
14019.0	1.4334918213500925e+18
14020.0	1.4332548465295357e+18
14021.0	1.4330179438510077e+18
14022.0	1.432781225721856e+18
14023.0	1.432535166038835e+18
14024.0	1.4323008621510653e+18
14025.0	1.432070823031603e+18
14026.0	1.4318340612816893e+18
14027.0	1.4315970327740413e+18
14028.0	1.4313527447650304e+18
14029.0	1.4311100187148285e+18
14030.0	1.4308180951564285e+18
14031.0	1.4305973220933632e+18
14032.0	1.4304076204343293e+18
14033.0	1.4301423793602557e+18
14034.0	1.4299439602597885e+18
14035.0	1.4297065005776893e+18
14036.0	1.429457922634547e+18
14037.0	1.4292313949863936e+18
14038.0	1.4290018323398653e+18
14039.0	1.4287621010227197e+18
14040.0	1.428529068847923e+18
14041.0	1.4282922433445888e+18
14042.0	1.4280458548281341e+18
14043.0	1.4277927755579392e+18
14044.0	1.427555080994816e+18
14045.0	1.4273246794874877e+18
14046.0	1.4271127496949757e+18
14047.0	1.4268748722601981e+18
14048.0	1.4266442425827325e+18
14049.0	1.426409561207603e+18
14050.0	1.4261747389038587e+18
14051.0	1.425934078128947e+18
14052.0	1.4257001852829693e+18
14053.0	1.4254688308297725e+18
14054.0	1.4252350688460795e+18
14055.0	1.4250001878220797e+18
14056.0	1.4247653067980797e+18
14057.0	1.4245304257740797e+18
14058.0	1.4242954424090621e+18
14059.0	1.424028832314163e+18
14060.0	1.423824953907609e+18
14061.0	1.423585309831987e+18
14062.0	1.4233523179225085e+18
14063.0	1.4231058404868093e+18
14064.0	1.4228554271162365e+18
14065.0	1.4226416300195835e+18
14066.0	1.4224149614428157e+18
14067.0	1.4221836891979773e+18
14068.0	1.4219496000585725e+18
14069.0	1.4217140479459325e+18
14070.0	1.4214809671172093e+18
14071.0	1.4212442271776765e+18
14072.0	1.4210127083077632e+18
14073.0	1.420776572348006e+18
14074.0	1.4205446642466813e+18
14075.0	1.4202924926238717e+18
14076.0	1.4200735767986173e+18
14077.0	1.4198254535180285e+18
14078.0	1.4196008166621181e+18
14079.0	1.4193676704022528e+18
14080.0	1.4191260902359037e+18
14081.0	1.4189031730446336e+18
14082.0	1.4186699848417277e+18
14083.0	1.4184304498180093e+18
14084.0	1.4181755703525376e+18
14085.0	1.4178561992687613e+18
14086.0	1.417680664290918e+18
14087.0	1.417472610035302e+18
14088.0	1.4172570613972987e+18
14089.0	1.417038680765235e+18
14090.0	1.4168068464836603e+18
14091.0	1.4165737354559485e+18
14092.0	1.416341686426009e+18
14093.0	1.4161089981841403e+18
14094.0	1.4158760633171963e+18
14095.0	1.415642980810752e+18
14096.0	1.415408712155136e+18
14097.0	1.4151610519257085e+18
14098.0	1.414944060447129e+18
14099.0	1.4147096022089725e+18
14100.0	1.414470687942246e+18
14101.0	1.4142457541296125e+18
14102.0	1.414010443608883e+18
14103.0	1.4137679490842621e+18
14104.0	1.4135454865555453e+18
14105.0	1.4133163819270141e+18
14106.0	1.4130841181487096e+18
14107.0	1.4128258597519357e+18
14108.0	1.4126078398300157e+18
14109.0	1.4123862362947581e+18
14110.0	1.412154371814195e+18
14111.0	1.411918274442035e+18
14112.0	1.4116809137455101e+18
14113.0	1.4114551511384064e+18
14114.0	1.4112090864222208e+18
14115.0	1.4109808307208187e+18
14116.0	1.4107102930796541e+18
14117.0	1.4103922322964475e+18
14118.0	1.4102662572146685e+18
14119.0	1.4100512337035264e+18
14120.0	1.4098264290754557e+18
14121.0	1.4095871423545341e+18
14122.0	1.4093593815810045e+18
14123.0	1.409115892167475e+18
14124.0	1.4088262486327293e+18
14125.0	1.4084426795319293e+18
14126.0	1.4083767517839357e+18
14127.0	1.4081933784907776e+18
14128.0	1.407971253184102e+18
14129.0	1.407732778480435e+18
14130.0	1.4074823139393536e+18
14131.0	1.4072579606183933e+18
14132.0	1.4069686870212608e+18
14133.0	1.4065561973555195e+18
14134.0	1.4064851441680381e+18
14135.0	1.406337476145971e+18
14136.0	1.4061254171688957e+18
14137.0	1.4059015889747965e+18
14138.0	1.4056729104875517e+18
14139.0	1.4054445876772864e+18
14140.0	1.405214719685427e+18
14141.0	1.4049829357355003e+18
14142.0	1.4047535492497408e+18
14143.0	1.4045248531464187e+18
14144.0	1.4042928150216701e+18
14145.0	1.4040625594761213e+18
14146.0	1.4038353859051517e+18
14147.0	1.4036058744291325e+18
14148.0	1.4033753865191421e+18
14149.0	1.403146322155929e+18
14150.0	1.402915930714931e+18
14151.0	1.4026841434095613e+18
14152.0	1.4024546269003773e+18
14153.0	1.402226718487347e+18
14154.0	1.4019724631343101e+18
14155.0	1.4017614007238653e+18
14156.0	1.4015364568449021e+18
14157.0	1.4013056619118592e+18
14158.0	1.4010726565806077e+18
14159.0	1.4008410571800573e+18
14160.0	1.4005949396156413e+18
14161.0	1.400346554610483e+18
14162.0	1.4001044526727165e+18
14163.0	1.3998879502499837e+18
14164.0	1.3996818681561085e+18
14165.0	1.3994644027211773e+18
14166.0	1.3992376116707328e+18
14167.0	1.3989971622887421e+18
14168.0	1.3987821043843067e+18
14169.0	1.3985556388118525e+18
14170.0	1.3983243145576445e+18
14171.0	1.3980931278766075e+18
14172.0	1.3978663938686973e+18
14173.0	1.397634341483315e+18
14174.0	1.3974051915563005e+18
14175.0	1.3971820638109693e+18
14176.0	1.3969539154837501e+18
14177.0	1.3967256639766525e+18
14178.0	1.3964972723798013e+18
14179.0	1.3962674245206013e+18
14180.0	1.3960405093187581e+18
14181.0	1.3958110959894525e+18
14182.0	1.395582284962201e+18
14183.0	1.3953533464281085e+18
14184.0	1.395123316536115e+18
14185.0	1.3948931482320893e+18
14186.0	1.3946179565912061e+18
14187.0	1.3944088889917435e+18
14188.0	1.3942020091412477e+18
14189.0	1.3939815816888317e+18
14190.0	1.3937573156093952e+18
14191.0	1.3935284886437885e+18
14192.0	1.3932942560591867e+18
14193.0	1.3930717155164155e+18
14194.0	1.3928459118051325e+18
14195.0	1.3926177886437373e+18
14196.0	1.3923914983931901e+18
14197.0	1.392163428080025e+18
14198.0	1.391932659151667e+18
14199.0	1.3917018054983677e+18
14200.0	1.3914673153835008e+18
14201.0	1.3912434335023101e+18
14202.0	1.3910203644772347e+18
14203.0	1.3907915618385917e+18
14204.0	1.3905631257821181e+18
14205.0	1.3903240185774077e+18
14206.0	1.390051660608307e+18
14207.0	1.389857665659699e+18
14208.0	1.3896354967322621e+18
14209.0	1.3893494846259197e+18
14210.0	1.3891327238340605e+18
14211.0	1.388956246815539e+18
14212.0	1.3887478251388925e+18
14213.0	1.388523860210483e+18
14214.0	1.388297481879552e+18
14215.0	1.3880645730172925e+18
14216.0	1.3878446354595837e+18
14217.0	1.3876211973357565e+18
14218.0	1.3873844792066045e+18
14219.0	1.3871684868112381e+18
14220.0	1.3869416705949693e+18
14221.0	1.3867150196342784e+18
14222.0	1.3864821048999933e+18
14223.0	1.3862597430345725e+18
14224.0	1.386028030387814e+18
14225.0	1.3857513413804032e+18
14226.0	1.3855586995142653e+18
14227.0	1.385325040710451e+18
14228.0	1.3849205068005373e+18
14229.0	1.3847853143162877e+18
14230.0	1.384667071853363e+18
14231.0	1.3844483967811581e+18
14232.0	1.3842247405535232e+18
14233.0	1.3839977775366141e+18
14234.0	1.3837714788974587e+18
14235.0	1.3835423516196861e+18
14236.0	1.383312710120243e+18
14237.0	1.3830756866457595e+18
14238.0	1.382820240110387e+18
14239.0	1.3824456963129341e+18
14240.0	1.381033702326272e+18
14241.0	1.3818763967201277e+18
14242.0	1.3818731721392123e+18
14243.0	1.3816496358686717e+18
14244.0	1.3814888010874877e+18
14245.0	1.3812770818490365e+18
14246.0	1.3810613595668477e+18
14247.0	1.3808333974667261e+18
14248.0	1.380602279572275e+18
14249.0	1.380389259260723e+18
14250.0	1.380168329330688e+18
14251.0	1.3799443811794941e+18
14252.0	1.3797182528290813e+18
14253.0	1.3794870837641213e+18
14254.0	1.3792580663771133e+18
14255.0	1.3790041381797885e+18
14256.0	1.3787656978694141e+18
14257.0	1.3785507892822013e+18
14258.0	1.3783573597257723e+18
14259.0	1.3781203597393917e+18
14260.0	1.3779029320531965e+18
14261.0	1.3776685073694717e+18
14262.0	1.3774610537381885e+18
14263.0	1.3771854711881723e+18
14264.0	1.3769753675956221e+18
14265.0	1.376787979514675e+18
14266.0	1.3765834962894845e+18
14267.0	1.3763644084977661e+18
14268.0	1.3761392179937277e+18
14269.0	1.3759107047620608e+18
14270.0	1.3756921588744187e+18
14271.0	1.375463216984883e+18
14272.0	1.3752310136045565e+18
14273.0	1.374978217030451e+18
14274.0	1.3746789500846077e+18
14275.0	1.3745075162972157e+18
14276.0	1.3743189789769725e+18
14277.0	1.3741172925136893e+18
14278.0	1.3739006634229757e+18
14279.0	1.3736786362630141e+18
14280.0	1.373455806313267e+18
14281.0	1.3732342765977595e+18
14282.0	1.3730110515445757e+18
14283.0	1.372785867751424e+18
14284.0	1.3725589760376827e+18
14285.0	1.372335289611059e+18
14286.0	1.3721041306124285e+18
14287.0	1.371858007175987e+18
14288.0	1.3715071385468925e+18
14289.0	1.3705624999165947e+18
14290.0	1.3710696776728573e+18
14291.0	1.370961042682675e+18
14292.0	1.3707517955670013e+18
14293.0	1.3705211407237117e+18
14294.0	1.3702437932105723e+18
14295.0	1.3699812440408061e+18
14296.0	1.369223984263987e+18
14297.0	1.3694183407615995e+18
14298.0	1.3692892031746045e+18
14299.0	1.3691611795947517e+18
14300.0	1.368975828267827e+18
14301.0	1.3687653983584256e+18
14302.0	1.368545520359833e+18
14303.0	1.368291250746163e+18
14304.0	1.3680948491059197e+18
14305.0	1.3678824478736384e+18
14306.0	1.3676634380959741e+18
14307.0	1.367441371509555e+18
14308.0	1.3672200330543101e+18
14309.0	1.3669974279192576e+18
14310.0	1.366773579592499e+18
14311.0	1.3665395743391741e+18
14312.0	1.3662627058155517e+18
14313.0	1.3659046976421885e+18
14314.0	1.3658789865586685e+18
14315.0	1.365654543479603e+18
14316.0	1.3654224541843453e+18
14317.0	1.3652154753482747e+18
14318.0	1.3650012143616e+18
14319.0	1.3647800210292733e+18
14320.0	1.3645563673182205e+18
14321.0	1.3643294403723261e+18
14322.0	1.3640976832659453e+18
14323.0	1.3638799393292285e+18
14324.0	1.363668951577395e+18
14325.0	1.3634416379166717e+18
14326.0	1.3632287962824701e+18
14327.0	1.3630028105383933e+18
14328.0	1.3627853115490301e+18
14329.0	1.3625695414517757e+18
14330.0	1.3623491358097405e+18
14331.0	1.362128178197299e+18
14332.0	1.3619064228282365e+18
14333.0	1.3616859928592381e+18
14334.0	1.3614644941815803e+18
14335.0	1.3612348325494781e+18
14336.0	1.3610161792876541e+18
14337.0	1.3607982289911805e+18
14338.0	1.3605805823623165e+18
14339.0	1.3603512101371901e+18
14340.0	1.3601410318860285e+18
14341.0	1.3599193520144384e+18
14342.0	1.35969003012096e+18
14343.0	1.3594764528058365e+18
14344.0	1.359238868972339e+18
14345.0	1.3590282251534333e+18
14346.0	1.358814334104371e+18
14347.0	1.3585927741898747e+18
14348.0	1.358374917845811e+18
14349.0	1.3581551161835517e+18
14350.0	1.3579304382234621e+18
14351.0	1.3577059120971773e+18
14352.0	1.3574795446714365e+18
14353.0	1.3572706809151485e+18
14354.0	1.3570549083013117e+18
14355.0	1.3568352383401981e+18
14356.0	1.3566085169151997e+18
14357.0	1.3563879904772093e+18
14358.0	1.3561747461898237e+18
14359.0	1.3559442381471741e+18
14360.0	1.3557361025220605e+18
14361.0	1.355517837652787e+18
14362.0	1.3552964312498173e+18
14363.0	1.3550756187602941e+18
14364.0	1.3548474804994045e+18
14365.0	1.3546288406593533e+18
14366.0	1.3544128088375293e+18
14367.0	1.354199944554086e+18
14368.0	1.3539773561962493e+18
14369.0	1.353760160035635e+18
14370.0	1.353541938787123e+18
14371.0	1.3533239557750781e+18
14372.0	1.3530976915292157e+18
14373.0	1.3528828886384637e+18
14374.0	1.352662529972633e+18
14375.0	1.3524342331670523e+18
14376.0	1.3522279145144317e+18
14377.0	1.3520079324971005e+18
14378.0	1.3517884487630845e+18
14379.0	1.3515715780804608e+18
14380.0	1.351352319161139e+18
14381.0	1.351123906592768e+18
14382.0	1.3509144749277181e+18
14383.0	1.3506966689153021e+18
14384.0	1.3504609129594877e+18
14385.0	1.3502599437221885e+18
14386.0	1.3500238270562301e+18
14387.0	1.3498224065118205e+18
14388.0	1.349601784443699e+18
14389.0	1.3493831722860544e+18
14390.0	1.3491644661759997e+18
14391.0	1.3489478479904765e+18
14392.0	1.3487281578967037e+18
14393.0	1.3485098569564157e+18
14394.0	1.3482507915755517e+18
14395.0	1.3480612509777917e+18
14396.0	1.3478471527301117e+18
14397.0	1.3476286731124733e+18
14398.0	1.3474079134711808e+18
14399.0	1.3471789984251901e+18
14400.0	1.346942130139955e+18
14401.0	1.3467072231112701e+18
14402.0	1.3464375914397693e+18
14403.0	1.346004690613043e+18
14404.0	1.3438146758836221e+18
14405.0	1.343699066604748e+18
14406.0	1.345365812550041e+18
14407.0	1.345311657374515e+18
14408.0	1.3451736186355712e+18
14409.0	1.3449769930194941e+18
14410.0	1.3447833042550781e+18
14411.0	1.3445757633822717e+18
14412.0	1.344361647518515e+18
14413.0	1.3441469637459965e+18
14414.0	1.3439343628648445e+18
14415.0	1.343718752990003e+18
14416.0	1.343501437711155e+18
14417.0	1.3432853488467965e+18
14418.0	1.343069134992179e+18
14419.0	1.3428508625731581e+18
14420.0	1.342630243021619e+18
14421.0	1.342412112370073e+18
14422.0	1.3421876038598653e+18
14423.0	1.3419418084179965e+18
14424.0	1.341611790512947e+18
14425.0	1.3415069211688957e+18
14426.0	1.341326251524096e+18
14427.0	1.3411122002526208e+18
14428.0	1.3408725939257341e+18
14429.0	1.340678306214707e+18
14430.0	1.3404606251925501e+18
14431.0	1.3402285233143805e+18
14432.0	1.3400206158594045e+18
14433.0	1.3397729766014973e+18
14434.0	1.339582418465587e+18
14435.0	1.3393752961843197e+18
14436.0	1.339167543079731e+18
14437.0	1.3389538491629565e+18
14438.0	1.3387362058895357e+18
14439.0	1.3385180559441917e+18
14440.0	1.3383039308529661e+18
14441.0	1.3380688938008573e+18
14442.0	1.3378417965662208e+18
14443.0	1.337602354656051e+18
14444.0	1.3373987312631805e+18
14445.0	1.337137168593715e+18
14446.0	1.3363620737974272e+18
14447.0	1.3365913789136893e+18
14448.0	1.336541974206873e+18
14449.0	1.3363514840186877e+18
14450.0	1.3361377397702653e+18
14451.0	1.3359287208247293e+18
14452.0	1.335717009974886e+18
14453.0	1.335503362195456e+18
14454.0	1.335287655012761e+18
14455.0	1.3350675706544123e+18
14456.0	1.3348554261135357e+18
14457.0	1.3346397784899581e+18
14458.0	1.3344263957905405e+18
14459.0	1.3342099621543936e+18
14460.0	1.3339940486119421e+18
14461.0	1.3337738048700416e+18
14462.0	1.3335610857095165e+18
14463.0	1.3333487129985021e+18
14464.0	1.3331251683393533e+18
14465.0	1.3328948205191165e+18
14466.0	1.332698123599872e+18
14467.0	1.3324743767752701e+18
14468.0	1.3322658963783675e+18
14469.0	1.332024563675955e+18
14470.0	1.3318228981841917e+18
14471.0	1.3316199081312253e+18
14472.0	1.3314095285534717e+18
14473.0	1.3312009978249213e+18
14474.0	1.3309893826052093e+18
14475.0	1.3307756517785597e+18
14476.0	1.3305600486146045e+18
14477.0	1.3303468848578557e+18
14478.0	1.330129438716723e+18
14479.0	1.329914409333555e+18
14480.0	1.3296824064409595e+18
14481.0	1.329484774191923e+18
14482.0	1.3292652418039805e+18
14483.0	1.3290441491349501e+18
14484.0	1.328812245227929e+18
14485.0	1.328549545063219e+18
14486.0	1.3282525069705213e+18
14487.0	1.3281576284585984e+18
14488.0	1.3279727938699261e+18
14489.0	1.3277671882489853e+18
14490.0	1.327557356447334e+18
14491.0	1.327346195051315e+18
14492.0	1.3271333978767357e+18
14493.0	1.3269120250281981e+18
14494.0	1.3266747440234493e+18
14495.0	1.3264647637434365e+18
14496.0	1.3262139779186685e+18
14497.0	1.326042269823795e+18
14498.0	1.3258433734115325e+18
14499.0	1.3256335877472253e+18
14500.0	1.3254134270525437e+18
14501.0	1.3251482405044221e+18
14502.0	1.324820042088448e+18
14503.0	1.3247472390373373e+18
14504.0	1.3245523448299517e+18
14505.0	1.3243384126767101e+18
14506.0	1.3240870455214077e+18
14507.0	1.323796643656499e+18
14508.0	1.3236750398783485e+18
14509.0	1.3234864060891133e+18
14510.0	1.3232733857775613e+18
14511.0	1.3230602991960061e+18
14512.0	1.3228380405104637e+18
14513.0	1.3226059294048253e+18
14514.0	1.3223416798642173e+18
14515.0	1.3219124272431101e+18
14516.0	1.3197256203173888e+18
14517.0	1.321179073321369e+18
14518.0	1.3214670995324923e+18
14519.0	1.3213102795390973e+18
14520.0	1.321139656930099e+18
14521.0	1.320939014009651e+18
14522.0	1.320732016718643e+18
14523.0	1.3205215155060733e+18
14524.0	1.320307918058291e+18
14525.0	1.3200960788627453e+18
14526.0	1.3198758896467965e+18
14527.0	1.3196113632821245e+18
14528.0	1.3193669687377917e+18
14529.0	1.3192349219815421e+18
14530.0	1.3190279070744573e+18
14531.0	1.3188278186409981e+18
14532.0	1.3186183039287293e+18
14533.0	1.3184067516235773e+18
14534.0	1.3181963821121533e+18
14535.0	1.3179747198566397e+18
14536.0	1.3177689615630336e+18
14537.0	1.317554743358259e+18
14538.0	1.3173492023295997e+18
14539.0	1.3171368363294717e+18
14540.0	1.3169254895452157e+18
14541.0	1.316690829980467e+18
14542.0	1.3164969197567997e+18
14543.0	1.3162702671183872e+18
14544.0	1.3160598414032893e+18
14545.0	1.315812837163008e+18
14546.0	1.3151685509644283e+18
14547.0	1.3149076115685373e+18
14548.0	1.3151358102274045e+18
14549.0	1.314928348207513e+18
14550.0	1.314766562158182e+18
14551.0	1.314585444561715e+18
14552.0	1.3143732303953917e+18
14553.0	1.3141589937356797e+18
14554.0	1.3139557654462461e+18
14555.0	1.3137375936905213e+18
14556.0	1.3135101860773885e+18
14557.0	1.3132559038808061e+18
14558.0	1.3128076611289085e+18
14559.0	1.311194420242022e+18
14560.0	1.312370961101619e+18
14561.0	1.3124058174455808e+18
14562.0	1.3122168799887357e+18
14563.0	1.3120473780977661e+18
14564.0	1.3118192364814333e+18
14565.0	1.311638765646643e+18
14566.0	1.3114285202866173e+18
14567.0	1.3112131033497597e+18
14568.0	1.310986207441715e+18
14569.0	1.310697538663219e+18
14570.0	1.3101337185091584e+18
14571.0	1.3103014512427008e+18
14572.0	1.3101249465417725e+18
14573.0	1.3099137809514493e+18
14574.0	1.309742847963955e+18
14575.0	1.3095399241809917e+18
14576.0	1.3093286336004093e+18
14577.0	1.3091131227111421e+18
14578.0	1.3089122507816957e+18
14579.0	1.3087036437168125e+18
14580.0	1.3084945585012733e+18
14581.0	1.3082839801135101e+18
14582.0	1.308075096224563e+18
14583.0	1.3078641042784253e+18
14584.0	1.3076516913020925e+18
14585.0	1.3074445363052541e+18
14586.0	1.3072351558107133e+18
14587.0	1.3070256293543933e+18
14588.0	1.306816703522406e+18
14589.0	1.3066065705697277e+18
14590.0	1.3063943824080893e+18
14591.0	1.3061773758300157e+18
14592.0	1.3059480396759037e+18
14593.0	1.305709529740083e+18
14594.0	1.3055358830379008e+18
14595.0	1.305336022774579e+18
14596.0	1.3051151473704957e+18
14597.0	1.3049075754598397e+18
14598.0	1.3047135268241408e+18
14599.0	1.304511577797427e+18
14600.0	1.3043039580717053e+18
14601.0	1.3040936305033216e+18
14602.0	1.3038811118305277e+18
14603.0	1.3036718202552317e+18
14604.0	1.3034447431532544e+18
14605.0	1.3032212580532221e+18
14606.0	1.3029272205656061e+18
14607.0	1.3028361857138685e+18
14608.0	1.3026079686000637e+18
14609.0	1.3023892993998845e+18
14610.0	1.302179687379763e+18
14611.0	1.3019574857367552e+18
14612.0	1.3017952223756285e+18
14613.0	1.301588129454489e+18
14614.0	1.3013533432217595e+18
14615.0	1.3011510645227517e+18
14616.0	1.3009611883806717e+18
14617.0	1.300696271106867e+18
14618.0	1.3004966591463421e+18
14619.0	1.3003072057901053e+18
14620.0	1.3000953422675965e+18
14621.0	1.2999088777723901e+18
14622.0	1.2997004376408061e+18
14623.0	1.299493359819161e+18
14624.0	1.2992700886286336e+18
14625.0	1.2990724723179517e+18
14626.0	1.2988520071168e+18
14627.0	1.2986477747109885e+18
14628.0	1.2984608714915837e+18
14629.0	1.2982552339939325e+18
14630.0	1.2980276141490173e+18
14631.0	1.297816888960614e+18
14632.0	1.297575630077952e+18
14633.0	1.2974047230951421e+18
14634.0	1.2972125904175101e+18
14635.0	1.2970040043241467e+18
14636.0	1.2967879741800445e+18
14637.0	1.2965908922236925e+18
14638.0	1.296379224994611e+18
14639.0	1.2961672280932352e+18
14640.0	1.2959508548550653e+18
14641.0	1.295708702585651e+18
14642.0	1.295535642247168e+18
14643.0	1.2953394519998461e+18
14644.0	1.2951208784297981e+18
14645.0	1.2948931562438653e+18
14646.0	1.2946897576656893e+18
14647.0	1.2945056528859133e+18
