# Flux units: erg / (cm m2 s)
# Wavelength units: Angstrom
wave	flux
14000.0	2.1961925919244283e+18
14001.0	2.195632917420441e+18
14002.0	2.1951278426882045e+18
14003.0	2.19458995004375e+18
14004.0	2.1940455562280955e+18
14005.0	2.1935122806734845e+18
14006.0	2.192970574567833e+18
14007.0	2.192431188751155e+18
14008.0	2.1918180117053437e+18
14009.0	2.1913684880130045e+18
14010.0	2.1908202790584317e+18
14011.0	2.1898503361921024e+18
14012.0	2.1897627641577467e+18
14013.0	2.1892287386615803e+18
14014.0	2.1886878244405245e+18
14015.0	2.1881575486521336e+18
14016.0	2.1876236204638205e+18
14017.0	2.1870898902466557e+18
14018.0	2.18655345386455e+18
14019.0	2.1860231310999547e+18
14020.0	2.185487370839654e+18
14021.0	2.1849483725766653e+18
14022.0	2.1844018245664768e+18
14023.0	2.1837955999989755e+18
14024.0	2.1833074031460347e+18
14025.0	2.1828098295070717e+18
14026.0	2.1822770656575483e+18
14027.0	2.181743508245708e+18
14028.0	2.181207784895283e+18
14029.0	2.1806748851503096e+18
14030.0	2.1769536533430295e+18
14031.0	2.1795864817172475e+18
14032.0	2.1790803835748347e+18
14033.0	2.1784724343095293e+18
14034.0	2.1780161896644603e+18
14035.0	2.177487459057664e+18
14036.0	2.1769521182277627e+18
14037.0	2.1764118969057275e+18
14038.0	2.1758972390277115e+18
14039.0	2.1753629518069752e+18
14040.0	2.174825483626086e+18
14041.0	2.1742918490390525e+18
14042.0	2.1737567397347325e+18
14043.0	2.1732036821647355e+18
14044.0	2.1726972736438267e+18
14045.0	2.1721719974658045e+18
14046.0	2.1716397537099773e+18
14047.0	2.1710961752670205e+18
14048.0	2.17057907965952e+18
14049.0	2.170057449170534e+18
14050.0	2.1695285776351224e+18
14051.0	2.1689888176865277e+18
14052.0	2.168466470810419e+18
14053.0	2.167941109068595e+18
14054.0	2.1674142860312568e+18
14055.0	2.1668823140663293e+18
14056.0	2.1663580025782267e+18
14057.0	2.1658294883975163e+18
14058.0	2.1653019422621693e+18
14059.0	2.164771364483891e+18
14060.0	2.164247160369971e+18
14061.0	2.1637144653070336e+18
14062.0	2.1631932408266747e+18
14063.0	2.1626475249663995e+18
14064.0	2.161727024555622e+18
14065.0	2.1615955549356024e+18
14066.0	2.1610720906969083e+18
14067.0	2.160435920476569e+18
14068.0	2.1600219795816443e+18
14069.0	2.1594874239254525e+18
14070.0	2.1589694441586683e+18
14071.0	2.1584423392641024e+18
14072.0	2.157917475805593e+18
14073.0	2.1573895421165565e+18
14074.0	2.1568692705820667e+18
14075.0	2.1563248734109693e+18
14076.0	2.155698746032128e+18
14077.0	2.1544940160942077e+18
14078.0	2.154706402226995e+18
14079.0	2.1542360580095995e+18
14080.0	2.153721393420697e+18
14081.0	2.1531971372974077e+18
14082.0	2.1526455896768504e+18
14083.0	2.1521476771381245e+18
14084.0	2.15162563896279e+18
14085.0	2.1503489381236728e+18
14086.0	2.1505162891755517e+18
14087.0	2.1500559156576253e+18
14088.0	2.149506939984281e+18
14089.0	2.14889519906816e+18
14090.0	2.1484603420180475e+18
14091.0	2.1479538160566267e+18
14092.0	2.1474300699607037e+18
14093.0	2.1469090635841533e+18
14094.0	2.1463870388305915e+18
14095.0	2.145865212048179e+18
14096.0	2.1451719506395133e+18
14097.0	2.1447359225397243e+18
14098.0	2.1442060963807224e+18
14099.0	2.1437781364441083e+18
14100.0	2.1432364185944061e+18
14101.0	2.1427372578308093e+18
14102.0	2.1422138405683195e+18
14103.0	2.1416857676283901e+18
14104.0	2.1411725945339901e+18
14105.0	2.140645719487283e+18
14106.0	2.14013442040791e+18
14107.0	2.1395887213248504e+18
14108.0	2.1390729628614656e+18
14109.0	2.1385700104470525e+18
14110.0	2.138024480813875e+18
14111.0	2.1374752199278587e+18
14112.0	2.1370024430141437e+18
14113.0	2.1364261942984701e+18
14114.0	2.1359487415746555e+18
14115.0	2.1354438614581245e+18
14116.0	2.1346454471704568e+18
14117.0	2.1294711473963028e+18
14118.0	2.133886865349017e+18
14119.0	2.13327887246295e+18
14120.0	2.1327664610541563e+18
14121.0	2.1323088473882621e+18
14122.0	2.1317292532957181e+18
14123.0	2.131121042305843e+18
14124.0	2.1305681508302845e+18
14125.0	2.1298860345262075e+18
14126.0	2.1296990994300925e+18
14127.0	2.1292319546277883e+18
14128.0	2.1287160636243963e+18
14129.0	2.1281904116367352e+18
14130.0	2.127663142325452e+18
14131.0	2.1271572639645693e+18
14132.0	2.1266449817403387e+18
14133.0	2.1256935726645228e+18
14134.0	2.1256193200619517e+18
14135.0	2.1250673580441592e+18
14136.0	2.1241515384766464e+18
14137.0	2.12406542270464e+18
14138.0	2.123476629664563e+18
14139.0	2.123042145068646e+18
14140.0	2.122479660380979e+18
14141.0	2.1220008872902653e+18
14142.0	2.1209743766847488e+18
14143.0	2.1208841186181117e+18
14144.0	2.120469397582643e+18
14145.0	2.1199546155532283e+18
14146.0	2.1194321965350904e+18
14147.0	2.1189133040877565e+18
14148.0	2.1183693632569336e+18
14149.0	2.1178354468126717e+18
14150.0	2.1173742881210365e+18
14151.0	2.116785833980723e+18
14152.0	2.1163479201218555e+18
14153.0	2.115836511990579e+18
14154.0	2.1153008255500283e+18
14155.0	2.113186062506395e+18
14156.0	2.1142304559464438e+18
14157.0	2.113781633541734e+18
14158.0	2.1132471147954173e+18
14159.0	2.1127604413136893e+18
14160.0	2.1122483922927616e+18
14161.0	2.1116813878231037e+18
14162.0	2.1111369453535224e+18
14163.0	2.1107129716834301e+18
14164.0	2.1100054848733181e+18
14165.0	2.10920609415168e+18
14166.0	2.1091742895833083e+18
14167.0	2.1086572375965693e+18
14168.0	2.1081132514672637e+18
14169.0	2.1076452241833981e+18
14170.0	2.1071105980628987e+18
14171.0	2.1066070567682045e+18
14172.0	2.1061182341251067e+18
14173.0	2.105392260500685e+18
14174.0	2.1050839825121275e+18
14175.0	2.1045865162473467e+18
14176.0	2.1040451456860155e+18
14177.0	2.1035602975653883e+18
14178.0	2.1030549258764283e+18
14179.0	2.102505171740262e+18
14180.0	2.1020426775822333e+18
14181.0	2.1015342507622397e+18
14182.0	2.1010251629199355e+18
14183.0	2.1005119411716093e+18
14184.0	2.0999941744754683e+18
14185.0	2.099488069622169e+18
14186.0	2.0979721458155525e+18
14187.0	2.0984533901901821e+18
14188.0	2.0979629753892861e+18
14189.0	2.0974442809131e+18
14190.0	2.0969428787134461e+18
14191.0	2.09643107296215e+18
14192.0	2.0959281624907773e+18
14193.0	2.0952571896135677e+18
14194.0	2.094912003427532e+18
14195.0	2.0944163742679037e+18
14196.0	2.0939096604016637e+18
14197.0	2.0934019130589184e+18
14198.0	2.0928930399649787e+18
14199.0	2.092378465973043e+18
14200.0	2.0913024642580483e+18
14201.0	2.091370331452211e+18
14202.0	2.0908713820815357e+18
14203.0	2.0903158549053435e+18
14204.0	2.0898497821671421e+18
14205.0	2.0893547234328573e+18
14206.0	2.088749109556019e+18
14207.0	2.088347298588262e+18
14208.0	2.0878426432864253e+18
14209.0	2.0872195509059576e+18
14210.0	2.0867655862845435e+18
14211.0	2.0863231576768504e+18
14212.0	2.0858245052628984e+18
14213.0	2.085296886985523e+18
14214.0	2.0848168203714557e+18
14215.0	2.0842975940575227e+18
14216.0	2.0838086103531515e+18
14217.0	2.0833065823633403e+18
14218.0	2.0827927868342272e+18
14219.0	2.0822987280220157e+18
14220.0	2.0817934049869821e+18
14221.0	2.081270366889574e+18
14222.0	2.0806096415358973e+18
14223.0	2.0802738120032256e+18
14224.0	2.0797765118328827e+18
14225.0	2.0777205143437322e+18
14226.0	2.0787711623299072e+18
14227.0	2.0782694111641597e+18
14228.0	2.0744134331465743e+18
14229.0	2.0768595831160799e+18
14230.0	2.0767656558723064e+18
14231.0	2.076088691851264e+18
14232.0	2.0757630628659197e+18
14233.0	2.0752544263307261e+18
14234.0	2.074761013441331e+18
14235.0	2.0742578915770365e+18
14236.0	2.0737556907819005e+18
14237.0	2.073253785265766e+18
14238.0	2.0727543376117755e+18
14239.0	2.072236666545766e+18
14240.0	2.0707045057495043e+18
14241.0	2.071246522233651e+18
14242.0	2.0707552031408125e+18
14243.0	2.0701322835656707e+18
14244.0	2.069760109549977e+18
14245.0	2.0692432857333755e+18
14246.0	2.0687279467003901e+18
14247.0	2.0682566646366205e+18
14248.0	2.0677518264631293e+18
14249.0	2.067260455360921e+18
14250.0	2.066764279264051e+18
14251.0	2.0662664740995067e+18
14252.0	2.0657690833321981e+18
14253.0	2.0652667181203448e+18
14254.0	2.0647712684769275e+18
14255.0	2.0642523928068093e+18
14256.0	2.0625985535737866e+18
14257.0	2.0632655586394102e+18
14258.0	2.06278277243863e+18
14259.0	2.0622441382412283e+18
14260.0	2.061754730073292e+18
14261.0	2.0612709204623355e+18
14262.0	2.0607970362523643e+18
14263.0	2.0585605444403208e+18
14264.0	2.0595607802478587e+18
14265.0	2.0592550842728443e+18
14266.0	2.0588099931209725e+18
14267.0	2.0583135334891515e+18
14268.0	2.0578159212625915e+18
14269.0	2.0573149955358715e+18
14270.0	2.0568268523700221e+18
14271.0	2.0563228429910016e+18
14272.0	2.0558266501169147e+18
14273.0	2.0553304857640952e+18
14274.0	2.0523315584040978e+18
14275.0	2.0541138792349693e+18
14276.0	2.053794046777753e+18
14277.0	2.0533240817254392e+18
14278.0	2.0528572573679608e+18
14279.0	2.0523621801787387e+18
14280.0	2.0518620698247165e+18
14281.0	2.0513744484302843e+18
14282.0	2.0508806966411261e+18
14283.0	2.0503868391555072e+18
14284.0	2.0498930705891325e+18
14285.0	2.0493989463457787e+18
14286.0	2.0488995624452093e+18
14287.0	2.0484105233760256e+18
14288.0	2.0479182278492155e+18
14289.0	2.0467533404438505e+18
14290.0	2.0469221276254203e+18
14291.0	2.0464394454433787e+18
14292.0	2.0459465744580605e+18
14293.0	2.0454545188454397e+18
14294.0	2.0448411337621501e+18
14295.0	2.0444525684064253e+18
14296.0	2.043432295569818e+18
14297.0	2.0434884019355645e+18
14298.0	2.0423414309191675e+18
14299.0	2.0424657685446648e+18
14300.0	2.042005999006515e+18
14301.0	2.0415087240019968e+18
14302.0	2.041028222858035e+18
14303.0	2.04050024890368e+18
14304.0	2.040035538475417e+18
14305.0	2.0395513195003896e+18
14306.0	2.038923604996915e+18
14307.0	2.0385254296518653e+18
14308.0	2.0380684115771387e+18
14309.0	2.037554911327027e+18
14310.0	2.036476783938764e+18
14311.0	2.0356997102698493e+18
14312.0	2.0359178274996221e+18
14313.0	2.03555248013312e+18
14314.0	2.0351073269055483e+18
14315.0	2.0346431818694648e+18
14316.0	2.03412321903575e+18
14317.0	2.0334954223239163e+18
14318.0	2.0331898270121976e+18
14319.0	2.0327025931714555e+18
14320.0	2.03221468488663e+18
14321.0	2.031723620807475e+18
14322.0	2.0311995173568507e+18
14323.0	2.030739288122982e+18
14324.0	2.0302463735169021e+18
14325.0	2.0297658035863547e+18
14326.0	2.0292876797739005e+18
14327.0	2.028791045659033e+18
14328.0	2.0282959466594301e+18
14329.0	2.027815896822579e+18
14330.0	2.027328493531955e+18
14331.0	2.0268185500516347e+18
14332.0	2.0263530125066235e+18
14333.0	2.025867593960652e+18
14334.0	2.0253814271508472e+18
14335.0	2.0248718074707963e+18
14336.0	2.0242177963589627e+18
14337.0	2.0239186904743933e+18
14338.0	2.0234318307655677e+18
14339.0	2.0229292038291456e+18
14340.0	2.0224643340173312e+18
14341.0	2.0219611819540475e+18
14342.0	2.0214899502219256e+18
14343.0	2.0209854073274363e+18
14344.0	2.0205071476195328e+18
14345.0	2.0200383234179064e+18
14346.0	2.019549339713536e+18
14347.0	2.0189872744562683e+18
14348.0	2.018579527709491e+18
14349.0	2.0181013032337405e+18
14350.0	2.017488434888703e+18
14351.0	2.0169952904347645e+18
14352.0	2.016638860158566e+18
14353.0	2.0161611725537275e+18
14354.0	2.0156638405066747e+18
14355.0	2.015157135029043e+18
14356.0	2.0146865710301181e+18
14357.0	2.0142274809692155e+18
14358.0	2.0137441813856253e+18
14359.0	2.0132464382967805e+18
14360.0	2.012768401725849e+18
14361.0	2.0122927995289597e+18
14362.0	2.011812602052608e+18
14363.0	2.011329584326246e+18
14364.0	2.0103587153575933e+18
14365.0	2.0103067479310328e+18
14366.0	2.0098113586855936e+18
14367.0	2.0094007329685507e+18
14368.0	2.0089186212118525e+18
14369.0	2.00843843380183e+18
14370.0	2.0079561022636027e+18
14371.0	2.0074762755637245e+18
14372.0	2.0069847283007483e+18
14373.0	2.0065121762017275e+18
14374.0	2.0060300057247736e+18
14375.0	2.005549737784115e+18
14376.0	2.0050705704288253e+18
14377.0	2.004589638110412e+18
14378.0	2.0041073065721853e+18
14379.0	2.0036290820964347e+18
14380.0	2.00314853565399e+18
14381.0	2.0026574732525565e+18
14382.0	2.0021861609897981e+18
14383.0	2.001673368738201e+18
14384.0	2.0012078932688893e+18
14385.0	2.0007491823730683e+18
14386.0	2.0002533099438077e+18
14387.0	1.9997886817239035e+18
14388.0	1.9993068417581048e+18
14389.0	1.998831182518681e+18
14390.0	1.998351087383347e+18
14391.0	1.9978624056688635e+18
14392.0	1.9973647816982525e+18
14393.0	1.9969050104823805e+18
14394.0	1.9963927014146043e+18
14395.0	1.995628948855193e+18
14396.0	1.995454106776371e+18
14397.0	1.9949920085606392e+18
14398.0	1.994497375967641e+18
14399.0	1.9940241762680832e+18
14400.0	1.9933467307409405e+18
14401.0	1.993071998795776e+18
14402.0	1.9925993292562427e+18
14403.0	1.985499015151604e+18
14404.0	1.9749725888577508e+18
14405.0	1.9902098694995922e+18
14406.0	1.9906938418495488e+18
14407.0	1.979971430829266e+18
14408.0	1.9896038580027387e+18
14409.0	1.9892490383392765e+18
14410.0	1.9887513942360064e+18
14411.0	1.9883001693339645e+18
14412.0	1.9878330564083707e+18
14413.0	1.9873602912387064e+18
14414.0	1.9868830817845243e+18
14415.0	1.986409135498854e+18
14416.0	1.9859012824596477e+18
14417.0	1.9853251763503101e+18
14418.0	1.9848689870700544e+18
14419.0	1.9845069666254843e+18
14420.0	1.9840279771086845e+18
14421.0	1.983556351111987e+18
14422.0	1.983076531122995e+18
14423.0	1.982590627715481e+18
14424.0	1.9448468762263322e+18
14425.0	1.9816508267954173e+18
14426.0	1.981183317927526e+18
14427.0	1.9807106047672312e+18
14428.0	1.980204258322022e+18
14429.0	1.9797610613178365e+18
14430.0	1.979289505785446e+18
14431.0	1.978090528754893e+18
14432.0	1.978304285586227e+18
14433.0	1.9701794976301005e+18
14434.0	1.9773819967242235e+18
14435.0	1.9768006242467835e+18
14436.0	1.976450062640742e+18
14437.0	1.9759776313376765e+18
14438.0	1.9752131204481024e+18
14439.0	1.9749708557713403e+18
14440.0	1.974559139535257e+18
14441.0	1.9740825894256637e+18
14442.0	1.973607839511347e+18
14443.0	1.9731054927544317e+18
14444.0	1.9726670319583232e+18
14445.0	1.9721985684668416e+18
14446.0	1.9636932245979172e+18
14447.0	1.971242812414361e+18
14448.0	1.9707837408083963e+18
14449.0	1.9703125325643779e+18
14450.0	1.9698366719983616e+18
14451.0	1.9693675206410237e+18
14452.0	1.968893425038131e+18
14453.0	1.968257107178291e+18
14454.0	1.9679521426898941e+18
14455.0	1.9674793288663037e+18
14456.0	1.9669737692725245e+18
14457.0	1.966479619863347e+18
14458.0	1.9659263878103037e+18
14459.0	1.965555755620761e+18
14460.0	1.965112677734809e+18
14461.0	1.9645236280033277e+18
14462.0	1.9633721690816512e+18
14463.0	1.9636684094177275e+18
14464.0	1.9632414192041981e+18
14465.0	1.962767472918528e+18
14466.0	1.962309211652096e+18
14467.0	1.9617238025764861e+18
14468.0	1.9613649463148541e+18
14469.0	1.9608475738832893e+18
14470.0	1.9604074957635581e+18
14471.0	1.959946639061811e+18
14472.0	1.9594839284776955e+18
14473.0	1.95902609335255e+18
14474.0	1.958560379646771e+18
14475.0	1.958084128171622e+18
14476.0	1.9571094558081024e+18
14477.0	1.9571536469950461e+18
14478.0	1.9566846768316416e+18
14479.0	1.9562087307018237e+18
14480.0	1.9557391028715515e+18
14481.0	1.9552876279889915e+18
14482.0	1.9548174431551483e+18
14483.0	1.9543425959329787e+18
14484.0	1.9538831317401592e+18
14485.0	1.9533832176795643e+18
14486.0	1.9527095302488061e+18
14487.0	1.9524784173875197e+18
14488.0	1.9517697561722877e+18
14489.0	1.9514701452935163e+18
14490.0	1.9510637491126272e+18
14491.0	1.9506212802396155e+18
14492.0	1.950147461460787e+18
14493.0	1.9496558319894525e+18
14494.0	1.94919737107415e+18
14495.0	1.9487589018894333e+18
14496.0	1.9481815978868733e+18
14497.0	1.9478263856365565e+18
14498.0	1.9473596317433853e+18
14499.0	1.9468976073474045e+18
14500.0	1.946432281195315e+18
14501.0	1.9457133724565501e+18
14502.0	1.9449824310984707e+18
14503.0	1.9449659156070397e+18
14504.0	1.9445673661300733e+18
14505.0	1.9438690732343288e+18
14506.0	1.943092070029721e+18
14507.0	1.94298028008407e+18
14508.0	1.9427152369811453e+18
14509.0	1.9422505684959224e+18
14510.0	1.9417855510446075e+18
14511.0	1.9413237279752187e+18
14512.0	1.940844587463475e+18
14513.0	1.9403952667754493e+18
14514.0	1.9398533945753597e+18
14515.0	1.9394622941822973e+18
14516.0	1.9373879524851722e+18
14517.0	1.9385421075054587e+18
14518.0	1.9380785748377597e+18
14519.0	1.937614617706496e+18
14520.0	1.9371526134431741e+18
14521.0	1.9366852689919997e+18
14522.0	1.9362088111570941e+18
14523.0	1.935098932887551e+18
14524.0	1.9347033362006008e+18
14525.0	1.9348348779626493e+18
14526.0	1.9343723754160125e+18
14527.0	1.9338607877685243e+18
14528.0	1.9332270905098237e+18
14529.0	1.932981985450393e+18
14530.0	1.9325119365119997e+18
14531.0	1.9320648874590205e+18
14532.0	1.9306930061180928e+18
14533.0	1.9311426220851197e+18
14534.0	1.9306824985477115e+18
14535.0	1.9302100152352765e+18
14536.0	1.9297555825295355e+18
14537.0	1.9292850151751677e+18
14538.0	1.928834718053171e+18
14539.0	1.9283754753196027e+18
14540.0	1.9279156504166397e+18
14541.0	1.927433391020441e+18
14542.0	1.926991589880627e+18
14543.0	1.926167021590937e+18
14544.0	1.9260711716782077e+18
14545.0	1.9255985004609533e+18
14546.0	1.8917305610141524e+18
14547.0	1.8947403767873316e+18
14548.0	1.9242193579409405e+18
14549.0	1.923673247816089e+18
14550.0	1.923303956126105e+18
14551.0	1.9228524325896187e+18
14552.0	1.9223823400304637e+18
14553.0	1.9219175524270077e+18
14554.0	1.921473368922521e+18
14555.0	1.9210114820997115e+18
14556.0	1.9205385156034555e+18
14557.0	1.9200940670189565e+18
14558.0	1.9196319788695547e+18
14559.0	1.9175515873083346e+18
14560.0	1.9183159388143608e+18
14561.0	1.9182434813739005e+18
14562.0	1.9177507060187133e+18
14563.0	1.91733051728855e+18
14564.0	1.9167846068125693e+18
14565.0	1.9164172075925496e+18
14566.0	1.915958689634713e+18
14567.0	1.915495116701696e+18
14568.0	1.9147512048779261e+18
14569.0	1.9145764148084733e+18
14570.0	1.9136282907115517e+18
14571.0	1.9136632712069115e+18
14572.0	1.9130672354426875e+18
14573.0	1.9126841025495037e+18
14574.0	1.912048400413491e+18
14575.0	1.9118071641800704e+18
14576.0	1.9113559342448637e+18
14577.0	1.910912368141926e+18
14578.0	1.9104598883041277e+18
14579.0	1.9100035966828541e+18
14580.0	1.9095464745893888e+18
14581.0	1.909054123697766e+18
14582.0	1.908624858493747e+18
14583.0	1.908176170306764e+18
14584.0	1.907691404394496e+18
14585.0	1.9072617348595707e+18
14586.0	1.9068021330935803e+18
14587.0	1.9063360553222136e+18
14588.0	1.905887670802841e+18
14589.0	1.905452637591961e+18
14590.0	1.9050152840921083e+18
14591.0	1.9045610107699197e+18
14592.0	1.9041303513792512e+18
14593.0	1.903598567319142e+18
14594.0	1.9032602967015421e+18
14595.0	1.9028179234586621e+18
14596.0	1.901995732500479e+18
14597.0	1.9015393066614774e+18
14598.0	1.9014814302994427e+18
14599.0	1.9010723849961464e+18
14600.0	1.9006186636443643e+18
14601.0	1.9001884471721981e+18
14602.0	1.8996873519955965e+18
14603.0	1.8992919784456187e+18
14604.0	1.8988005503008765e+18
14605.0	1.89832105075671e+18
14606.0	1.897870996904345e+18
14607.0	1.897567483645132e+18
14608.0	1.8971228941320187e+18
14609.0	1.896616530909593e+18
14610.0	1.8960353899577336e+18
14611.0	1.8957884578594808e+18
14612.0	1.8953796558258173e+18
14613.0	1.894947778409267e+18
14614.0	1.8945077388771325e+18
14615.0	1.8940084707393533e+18
14616.0	1.8936379274690555e+18
14617.0	1.8932002518466555e+18
14618.0	1.8926380607602683e+18
14619.0	1.892107167570328e+18
14620.0	1.8907794807717888e+18
14621.0	1.891452396450611e+18
14622.0	1.8910125716668413e+18
14623.0	1.8905782414213117e+18
14624.0	1.8900913330585592e+18
14625.0	1.8897005011009533e+18
14626.0	1.8892479927418877e+18
14627.0	1.8887965967122427e+18
14628.0	1.888392185276006e+18
14629.0	1.8879548116434941e+18
14630.0	1.887510186898227e+18
14631.0	1.8870731102224381e+18
14632.0	1.8832330219061266e+18
14633.0	1.88578403618652e+18
14634.0	1.885748587606835e+18
14635.0	1.8839180708675484e+18
14636.0	1.879801148420914e+18
14637.0	1.8844557135314941e+18
14638.0	1.8839778212446205e+18
14639.0	1.8835579294711805e+18
14640.0	1.8831386601324541e+18
14641.0	1.8701113280692124e+18
14642.0	1.8822627753721856e+18
14643.0	1.881824994053324e+18
14644.0	1.8813720763301888e+18
14645.0	1.8809271663722493e+18
14646.0	1.8803782544523261e+18
14647.0	1.8799524487102461e+18
14648.0	1.8796215265132541e+18
