# Flux units: erg / (cm m2 s)
# Wavelength units: Angstrom
wave	flux
14000.0	2.5191016181006326e+18
14001.0	2.5187301051072507e+18
14002.0	2.5182072280711163e+18
14003.0	2.5176534708912123e+18
14004.0	2.5170978296299515e+18
14005.0	2.5165415172800507e+18
14006.0	2.515981559241113e+18
14007.0	2.515422782318182e+18
14008.0	2.514818983736115e+18
14009.0	2.5143117799751675e+18
14010.0	2.513749666063974e+18
14011.0	2.512910573738393e+18
14012.0	2.5126451766362107e+18
14013.0	2.5120919999479803e+18
14014.0	2.5115330233761787e+18
14015.0	2.5109799708393467e+18
14016.0	2.510425831138918e+18
14017.0	2.5098707233931264e+18
14018.0	2.509315504917709e+18
14019.0	2.5087605901099003e+18
14020.0	2.508205156886118e+18
14021.0	2.5076495609233403e+18
14022.0	2.507090784000409e+18
14023.0	2.5065187799203835e+18
14024.0	2.5059703998382075e+18
14025.0	2.5054310425427963e+18
14026.0	2.5048774984335355e+18
14027.0	2.504324301612646e+18
14028.0	2.503768940530893e+18
14029.0	2.5032061991518203e+18
14030.0	2.500772259640116e+18
14031.0	2.5019821720600566e+18
14032.0	2.5015452950331387e+18
14033.0	2.500960276866662e+18
14034.0	2.500436478761369e+18
14035.0	2.4998873386713083e+18
14036.0	2.4993275618263035e+18
14037.0	2.4987844078469115e+18
14038.0	2.498232606890393e+18
14039.0	2.4976807975452667e+18
14040.0	2.497125062331596e+18
14041.0	2.496575642062029e+18
14042.0	2.4960196501569536e+18
14043.0	2.4954550364405755e+18
14044.0	2.494918116874649e+18
14045.0	2.4943699498631163e+18
14046.0	2.493816638957158e+18
14047.0	2.4932585415114747e+18
14048.0	2.4927177078210555e+18
14049.0	2.492168495588966e+18
14050.0	2.4916182716907515e+18
14051.0	2.4910634290249723e+18
14052.0	2.4905176712216576e+18
14053.0	2.4899679472844795e+18
14054.0	2.4894181663047675e+18
14055.0	2.4888684490784763e+18
14056.0	2.4883188593590267e+18
14057.0	2.4877694189568e+18
14058.0	2.487220097672806e+18
14059.0	2.486666889107865e+18
14060.0	2.486121673208627e+18
14061.0	2.485569704479949e+18
14062.0	2.4850237638049787e+18
14063.0	2.4844645708070907e+18
14064.0	2.4836665306513403e+18
14065.0	2.483373790042521e+18
14066.0	2.482830335750963e+18
14067.0	2.4822553100943355e+18
14068.0	2.481734203054489e+18
14069.0	2.4811834942947323e+18
14070.0	2.4806372583407606e+18
14071.0	2.480089987232563e+18
14072.0	2.479544100244685e+18
14073.0	2.478996785515725e+18
14074.0	2.47844932985815e+18
14075.0	2.477890160348365e+18
14076.0	2.4773228605997056e+18
14077.0	2.4763690288939003e+18
14078.0	2.476227288262246e+18
14079.0	2.4757095064666107e+18
14080.0	2.475169295210905e+18
14081.0	2.474623851141529e+18
14082.0	2.4740755817889787e+18
14083.0	2.4735305672163323e+18
14084.0	2.4729798634897403e+18
14085.0	2.4720741320622075e+18
14086.0	2.4718513222451195e+18
14087.0	2.47134749238231e+18
14088.0	2.4707923393380347e+18
14089.0	2.47023507907543e+18
14090.0	2.469711269226086e+18
14091.0	2.4691703264837627e+18
14092.0	2.4686263302881275e+18
14093.0	2.4680815774400507e+18
14094.0	2.467535908555981e+18
14095.0	2.4669866812243963e+18
14096.0	2.466380428135629e+18
14097.0	2.4658542174666747e+18
14098.0	2.465325819048754e+18
14099.0	2.4648137314402304e+18
14100.0	2.464268577616691e+18
14101.0	2.4637322553196544e+18
14102.0	2.4631895006380027e+18
14103.0	2.4626404830216187e+18
14104.0	2.462104222800281e+18
14105.0	2.4615612651143163e+18
14106.0	2.461018943284838e+18
14107.0	2.460475596367462e+18
14108.0	2.45992623481815e+18
14109.0	2.4593883555954683e+18
14110.0	2.458844694944153e+18
14111.0	2.4582998447882235e+18
14112.0	2.4577590261972987e+18
14113.0	2.4572076228607995e+18
14114.0	2.456668473602867e+18
14115.0	2.456123633513267e+18
14116.0	2.455487045540249e+18
14117.0	2.451778309403443e+18
14118.0	2.454475354249625e+18
14119.0	2.4539113143140347e+18
14120.0	2.453386630371737e+18
14121.0	2.45287184498688e+18
14122.0	2.4523348784447483e+18
14123.0	2.4517664193904635e+18
14124.0	2.4512240237412347e+18
14125.0	2.4504735956467707e+18
14126.0	2.450175739664793e+18
14127.0	2.4496539028160507e+18
14128.0	2.4491152635854843e+18
14129.0	2.44856986313687e+18
14130.0	2.448024486176358e+18
14131.0	2.4474963964592123e+18
14132.0	2.446951809705574e+18
14133.0	2.4461245688053755e+18
14134.0	2.445875217432576e+18
14135.0	2.4453105751949307e+18
14136.0	2.444739753908633e+18
14137.0	2.444247305709158e+18
14138.0	2.4436966120488955e+18
14139.0	2.44318391542743e+18
14140.0	2.4426361040928763e+18
14141.0	2.4420420681727995e+18
14142.0	2.441379671808409e+18
14143.0	2.441018374461849e+18
14144.0	2.440499460204134e+18
14145.0	2.439966375909785e+18
14146.0	2.439425961649766e+18
14147.0	2.4388915955761147e+18
14148.0	2.4383487419088896e+18
14149.0	2.437809944972493e+18
14150.0	2.4372870662586363e+18
14151.0	2.4367312941350907e+18
14152.0	2.436215255492198e+18
14153.0	2.435679270417202e+18
14154.0	2.435127085262438e+18
14155.0	2.4345603643277307e+18
14156.0	2.4340633560809467e+18
14157.0	2.433536071670169e+18
14158.0	2.432998486048768e+18
14159.0	2.4324659889569787e+18
14160.0	2.4319243768037376e+18
14161.0	2.4313632611368955e+18
14162.0	2.430799387295744e+18
14163.0	2.4303126718709755e+18
14164.0	2.429702548278477e+18
14165.0	2.429193200389325e+18
14166.0	2.4287149138378747e+18
14167.0	2.4281778566987776e+18
14168.0	2.427649097570713e+18
14169.0	2.427117357131366e+18
14170.0	2.4265839540699126e+18
14171.0	2.4260539953709056e+18
14172.0	2.4255220351500283e+18
14173.0	2.424959869229465e+18
14174.0	2.424449974403072e+18
14175.0	2.4239233292042235e+18
14176.0	2.42338986238935e+18
14177.0	2.422550305334886e+18
14178.0	2.421970316977766e+18
14179.0	2.421432623982182e+18
14180.0	2.420905269107097e+18
14181.0	2.4203722804428795e+18
14182.0	2.419838791817625e+18
14183.0	2.4193056890683387e+18
14184.0	2.418767974262374e+18
14185.0	2.4182246743212027e+18
14186.0	2.417089096712192e+18
14187.0	2.417124939556454e+18
14188.0	2.416639809578598e+18
14189.0	2.4161060760059904e+18
14190.0	2.4155757515636726e+18
14191.0	2.415041665669529e+18
14192.0	2.414507792846029e+18
14193.0	2.4138820362436603e+18
14194.0	2.413450549736242e+18
14195.0	2.4126007703240704e+18
14196.0	2.4120214748659707e+18
14197.0	2.4114901437906934e+18
14198.0	2.410956158559846e+18
14199.0	2.4104241228414976e+18
14200.0	2.4095382019506176e+18
14201.0	2.4093264265084923e+18
14202.0	2.4088334900920315e+18
14203.0	2.4082977013104635e+18
14204.0	2.4077720577114107e+18
14205.0	2.4072413239050235e+18
14206.0	2.4066438570442747e+18
14207.0	2.406181374630297e+18
14208.0	2.405652452763238e+18
14209.0	2.4050525347512315e+18
14210.0	2.4045391049654267e+18
14211.0	2.404063074949529e+18
14212.0	2.403533834315366e+18
14213.0	2.4030011241529344e+18
14214.0	2.4024475414560763e+18
14215.0	2.401548081351885e+18
14216.0	2.4010240517210107e+18
14217.0	2.400494334613913e+18
14218.0	2.399956926831001e+18
14219.0	2.3994350832713723e+18
14220.0	2.398902678454272e+18
14221.0	2.3983694481981435e+18
14222.0	2.39779873596375e+18
14223.0	2.3973158289670134e+18
14224.0	2.3967827463503867e+18
14225.0	2.395240972209357e+18
14226.0	2.395701902730854e+18
14227.0	2.395195591517798e+18
14228.0	2.39257734086656e+18
14229.0	2.3936951916691436e+18
14230.0	2.393615119050342e+18
14231.0	2.3930467136831483e+18
14232.0	2.392562873873202e+18
14233.0	2.392032859809382e+18
14234.0	2.3915080919810043e+18
14235.0	2.3909794570043387e+18
14236.0	2.3904532815675387e+18
14237.0	2.3898007804051456e+18
14238.0	2.3888994446082043e+18
14239.0	2.388363946072473e+18
14240.0	2.3871191051665403e+18
14241.0	2.3872971953143803e+18
14242.0	2.386780249024102e+18
14243.0	2.3861776063922176e+18
14244.0	2.3857342130946043e+18
14245.0	2.3852017428463606e+18
14246.0	2.384670285941965e+18
14247.0	2.384150797903462e+18
14248.0	2.3836203409211387e+18
14249.0	2.383099247303065e+18
14250.0	2.3825724796305403e+18
14251.0	2.382047075945677e+18
14252.0	2.3815200952025083e+18
14253.0	2.3809920692387835e+18
14254.0	2.3804617464741883e+18
14255.0	2.3799057377918976e+18
14256.0	2.3783286090235904e+18
14257.0	2.3787055578349563e+18
14258.0	2.3783517078945787e+18
14259.0	2.377820896912998e+18
14260.0	2.3772754847203323e+18
14261.0	2.376764757744025e+18
14262.0	2.376207509225471e+18
14263.0	2.3737445400969226e+18
14264.0	2.3742805453045755e+18
14265.0	2.3742501869322235e+18
14266.0	2.373746544974233e+18
14267.0	2.3732252550627323e+18
14268.0	2.372701284152115e+18
14269.0	2.372174902355558e+18
14270.0	2.3716499919208443e+18
14271.0	2.3711214039203835e+18
14272.0	2.3705877592670203e+18
14273.0	2.3700110458224635e+18
14274.0	2.367004976401613e+18
14275.0	2.3686610184830976e+18
14276.0	2.368468182840115e+18
14277.0	2.367964191916031e+18
14278.0	2.367453545470361e+18
14279.0	2.3669310308220923e+18
14280.0	2.366405410711142e+18
14281.0	2.3658859864260603e+18
14282.0	2.365362825854976e+18
14283.0	2.3648394270474235e+18
14284.0	2.3643159242211323e+18
14285.0	2.3637922385231867e+18
14286.0	2.3632685226262523e+18
14287.0	2.362745546604544e+18
14288.0	2.3622198140862454e+18
14289.0	2.361232795369471e+18
14290.0	2.3609890945630203e+18
14291.0	2.3602030635384827e+18
14292.0	2.3596799918866427e+18
14293.0	2.3591543684202496e+18
14294.0	2.3585573679661046e+18
14295.0	2.358095655626342e+18
14296.0	2.3572073020391424e+18
14297.0	2.357047604753203e+18
14298.0	2.356152094005657e+18
14299.0	2.3559908297277435e+18
14300.0	2.3554851862478843e+18
14301.0	2.354964622789837e+18
14302.0	2.3544434201198587e+18
14303.0	2.353898153888973e+18
14304.0	2.3533866115399675e+18
14305.0	2.3528685764083707e+18
14306.0	2.352319721530982e+18
14307.0	2.351800679766425e+18
14308.0	2.351288479750553e+18
14309.0	2.3507552260063227e+18
14310.0	2.3501662467391483e+18
14311.0	2.3496603415347195e+18
14312.0	2.349138768088269e+18
14313.0	2.3486441338175483e+18
14314.0	2.348149534778982e+18
14315.0	2.347642082715238e+18
14316.0	2.347099707198669e+18
14317.0	2.3465698843951104e+18
14318.0	2.346090931788185e+18
14319.0	2.345576450070937e+18
14320.0	2.345057878068428e+18
14321.0	2.3445389839433723e+18
14322.0	2.343790062442905e+18
14323.0	2.3430242395750395e+18
14324.0	2.34251609964544e+18
14325.0	2.3419887128936443e+18
14326.0	2.341475247875686e+18
14327.0	2.3409503324078075e+18
14328.0	2.3404308645019643e+18
14329.0	2.339913809159782e+18
14330.0	2.3393934067630075e+18
14331.0	2.3388673856765947e+18
14332.0	2.338352774774784e+18
14333.0	2.3378325435056123e+18
14334.0	2.337312147819725e+18
14335.0	2.336783959117005e+18
14336.0	2.336154982966886e+18
14337.0	2.335751105046118e+18
14338.0	2.3352312344870907e+18
14339.0	2.334702008952422e+18
14340.0	2.334190835702169e+18
14341.0	2.3336681700589563e+18
14342.0	2.3331538225594363e+18
14343.0	2.332632713841868e+18
14344.0	2.332111100130099e+18
14345.0	2.3315953701879803e+18
14346.0	2.3310724981850107e+18
14347.0	2.3305342666407926e+18
14348.0	2.330032376224153e+18
14349.0	2.3295177418342395e+18
14350.0	2.3289048667783163e+18
14351.0	2.328382293409792e+18
14352.0	2.32795921228759e+18
14353.0	2.327446114690662e+18
14354.0	2.326917171013222e+18
14355.0	2.3263773791879163e+18
14356.0	2.3258651942715387e+18
14357.0	2.325374660352409e+18
14358.0	2.3248578113699835e+18
14359.0	2.323860976304128e+18
14360.0	2.323249819235122e+18
14361.0	2.3227337352937467e+18
14362.0	2.32221868818432e+18
14363.0	2.3216967288619003e+18
14364.0	2.320888974698086e+18
14365.0	2.320568706033254e+18
14366.0	2.320095664039526e+18
14367.0	2.3196274186518523e+18
14368.0	2.3191097995952123e+18
14369.0	2.3185922677800955e+18
14370.0	2.3180746873110523e+18
14371.0	2.317557321590374e+18
14372.0	2.3170362850148347e+18
14373.0	2.316521497952256e+18
14374.0	2.3160039510376443e+18
14375.0	2.315486295071129e+18
14376.0	2.314968717957529e+18
14377.0	2.3144508958965755e+18
14378.0	2.3139323826143227e+18
14379.0	2.313416449667891e+18
14380.0	2.3128985202327547e+18
14381.0	2.312374616431001e+18
14382.0	2.311863951530393e+18
14383.0	2.3113448225243126e+18
14384.0	2.3108184239505403e+18
14385.0	2.3103143726284795e+18
14386.0	2.3097877978939387e+18
14387.0	2.3092808676016123e+18
14388.0	2.3087635673120763e+18
14389.0	2.308247620943872e+18
14390.0	2.307730527014093e+18
14391.0	2.3072151795924987e+18
14392.0	2.3066981812928507e+18
14393.0	2.3061826375778304e+18
14394.0	2.3056416965132283e+18
14395.0	2.3051355748827133e+18
14396.0	2.3046332818128893e+18
14397.0	2.304118783318425e+18
14398.0	2.3036023118233595e+18
14399.0	2.303081375911116e+18
14400.0	2.3020747563728896e+18
14401.0	2.301562553001574e+18
14402.0	2.3010421136949243e+18
14403.0	2.299629148307455e+18
14404.0	2.2972518117670902e+18
14405.0	2.2987052102451182e+18
14406.0	2.2989704378974203e+18
14407.0	2.297281106463949e+18
14408.0	2.2978966490972155e+18
14409.0	2.297426175695257e+18
14410.0	2.2969001512534013e+18
14411.0	2.2964045103497213e+18
14412.0	2.295888884426342e+18
14413.0	2.2953747818741755e+18
14414.0	2.2948572316041208e+18
14415.0	2.294341437908582e+18
14416.0	2.2938153648127995e+18
14417.0	2.293273053049651e+18
14418.0	2.292764550732185e+18
14419.0	2.2922731259428861e+18
14420.0	2.2917562920599547e+18
14421.0	2.291240157786931e+18
14422.0	2.2907142692405243e+18
14423.0	2.2901337037471736e+18
14424.0	2.2847896185470953e+18
14425.0	2.2891108472193024e+18
14426.0	2.288657174521446e+18
14427.0	2.2881512961605627e+18
14428.0	2.2876250972356603e+18
14429.0	2.2871222035415037e+18
14430.0	2.2866015679414267e+18
14431.0	2.285607591713177e+18
14432.0	2.2855648316227576e+18
14433.0	2.2841725626089464e+18
14434.0	2.284529976030003e+18
14435.0	2.2839866677002232e+18
14436.0	2.2835173838028792e+18
14437.0	2.2830085895618555e+18
14438.0	2.2824311614078968e+18
14439.0	2.2819681890992123e+18
14440.0	2.2814686089052152e+18
14441.0	2.2809530651901947e+18
14442.0	2.2804373721579517e+18
14443.0	2.279902828245811e+18
14444.0	2.2794101736865787e+18
14445.0	2.2788937843998717e+18
14446.0	2.2771857195270144e+18
14447.0	2.2778438695780347e+18
14448.0	2.277357162541875e+18
14449.0	2.2765060342415352e+18
14450.0	2.2758352794681344e+18
14451.0	2.2753226164011005e+18
14452.0	2.2748046534115323e+18
14453.0	2.2742788806279165e+18
14454.0	2.2737759248580605e+18
14455.0	2.2732576179355645e+18
14456.0	2.2727358448402427e+18
14457.0	2.2722205309730813e+18
14458.0	2.27170285822935e+18
14459.0	2.271182977603993e+18
14460.0	2.270658830532608e+18
14461.0	2.2701133864632315e+18
14462.0	2.2695706250706944e+18
14463.0	2.2690983179190264e+18
14464.0	2.2686078443978747e+18
14465.0	2.2680941679869952e+18
14466.0	2.2675959786242043e+18
14467.0	2.26706500658135e+18
14468.0	2.2665692197158904e+18
14469.0	2.266025292306841e+18
14470.0	2.2655272455503872e+18
14471.0	2.2650325206827003e+18
14472.0	2.2645222164922368e+18
14473.0	2.2640142644674555e+18
14474.0	2.26350261642199e+18
14475.0	2.2629868529254395e+18
14476.0	2.262420264530739e+18
14477.0	2.261960932877926e+18
14478.0	2.261450707540377e+18
14479.0	2.2609359305441277e+18
14480.0	2.260413117261414e+18
14481.0	2.259912119392665e+18
14482.0	2.2593966813741056e+18
14483.0	2.258880372618035e+18
14484.0	2.2583647634718717e+18
14485.0	2.257836267746099e+18
14486.0	2.2571792988110843e+18
14487.0	2.256828208722739e+18
14488.0	2.2562578722979832e+18
14489.0	2.2557605268291581e+18
14490.0	2.255285728260915e+18
14491.0	2.2547831231348733e+18
14492.0	2.254271522065612e+18
14493.0	2.253747515922841e+18
14494.0	2.2532324688134144e+18
14495.0	2.2527309072302075e+18
14496.0	2.2521447683457021e+18
14497.0	2.2517070994341883e+18
14498.0	2.2511961543540733e+18
14499.0	2.2506838268313592e+18
14500.0	2.2501705933389821e+18
14501.0	2.2496263169638395e+18
14502.0	2.2489926062833664e+18
14503.0	2.2486075054227448e+18
14504.0	2.248116674546892e+18
14505.0	2.247273741916569e+18
14506.0	2.2465420220956672e+18
14507.0	2.2459483703738365e+18
14508.0	2.2455725909344256e+18
14509.0	2.245060697941606e+18
14510.0	2.2445474426388475e+18
14511.0	2.244033418939596e+18
14512.0	2.2435114579394555e+18
14513.0	2.2430056919859195e+18
14514.0	2.242473459974144e+18
14515.0	2.2419748142710781e+18
14516.0	2.240316502232269e+18
14517.0	2.240939249002086e+18
14518.0	2.2404383450857467e+18
14519.0	2.2399259353546752e+18
14520.0	2.2394124703367165e+18
14521.0	2.2388982184673277e+18
14522.0	2.2383757122076667e+18
14523.0	2.237767707577548e+18
14524.0	2.2372838912557053e+18
14525.0	2.2368398235140093e+18
14526.0	2.2363316751958008e+18
14527.0	2.2358040166531067e+18
14528.0	2.2352377419923453e+18
14529.0	2.2347857403052024e+18
14530.0	2.2342686631526395e+18
14531.0	2.233763076715315e+18
14532.0	2.2331714986573821e+18
14533.0	2.2327361282244603e+18
14534.0	2.232226996761395e+18
14535.0	2.2317066597957627e+18
14536.0	2.2312005163548667e+18
14537.0	2.2306805283553277e+18
14538.0	2.230174250696704e+18
14539.0	2.2296612118200317e+18
14540.0	2.229147802166886e+18
14541.0	2.2286184206041085e+18
14542.0	2.228117699559424e+18
14543.0	2.2275596776112128e+18
14544.0	2.227088781423411e+18
14545.0	2.2265629801185277e+18
14546.0	2.221222453365962e+18
14547.0	2.221110366463587e+18
14548.0	2.2250180384391165e+18
14549.0	2.2244562416173048e+18
14550.0	2.2240088352096253e+18
14551.0	2.2235021951631355e+18
14552.0	2.2229888207421437e+18
14553.0	2.222473540429414e+18
14554.0	2.22196352984023e+18
14555.0	2.221449673913139e+18
14556.0	2.2209347643768827e+18
14557.0	2.2204216063819768e+18
14558.0	2.219901757633331e+18
14559.0	2.218537129082878e+18
14560.0	2.2188646136283133e+18
14561.0	2.2183611914518523e+18
14562.0	2.217830269740646e+18
14563.0	2.2173275723399168e+18
14564.0	2.2167952782524408e+18
14565.0	2.216311777342259e+18
14566.0	2.2157997266436093e+18
14567.0	2.21527987453952e+18
14568.0	2.2147435539202043e+18
14569.0	2.214250360812339e+18
14570.0	2.2129588154925053e+18
14571.0	2.2126142265753592e+18
14572.0	2.2120712923774973e+18
14573.0	2.2115444055867387e+18
14574.0	2.211014148253286e+18
14575.0	2.2105341151936504e+18
14576.0	2.2100184691376123e+18
14577.0	2.2095285207433208e+18
14578.0	2.209019198019993e+18
14579.0	2.2085051256668155e+18
14580.0	2.2079893806252027e+18
14581.0	2.2074695083884536e+18
14582.0	2.206950753514291e+18
14583.0	2.2064453482708987e+18
14584.0	2.2059082575773693e+18
14585.0	2.2054134018473981e+18
14586.0	2.204898780879257e+18
14587.0	2.2043845273321467e+18
14588.0	2.203870208353894e+18
14589.0	2.2033630146592765e+18
14590.0	2.2028565289631736e+18
14591.0	2.2023468035866621e+18
14592.0	2.2018363953774592e+18
14593.0	2.2012694731161592e+18
14594.0	2.2008276551991293e+18
14595.0	2.2003170003648504e+18
14596.0	2.1995682164375547e+18
14597.0	2.1990121708453883e+18
14598.0	2.19876781237207e+18
14599.0	2.19828966171607e+18
14600.0	2.1977796091838456e+18
14601.0	2.1972728735072253e+18
14602.0	2.196762586093977e+18
14603.0	2.1962537901752315e+18
14604.0	2.1957190449364984e+18
14605.0	2.1952109788266493e+18
14606.0	2.1946924219236352e+18
14607.0	2.1942203647524861e+18
14608.0	2.1937160349286395e+18
14609.0	2.193201828357734e+18
14610.0	2.1926889002106877e+18
14611.0	2.1921865131884536e+18
14612.0	2.1916870638567421e+18
14613.0	2.1911827591987195e+18
14614.0	2.1906749497802747e+18
14615.0	2.1901673232334845e+18
14616.0	2.1896621126057976e+18
14617.0	2.1891529962422267e+18
14618.0	2.1886097751539712e+18
14619.0	2.187861962627481e+18
14620.0	2.1869445542576128e+18
14621.0	2.187112126768742e+18
14622.0	2.186611264795443e+18
14623.0	2.1861037422673912e+18
14624.0	2.185562448881254e+18
14625.0	2.1850837848424445e+18
14626.0	2.1845761683619837e+18
14627.0	2.1840646578896893e+18
14628.0	2.18355934995415e+18
14629.0	2.183048633044172e+18
14630.0	2.1825351747371005e+18
14631.0	2.182027519669043e+18
14632.0	2.1811489253883901e+18
14633.0	2.180926571911577e+18
14634.0	2.180488644630937e+18
14635.0	2.1799293543251963e+18
14636.0	2.1793241196134392e+18
14637.0	2.178967498076979e+18
14638.0	2.1784396482740221e+18
14639.0	2.1779238965215227e+18
14640.0	2.177418120501657e+18
14641.0	2.17544034174894e+18
14642.0	2.176392126634393e+18
14643.0	2.175893276249292e+18
14644.0	2.1753722094747645e+18
14645.0	2.1748574207344632e+18
14646.0	2.1743215178678267e+18
14647.0	2.1737989931532283e+18
14648.0	2.1731283222659067e+18
14649.0	2.172347111335526e+18
14650.0	2.17182922384343e+18
14651.0	2.1713087828590587e+18
