# Flux units: erg / (cm m2 s)
# Wavelength units: Angstrom
wave	flux
14000.0	1.7986063972696056e+18
14001.0	1.7982757636407296e+18
14002.0	1.7981202539479037e+18
14003.0	1.7978009449398262e+18
14004.0	1.7974798156038144e+18
14005.0	1.7971579145158653e+18
14006.0	1.7968271986786304e+18
14007.0	1.7965027457761275e+18
14008.0	1.796087298287206e+18
14009.0	1.795858155071078e+18
14010.0	1.7955261205446656e+18
14011.0	1.7945016617926653e+18
14012.0	1.7948914049089533e+18
14013.0	1.794582897072537e+18
14014.0	1.7942564594253821e+18
14015.0	1.7939396737105915e+18
14016.0	1.7936206549483515e+18
14017.0	1.7932998611566587e+18
14018.0	1.7929727373213693e+18
14019.0	1.7926576779821053e+18
14020.0	1.7923358221926397e+18
14021.0	1.7920140066684925e+18
14022.0	1.7916919562633213e+18
14023.0	1.7913597707419643e+18
14024.0	1.791037881398067e+18
14025.0	1.7907311687237627e+18
14026.0	1.790409497483673e+18
14027.0	1.790090173376102e+18
14028.0	1.7897615530131456e+18
14029.0	1.78943721251799e+18
14030.0	1.788316667294515e+18
14031.0	1.7887134585192448e+18
14032.0	1.7884826543587325e+18
14033.0	1.7881204359430144e+18
14034.0	1.7878469924880381e+18
14035.0	1.7875292890595323e+18
14036.0	1.7872100941365243e+18
14037.0	1.7868906223894525e+18
14038.0	1.7865710885666813e+18
14039.0	1.7862468940333056e+18
14040.0	1.7859287107764221e+18
14041.0	1.7856110643904507e+18
14042.0	1.7852815430909947e+18
14043.0	1.7849297282269181e+18
14044.0	1.7846369892958205e+18
14045.0	1.7843275486461947e+18
14046.0	1.7840111219638264e+18
14047.0	1.7836873820930043e+18
14048.0	1.7833771042603005e+18
14049.0	1.7830593639219195e+18
14050.0	1.7827405817184253e+18
14051.0	1.7824131156279293e+18
14052.0	1.7820981569519613e+18
14053.0	1.7817845974958075e+18
14054.0	1.7814662531776507e+18
14055.0	1.7811478014853115e+18
14056.0	1.7808293783142397e+18
14057.0	1.7805110910386176e+18
14058.0	1.7801928104738813e+18
14059.0	1.7798691913990141e+18
14060.0	1.7795563617517563e+18
14061.0	1.7792305213734907e+18
14062.0	1.7789194835329024e+18
14063.0	1.7785835852136448e+18
14064.0	1.7781136168058877e+18
14065.0	1.7779561425010685e+18
14066.0	1.7776467387613181e+18
14067.0	1.7773291594842107e+18
14068.0	1.7770140179365885e+18
14069.0	1.7766948985110523e+18
14070.0	1.7763785708142595e+18
14071.0	1.7760585521299453e+18
14072.0	1.7757445950537725e+18
14073.0	1.7754273999749117e+18
14074.0	1.7751101528866808e+18
14075.0	1.7747730902286333e+18
14076.0	1.7744706674884603e+18
14077.0	1.7739758990000128e+18
14078.0	1.773823655831142e+18
14079.0	1.7735136548225016e+18
14080.0	1.7732084604862461e+18
14081.0	1.772892168021606e+18
14082.0	1.7725747531612155e+18
14083.0	1.772256442397491e+18
14084.0	1.7719351486447613e+18
14085.0	1.7713071338291197e+18
14086.0	1.7712811912200187e+18
14087.0	1.7709877510012925e+18
14088.0	1.7706634323165181e+18
14089.0	1.7703594341957632e+18
14090.0	1.7700442943258621e+18
14091.0	1.7697302214868987e+18
14092.0	1.769414692385587e+18
14093.0	1.7690988663275517e+18
14094.0	1.768782810421657e+18
14095.0	1.7684654593146877e+18
14096.0	1.7681237829222397e+18
14097.0	1.76780991308759e+18
14098.0	1.767507280632217e+18
14099.0	1.7672040240644093e+18
14100.0	1.7668763851685885e+18
14101.0	1.766575460633804e+18
14102.0	1.7662581699248125e+18
14103.0	1.7659274926751741e+18
14104.0	1.765627224129536e+18
14105.0	1.7653156561289213e+18
14106.0	1.7650007796613117e+18
14107.0	1.7646811669856253e+18
14108.0	1.7643582089330685e+18
14109.0	1.7640513268088827e+18
14110.0	1.7637397252538365e+18
14111.0	1.7634189062963197e+18
14112.0	1.7631025953767421e+18
14113.0	1.7627967836389376e+18
14114.0	1.7624662355738621e+18
14115.0	1.7621597863018493e+18
14116.0	1.7617910046392317e+18
14117.0	1.7600565894709248e+18
14118.0	1.7611977790586877e+18
14119.0	1.7608804665393152e+18
14120.0	1.7605786796556285e+18
14121.0	1.7602661905858557e+18
14122.0	1.759953681383424e+18
14123.0	1.759642833125376e+18
14124.0	1.7593164961415163e+18
14125.0	1.758524302845542e+18
14126.0	1.7587050270162936e+18
14127.0	1.7584018442682365e+18
14128.0	1.7580888703369213e+18
14129.0	1.757764360391884e+18
14130.0	1.7574400752615424e+18
14131.0	1.7571494653591552e+18
14132.0	1.7568166674694141e+18
14133.0	1.755934846930124e+18
14134.0	1.7561918101258237e+18
14135.0	1.755882166471884e+18
14136.0	1.755579310879539e+18
14137.0	1.7552685397966843e+18
14138.0	1.754950457203097e+18
14139.0	1.7546477744160765e+18
14140.0	1.7543327771525115e+18
14141.0	1.7539970231173117e+18
14142.0	1.7536355261218816e+18
14143.0	1.753394053329715e+18
14144.0	1.7530877969956861e+18
14145.0	1.7527746250932221e+18
14146.0	1.7524608894763005e+18
14147.0	1.752151715584409e+18
14148.0	1.7518397851959293e+18
14149.0	1.7515289805586427e+18
14150.0	1.7512184963661821e+18
14151.0	1.7509026518532093e+18
14152.0	1.7505933051559933e+18
14153.0	1.7502838527623165e+18
14154.0	1.7499437584613376e+18
14155.0	1.7496343597547517e+18
14156.0	1.7493463503208443e+18
14157.0	1.74903788610519e+18
14158.0	1.7487227831451648e+18
14159.0	1.7484151678566397e+18
14160.0	1.7480890741424123e+18
14161.0	1.7477314862383104e+18
14162.0	1.7473672042250237e+18
14163.0	1.7471583027199997e+18
14164.0	1.746815059335577e+18
14165.0	1.746524142410137e+18
14166.0	1.7462368057425917e+18
14167.0	1.745912743749222e+18
14168.0	1.7456151243259904e+18
14169.0	1.7453086750539768e+18
14170.0	1.7449949981573117e+18
14171.0	1.744684676703846e+18
14172.0	1.7443775445991416e+18
14173.0	1.7440451778838528e+18
14174.0	1.7437497025888253e+18
14175.0	1.7434476288147453e+18
14176.0	1.74313797844992e+18
14177.0	1.7428281787678717e+18
14178.0	1.7425178774470653e+18
14179.0	1.7422038381625341e+18
14180.0	1.741898853541478e+18
14181.0	1.7415891830439933e+18
14182.0	1.741278608254566e+18
14183.0	1.7409694729502715e+18
14184.0	1.7406535411957757e+18
14185.0	1.7403425738194936e+18
14186.0	1.7397786009927677e+18
14187.0	1.739684814677606e+18
14188.0	1.739416510083891e+18
14189.0	1.739111466742579e+18
14190.0	1.7388027290583035e+18
14191.0	1.7384926911397885e+18
14192.0	1.7381756638330877e+18
14193.0	1.7378380374605821e+18
14194.0	1.7375666324373504e+18
14195.0	1.737261428034764e+18
14196.0	1.7369529537527805e+18
14197.0	1.7366443871961088e+18
14198.0	1.736330143229542e+18
14199.0	1.736020813309542e+18
14200.0	1.735561189733171e+18
14201.0	1.7353879918215165e+18
14202.0	1.7350995998670848e+18
14203.0	1.7347887616753661e+18
14204.0	1.7344830287904765e+18
14205.0	1.734173037848166e+18
14206.0	1.7337339311292413e+18
14207.0	1.733556569112576e+18
14208.0	1.733252183438131e+18
14209.0	1.7328011615404027e+18
14210.0	1.7325279009570808e+18
14211.0	1.732321953919795e+18
14212.0	1.7320235560337405e+18
14213.0	1.731717356742246e+18
14214.0	1.7314090653319163e+18
14215.0	1.7310884678336507e+18
14216.0	1.7307962221527035e+18
14217.0	1.730489202455347e+18
14218.0	1.73016849926062e+18
14219.0	1.72987486610391e+18
14220.0	1.729565905282662e+18
14221.0	1.729259734512435e+18
14222.0	1.7289403533623293e+18
14223.0	1.7286455978098685e+18
14224.0	1.7283345851351037e+18
14225.0	1.727510929525965e+18
14226.0	1.7277000909586427e+18
14227.0	1.727411093346713e+18
14228.0	1.7256889607782397e+18
14229.0	1.7265009528668147e+18
14230.0	1.7264961982038013e+18
14231.0	1.72618980261888e+18
14232.0	1.7258888327856125e+18
14233.0	1.7255811134783485e+18
14234.0	1.725277065025945e+18
14235.0	1.724968278687744e+18
14236.0	1.7246648023384061e+18
14237.0	1.724327719547699e+18
14238.0	1.7240179383205885e+18
14239.0	1.7236903883440125e+18
14240.0	1.7214968915034115e+18
14241.0	1.7230605196460027e+18
14242.0	1.7227821118128125e+18
14243.0	1.7223257597935613e+18
14244.0	1.7221849100320763e+18
14245.0	1.7218731105058813e+18
14246.0	1.7215688842149888e+18
14247.0	1.7212670017011712e+18
14248.0	1.7209475903520765e+18
14249.0	1.7206571129896957e+18
14250.0	1.7203550442487803e+18
14251.0	1.7200524117934075e+18
14252.0	1.7197469691543547e+18
14253.0	1.7194400903856128e+18
14254.0	1.7191312033841147e+18
14255.0	1.7187480688132093e+18
14256.0	1.7179703508991997e+18
14257.0	1.7180672779091963e+18
14258.0	1.7178722511618043e+18
14259.0	1.7175498501128187e+18
14260.0	1.717244982932275e+18
14261.0	1.7169373005348861e+18
14262.0	1.7166650147078141e+18
14263.0	1.7156177188093952e+18
14264.0	1.715781487925657e+18
14265.0	1.7157522922143741e+18
14266.0	1.715465036077465e+18
14267.0	1.7151638313631741e+18
14268.0	1.714860675458662e+18
14269.0	1.7145464616910843e+18
14270.0	1.7142519846404093e+18
14271.0	1.713946112504627e+18
14272.0	1.7136363061116925e+18
14273.0	1.7132965943312381e+18
14274.0	1.7117849134825472e+18
14275.0	1.712499166543872e+18
14276.0	1.7123702151839741e+18
14277.0	1.7120825144508416e+18
14278.0	1.7117901966278653e+18
14279.0	1.7114866095489021e+18
14280.0	1.7111788214550528e+18
14281.0	1.7108832069091325e+18
14282.0	1.7105805962641405e+18
14283.0	1.7102774739140603e+18
14284.0	1.7099742190239736e+18
14285.0	1.7096705749024765e+18
14286.0	1.709366350289305e+18
14287.0	1.7090620786999293e+18
14288.0	1.7087437880688637e+18
14289.0	1.7072288104972268e+18
14290.0	1.708139343563981e+18
14291.0	1.7078496345980925e+18
14292.0	1.707546725318656e+18
14293.0	1.707242176905216e+18
14294.0	1.7067950037008381e+18
14295.0	1.7066078387568635e+18
14296.0	1.7053622428762115e+18
14297.0	1.7059931735719933e+18
14298.0	1.7054263469408256e+18
14299.0	1.7053731933650941e+18
14300.0	1.705088569573376e+18
14301.0	1.7047919752380416e+18
14302.0	1.704490161510809e+18
14303.0	1.704150578914918e+18
14304.0	1.7038692417798141e+18
14305.0	1.7035845106139133e+18
14306.0	1.7032740582981627e+18
14307.0	1.7029706540908544e+18
14308.0	1.7026729306488827e+18
14309.0	1.7023624900771837e+18
14310.0	1.702023323556249e+18
14311.0	1.7016904870789115e+18
14312.0	1.7014140908339197e+18
14313.0	1.7010066997641213e+18
14314.0	1.700860291710976e+18
14315.0	1.7005633433763837e+18
14316.0	1.700211734872064e+18
14317.0	1.6999542952034304e+18
14318.0	1.6996672471039997e+18
14319.0	1.6993690455113725e+18
14320.0	1.6990683206254587e+18
14321.0	1.6987643292155904e+18
14322.0	1.698424964723507e+18
14323.0	1.698113166875033e+18
14324.0	1.6978299758575608e+18
14325.0	1.6975190235807741e+18
14326.0	1.6972295813726203e+18
14327.0	1.6969211691663357e+18
14328.0	1.6966211304685565e+18
14329.0	1.6963281818222587e+18
14330.0	1.696027844490035e+18
14331.0	1.6957271816798203e+18
14332.0	1.6954271077498877e+18
14333.0	1.695126815716147e+18
14334.0	1.6948263559102461e+18
14335.0	1.6945107966099453e+18
14336.0	1.6941727558402043e+18
14337.0	1.6939219029065725e+18
14338.0	1.6936227466903547e+18
14339.0	1.6933131181359104e+18
14340.0	1.6930253167394813e+18
14341.0	1.692724200944435e+18
14342.0	1.692423704228659e+18
14343.0	1.6921254221053947e+18
14344.0	1.6918196455997435e+18
14345.0	1.691525416851865e+18
14346.0	1.691222722320793e+18
14347.0	1.6909082619281405e+18
14348.0	1.6906250977542141e+18
14349.0	1.6903281527750653e+18
14350.0	1.6899852214468605e+18
14351.0	1.6896475732639736e+18
14352.0	1.68938645267415e+18
14353.0	1.6890974550622205e+18
14354.0	1.688794540749619e+18
14355.0	1.6884858634633213e+18
14356.0	1.688188383290982e+18
14357.0	1.687902754544025e+18
14358.0	1.6876056115937275e+18
14359.0	1.6872894466359293e+18
14360.0	1.6870041383337981e+18
14361.0	1.6867068779429885e+18
14362.0	1.686409847400038e+18
14363.0	1.686108854078668e+18
14364.0	1.6856842747510781e+18
14365.0	1.6854666088284152e+18
14366.0	1.6851872967032832e+18
14367.0	1.6849175140368381e+18
14368.0	1.6846192805675003e+18
14369.0	1.684321760129843e+18
14370.0	1.6840237397311488e+18
14371.0	1.6837258015408128e+18
14372.0	1.6834213537906685e+18
14373.0	1.6831279018278907e+18
14374.0	1.682831119587737e+18
14375.0	1.6825304047681533e+18
14376.0	1.682235753234432e+18
14377.0	1.6819370986569725e+18
14378.0	1.6816369945280507e+18
14379.0	1.681342126568243e+18
14380.0	1.681043421659136e+18
14381.0	1.680733091817062e+18
14382.0	1.6804473120751613e+18
14383.0	1.6801212284272637e+18
14384.0	1.6798001762664448e+18
14385.0	1.6795238051872763e+18
14386.0	1.679205397115699e+18
14387.0	1.6789283515924475e+18
14388.0	1.678627173721702e+18
14389.0	1.6783330305376256e+18
14390.0	1.678034166244966e+18
14391.0	1.6777393184178168e+18
14392.0	1.6774413735165947e+18
14393.0	1.677145119758745e+18
14394.0	1.6768024333778941e+18
14395.0	1.6765385999122432e+18
14396.0	1.6762536305098747e+18
14397.0	1.67595654292439e+18
14398.0	1.67565904094167e+18
14399.0	1.675361426551603e+18
14400.0	1.6750413223034875e+18
14401.0	1.6747557556322304e+18
14402.0	1.6744534838870008e+18
14403.0	1.6737695724208123e+18
14404.0	1.670427552671332e+18
14405.0	1.6714438711181266e+18
14406.0	1.673248401627545e+18
14407.0	1.672483489762509e+18
14408.0	1.6726636971950077e+18
14409.0	1.6723692872531963e+18
14410.0	1.6720890439925757e+18
14411.0	1.6718024690106365e+18
14412.0	1.6715046298058747e+18
14413.0	1.6712135652409341e+18
14414.0	1.670914994549555e+18
14415.0	1.6706201920208893e+18
14416.0	1.6703246093516797e+18
14417.0	1.670023033860915e+18
14418.0	1.6697211144372221e+18
14419.0	1.669430704183705e+18
14420.0	1.669101483196416e+18
14421.0	1.668809608291942e+18
14422.0	1.6685031086882813e+18
14423.0	1.6681627878948861e+18
14424.0	1.6659122065768438e+18
14425.0	1.6675742582571003e+18
14426.0	1.6673269134393341e+18
14427.0	1.6670360183242747e+18
14428.0	1.6667155768541184e+18
14429.0	1.6664443916124157e+18
14430.0	1.666145235396198e+18
14431.0	1.6656222493081597e+18
14432.0	1.665550152577843e+18
14433.0	1.6648763309293565e+18
14434.0	1.6649447735820285e+18
14435.0	1.66464563749847e+18
14436.0	1.6643809651720187e+18
14437.0	1.6640884913209344e+18
14438.0	1.663764070295142e+18
14439.0	1.6634888585215997e+18
14440.0	1.663203993137971e+18
14441.0	1.662898040471552e+18
14442.0	1.6625946882736125e+18
14443.0	1.6622520304140285e+18
14444.0	1.6620147989020672e+18
14445.0	1.6617187984801792e+18
14446.0	1.6601753986269187e+18
14447.0	1.661090936337203e+18
14448.0	1.6608442072432635e+18
14449.0	1.6605532215312384e+18
14450.0	1.6602525922754557e+18
14451.0	1.6599610915028992e+18
14452.0	1.659670107468595e+18
14453.0	1.6593722816856061e+18
14454.0	1.659081020827238e+18
14455.0	1.6587772391325693e+18
14456.0	1.658489323651072e+18
14457.0	1.658193964118835e+18
14458.0	1.6579006916722685e+18
14459.0	1.657601892810752e+18
14460.0	1.657296802493235e+18
14461.0	1.656935454815027e+18
14462.0	1.6566173017571323e+18
14463.0	1.656372002081996e+18
14464.0	1.6560971828953088e+18
14465.0	1.65578013713367e+18
14466.0	1.6555160620761085e+18
14467.0	1.655202133521203e+18
14468.0	1.6549282119155707e+18
14469.0	1.654601281018265e+18
14470.0	1.654309006816051e+18
14471.0	1.654043457041203e+18
14472.0	1.6537564173303805e+18
14473.0	1.653467971688857e+18
14474.0	1.6531785949118461e+18
14475.0	1.6528833981186043e+18
14476.0	1.6525692850143232e+18
14477.0	1.6522983296204795e+18
14478.0	1.6520034381725693e+18
14479.0	1.6517101825032187e+18
14480.0	1.6513982420484093e+18
14481.0	1.651127900700672e+18
14482.0	1.6508291437821947e+18
14483.0	1.6505297677844477e+18
14484.0	1.6502287560081403e+18
14485.0	1.6499001742327805e+18
14486.0	1.6493055863422976e+18
14487.0	1.649363662353203e+18
14488.0	1.649071602899353e+18
14489.0	1.648764455695155e+18
14490.0	1.6484852895318013e+18
14491.0	1.6481993017524221e+18
14492.0	1.6479090693373944e+18
14493.0	1.6476052607991805e+18
14494.0	1.6472970180427776e+18
14495.0	1.6470230612049915e+18
14496.0	1.6465813976383488e+18
14497.0	1.6464424772567037e+18
14498.0	1.6461548285329403e+18
14499.0	1.6458629402066944e+18
14500.0	1.645569778489753e+18
14501.0	1.6452532746321915e+18
14502.0	1.644715106841395e+18
14503.0	1.6446722293104637e+18
14504.0	1.6443912025538557e+18
14505.0	1.6440974737670141e+18
14506.0	1.6437879743971325e+18
14507.0	1.6432318801510395e+18
14508.0	1.6432285414850557e+18
14509.0	1.6429413390352381e+18
14510.0	1.6426280228487165e+18
14511.0	1.6423236556292093e+18
14512.0	1.6420094385061885e+18
14513.0	1.6417303042195456e+18
14514.0	1.6414020194009085e+18
14515.0	1.6411209725116413e+18
14516.0	1.6376782106132498e+18
14517.0	1.6404860521938941e+18
14518.0	1.6402681396461563e+18
14519.0	1.6399804926001147e+18
14520.0	1.639692713014067e+18
14521.0	1.639403091289702e+18
14522.0	1.639110664414822e+18
14523.0	1.6387861712470013e+18
14524.0	1.638502981907251e+18
14525.0	1.638231300059955e+18
14526.0	1.6379433711566848e+18
14527.0	1.6376182672982016e+18
14528.0	1.6372003065823235e+18
14529.0	1.6370586582253565e+18
14530.0	1.63676106564567e+18
14531.0	1.6364886489563133e+18
14532.0	1.6361718900850685e+18
14533.0	1.6359084005523453e+18
14534.0	1.6356201293938685e+18
14535.0	1.6353157353308157e+18
14536.0	1.6350329687769085e+18
14537.0	1.634730868159283e+18
14538.0	1.6344563392184315e+18
14539.0	1.6341659507752957e+18
14540.0	1.6338749331865597e+18
14541.0	1.6335562432577533e+18
14542.0	1.6332891952775165e+18
14543.0	1.6329719616110592e+18
14544.0	1.6327049270525947e+18
14545.0	1.6323923826180093e+18
14546.0	1.6292752631267313e+18
14547.0	1.629068415152945e+18
14548.0	1.6315047001194496e+18
14549.0	1.6311055147859965e+18
14550.0	1.6309501980311547e+18
14551.0	1.6306770314002432e+18
14552.0	1.630386282246963e+18
14553.0	1.6300866864676861e+18
14554.0	1.6298078826921981e+18
14555.0	1.6295171134062587e+18
14556.0	1.6292253324541947e+18
14557.0	1.6289316187668483e+18
14558.0	1.6286130144018432e+18
14559.0	1.6259973256314844e+18
14560.0	1.628028694167552e+18
14561.0	1.6277617334288384e+18
14562.0	1.6274507190763515e+18
14563.0	1.627188313351782e+18
14564.0	1.6268882914312192e+18
14565.0	1.626616109622886e+18
14566.0	1.626318503621427e+18
14567.0	1.6260039811530747e+18
14568.0	1.625705274566246e+18
14569.0	1.625412324242227e+18
14570.0	1.624483302683443e+18
14571.0	1.624833048916787e+18
14572.0	1.6245066414686205e+18
14573.0	1.624201460554137e+18
14574.0	1.6239482034454528e+18
14575.0	1.6236749680279547e+18
14576.0	1.6233840779460603e+18
14577.0	1.6230960735453181e+18
14578.0	1.6228138421846016e+18
14579.0	1.6225286177685501e+18
14580.0	1.6222393047449597e+18
14581.0	1.6219447555522557e+18
14582.0	1.6216550499418107e+18
14583.0	1.6213696124551168e+18
14584.0	1.6210619334131707e+18
14585.0	1.620789266743296e+18
14586.0	1.620497888444416e+18
14587.0	1.6202115047227387e+18
14588.0	1.6199227654799357e+18
14589.0	1.6196347812118525e+18
14590.0	1.619346583873126e+18
14591.0	1.6190542173962237e+18
14592.0	1.6187546753040381e+18
14593.0	1.618340601869107e+18
14594.0	1.6181863890550781e+18
14595.0	1.6178938850050048e+18
14596.0	1.6174821519917053e+18
14597.0	1.6171663947202557e+18
14598.0	1.6170209362575357e+18
14599.0	1.6167521199587325e+18
14600.0	1.6164631861002237e+18
14601.0	1.6161752135761915e+18
14602.0	1.615881954551398e+18
14603.0	1.6155970723905533e+18
14604.0	1.6152564177305595e+18
14605.0	1.6149983589826557e+18
14606.0	1.6146312818851837e+18
14607.0	1.614439835395686e+18
14608.0	1.6141521363402747e+18
14609.0	1.613860204393267e+18
14610.0	1.6135590080675837e+18
14611.0	1.6132772649238523e+18
14612.0	1.613009032472166e+18
14613.0	1.6127241872211965e+18
14614.0	1.6124284418129915e+18
14615.0	1.6121446216499197e+18
14616.0	1.6118629120606203e+18
14617.0	1.6115639101947896e+18
14618.0	1.6112703340806141e+18
14619.0	1.6108568142938104e+18
14620.0	1.610392174329856e+18
14621.0	1.6104187880275968e+18
14622.0	1.6101328556130304e+18
14623.0	1.6098489196871677e+18
14624.0	1.6094952039645181e+18
14625.0	1.609268795434598e+18
14626.0	1.608981619828326e+18
14627.0	1.6086942043078653e+18
14628.0	1.608414117075353e+18
14629.0	1.6081264096313341e+18
14630.0	1.6078332646916093e+18
14631.0	1.6075380041449472e+18
14632.0	1.6070573939490813e+18
14633.0	1.6069122525757437e+18
14634.0	1.6066527509872637e+18
14635.0	1.6063401830645757e+18
14636.0	1.6059865596166141e+18
14637.0	1.6057949386440701e+18
14638.0	1.6054969316671485e+18
14639.0	1.6051990438084603e+18
14640.0	1.6049143713628157e+18
14641.0	1.6040022276833275e+18
14642.0	1.6043365053235197e+18
14643.0	1.6040643352592381e+18
14644.0	1.6037630936350715e+18
14645.0	1.6034610920030205e+18
14646.0	1.6031864288444413e+18
14647.0	1.6028932839047165e+18
