# Flux units: erg / (cm m2 s)
# Wavelength units: Angstrom
wave	flux
14000.0	2.1380212847542272e+18
14001.0	2.1375659746000893e+18
14002.0	2.1372053483421693e+18
14003.0	2.1367808092798968e+18
14004.0	2.1363558004555773e+18
14005.0	2.1359305483616253e+18
14006.0	2.1354996859666427e+18
14007.0	2.135071967621939e+18
14008.0	2.134581737370419e+18
14009.0	2.1342215288651773e+18
14010.0	2.133789260539494e+18
14011.0	2.1329027893559293e+18
14012.0	2.1329483193647101e+18
14013.0	2.1325324910329853e+18
14014.0	2.1321041552867325e+18
14015.0	2.1316837081874424e+18
14016.0	2.1312614088835064e+18
14017.0	2.1308378730987515e+18
14018.0	2.1304140957220861e+18
14019.0	2.129990499539353e+18
14020.0	2.1295662758887421e+18
14021.0	2.1291422703419387e+18
14022.0	2.1287195029536765e+18
14023.0	2.12828668601303e+18
14024.0	2.1278630881525757e+18
14025.0	2.1274502126108667e+18
14026.0	2.1270260560691195e+18
14027.0	2.126604328868249e+18
14028.0	2.12617580857262e+18
14029.0	2.125754470603161e+18
14030.0	2.1251779064758267e+18
14031.0	2.1248831744114688e+18
14032.0	2.1244897369522173e+18
14033.0	2.1240336802119677e+18
14034.0	2.1236470576578552e+18
14035.0	2.1232254143430659e+18
14036.0	2.1228035965452283e+18
14037.0	2.1223818106241021e+18
14038.0	2.1219600968450045e+18
14039.0	2.121534628324966e+18
14040.0	2.121113193047654e+18
14041.0	2.1206938180124667e+18
14042.0	2.1202652104753147e+18
14043.0	2.1198222936506365e+18
14044.0	2.1194229153791995e+18
14045.0	2.1190084778786816e+18
14046.0	2.1185850880557053e+18
14047.0	2.1181631477841917e+18
14048.0	2.1177475845324792e+18
14049.0	2.1173275837071355e+18
14050.0	2.1169069889683453e+18
14051.0	2.1164800507641848e+18
14052.0	2.116061719271833e+18
14053.0	2.1156459127504896e+18
14054.0	2.1152259605790715e+18
14055.0	2.1148059345879037e+18
14056.0	2.1143859941605373e+18
14057.0	2.1139661694959608e+18
14058.0	2.113546432072909e+18
14059.0	2.1131267835691005e+18
14060.0	2.1127071602311165e+18
14061.0	2.1122825792258043e+18
14062.0	2.111867920266035e+18
14063.0	2.1114366552178688e+18
14064.0	2.1110017595801597e+18
14065.0	2.1106042184138742e+18
14066.0	2.1101919854395387e+18
14067.0	2.1097732613603325e+18
14068.0	2.1093544752054264e+18
14069.0	2.1089352159330301e+18
14070.0	2.108517214951833e+18
14071.0	2.1080966571229176e+18
14072.0	2.1076805133795328e+18
14073.0	2.1072622859059192e+18
14074.0	2.1068441456738296e+18
14075.0	2.1064105888579584e+18
14076.0	2.1060076252954621e+18
14077.0	2.1055538418679805e+18
14078.0	2.105168512837222e+18
14079.0	2.1047464014381053e+18
14080.0	2.1043370256236536e+18
14081.0	2.1039196655321083e+18
14082.0	2.1035010840592381e+18
14083.0	2.1030832156180475e+18
14084.0	2.1026638321942525e+18
14085.0	2.1020573274472443e+18
14086.0	2.1018224246128635e+18
14087.0	2.1014159109914624e+18
14088.0	2.1009905817223168e+18
14089.0	2.1005837006798843e+18
14090.0	2.1001669999329277e+18
14091.0	2.099750919942963e+18
14092.0	2.099334647015014e+18
14093.0	2.0989183875088381e+18
14094.0	2.0985021280026624e+18
14095.0	2.0980856386486267e+18
14096.0	2.0976632571363325e+18
14097.0	2.0972397398065152e+18
14098.0	2.0968357041799165e+18
14099.0	2.0964223152553981e+18
14100.0	2.095997942287565e+18
14101.0	2.0955918782955515e+18
14102.0	2.0951763301433336e+18
14103.0	2.0947501469138936e+18
14104.0	2.0943435326291963e+18
14105.0	2.0939310110867453e+18
14106.0	2.0935160920801275e+18
14107.0	2.0931008442400763e+18
14108.0	2.0926757934727165e+18
14109.0	2.0922679779393533e+18
14110.0	2.091854823895859e+18
14111.0	2.0914345647013888e+18
14112.0	2.0910202832289787e+18
14113.0	2.0906134139305981e+18
14114.0	2.0901871803695101e+18
14115.0	2.089782721957068e+18
14116.0	2.0893532654927867e+18
14117.0	2.0886695033438205e+18
14118.0	2.0885378273640443e+18
14119.0	2.0881199354347517e+18
14120.0	2.0877121584889848e+18
14121.0	2.0872918305079293e+18
14122.0	2.0868856272650235e+18
14123.0	2.0864709364285435e+18
14124.0	2.0860474375536637e+18
14125.0	2.0852790544826363e+18
14126.0	2.085227613860659e+18
14127.0	2.0848219843985403e+18
14128.0	2.0844092917284856e+18
14129.0	2.0839873363574781e+18
14130.0	2.083565481649766e+18
14131.0	2.0831711281545216e+18
14132.0	2.0827435473829883e+18
14133.0	2.081914585140428e+18
14134.0	2.0819232908378112e+18
14135.0	2.0815116333219837e+18
14136.0	2.0811087284797435e+18
14137.0	2.0806985389703165e+18
14138.0	2.0802858865655805e+18
14139.0	2.0798756249141243e+18
14140.0	2.0794618081705981e+18
14141.0	2.0790472716845048e+18
14142.0	2.0786261417525245e+18
14143.0	2.078227553687961e+18
14144.0	2.0778193606672381e+18
14145.0	2.0774084094722043e+18
14146.0	2.0769963828576253e+18
14147.0	2.0765861295947773e+18
14148.0	2.0761757135929347e+18
14149.0	2.0757652774584317e+18
14150.0	2.0753545074573312e+18
14151.0	2.074942157042483e+18
14152.0	2.074533635188326e+18
14153.0	2.0741231386558461e+18
14154.0	2.0736899928817656e+18
14155.0	2.0732988421570555e+18
14156.0	2.072891875550822e+18
14157.0	2.0724822380118016e+18
14158.0	2.0720693205270528e+18
14159.0	2.0716621660159992e+18
14160.0	2.071241067960729e+18
14161.0	2.0707974146162683e+18
14162.0	2.070348305321164e+18
14163.0	2.0700189064953853e+18
14164.0	2.069597580269977e+18
14165.0	2.0691765342240765e+18
14166.0	2.0687927302422525e+18
14167.0	2.0683744356597755e+18
14168.0	2.0679780705763325e+18
14169.0	2.067570120825241e+18
14170.0	2.0671592736489467e+18
14171.0	2.0667504263168e+18
14172.0	2.0663436660703227e+18
14173.0	2.0659134630199293e+18
14174.0	2.065520627862732e+18
14175.0	2.0651189544681467e+18
14176.0	2.06471107182592e+18
14177.0	2.0643030633545725e+18
14178.0	2.0638943670173693e+18
14179.0	2.0634828034539515e+18
14180.0	2.0630794254942205e+18
14181.0	2.0626717794107387e+18
14182.0	2.0622635696127997e+18
14183.0	2.0618564905992187e+18
14184.0	2.061444853216051e+18
14185.0	2.0610398730321917e+18
14186.0	2.0605668109058043e+18
14187.0	2.0602020574527483e+18
14188.0	2.0598164616642555e+18
14189.0	2.0594128337240064e+18
14190.0	2.0590060214681592e+18
14191.0	2.0585989709758461e+18
14192.0	2.0581861474435067e+18
14193.0	2.0577783755309053e+18
14194.0	2.0573791750979581e+18
14195.0	2.0569740304973821e+18
14196.0	2.0565676695486461e+18
14197.0	2.0561614679834621e+18
14198.0	2.0557516156960765e+18
14199.0	2.0553474592735227e+18
14200.0	2.0549130300424187e+18
14201.0	2.0545333062795261e+18
14202.0	2.0541315674537981e+18
14203.0	2.0537215171952637e+18
14204.0	2.053318053671731e+18
14205.0	2.0529111474634747e+18
14206.0	2.0524089550569467e+18
14207.0	2.0521000160460797e+18
14208.0	2.0516974131937277e+18
14209.0	2.051186842245529e+18
14210.0	2.050806964132249e+18
14211.0	2.050478786687795e+18
14212.0	2.0500562038489088e+18
14213.0	2.0495659484315643e+18
14214.0	2.0491604280213501e+18
14215.0	2.0487473729634301e+18
14216.0	2.0483521554415616e+18
14217.0	2.0479476936736765e+18
14218.0	2.0475323300708347e+18
14219.0	2.0471387718156283e+18
14220.0	2.0467345784831997e+18
14221.0	2.046330031151513e+18
14222.0	2.0459183652470781e+18
14223.0	2.0455218592350205e+18
14224.0	2.0451173051924477e+18
14225.0	2.044619494994739e+18
14226.0	2.0443059439271933e+18
14227.0	2.043905647942041e+18
14228.0	2.043277904917299e+18
14229.0	2.0430492113305597e+18
14230.0	2.0426765138657277e+18
14231.0	2.0421769286385661e+18
14232.0	2.0417750908272635e+18
14233.0	2.0413693841899517e+18
14234.0	2.0409682896093176e+18
14235.0	2.040563057767219e+18
14236.0	2.040161577310617e+18
14237.0	2.0397569477705728e+18
14238.0	2.0393529792528381e+18
14239.0	2.0389366576709627e+18
14240.0	2.0373190354141184e+18
14241.0	2.0381224660893693e+18
14242.0	2.037733805103513e+18
14243.0	2.03721883516928e+18
14244.0	2.0369373470392315e+18
14245.0	2.0365282027503616e+18
14246.0	2.0361256368078843e+18
14247.0	2.0357290284548093e+18
14248.0	2.035319461380096e+18
14249.0	2.034928025442713e+18
14250.0	2.034489302922035e+18
14251.0	2.0340068606541824e+18
14252.0	2.0336047594405883e+18
14253.0	2.0332018713755643e+18
14254.0	2.0327983826862075e+18
14255.0	2.0323707280949243e+18
14256.0	2.0318996456800253e+18
14257.0	2.0315723775606784e+18
14258.0	2.0311930329628664e+18
14259.0	2.030774731669504e+18
14260.0	2.0303856277651453e+18
14261.0	2.0299707272134656e+18
14262.0	2.0296107133239293e+18
14263.0	2.029068151580262e+18
14264.0	2.0287513507659773e+18
14265.0	2.028404525445939e+18
14266.0	2.028010856461107e+18
14267.0	2.0276108691767293e+18
14268.0	2.0272104691728381e+18
14269.0	2.0268018969870336e+18
14270.0	2.0264093084549117e+18
14271.0	2.0260084235894781e+18
14272.0	2.0256071176159224e+18
14273.0	2.025143110153011e+18
14274.0	2.0244442233438203e+18
14275.0	2.024244242284544e+18
14276.0	2.0238687983894528e+18
14277.0	2.02347455226839e+18
14278.0	2.0230830659993597e+18
14279.0	2.0226822247546877e+18
14280.0	2.022278772975206e+18
14281.0	2.0218843641151483e+18
14282.0	2.0214849506115581e+18
14283.0	2.0210853039046653e+18
14284.0	2.020685660553216e+18
14285.0	2.020285938348851e+18
14286.0	2.0198859879743483e+18
14287.0	2.019485505762099e+18
14288.0	2.0190764554256381e+18
14289.0	2.017897074183371e+18
14290.0	2.018278688738508e+18
14291.0	2.0178825618915325e+18
14292.0	2.0174804808105981e+18
14293.0	2.017078403085107e+18
14294.0	2.0165738685792253e+18
14295.0	2.0162609768562683e+18
14296.0	2.0152549646532608e+18
14297.0	2.015462362919731e+18
14298.0	2.014935648934297e+18
14299.0	2.0145477060132861e+18
14300.0	2.0141564177154043e+18
14301.0	2.013761633045708e+18
14302.0	2.0133657092030464e+18
14303.0	2.012936816453222e+18
14304.0	2.012556720236134e+18
14305.0	2.0121712452435965e+18
14306.0	2.0117682028281856e+18
14307.0	2.01137151058903e+18
14308.0	2.010977244335308e+18
14309.0	2.010576924862054e+18
14310.0	2.010152818651955e+18
14311.0	2.0097698233319421e+18
14312.0	2.0093654370615296e+18
14313.0	2.0089242449346555e+18
14314.0	2.0085911802871805e+18
14315.0	2.008192759994777e+18
14316.0	2.0077577485942781e+18
14317.0	2.0073972330659837e+18
14318.0	2.0070048357941243e+18
14319.0	2.0066088364539901e+18
14320.0	2.006211770082918e+18
14321.0	2.005812359934771e+18
14322.0	2.0053883795537915e+18
14323.0	2.0050031797075965e+18
14324.0	2.0046256571154432e+18
14325.0	2.0042204084961277e+18
14326.0	2.0037699704455165e+18
14327.0	2.0032893904486397e+18
14328.0	2.002893944756633e+18
14329.0	2.0025026782691325e+18
14330.0	2.0021063299629048e+18
14331.0	2.0017097954295805e+18
14332.0	2.001313723947417e+18
14333.0	2.0009175635460093e+18
14334.0	2.0005213813342205e+18
14335.0	2.0001162535108603e+18
14336.0	1.9997188381736955e+18
14337.0	1.9993304791777277e+18
14338.0	1.9989350720733181e+18
14339.0	1.9985312327401464e+18
14340.0	1.9981460412825597e+18
14341.0	1.9977503019892733e+18
14342.0	1.9973529285951483e+18
14343.0	1.9969579191107584e+18
14344.0	1.9965601246085115e+18
14345.0	1.9961690225377277e+18
14346.0	1.9957718840246264e+18
14347.0	1.9953714370445307e+18
14348.0	1.994983044494131e+18
14349.0	1.9945886691885048e+18
14350.0	1.9941854757781501e+18
14351.0	1.9937854717165565e+18
14352.0	1.9933962403053565e+18
14353.0	1.9930085490425856e+18
14354.0	1.992613725785292e+18
14355.0	1.9922178539519997e+18
14356.0	1.9918240088063997e+18
14357.0	1.9914321869930493e+18
14358.0	1.9909808329064443e+18
14359.0	1.9904893108092925e+18
14360.0	1.9901085065936896e+18
14361.0	1.989714554073907e+18
14362.0	1.9893204203601917e+18
14363.0	1.9889255115390973e+18
14364.0	1.9885070206631933e+18
14365.0	1.988128259912499e+18
14366.0	1.9877388993167355e+18
14367.0	1.987349704815411e+18
14368.0	1.9869555107037181e+18
14369.0	1.986562130287001e+18
14370.0	1.9861684126482424e+18
14371.0	1.9857747671515133e+18
14372.0	1.9853763703472125e+18
14373.0	1.9849873369071616e+18
14374.0	1.9845939145474045e+18
14375.0	1.9841995778293755e+18
14376.0	1.983807388594995e+18
14377.0	1.9834135753261053e+18
14378.0	1.983018748713369e+18
14379.0	1.982627678519296e+18
14380.0	1.9822337679425533e+18
14381.0	1.981830940275507e+18
14382.0	1.9814473460088832e+18
14383.0	1.9810538749951997e+18
14384.0	1.9806460091301883e+18
14385.0	1.9802705853677565e+18
14386.0	1.9798611005014016e+18
14387.0	1.9794851331571707e+18
14388.0	1.979091688987033e+18
14389.0	1.9786998906617856e+18
14390.0	1.9783065622544381e+18
14391.0	1.977915934978867e+18
14392.0	1.977523128342937e+18
14393.0	1.9771318081683456e+18
14394.0	1.9767048984854525e+18
14395.0	1.9762420016742397e+18
14396.0	1.9758194238685181e+18
14397.0	1.9754269695541243e+18
14398.0	1.9750341276860416e+18
14399.0	1.974641483789107e+18
14400.0	1.9742338158952443e+18
14401.0	1.9738477436338173e+18
14402.0	1.973450618542489e+18
14403.0	1.9725160588247035e+18
14404.0	1.969946394991e+18
14405.0	1.9709147037564902e+18
14406.0	1.971869521962598e+18
14407.0	1.9708191591890941e+18
14408.0	1.971081747785318e+18
14409.0	1.9707050523099133e+18
14410.0	1.9703296419692541e+18
14411.0	1.9699410095046653e+18
14412.0	1.969548402517606e+18
14413.0	1.9691604914733053e+18
14414.0	1.9687674918993917e+18
14415.0	1.968377332708147e+18
14416.0	1.967987076209049e+18
14417.0	1.9675940112039933e+18
14418.0	1.9672005301239803e+18
14419.0	1.966812219781939e+18
14420.0	1.966417617983897e+18
14421.0	1.966028894922342e+18
14422.0	1.9656283204354045e+18
14423.0	1.9651919869902843e+18
14424.0	1.9620622174781425e+18
14425.0	1.964400481560166e+18
14426.0	1.9640703042715643e+18
14427.0	1.9636872720416765e+18
14428.0	1.9632777653649403e+18
14429.0	1.962906358068019e+18
14430.0	1.962518473867264e+18
14431.0	1.9620848264544256e+18
14432.0	1.9617264047226875e+18
14433.0	1.9608233794600952e+18
14434.0	1.960936962890137e+18
14435.0	1.960558463864012e+18
14436.0	1.960073545279078e+18
14437.0	1.9596553647816701e+18
14438.0	1.9592525790576637e+18
14439.0	1.958870063566028e+18
14440.0	1.9584854995763197e+18
14441.0	1.9580903256752125e+18
14442.0	1.9576962993356797e+18
14443.0	1.9572735051038717e+18
14444.0	1.9569196299976701e+18
14445.0	1.9565266841108477e+18
14446.0	1.9550715659681795e+18
14447.0	1.9557146114916347e+18
14448.0	1.9553665278803965e+18
14449.0	1.9549802391928827e+18
14450.0	1.9545862061424637e+18
14451.0	1.9541989141774333e+18
14452.0	1.9538117530746877e+18
14453.0	1.9534180119478272e+18
14454.0	1.953034912609075e+18
14455.0	1.952638772340326e+18
14456.0	1.9522557770203133e+18
14457.0	1.951866379514675e+18
14458.0	1.9514786127544315e+18
14459.0	1.9510884032315387e+18
14460.0	1.9506991734980605e+18
14461.0	1.9502973474308093e+18
14462.0	1.9499153738432512e+18
14463.0	1.9495307410669565e+18
14464.0	1.9491461535891453e+18
14465.0	1.9487410458984443e+18
14466.0	1.948367950813593e+18
14467.0	1.947961589864857e+18
14468.0	1.9475894376595456e+18
14469.0	1.947187972302438e+18
14470.0	1.9467939879059453e+18
14471.0	1.946422865821696e+18
14472.0	1.9460375938334715e+18
14473.0	1.94565410694103e+18
14474.0	1.945268512830259e+18
14475.0	1.9448778905878525e+18
14476.0	1.9444614901530624e+18
14477.0	1.9441055279611901e+18
14478.0	1.9437156455940093e+18
14479.0	1.9433308098134008e+18
14480.0	1.9429271214751744e+18
14481.0	1.942555796386611e+18
14482.0	1.9421640400044027e+18
14483.0	1.9417719782768637e+18
14484.0	1.9413782438608893e+18
14485.0	1.9409206620717053e+18
14486.0	1.9402256491216893e+18
14487.0	1.9400887369728e+18
14488.0	1.9397037082542075e+18
14489.0	1.9393151244435456e+18
14490.0	1.9389294816788475e+18
14491.0	1.938543130915635e+18
14492.0	1.938157476406886e+18
14493.0	1.9377633695367163e+18
14494.0	1.937362826926489e+18
14495.0	1.9369892906008573e+18
14496.0	1.9364944734584832e+18
14497.0	1.9362178356215803e+18
14498.0	1.9358340333174781e+18
14499.0	1.935447187626393e+18
14500.0	1.935059204440064e+18
14501.0	1.9346479244115968e+18
14502.0	1.934106746788249e+18
14503.0	1.9338819102834688e+18
14504.0	1.9335051946754045e+18
14505.0	1.9331065126584315e+18
14506.0	1.932701832786739e+18
14507.0	1.932141467061452e+18
14508.0	1.9319617612677117e+18
14509.0	1.9315790796816381e+18
14510.0	1.9311902727340032e+18
14511.0	1.9308052624703483e+18
14512.0	1.9304069495521275e+18
14513.0	1.930030022551142e+18
14514.0	1.929617089966899e+18
14515.0	1.9292419396730877e+18
14516.0	1.9268659587317768e+18
14517.0	1.928437853008691e+18
14518.0	1.9280968980365312e+18
14519.0	1.9277150569889787e+18
14520.0	1.92733020946432e+18
14521.0	1.9269444375150587e+18
14522.0	1.9265575398146043e+18
14523.0	1.9261368410570747e+18
14524.0	1.9257505725022205e+18
14525.0	1.925395568289382e+18
14526.0	1.9250125125713915e+18
14527.0	1.9246038715990016e+18
14528.0	1.9241377183301627e+18
14529.0	1.9238473282093053e+18
14530.0	1.9234567009337344e+18
14531.0	1.9230838877061115e+18
14532.0	1.9226589963223037e+18
14533.0	1.9223134628478973e+18
14534.0	1.9219315144261632e+18
14535.0	1.9215355117305856e+18
14536.0	1.9211563768479741e+18
14537.0	1.920765142237184e+18
14538.0	1.920389804038553e+18
14539.0	1.9200047300214784e+18
14540.0	1.9196191593988093e+18
14541.0	1.919196257792819e+18
14542.0	1.9187059151339515e+18
14543.0	1.91827827228672e+18
14544.0	1.917918872443289e+18
14545.0	1.9175128084512765e+18
14546.0	1.913759441564465e+18
14547.0	1.9135683591405542e+18
14548.0	1.9163443474989053e+18
14549.0	1.915887295869747e+18
14550.0	1.915598979412787e+18
14551.0	1.915227379177881e+18
14552.0	1.9148422397296637e+18
14553.0	1.9144525150683133e+18
14554.0	1.9140734556831744e+18
14555.0	1.913687859894681e+18
14556.0	1.913301492354252e+18
14557.0	1.912914681895321e+18
14558.0	1.9125122300379133e+18
14559.0	1.9106615739285484e+18
14560.0	1.9117399865294845e+18
14561.0	1.9113687067394045e+18
14562.0	1.9109693368565752e+18
14563.0	1.9106066721669115e+18
14564.0	1.9102207156682747e+18
14565.0	1.9098384082141181e+18
14566.0	1.909453686518579e+18
14567.0	1.9090683054784507e+18
14568.0	1.9086771245547517e+18
14569.0	1.9082911143690237e+18
14570.0	1.9075021523648507e+18
14571.0	1.9075213169786875e+18
14572.0	1.9071113187295227e+18
14573.0	1.906715032498995e+18
14574.0	1.9063697154506752e+18
14575.0	1.9059883693309947e+18
14576.0	1.905604171084595e+18
14577.0	1.905214344082227e+18
14578.0	1.904835229332275e+18
14579.0	1.904452406817587e+18
14580.0	1.904068040799027e+18
14581.0	1.9036810927669243e+18
14582.0	1.9032987534360573e+18
14583.0	1.9029140954939387e+18
14584.0	1.902521334156492e+18
14585.0	1.9021448316190717e+18
14586.0	1.9017580580700155e+18
14587.0	1.9013757858480125e+18
14588.0	1.9009919852216323e+18
14589.0	1.900610625680179e+18
14590.0	1.9002292996931584e+18
14591.0	1.8998473563045883e+18
14592.0	1.8994575074918397e+18
14593.0	1.8989839504375805e+18
14594.0	1.8987003953545208e+18
14595.0	1.898314714002227e+18
14596.0	1.8979160084971517e+18
14597.0	1.897531409275289e+18
14598.0	1.8971749286674432e+18
14599.0	1.896798115751526e+18
14600.0	1.8964170984652792e+18
14601.0	1.8960359536721915e+18
14602.0	1.8956541478567933e+18
14603.0	1.895272592021913e+18
14604.0	1.8948574934990845e+18
14605.0	1.894506393344409e+18
14606.0	1.8940379281752061e+18
14607.0	1.8936110973452283e+18
14608.0	1.8932332694077437e+18
14609.0	1.8928517387386875e+18
14610.0	1.8924700755296256e+18
14611.0	1.8920879626911741e+18
14612.0	1.8917097270673403e+18
14613.0	1.8913289295626235e+18
14614.0	1.8909447699038205e+18
14615.0	1.8905657725943803e+18
14616.0	1.8901848945590272e+18
14617.0	1.8898030635778043e+18
14618.0	1.8894208517537795e+18
14619.0	1.8890128231497725e+18
14620.0	1.8885979779629053e+18
14621.0	1.8882762110926843e+18
14622.0	1.88789271077847e+18
14623.0	1.8875132118302717e+18
14624.0	1.8870832705044477e+18
14625.0	1.8867455149473784e+18
14626.0	1.8863686516998144e+18
14627.0	1.8859851631296507e+18
14628.0	1.885606789932646e+18
14629.0	1.8852253347610621e+18
14630.0	1.8848430709276672e+18
14631.0	1.884459862537011e+18
14632.0	1.8838573977436155e+18
14633.0	1.8836551349829624e+18
14634.0	1.8833147571470333e+18
14635.0	1.882930936387993e+18
14636.0	1.8825402336149504e+18
14637.0	1.882172178405785e+18
14638.0	1.8817884901867515e+18
14639.0	1.881397889754726e+18
14640.0	1.881006423618355e+18
14641.0	1.8797640623849462e+18
14642.0	1.880240909451264e+18
14643.0	1.8798782179180541e+18
14644.0	1.879487364150067e+18
14645.0	1.879098033753292e+18
14646.0	1.8787289652002808e+18
14647.0	1.8783464631304187e+18
