# Flux units: erg / (cm m2 s)
# Wavelength units: Angstrom
wave	flux
14000.0	1.6131176565571581e+18
14001.0	1.6128169165717504e+18
14002.0	1.612566488101683e+18
14003.0	1.6122908686417915e+18
14004.0	1.6120150545661947e+18
14005.0	1.6117392992108541e+18
14006.0	1.6114624063602685e+18
14007.0	1.6111872935723003e+18
14008.0	1.6108989452386301e+18
14009.0	1.610636667020902e+18
14010.0	1.6103613076078592e+18
14011.0	1.609988593365811e+18
14012.0	1.6098105048956925e+18
14013.0	1.609535368619622e+18
14014.0	1.6092601467797501e+18
14015.0	1.6089846799925248e+18
14016.0	1.6087099077820413e+18
14017.0	1.6084348788801528e+18
14018.0	1.608159893599027e+18
14019.0	1.607884980459929e+18
14020.0	1.6076100237000701e+18
14021.0	1.607335142437683e+18
14022.0	1.6070604004261888e+18
14023.0	1.6067856265379837e+18
14024.0	1.606509956746444e+18
14025.0	1.6062366877745147e+18
14026.0	1.6059619575070715e+18
14027.0	1.605687787598643e+18
14028.0	1.6054134079750141e+18
14029.0	1.605139046806323e+18
14030.0	1.6048184878956544e+18
14031.0	1.6045898161192952e+18
14032.0	1.6043164330622976e+18
14033.0	1.6040368441131003e+18
14034.0	1.6037683029606395e+18
14035.0	1.6034944199426048e+18
14036.0	1.60322052685824e+18
14037.0	1.6029466857832448e+18
14038.0	1.6026729084616704e+18
14039.0	1.6023991797940221e+18
14040.0	1.6021255199129597e+18
14041.0	1.601851910363545e+18
14042.0	1.6015767573102587e+18
14043.0	1.6012987840069632e+18
14044.0	1.6010294509699072e+18
14045.0	1.600758086211993e+18
14046.0	1.6004847752970237e+18
14047.0	1.6002113519747072e+18
14048.0	1.599938269229875e+18
14049.0	1.5996652099731453e+18
14050.0	1.5993921406500861e+18
14051.0	1.5991179002773504e+18
14052.0	1.5988461630652413e+18
14053.0	1.5985732816470013e+18
14054.0	1.5983004505604093e+18
14055.0	1.5980276731609088e+18
14056.0	1.5977549712588797e+18
14057.0	1.5974823247216637e+18
14058.0	1.5972097083834365e+18
14059.0	1.596937127277363e+18
14060.0	1.5966646485123067e+18
14061.0	1.596391186602393e+18
14062.0	1.5961198604320763e+18
14063.0	1.5958454321545208e+18
14064.0	1.5955653415665664e+18
14065.0	1.595301818479411e+18
14066.0	1.595031004014182e+18
14067.0	1.59475893796864e+18
14068.0	1.5944869272879104e+18
14069.0	1.5942148025221112e+18
14070.0	1.5939430602768381e+18
14071.0	1.5936707945824253e+18
14072.0	1.593399465056665e+18
14073.0	1.593127749654937e+18
14074.0	1.5928561013620733e+18
14075.0	1.592584454746931e+18
14076.0	1.5923129540935677e+18
14077.0	1.592031514617446e+18
14078.0	1.5917693236412416e+18
14079.0	1.591497817954713e+18
14080.0	1.5912273893654525e+18
14081.0	1.590956158825267e+18
14082.0	1.5906847017926653e+18
14083.0	1.5904135987593216e+18
14084.0	1.5901426769199104e+18
14085.0	1.5898361873825787e+18
14086.0	1.5895998467407872e+18
14087.0	1.5893298543591424e+18
14088.0	1.5890588989652987e+18
14089.0	1.5887882422059003e+18
14090.0	1.588517369020416e+18
14091.0	1.5882468649336824e+18
14092.0	1.5879762585059328e+18
14093.0	1.5877057007321085e+18
14094.0	1.587435216778035e+18
14095.0	1.5871647747670013e+18
14096.0	1.5868924755181565e+18
14097.0	1.5866239662424064e+18
14098.0	1.5863529437396987e+18
14099.0	1.5860836241244157e+18
14100.0	1.5858115983441915e+18
14101.0	1.5855434044801021e+18
14102.0	1.5852733483450363e+18
14103.0	1.585000933333401e+18
14104.0	1.5847334994771965e+18
14105.0	1.584463616147456e+18
14106.0	1.5841938318032893e+18
14107.0	1.583924039070515e+18
14108.0	1.5836544342425597e+18
14109.0	1.5833841096720381e+18
14110.0	1.5831149041418235e+18
14111.0	1.5828447641206781e+18
14112.0	1.5825759897649147e+18
14113.0	1.582306858054451e+18
14114.0	1.582037541794611e+18
14115.0	1.5817680158195707e+18
14116.0	1.581497760035635e+18
14117.0	1.5811476061159421e+18
14118.0	1.580960649209446e+18
14119.0	1.5806905830080507e+18
14120.0	1.5804217314770941e+18
14121.0	1.5801534906367997e+18
14122.0	1.579883051981209e+18
14123.0	1.579615296002457e+18
14124.0	1.5793462750216187e+18
14125.0	1.5790125711622141e+18
14126.0	1.5788098436726784e+18
14127.0	1.578541404861235e+18
14128.0	1.5782726623821821e+18
14129.0	1.5780027975073787e+18
14130.0	1.5777339778531323e+18
14131.0	1.5774676680703997e+18
14132.0	1.5771991923490813e+18
14133.0	1.576853704173158e+18
14134.0	1.5766627358343165e+18
14135.0	1.5763929565233147e+18
14136.0	1.5761256149417981e+18
14137.0	1.5758585300516864e+18
14138.0	1.575589839582003e+18
14139.0	1.5753227395923968e+18
14140.0	1.5750544735862781e+18
14141.0	1.5747867427733504e+18
14142.0	1.5745135694315515e+18
14143.0	1.574251403621171e+18
14144.0	1.5739841627029496e+18
14145.0	1.5737166013399037e+18
14146.0	1.5734488453611515e+18
14147.0	1.5731815054573563e+18
14148.0	1.5729141521317888e+18
14149.0	1.5726469347016701e+18
14150.0	1.5723796518404093e+18
14151.0	1.5721120586006525e+18
14152.0	1.5718452706672637e+18
14153.0	1.5715781320900603e+18
14154.0	1.5713077773205501e+18
14155.0	1.5710391405379584e+18
14156.0	1.5707765334867965e+18
14157.0	1.5705102857797632e+18
14158.0	1.570242882122547e+18
14159.0	1.5699766746808315e+18
14160.0	1.569709103251456e+18
14161.0	1.5694348242911232e+18
14162.0	1.5691617398685693e+18
14163.0	1.5689098668802043e+18
14164.0	1.5686413190168576e+18
14165.0	1.5683713299906557e+18
14166.0	1.5681107345276923e+18
14167.0	1.567844557284966e+18
14168.0	1.5675780746969085e+18
14169.0	1.567312093747609e+18
14170.0	1.5670454668754944e+18
14171.0	1.566779376874291e+18
14172.0	1.566513800255897e+18
14173.0	1.5662432626147328e+18
14174.0	1.5659812863868925e+18
14175.0	1.5657160268578813e+18
14176.0	1.5654502103252992e+18
14177.0	1.5651844676124667e+18
14178.0	1.5649186846343168e+18
14179.0	1.564652198690816e+18
14180.0	1.5643875213311995e+18
14181.0	1.5641219950444541e+18
14182.0	1.5638563932602365e+18
14183.0	1.5635910850772987e+18
14184.0	1.5633249833320443e+18
14185.0	1.5630603747590141e+18
14186.0	1.562778524241101e+18
14187.0	1.5625264717365243e+18
14188.0	1.5622646179823613e+18
14189.0	1.5619995446804475e+18
14190.0	1.5617345284210685e+18
14191.0	1.5614695104839677e+18
14192.0	1.561203568122265e+18
14193.0	1.5609375754289147e+18
14194.0	1.5606748391931901e+18
14195.0	1.5604103363166205e+18
14196.0	1.5601455901704192e+18
14197.0	1.559880943009792e+18
14198.0	1.559615581139763e+18
14199.0	1.5593515547361275e+18
14200.0	1.559078129736089e+18
14201.0	1.5588225590493181e+18
14202.0	1.5585585846550525e+18
14203.0	1.5582932949270525e+18
14204.0	1.5580295906459648e+18
14205.0	1.5577653830483965e+18
14206.0	1.5574844754100221e+18
14207.0	1.5572374812360701e+18
14208.0	1.5569735118749693e+18
14209.0	1.5566909416144893e+18
14210.0	1.5564323594174456e+18
14211.0	1.556181628957491e+18
14212.0	1.5559178139467776e+18
14213.0	1.555654153286451e+18
14214.0	1.5553903416311803e+18
14215.0	1.5551249042636795e+18
14216.0	1.554863270291046e+18
14217.0	1.5545997304266747e+18
14218.0	1.5543362341830656e+18
14219.0	1.5540727681384443e+18
14220.0	1.5538094212120576e+18
14221.0	1.5535460306649085e+18
14222.0	1.5532827844018173e+18
14223.0	1.5530195800817664e+18
14224.0	1.5527564445483003e+18
14225.0	1.5524636083093501e+18
14226.0	1.552230158381875e+18
14227.0	1.5519672862507003e+18
14228.0	1.5516192848478203e+18
14229.0	1.5514261824471035e+18
14230.0	1.5511786564354048e+18
14231.0	1.550915901744742e+18
14232.0	1.5506531906748416e+18
14233.0	1.5503711774179328e+18
14234.0	1.5501070251851776e+18
14235.0	1.5498439970258941e+18
14236.0	1.5495817825615872e+18
14237.0	1.5493190379372541e+18
14238.0	1.549056675833446e+18
14239.0	1.5487934278926333e+18
14240.0	1.5482729483206656e+18
14241.0	1.5482309717262333e+18
14242.0	1.547963242591027e+18
14243.0	1.5476789459550205e+18
14244.0	1.5474390149890043e+18
14245.0	1.5471757469155325e+18
14246.0	1.5469128110309373e+18
14247.0	1.5466529235664893e+18
14248.0	1.546388202586112e+18
14249.0	1.546128796627763e+18
14250.0	1.5458669428736e+18
14251.0	1.5455881357426685e+18
14252.0	1.5453232520232957e+18
14253.0	1.5450613949136893e+18
14254.0	1.544799438818508e+18
14255.0	1.5445328756998141e+18
14256.0	1.5442470691143677e+18
14257.0	1.5440138003808253e+18
14258.0	1.5437535136186365e+18
14259.0	1.5434920977498107e+18
14260.0	1.54322981617664e+18
14261.0	1.5429701417828355e+18
14262.0	1.5427313936105472e+18
14263.0	1.5424265801170941e+18
14264.0	1.542200022269952e+18
14265.0	1.5419478875570176e+18
14266.0	1.541686825687449e+18
14267.0	1.5414134174646272e+18
14268.0	1.5411372443566077e+18
14269.0	1.5408759174070272e+18
14270.0	1.5406154276405248e+18
14271.0	1.5403348958117885e+18
14272.0	1.540073463165747e+18
14273.0	1.5398123996184573e+18
14274.0	1.5394864468328448e+18
14275.0	1.5392850413879293e+18
14276.0	1.5390300964913147e+18
14277.0	1.5387693382893565e+18
14278.0	1.538509385393766e+18
14279.0	1.538248739599155e+18
14280.0	1.5379874160050173e+18
14281.0	1.5377280519897085e+18
14282.0	1.5374677518057467e+18
14283.0	1.537207458332672e+18
14284.0	1.536947213513523e+18
14285.0	1.5366870056042493e+18
14286.0	1.5364267171643387e+18
14287.0	1.5361667122593787e+18
14288.0	1.5359065664258048e+18
14289.0	1.5354808982568952e+18
14290.0	1.5353865616490493e+18
14291.0	1.5351267748478973e+18
14292.0	1.5348670585110525e+18
14293.0	1.534605553722982e+18
14294.0	1.5343075635232763e+18
14295.0	1.5340676006805501e+18
14296.0	1.5336744585003005e+18
14297.0	1.5335479465476093e+18
14298.0	1.5332626650890235e+18
14299.0	1.5330287252668413e+18
14300.0	1.5327697404166141e+18
14301.0	1.5325102623162365e+18
14302.0	1.5322503916290048e+18
14303.0	1.5319866269499392e+18
14304.0	1.5317299841990653e+18
14305.0	1.5314725864734715e+18
14306.0	1.531212073218867e+18
14307.0	1.5309535497420795e+18
14308.0	1.5306951772602365e+18
14309.0	1.5304358048563197e+18
14310.0	1.530170300379955e+18
14311.0	1.529907968475136e+18
14312.0	1.529654800285696e+18
14313.0	1.5293756072787965e+18
14314.0	1.5291412429930493e+18
14315.0	1.5288827899805693e+18
14316.0	1.528616637903667e+18
14317.0	1.5283644377595901e+18
14318.0	1.528106882328166e+18
14319.0	1.5278323751976957e+18
14320.0	1.5275699577290747e+18
14321.0	1.5273114812284925e+18
14322.0	1.5270472283324413e+18
14323.0	1.526791880782643e+18
14324.0	1.5265361339351037e+18
14325.0	1.5262777832636413e+18
14326.0	1.5260194862792701e+18
14327.0	1.5257612262047741e+18
14328.0	1.5255020148621312e+18
14329.0	1.5252448654393341e+18
14330.0	1.5249867530043387e+18
14331.0	1.5247286472802301e+18
14332.0	1.5244706673852413e+18
14333.0	1.5242126925234173e+18
14334.0	1.5239547864481792e+18
14335.0	1.5236948503298048e+18
14336.0	1.5234361288818685e+18
14337.0	1.5231812276060157e+18
14338.0	1.522923267843686e+18
14339.0	1.522665574839091e+18
14340.0	1.5224082324783101e+18
14341.0	1.5221504639762432e+18
14342.0	1.5218931065159675e+18
14343.0	1.5216354269331453e+18
14344.0	1.5213780526956541e+18
14345.0	1.5211207858323453e+18
14346.0	1.5208628126482432e+18
14347.0	1.5205842756304893e+18
14348.0	1.520329204904755e+18
14349.0	1.5200719732735997e+18
14350.0	1.5198124549079035e+18
14351.0	1.5195551125471224e+18
14352.0	1.5193004092424192e+18
14353.0	1.5190433051181053e+18
14354.0	1.5187857832411136e+18
14355.0	1.5185283620274176e+18
14356.0	1.5182716286795773e+18
14357.0	1.518015349994291e+18
14358.0	1.5177584673292283e+18
14359.0	1.517501547754291e+18
14360.0	1.5172445879140347e+18
14361.0	1.5169880173051896e+18
14362.0	1.5167314030755835e+18
14363.0	1.5164747150262267e+18
14364.0	1.5162109537026043e+18
14365.0	1.5159602333089787e+18
14366.0	1.5157036559892477e+18
14367.0	1.5154486137847805e+18
14368.0	1.5151921186734077e+18
14369.0	1.5149358097891328e+18
14370.0	1.514679484127641e+18
14371.0	1.5144231970537472e+18
14372.0	1.5141669200461821e+18
14373.0	1.5139107017588736e+18
14374.0	1.513654589168025e+18
14375.0	1.513398469866291e+18
14376.0	1.5131424008962048e+18
14377.0	1.5128862765613053e+18
14378.0	1.5126299760656384e+18
14379.0	1.5123569084203005e+18
14380.0	1.5120991650840573e+18
14381.0	1.5118428545220605e+18
14382.0	1.5115871412289536e+18
14383.0	1.5113310588370941e+18
14384.0	1.5110756928323581e+18
14385.0	1.5108200063827965e+18
14386.0	1.5105643014782973e+18
14387.0	1.5103085831520253e+18
14388.0	1.51005270376448e+18
14389.0	1.5097973646032893e+18
14390.0	1.5095415120592896e+18
14391.0	1.5092863339593725e+18
14392.0	1.509030684419686e+18
14393.0	1.5087754626990072e+18
14394.0	1.5085148034826237e+18
14395.0	1.508263232484147e+18
14396.0	1.5080094284382205e+18
14397.0	1.507754169807667e+18
14398.0	1.507498902788505e+18
14399.0	1.507243763276185e+18
14400.0	1.5069855535333376e+18
14401.0	1.5067325648601085e+18
14402.0	1.5064781635452925e+18
14403.0	1.5061110679928824e+18
14404.0	1.5053307479326712e+18
14405.0	1.5054363319861238e+18
14406.0	1.5054582430302205e+18
14407.0	1.504922264666112e+18
14408.0	1.5047286253944832e+18
14409.0	1.5044716554878976e+18
14410.0	1.5042195526516736e+18
14411.0	1.5039653409193981e+18
14412.0	1.503710248383283e+18
14413.0	1.503456273209753e+18
14414.0	1.5032013299908605e+18
14415.0	1.5029440815824893e+18
14416.0	1.5026735137423357e+18
14417.0	1.5024187601059835e+18
14418.0	1.5021629981589501e+18
14419.0	1.5019097058181115e+18
14420.0	1.5016546988457984e+18
14421.0	1.5014010239844347e+18
14422.0	1.5011466277027835e+18
14423.0	1.5008908254904312e+18
14424.0	1.5000137831022584e+18
14425.0	1.500382554698547e+18
14426.0	1.500129769029632e+18
14427.0	1.499875751913062e+18
14428.0	1.4996185555140603e+18
14429.0	1.4993669325062141e+18
14430.0	1.4991135747342336e+18
14431.0	1.4988464680337405e+18
14432.0	1.4986050724167675e+18
14433.0	1.4982360961384443e+18
14434.0	1.4980956473524221e+18
14435.0	1.4978409960570877e+18
14436.0	1.4975902186209277e+18
14437.0	1.4973364649066493e+18
14438.0	1.497078926252441e+18
14439.0	1.4968281538494456e+18
14440.0	1.4965751483990016e+18
14441.0	1.4963198260150267e+18
14442.0	1.4960650707009536e+18
14443.0	1.4958051060613115e+18
14444.0	1.4955601033428992e+18
14445.0	1.4953073008967677e+18
14446.0	1.4948205032636413e+18
14447.0	1.494799374037811e+18
14448.0	1.4945480446312448e+18
14449.0	1.4942947573235712e+18
14450.0	1.4940414180065275e+18
14451.0	1.4937881508315136e+18
14452.0	1.4935348316471293e+18
14453.0	1.4932799672811515e+18
14454.0	1.4930285506330627e+18
14455.0	1.492774555326873e+18
14456.0	1.4925187917021181e+18
14457.0	1.4922498965503997e+18
14458.0	1.4919971914121213e+18
14459.0	1.4917438839717888e+18
14460.0	1.491490844966912e+18
14461.0	1.491234626679603e+18
14462.0	1.4909757894688765e+18
14463.0	1.4907313252990976e+18
14464.0	1.490479388557312e+18
14465.0	1.490222364963635e+18
14466.0	1.489973958148096e+18
14467.0	1.489718627375513e+18
14468.0	1.4894682475593723e+18
14469.0	1.489211762514329e+18
14470.0	1.4889581581172736e+18
14471.0	1.4887085886406653e+18
14472.0	1.4884578346926077e+18
14473.0	1.4882053342363645e+18
14474.0	1.4879528287469565e+18
14475.0	1.4877001504522237e+18
14476.0	1.4874404441817088e+18
14477.0	1.4871953223450627e+18
14478.0	1.486942984627814e+18
14479.0	1.4866905781239805e+18
14480.0	1.4864367153577981e+18
14481.0	1.4861859932864507e+18
14482.0	1.4859331052765181e+18
14483.0	1.485679715627827e+18
14484.0	1.4854275138060285e+18
14485.0	1.4851708844769275e+18
14486.0	1.4848772546756605e+18
14487.0	1.4846722756837376e+18
14488.0	1.4844201258713085e+18
14489.0	1.4841667362226176e+18
14490.0	1.4839153111859197e+18
14491.0	1.48366340128768e+18
14492.0	1.4834115467542528e+18
14493.0	1.4831594036527104e+18
14494.0	1.4829042809176064e+18
14495.0	1.482655285221785e+18
14496.0	1.4823822142210045e+18
14497.0	1.4821511902789632e+18
14498.0	1.4818994515083264e+18
14499.0	1.4816475499986941e+18
14500.0	1.4813956082237437e+18
14501.0	1.4811408344547325e+18
14502.0	1.4808536991137792e+18
14503.0	1.4806379709595645e+18
14504.0	1.480387435115315e+18
14505.0	1.4801336864342013e+18
14506.0	1.4798665008807936e+18
14507.0	1.4795755151687677e+18
14508.0	1.4793627297382397e+18
14509.0	1.4791110714982397e+18
14510.0	1.4788594132582397e+18
14511.0	1.4786077298524157e+18
14512.0	1.4783536624041981e+18
14513.0	1.4781044167278592e+18
14514.0	1.4778476850577405e+18
14515.0	1.477600873755443e+18
14516.0	1.476914309811405e+18
14517.0	1.4770973324607488e+18
14518.0	1.4768465751572477e+18
14519.0	1.47659516018688e+18
14520.0	1.4763437250838525e+18
14521.0	1.4760922748813312e+18
14522.0	1.4758408246788093e+18
14523.0	1.4755819237146621e+18
14524.0	1.4753308359000064e+18
14525.0	1.4750857560064e+18
14526.0	1.47483523022848e+18
14527.0	1.4745802014457856e+18
14528.0	1.4743094691889155e+18
14529.0	1.4740792320983037e+18
14530.0	1.4738271913377787e+18
14531.0	1.4735779892822013e+18
14532.0	1.4733168754032637e+18
14533.0	1.4730753891893245e+18
14534.0	1.472824269497958e+18
14535.0	1.4725728562053115e+18
14536.0	1.4723215939076093e+18
14537.0	1.472068486116147e+18
14538.0	1.471819141454233e+18
14539.0	1.4715678640570363e+18
14540.0	1.4713165749157885e+18
14541.0	1.4710645509324797e+18
14542.0	1.4708140251545597e+18
14543.0	1.470558578619187e+18
14544.0	1.4703114300948475e+18
14545.0	1.4700598674849787e+18
14546.0	1.4688724247904248e+18
14547.0	1.4686987571167222e+18
14548.0	1.4693047820353536e+18
14549.0	1.4690370679996416e+18
14550.0	1.4688042941939707e+18
14551.0	1.4685532818767872e+18
14552.0	1.4683019105271805e+18
14553.0	1.468049341284352e+18
14554.0	1.4677999110586363e+18
14555.0	1.4675487561351165e+18
14556.0	1.4672974871265277e+18
14557.0	1.4670465234632701e+18
14558.0	1.4667951386918912e+18
14559.0	1.4662240540033016e+18
14560.0	1.4662926761721853e+18
14561.0	1.4660409323683835e+18
14562.0	1.4657806170849275e+18
14563.0	1.4655215483486205e+18
14564.0	1.4652694337683453e+18
14565.0	1.4650194113069056e+18
14566.0	1.4647682949709821e+18
14567.0	1.4645171048153085e+18
14568.0	1.4642655237505021e+18
14569.0	1.464014717793075e+18
14570.0	1.4636755059736576e+18
14571.0	1.4635118089994237e+18
14572.0	1.4632549984763901e+18
14573.0	1.4630042613055485e+18
14574.0	1.4627562068115453e+18
14575.0	1.462507149040025e+18
14576.0	1.4622558296997885e+18
14577.0	1.4620048593256445e+18
14578.0	1.4617531960524795e+18
14579.0	1.4615022877540347e+18
14580.0	1.4612510103568381e+18
14581.0	1.4609991692451835e+18
14582.0	1.4607483129561088e+18
14583.0	1.4604970204594176e+18
14584.0	1.4602438388482045e+18
14585.0	1.4599943079591936e+18
14586.0	1.4597424064495613e+18
14587.0	1.459491357222502e+18
14588.0	1.459240517710643e+18
14589.0	1.4589924816715773e+18
14590.0	1.458744948948992e+18
14591.0	1.4584972450988024e+18
14592.0	1.4582495026610168e+18
14593.0	1.4579834109820925e+18
14594.0	1.4577543516520445e+18
14595.0	1.4575057871306747e+18
14596.0	1.4572513539391485e+18
14597.0	1.457002479039283e+18
14598.0	1.4567625396846587e+18
14599.0	1.456515750192742e+18
14600.0	1.4562677795848192e+18
14601.0	1.4560200740569085e+18
14602.0	1.4557717007958013e+18
14603.0	1.4555243844993021e+18
14604.0	1.4552696375738363e+18
14605.0	1.4550270004428797e+18
14606.0	1.454768121289113e+18
14607.0	1.4545310374166525e+18
14608.0	1.4542847931842557e+18
14609.0	1.4540362102079485e+18
14610.0	1.4537861021827067e+18
14611.0	1.453539936803225e+18
14612.0	1.453258436929126e+18
14613.0	1.4527331859169277e+18
14614.0	1.4524844016140285e+18
14615.0	1.4522367078301693e+18
14616.0	1.4519884553650173e+18
14617.0	1.4517400099618816e+18
14618.0	1.4514915679141888e+18
14619.0	1.4512383695257597e+18
14620.0	1.4509767791738877e+18
14621.0	1.4507459582361597e+18
14622.0	1.4504972997623808e+18
14623.0	1.4502485792129021e+18
14624.0	1.4499906597158907e+18
14625.0	1.4497509619531773e+18
14626.0	1.4495019259920381e+18
14627.0	1.449245858699673e+18
14628.0	1.448986271547392e+18
14629.0	1.4487372020318203e+18
14630.0	1.4484879093792765e+18
14631.0	1.4482388365082621e+18
14632.0	1.4479373868466173e+18
14633.0	1.4477340788654075e+18
14634.0	1.447490626361753e+18
14635.0	1.447234661410406e+18
14636.0	1.4469742538522621e+18
14637.0	1.4467426594848765e+18
14638.0	1.4464926521229307e+18
14639.0	1.4462414569340925e+18
14640.0	1.4459929041567741e+18
14641.0	1.4455435448811515e+18
14642.0	1.445493021972889e+18
14643.0	1.4452439809785853e+18
14644.0	1.4449939417399293e+18
14645.0	1.4447404094849021e+18
14646.0	1.4444929153499136e+18
