# Flux units: erg / (cm m2 s)
# Wavelength units: Angstrom
wave	flux
14000.0	2.208431403224268e+18
14001.0	2.2079526620102648e+18
14002.0	2.2075369880289277e+18
14003.0	2.2070740509523965e+18
14004.0	2.2066106055262205e+18
14005.0	2.2061470762139643e+18
14006.0	2.2056785993007096e+18
14007.0	2.2052131724853243e+18
14008.0	2.2046842120306683e+18
14009.0	2.2042916654415867e+18
14010.0	2.2038196233699323e+18
14011.0	2.2029478976815101e+18
14012.0	2.2029038390345728e+18
14013.0	2.2024425780019195e+18
14014.0	2.2019756982796283e+18
14015.0	2.2015160428265467e+18
14016.0	2.2010554512048123e+18
14017.0	2.2005933429227517e+18
14018.0	2.2001311255887872e+18
14019.0	2.1996692773535744e+18
14020.0	2.1992068335271933e+18
14021.0	2.1987444870086648e+18
14022.0	2.198281595230617e+18
14023.0	2.1978094508179453e+18
14024.0	2.19734796664832e+18
14025.0	2.1968990368694264e+18
14026.0	2.1964369856299003e+18
14027.0	2.195977333532262e+18
14028.0	2.1955162587267067e+18
14029.0	2.1950541655441403e+18
14030.0	2.193955689070592e+18
14031.0	2.1941014327459837e+18
14032.0	2.1936712364064763e+18
14033.0	2.1931779191472123e+18
14034.0	2.1927512477007867e+18
14035.0	2.1922927112880123e+18
14036.0	2.1918330038255616e+18
14037.0	2.191373232609689e+18
14038.0	2.1909134882373627e+18
14039.0	2.1904504421089277e+18
14040.0	2.1899889428398077e+18
14041.0	2.1895325522329595e+18
14042.0	2.189067241180364e+18
14043.0	2.1885888204111867e+18
14044.0	2.1881495710859261e+18
14045.0	2.1876960007290877e+18
14046.0	2.1872350836293624e+18
14047.0	2.186773406521753e+18
14048.0	2.1863204938317821e+18
14049.0	2.18586319725527e+18
14050.0	2.185404823581491e+18
14051.0	2.184940084631961e+18
14052.0	2.184484744278835e+18
14053.0	2.1840299944837115e+18
14054.0	2.183572271765913e+18
14055.0	2.1831144081195005e+18
14056.0	2.1826566300368893e+18
14057.0	2.1821990046269432e+18
14058.0	2.1817414563921915e+18
14059.0	2.1812840474083323e+18
14060.0	2.1808267172773883e+18
14061.0	2.1803649596391424e+18
14062.0	2.1799123338395645e+18
14063.0	2.1794434307850237e+18
14064.0	2.1789008103211003e+18
14065.0	2.1785358421196795e+18
14066.0	2.1780851675103227e+18
14067.0	2.1776212372226045e+18
14068.0	2.177172242012569e+18
14069.0	2.1767142743474173e+18
14070.0	2.1762592410173437e+18
14071.0	2.1758017330479101e+18
14072.0	2.175347719772569e+18
14073.0	2.1748918559703032e+18
14074.0	2.1744361112862717e+18
14075.0	2.1739665287544827e+18
14076.0	2.1735161125142525e+18
14077.0	2.172925680340173e+18
14078.0	2.1726029336805368e+18
14079.0	2.1721510192349181e+18
14080.0	2.1717039701819387e+18
14081.0	2.1712490844913661e+18
14082.0	2.1707911956791296e+18
14083.0	2.1703382762782715e+18
14084.0	2.1698836908998653e+18
14085.0	2.1691900771696637e+18
14086.0	2.1689618114019325e+18
14087.0	2.1685213054631933e+18
14088.0	2.168057499326873e+18
14089.0	2.167606544538009e+18
14090.0	2.1671575023517693e+18
14091.0	2.1667056768253947e+18
14092.0	2.166252091369062e+18
14093.0	2.165798455581081e+18
14094.0	2.1653447879163896e+18
14095.0	2.1648906672668672e+18
14096.0	2.1644091410350075e+18
14097.0	2.163965345084211e+18
14098.0	2.1635184638033915e+18
14099.0	2.1630784561479677e+18
14100.0	2.1626179920330747e+18
14101.0	2.1621736793440248e+18
14102.0	2.161720934426214e+18
14103.0	2.1612590123712504e+18
14104.0	2.1608162264088573e+18
14105.0	2.1603636240973821e+18
14106.0	2.1599116995854333e+18
14107.0	2.1594080827932667e+18
14108.0	2.1586610621513725e+18
14109.0	2.1582147093528573e+18
14110.0	2.1577623503110144e+18
14111.0	2.157305996614041e+18
14112.0	2.156856905773875e+18
14113.0	2.1564117542240253e+18
14114.0	2.1559498120364027e+18
14115.0	2.1555068247474173e+18
14116.0	2.155026266560921e+18
14117.0	2.1535224508710904e+18
14118.0	2.1541511569080312e+18
14119.0	2.1536819417972733e+18
14120.0	2.1532384109264893e+18
14121.0	2.1527906270314493e+18
14122.0	2.1523412862107643e+18
14123.0	2.151886007933337e+18
14124.0	2.1514339122937853e+18
14125.0	2.1506611973455864e+18
14126.0	2.150547932682649e+18
14127.0	2.150103405245235e+18
14128.0	2.1496531249004536e+18
14129.0	2.1491952981639163e+18
14130.0	2.1487382599565304e+18
14131.0	2.1483055923331067e+18
14132.0	2.1478501932597243e+18
14133.0	2.147008386380594e+18
14134.0	2.1469556404912125e+18
14135.0	2.1464940707577846e+18
14136.0	2.1460357709037565e+18
14137.0	2.1456071784660987e+18
14138.0	2.1451506049875965e+18
14139.0	2.1447133185966077e+18
14140.0	2.1442586879197181e+18
14141.0	2.1438018208399355e+18
14142.0	2.1432875287052288e+18
14143.0	2.142914388321894e+18
14144.0	2.1424732314271744e+18
14145.0	2.1420258199863293e+18
14146.0	2.1415769757712384e+18
14147.0	2.1411291079901176e+18
14148.0	2.14067988964311e+18
14149.0	2.1402323691503616e+18
14150.0	2.13978864198615e+18
14151.0	2.1393345699905533e+18
14152.0	2.1388944599941115e+18
14153.0	2.1384473538985976e+18
14154.0	2.137980536252006e+18
14155.0	2.1375250029608957e+18
14156.0	2.1371024184442877e+18
14157.0	2.136660451210035e+18
14158.0	2.136210954361241e+18
14159.0	2.1357676667600893e+18
14160.0	2.1353157590253563e+18
14161.0	2.134831209539174e+18
14162.0	2.1343500356288504e+18
14163.0	2.1339800074190843e+18
14164.0	2.1334961944526843e+18
14165.0	2.1330254710702075e+18
14166.0	2.1326426267451392e+18
14167.0	2.1321891453075453e+18
14168.0	2.1317526021472248e+18
14169.0	2.131310287624601e+18
14170.0	2.1308621044318203e+18
14171.0	2.1304182665379837e+18
14172.0	2.1299751869743101e+18
14173.0	2.1294922883661821e+18
14174.0	2.1290810351812603e+18
14175.0	2.1286412556959744e+18
14176.0	2.1281968960307195e+18
14177.0	2.1277525246214144e+18
14178.0	2.1273071650340861e+18
14179.0	2.126856651486003e+18
14180.0	2.126420081482137e+18
14181.0	2.1259761462804475e+18
14182.0	2.1252616197505021e+18
14183.0	2.1247076880875517e+18
14184.0	2.1242596357570555e+18
14185.0	2.1238179570909181e+18
14186.0	2.1231571327516664e+18
14187.0	2.1229097409576957e+18
14188.0	2.122487401388441e+18
14189.0	2.122042637392281e+18
14190.0	2.121599854785331e+18
14191.0	2.1211558440861693e+18
14192.0	2.120708389024563e+18
14193.0	2.1202371539369981e+18
14194.0	2.119826880541491e+18
14195.0	2.1193864584888315e+18
14196.0	2.1189436389720061e+18
14197.0	2.1185010073599995e+18
14198.0	2.118054995138969e+18
14199.0	2.1176140479594493e+18
14200.0	2.1169138156175355e+18
14201.0	2.116529959626342e+18
14202.0	2.11609485091799e+18
14203.0	2.115644287038259e+18
14204.0	2.115207777432371e+18
14205.0	2.114765385734553e+18
14206.0	2.1142323282837501e+18
14207.0	2.1138825333964792e+18
14208.0	2.113441139943014e+18
14209.0	2.11290025927639e+18
14210.0	2.1124878451081208e+18
14211.0	2.112111928095539e+18
14212.0	2.1116737592229888e+18
14213.0	2.1112317718560765e+18
14214.0	2.1107910310363133e+18
14215.0	2.110342265674137e+18
14216.0	2.109909415179059e+18
14217.0	2.109468327070924e+18
14218.0	2.1090178705653755e+18
14219.0	2.1085863756693501e+18
14220.0	2.1079694841479165e+18
14221.0	2.1075042720808955e+18
14222.0	2.107047238906675e+18
14223.0	2.1066238557945848e+18
14224.0	2.1061825781039101e+18
14225.0	2.1053870041989117e+18
14226.0	2.1052974188986365e+18
14227.0	2.104860265047654e+18
14228.0	2.1036150466543616e+18
14229.0	2.1038267013005302e+18
14230.0	2.1035396062248957e+18
14231.0	2.1030882924036093e+18
14232.0	2.1026597049991165e+18
14233.0	2.1022163653885947e+18
14234.0	2.1017798977257467e+18
14235.0	2.10133828281303e+18
14236.0	2.100900201182003e+18
14237.0	2.1004596449116155e+18
14238.0	2.1000205247709181e+18
14239.0	2.0995757305757693e+18
14240.0	2.0980863550357501e+18
14241.0	2.0986956078907392e+18
14242.0	2.0982423009361915e+18
14243.0	2.0975075159179261e+18
14244.0	2.0971824523247608e+18
14245.0	2.0967321333923835e+18
14246.0	2.096289959798374e+18
14247.0	2.0958612432093176e+18
14248.0	2.0954156688736253e+18
14249.0	2.094985497699942e+18
14250.0	2.0945464815779837e+18
14251.0	2.0941095273758717e+18
14252.0	2.0936706958032893e+18
14253.0	2.0932313609142267e+18
14254.0	2.092791301249433e+18
14255.0	2.0923303103299576e+18
14256.0	2.0915278225342461e+18
14257.0	2.0914471476133883e+18
14258.0	2.0910390435119101e+18
14259.0	2.090586248262451e+18
14260.0	2.0901504147783677e+18
14261.0	2.0897090666233856e+18
14262.0	2.0893080777392125e+18
14263.0	2.08830470291456e+18
14264.0	2.0883006730272765e+18
14265.0	2.0879925812658173e+18
14266.0	2.087560962218393e+18
14267.0	2.087124185854771e+18
14268.0	2.0864993285111803e+18
14269.0	2.0860412937371645e+18
14270.0	2.0856053847556093e+18
14271.0	2.0851666974670843e+18
14272.0	2.0847290637877243e+18
14273.0	2.084285210794393e+18
14274.0	2.0829758665261059e+18
14275.0	2.083324429965721e+18
14276.0	2.0829654629744635e+18
14277.0	2.0825328809148416e+18
14278.0	2.082107789882163e+18
14279.0	2.081670508524339e+18
14280.0	2.081229584832921e+18
14281.0	2.0807983835381757e+18
14282.0	2.0803621591449597e+18
14283.0	2.0799257971785725e+18
14284.0	2.0794894503116792e+18
14285.0	2.07905298097111e+18
14286.0	2.0786162884935675e+18
14287.0	2.0781807502884861e+18
14288.0	2.0777433464569853e+18
14289.0	2.0766302972936174e+18
14290.0	2.0768706309128192e+18
14291.0	2.0764367217754104e+18
14292.0	2.076002005653913e+18
14293.0	2.075564608533299e+18
14294.0	2.0750288331735035e+18
14295.0	2.0745472549322747e+18
14296.0	2.073064212791296e+18
14297.0	2.073171991304601e+18
14298.0	2.072551334975897e+18
14299.0	2.0722927628451837e+18
14300.0	2.071863546295091e+18
14301.0	2.0714305112506365e+18
14302.0	2.0709972815904768e+18
14303.0	2.070535713534771e+18
14304.0	2.070115115440537e+18
14305.0	2.0696902978764797e+18
14306.0	2.0692369775001597e+18
14307.0	2.0688095326240765e+18
14308.0	2.068381334450995e+18
14309.0	2.0679396591403005e+18
14310.0	2.067427063182131e+18
14311.0	2.0670158687174656e+18
14312.0	2.0666002081579003e+18
14313.0	2.066155801516441e+18
14314.0	2.0657710311669755e+18
14315.0	2.0653430192209917e+18
14316.0	2.0648724434780152e+18
14317.0	2.064460269223936e+18
14318.0	2.0640446438965245e+18
14319.0	2.0636123168505853e+18
14320.0	2.0631786644045821e+18
14321.0	2.0627456511705088e+18
14322.0	2.062282353383833e+18
14323.0	2.0618641997299707e+18
14324.0	2.061445871593062e+18
14325.0	2.0610045838360573e+18
14326.0	2.0605796588978173e+18
14327.0	2.0600913630593021e+18
14328.0	2.059491569198694e+18
14329.0	2.0590627653681147e+18
14330.0	2.0586293310259197e+18
14331.0	2.058195725556121e+18
14332.0	2.0577625864929277e+18
14333.0	2.0573293819985915e+18
14334.0	2.05689619260375e+18
14335.0	2.0564543193219067e+18
14336.0	2.0559889814257661e+18
14337.0	2.0555945876652024e+18
14338.0	2.0551618562883576e+18
14339.0	2.0547221221015547e+18
14340.0	2.0542982222512125e+18
14341.0	2.053863694034534e+18
14342.0	2.0534335362826237e+18
14343.0	2.052998118873497e+18
14344.0	2.0525637970165755e+18
14345.0	2.052136051828326e+18
14346.0	2.0517008458121216e+18
14347.0	2.0512559224324093e+18
14348.0	2.0506447234203645e+18
14349.0	2.050185676980224e+18
14350.0	2.0497233573052408e+18
14351.0	2.0492860658810875e+18
14352.0	2.0488845803913216e+18
14353.0	2.048458754516582e+18
14354.0	2.0480238437793792e+18
14355.0	2.047585260509593e+18
14356.0	2.047156537209651e+18
14357.0	2.0467344576872443e+18
14358.0	2.0463033050464248e+18
14359.0	2.0458595611049981e+18
14360.0	2.0454382415904765e+18
14361.0	2.0450089327656952e+18
14362.0	2.044579308529254e+18
14363.0	2.0441479394623483e+18
14364.0	2.043486898697011e+18
14365.0	2.0430490066485243e+18
14366.0	2.0426243434348544e+18
14367.0	2.0422101089386493e+18
14368.0	2.0417787482603517e+18
14369.0	2.0413481895329784e+18
14370.0	2.0409173606924283e+18
14371.0	2.040486661036441e+18
14372.0	2.0400517939199997e+18
14373.0	2.0396249110806525e+18
14374.0	2.0391944916041725e+18
14375.0	2.0387638859005947e+18
14376.0	2.038333347305881e+18
14377.0	2.037902395991654e+18
14378.0	2.0374704816652278e+18
14379.0	2.0370420804878333e+18
14380.0	2.0366110117330936e+18
14381.0	2.036172259013427e+18
14382.0	2.0357502516330493e+18
14383.0	2.035316948153139e+18
14384.0	2.0348761083478016e+18
14385.0	2.034461560117657e+18
14386.0	2.0340196818026493e+18
14387.0	2.033601724442214e+18
14388.0	2.0331706640760827e+18
14389.0	2.03274216055767e+18
14390.0	2.0323113451388925e+18
14391.0	2.0318832526622715e+18
14392.0	2.0314526687690752e+18
14393.0	2.0310244689182715e+18
14394.0	2.0305653889236984e+18
14395.0	2.030155266523136e+18
14396.0	2.029736216965939e+18
14397.0	2.0293072738844664e+18
14398.0	2.028877399667507e+18
14399.0	2.0284485790597115e+18
14400.0	2.0280059373813755e+18
14401.0	2.0275848191934461e+18
14402.0	2.027156772015308e+18
14403.0	2.0256516560912366e+18
14404.0	2.0225799038697457e+18
14405.0	2.024598788479383e+18
14406.0	2.0252275347816443e+18
14407.0	2.023311237814682e+18
14408.0	2.0243512607899643e+18
14409.0	2.0239329913733115e+18
14410.0	2.0235108531306493e+18
14411.0	2.0230891091525627e+18
14412.0	2.0226587215527933e+18
14413.0	2.0222324997357565e+18
14414.0	2.021801701094195e+18
14415.0	2.0213737512239101e+18
14416.0	2.020565143099801e+18
14417.0	2.0199581249699837e+18
14418.0	2.0195233350287355e+18
14419.0	2.019109847118643e+18
14420.0	2.018678622335795e+18
14421.0	2.0182526504992765e+18
14422.0	2.0178180904058877e+18
14423.0	2.0173635218046968e+18
14424.0	2.0110479921774556e+18
14425.0	2.0165092746199035e+18
14426.0	2.0161091313074173e+18
14427.0	2.015684380852223e+18
14428.0	2.0152395413585917e+18
14429.0	2.0148259678846973e+18
14430.0	2.014400737601126e+18
14431.0	2.0138081579433984e+18
14432.0	2.0135367562756096e+18
14433.0	2.0119930158448635e+18
14434.0	2.012673444361011e+18
14435.0	2.012235649620377e+18
14436.0	2.011834085277696e+18
14437.0	2.0114072007606264e+18
14438.0	2.0109368162779133e+18
14439.0	2.0105409259896827e+18
14440.0	2.0101243544272893e+18
14441.0	2.0096929014743037e+18
14442.0	2.0092623058370555e+18
14443.0	2.008805874964889e+18
14444.0	2.0084114996592637e+18
14445.0	2.0079854271594493e+18
14446.0	2.0059763874201603e+18
14447.0	2.0071153070505976e+18
14448.0	2.0067064110645245e+18
14449.0	2.0062801305272315e+18
14450.0	2.0058486037544952e+18
14451.0	2.0054249287188477e+18
14452.0	2.0049961936748544e+18
14453.0	2.0045527047471101e+18
14454.0	2.0040507539324925e+18
14455.0	2.003492705140736e+18
14456.0	2.0030669665075192e+18
14457.0	2.0026370721579003e+18
14458.0	2.0022129961467901e+18
14459.0	2.0017824944619517e+18
14460.0	2.00135165387735e+18
14461.0	2.0008962262827005e+18
14462.0	2.0004419412164603e+18
14463.0	2.0000600833916925e+18
14464.0	1.9996471994613755e+18
14465.0	1.9992089584467965e+18
14466.0	1.9987966298423293e+18
14467.0	1.9983459485220861e+18
14468.0	1.9979414699769853e+18
14469.0	1.997495513120768e+18
14470.0	1.9970711586078715e+18
14471.0	1.9966601184935933e+18
14472.0	1.9962362555531261e+18
14473.0	1.995813800221081e+18
14474.0	1.9953890413772797e+18
14475.0	1.994959475861094e+18
14476.0	1.9944650664050683e+18
14477.0	1.994109159578009e+18
14478.0	1.9936833907458043e+18
14479.0	1.9932558703722493e+18
14480.0	1.9928163324788733e+18
14481.0	1.9924039652868093e+18
14482.0	1.991974379637964e+18
14483.0	1.9915426297282555e+18
14484.0	1.9911150556676093e+18
14485.0	1.9906667198021627e+18
14486.0	1.9900409028018173e+18
14487.0	1.9898429115203581e+18
14488.0	1.9894016975831035e+18
14489.0	1.9889761116225533e+18
14490.0	1.988560306778931e+18
14491.0	1.9881383849623547e+18
14492.0	1.9877134180810747e+18
14493.0	1.987282998604595e+18
14494.0	1.9868437207580664e+18
14495.0	1.9864331453726717e+18
14496.0	1.9859035205402621e+18
14497.0	1.9855806614732792e+18
14498.0	1.9851556140613627e+18
14499.0	1.9847296539688955e+18
14500.0	1.9843029758115837e+18
14501.0	1.9838383425585147e+18
14502.0	1.9831865896599552e+18
14503.0	1.9828821687533565e+18
14504.0	1.982468078541209e+18
14505.0	1.9820110688550907e+18
14506.0	1.9815507607683064e+18
14507.0	1.9810059793989632e+18
14508.0	1.9807693300563965e+18
14509.0	1.9803442859999227e+18
14510.0	1.9798468683890683e+18
14511.0	1.979281390646067e+18
14512.0	1.9788428627410936e+18
14513.0	1.9784283816198136e+18
14514.0	1.977975544427315e+18
14515.0	1.977573308995993e+18
14516.0	1.975456567918593e+18
14517.0	1.976716174452326e+18
14518.0	1.976296757474099e+18
14519.0	1.975871059106201e+18
14520.0	1.975444771858022e+18
14521.0	1.975017951094374e+18
14522.0	1.9745895482392573e+18
14523.0	1.9740749557923835e+18
14524.0	1.97365708399575e+18
14525.0	1.9733076380745728e+18
14526.0	1.972886024958771e+18
14527.0	1.9724420041932792e+18
14528.0	1.9719369344942077e+18
14529.0	1.971597320021606e+18
14530.0	1.9711652429561856e+18
14531.0	1.9707504816553981e+18
14532.0	1.9702233734053883e+18
14533.0	1.9698979340025853e+18
14534.0	1.9694737522950141e+18
14535.0	1.9690380966494203e+18
14536.0	1.9686171361673216e+18
14537.0	1.9681842621841403e+18
14538.0	1.9677674037313533e+18
14539.0	1.9673409201897472e+18
14540.0	1.9669142101557245e+18
14541.0	1.9664682180673533e+18
14542.0	1.9660581510316027e+18
14543.0	1.965576007398195e+18
14544.0	1.9652044390399997e+18
14545.0	1.9647685585797115e+18
14546.0	1.9575805315121116e+18
14547.0	1.9577466930593743e+18
14548.0	1.9634820044816381e+18
14549.0	1.9629784866750461e+18
14550.0	1.9623346677219328e+18
14551.0	1.961569188786995e+18
14552.0	1.9611420089909243e+18
14553.0	1.96071158448128e+18
14554.0	1.9602901861138432e+18
14555.0	1.9598632328101883e+18
14556.0	1.9594349692059645e+18
14557.0	1.9590098009980928e+18
14558.0	1.958579972079616e+18
14559.0	1.9569097163407337e+18
14560.0	1.957721401406259e+18
14561.0	1.9572967985905661e+18
14562.0	1.9568540092727296e+18
14563.0	1.956445735721369e+18
14564.0	1.9560079678242816e+18
14565.0	1.9555945923215355e+18
14566.0	1.9551676759277565e+18
14567.0	1.9547386959364093e+18
14568.0	1.954297674937139e+18
14569.0	1.9538834639290365e+18
14570.0	1.9531059758628861e+18
14571.0	1.9530273880276995e+18
14572.0	1.9525704404172797e+18
14573.0	1.9521354374053883e+18
14574.0	1.951719297017446e+18
14575.0	1.9511931417133048e+18
14576.0	1.9506736670965755e+18
14577.0	1.9502485139881981e+18
14578.0	1.9498248540520443e+18
14579.0	1.949398300046131e+18
14580.0	1.9489701891145728e+18
14581.0	1.9485374493491197e+18
14582.0	1.94811264017367e+18
14583.0	1.947684884919091e+18
14584.0	1.9472431542435837e+18
14585.0	1.9468270574764032e+18
14586.0	1.9463959602003963e+18
14587.0	1.9459683794288637e+18
14588.0	1.9455407701360637e+18
14589.0	1.9451193533136896e+18
14590.0	1.9446982250594301e+18
14591.0	1.944275325131161e+18
14592.0	1.9438497962131453e+18
14593.0	1.9433428441104381e+18
14594.0	1.94301156959191e+18
14595.0	1.9425856933855232e+18
14596.0	1.9420806790512635e+18
14597.0	1.9416451593011192e+18
14598.0	1.9413146280132605e+18
14599.0	1.9409028614455293e+18
14600.0	1.9404790404481021e+18
14601.0	1.9400574055219197e+18
14602.0	1.939632012499353e+18
14603.0	1.939211721428172e+18
14604.0	1.9387544802164733e+18
14605.0	1.9383524528226304e+18
14606.0	1.9378950908149755e+18
14607.0	1.9375162965098493e+18
14608.0	1.9370974398906363e+18
14609.0	1.9366688491307003e+18
14610.0	1.9362382316830715e+18
14611.0	1.935823398240256e+18
14612.0	1.9354077175480315e+18
14613.0	1.9349862906593275e+18
14614.0	1.93456092783575e+18
14615.0	1.9341394304827387e+18
14616.0	1.9337020937601021e+18
14617.0	1.9332526287880187e+18
14618.0	1.9328211808681981e+18
14619.0	1.9323318364536827e+18
14620.0	1.9317460062699517e+18
14621.0	1.9315562190471165e+18
14622.0	1.9311302824427517e+18
14623.0	1.9307084143132664e+18
14624.0	1.9302382881996792e+18
14625.0	1.929856255891865e+18
14626.0	1.9294325254914043e+18
14627.0	1.9290042484654077e+18
14628.0	1.9285847593451517e+18
14629.0	1.9281593830998008e+18
14630.0	1.9277321378725883e+18
14631.0	1.9273075837108221e+18
14632.0	1.9264041910272003e+18
14633.0	1.9263866974240765e+18
14634.0	1.926026495629721e+18
14635.0	1.925567984382771e+18
14636.0	1.9250815675924477e+18
14637.0	1.9247520127385597e+18
14638.0	1.9243198719197184e+18
14639.0	1.923886058412441e+18
14640.0	1.9234621535289341e+18
14641.0	1.9211698556633075e+18
14642.0	1.9226059803197437e+18
14643.0	1.9221869542506493e+18
14644.0	1.9217498071105533e+18
14645.0	1.921314045768499e+18
14646.0	1.9208905351495675e+18
14647.0	1.9204542319034363e+18
