# Flux units: erg / (cm m2 s)
# Wavelength units: Angstrom
wave	flux
14000.0	1.79216305881088e+18
14001.0	1.7917014588784637e+18
14002.0	1.7912888316395515e+18
14003.0	1.79085438395351e+18
14004.0	1.7904201375940603e+18
14005.0	1.7899840876838912e+18
14006.0	1.789542721073971e+18
14007.0	1.7891030221193213e+18
14008.0	1.7886175851184123e+18
14009.0	1.788236542666342e+18
14010.0	1.7877926611517437e+18
14011.0	1.7870712458969088e+18
14012.0	1.7869297837670397e+18
14013.0	1.7864952253513723e+18
14014.0	1.7860561924521981e+18
14015.0	1.785623778164736e+18
14016.0	1.78519022805975e+18
14017.0	1.7847547401863163e+18
14018.0	1.784317228980633e+18
14019.0	1.7838863414198272e+18
14020.0	1.7834511387590653e+18
14021.0	1.7830169729302525e+18
14022.0	1.7825833020293112e+18
14023.0	1.782141182122393e+18
14024.0	1.7817074575343616e+18
14025.0	1.78128205947863e+18
14026.0	1.7808473567789053e+18
14027.0	1.7804135550156797e+18
14028.0	1.779978087274905e+18
14029.0	1.7795405509033981e+18
14030.0	1.77898250043392e+18
14031.0	1.7786689929871355e+18
14032.0	1.7782467926687741e+18
14033.0	1.777789709162905e+18
14034.0	1.7773816503599104e+18
14035.0	1.7769483267473405e+18
14036.0	1.776517106997657e+18
14037.0	1.7760831106187256e+18
14038.0	1.7756523925078013e+18
14039.0	1.775218426327859e+18
14040.0	1.7747816482865147e+18
14041.0	1.7743553895596027e+18
14042.0	1.773921040859136e+18
14043.0	1.7734742132654075e+18
14044.0	1.7730584855969787e+18
14045.0	1.7726305910915064e+18
14046.0	1.7721983177326587e+18
14047.0	1.7717661316153344e+18
14048.0	1.7713393309843456e+18
14049.0	1.7709095188430848e+18
14050.0	1.770478745367347e+18
14051.0	1.7700426149265405e+18
14052.0	1.7696157706747896e+18
14053.0	1.7691867671953403e+18
14054.0	1.7687558527909888e+18
14055.0	1.7683216752181248e+18
14056.0	1.7678963291717624e+18
14057.0	1.7674661328322555e+18
14058.0	1.76703691292672e+18
14059.0	1.76660787757056e+18
14060.0	1.7661789143564288e+18
14061.0	1.7657461460697088e+18
14062.0	1.765321071814246e+18
14063.0	1.7648835824189437e+18
14064.0	1.7644464084353021e+18
14065.0	1.7640308854489085e+18
14066.0	1.7636039992541181e+18
14067.0	1.763173819691827e+18
14068.0	1.7627499315855357e+18
14069.0	1.7623212082855933e+18
14070.0	1.76189401506775e+18
14071.0	1.7614649579012093e+18
14072.0	1.7610386823970813e+18
14073.0	1.760611232487833e+18
14074.0	1.760183935251251e+18
14075.0	1.7597469172957181e+18
14076.0	1.7593246381244413e+18
14077.0	1.758870388290355e+18
14078.0	1.7584726390865915e+18
14079.0	1.758043330261811e+18
14080.0	1.7576225945944061e+18
14081.0	1.7571935776931837e+18
14082.0	1.7567479932911608e+18
14083.0	1.7563397499387907e+18
14084.0	1.7559148602327035e+18
14085.0	1.7553478943506427e+18
14086.0	1.7550598094192637e+18
14087.0	1.7546374664945661e+18
14088.0	1.754205860868915e+18
14089.0	1.75377861396398e+18
14090.0	1.7533596164161533e+18
14091.0	1.7529360504324093e+18
14092.0	1.7525101557710843e+18
14093.0	1.752085848234393e+18
14094.0	1.7516612219305981e+18
14095.0	1.751236687901491e+18
14096.0	1.7508048708829181e+18
14097.0	1.7503766156673021e+18
14098.0	1.7499542828089341e+18
14099.0	1.7495384829984765e+18
14100.0	1.7491073051918333e+18
14101.0	1.7486914701492224e+18
14102.0	1.7482658892218365e+18
14103.0	1.7478372279975939e+18
14104.0	1.7474189468368893e+18
14105.0	1.7469885156163581e+18
14106.0	1.746573861689753e+18
14107.0	1.746124735617433e+18
14108.0	1.7457203678019584e+18
14109.0	1.7453021050961917e+18
14110.0	1.74486330540032e+18
14111.0	1.7444182813573115e+18
14112.0	1.7440311957520384e+18
14113.0	1.7436095876694013e+18
14114.0	1.7431805221142525e+18
14115.0	1.74276643693527e+18
14116.0	1.7422972855779325e+18
14117.0	1.741715394684518e+18
14118.0	1.7414996732411904e+18
14119.0	1.741073984939622e+18
14120.0	1.7406555058077693e+18
14121.0	1.740223032800051e+18
14122.0	1.7398122661543933e+18
14123.0	1.7393790968922107e+18
14124.0	1.7389649328603133e+18
14125.0	1.7383089940463613e+18
14126.0	1.738130704249651e+18
14127.0	1.7377122251177981e+18
14128.0	1.7372910498873341e+18
14129.0	1.7368651048943613e+18
14130.0	1.7364379385200635e+18
14131.0	1.7360311329751037e+18
14132.0	1.7356082045255677e+18
14133.0	1.7349081231785969e+18
14134.0	1.7347711288213504e+18
14135.0	1.7343449489473533e+18
14136.0	1.7339147542855677e+18
14137.0	1.733512955061862e+18
14138.0	1.7330909510369275e+18
14139.0	1.732674758639616e+18
14140.0	1.7322235203158013e+18
14141.0	1.7318369799700475e+18
14142.0	1.7313851762540541e+18
14143.0	1.7309036701548544e+18
14144.0	1.7305816398823421e+18
14145.0	1.7301627815854077e+18
14146.0	1.729744174946713e+18
14147.0	1.729326583329587e+18
14148.0	1.728907119375155e+18
14149.0	1.7284866806644733e+18
14150.0	1.728069989983846e+18
14151.0	1.7276486973128704e+18
14152.0	1.7272349661331453e+18
14153.0	1.726818641195827e+18
14154.0	1.7263873274937341e+18
14155.0	1.7258388316487677e+18
14156.0	1.7255623498399741e+18
14157.0	1.7251502896709627e+18
14158.0	1.7247276481118205e+18
14159.0	1.7243157473263616e+18
14160.0	1.7239002260176893e+18
14161.0	1.7234493249159165e+18
14162.0	1.7230123858132987e+18
14163.0	1.72265168741335e+18
14164.0	1.7222232795250688e+18
14165.0	1.72148912029696e+18
14166.0	1.7214011070218237e+18
14167.0	1.7209815088496637e+18
14168.0	1.72056955102167e+18
14169.0	1.7201583532015608e+18
14170.0	1.719740731385446e+18
14171.0	1.7193243175288832e+18
14172.0	1.7189134586085376e+18
14173.0	1.7183517238624253e+18
14174.0	1.7180816090071037e+18
14175.0	1.7176693575778296e+18
14176.0	1.717252314575667e+18
14177.0	1.7168389055184893e+18
14178.0	1.716422127596339e+18
14179.0	1.7159802257932285e+18
14180.0	1.715598351191244e+18
14181.0	1.7151845143150587e+18
14182.0	1.7147704022925307e+18
14183.0	1.71435719959511e+18
14184.0	1.713941029008179e+18
14185.0	1.7135303932248061e+18
14186.0	1.7130668471353341e+18
14187.0	1.712691342842265e+18
14188.0	1.7122887433453568e+18
14189.0	1.711871587935846e+18
14190.0	1.711462452035584e+18
14191.0	1.711049819763507e+18
14192.0	1.7106323069992957e+18
14193.0	1.710218767079833e+18
14194.0	1.709812325600461e+18
14195.0	1.7094010422165504e+18
14196.0	1.7089889367490557e+18
14197.0	1.7085761484488696e+18
14198.0	1.7081627008040957e+18
14199.0	1.7077450034905085e+18
14200.0	1.707318900791705e+18
14201.0	1.7069307062124541e+18
14202.0	1.7065187165077504e+18
14203.0	1.7060728871583741e+18
14204.0	1.7056955793145853e+18
14205.0	1.7052850978815997e+18
14206.0	1.70481013489664e+18
14207.0	1.7044651533926395e+18
14208.0	1.7040545863958523e+18
14209.0	1.7035681645723643e+18
14210.0	1.7031909003493368e+18
14211.0	1.7028199628144635e+18
14212.0	1.7024133468520443e+18
14213.0	1.7020004880875515e+18
14214.0	1.701593793272217e+18
14215.0	1.701173260609126e+18
14216.0	1.700774031654912e+18
14217.0	1.700365316862771e+18
14218.0	1.6999496999239675e+18
14219.0	1.6995455887998976e+18
14220.0	1.69913779004375e+18
14221.0	1.6987280350642176e+18
14222.0	1.6983091029475323e+18
14223.0	1.697910637356646e+18
14224.0	1.697503056704307e+18
14225.0	1.697030073430835e+18
14226.0	1.6966864441704443e+18
14227.0	1.6962776471699453e+18
14228.0	1.6957176220221437e+18
14229.0	1.6954396369747963e+18
14230.0	1.6950544740384765e+18
14231.0	1.6946397110599677e+18
14232.0	1.6942391466393595e+18
14233.0	1.6938268029353981e+18
14234.0	1.693424300746342e+18
14235.0	1.6930152839643133e+18
14236.0	1.6926066664800253e+18
14237.0	1.6922007132176381e+18
14238.0	1.6917922131738621e+18
14239.0	1.6913826293219323e+18
14240.0	1.6902720145326083e+18
14241.0	1.6905735950565376e+18
14242.0	1.6901675226759165e+18
14243.0	1.6896801713946624e+18
14244.0	1.6893551229009923e+18
14245.0	1.688937766164889e+18
14246.0	1.688523746417049e+18
14247.0	1.6881334110650365e+18
14248.0	1.6877244999794685e+18
14249.0	1.6873234674745341e+18
14250.0	1.686919463724646e+18
14251.0	1.686514599303577e+18
14252.0	1.6861097432711168e+18
14253.0	1.685704898982707e+18
14254.0	1.685298868545126e+18
14255.0	1.684880277005926e+18
14256.0	1.6844502970925053e+18
14257.0	1.684083431387955e+18
14258.0	1.6836817982586875e+18
14259.0	1.6832666426933243e+18
14260.0	1.6828709117886461e+18
14261.0	1.6824567158800381e+18
14262.0	1.6820666707738621e+18
14263.0	1.681601208726323e+18
14264.0	1.6812470937059325e+18
14265.0	1.680849267326976e+18
14266.0	1.680450915821158e+18
14267.0	1.680046975824691e+18
14268.0	1.6796438042247168e+18
14269.0	1.6792365540835328e+18
14270.0	1.6788391639121915e+18
14271.0	1.6784299726471165e+18
14272.0	1.6780331730337787e+18
14273.0	1.6776306154799096e+18
14274.0	1.6771349276000253e+18
14275.0	1.6768180697432061e+18
14276.0	1.6763876854988795e+18
14277.0	1.676002114876211e+18
14278.0	1.6756191715655677e+18
14279.0	1.6752166760873981e+18
14280.0	1.6748112060088315e+18
14281.0	1.6744136614871035e+18
14282.0	1.674012236395315e+18
14283.0	1.6736107676827643e+18
14284.0	1.6732094147330048e+18
14285.0	1.6728081842569213e+18
14286.0	1.6724061669294077e+18
14287.0	1.672004683117363e+18
14288.0	1.671604695832985e+18
14289.0	1.670753075960216e+18
14290.0	1.6707965490823165e+18
14291.0	1.6704017526685693e+18
14292.0	1.6700010389307387e+18
14293.0	1.6695990098591741e+18
14294.0	1.669127851946803e+18
14295.0	1.6687905527300093e+18
14296.0	1.6680338986106877e+18
14297.0	1.6680001646624765e+18
14298.0	1.6675217791254525e+18
14299.0	1.6671914944626685e+18
14300.0	1.666795525321523e+18
14301.0	1.66638879024087e+18
14302.0	1.6659994850099197e+18
14303.0	1.6655834855505915e+18
14304.0	1.6651956885913597e+18
14305.0	1.664801494479667e+18
14306.0	1.6643319186587648e+18
14307.0	1.6639921078927352e+18
14308.0	1.6636091142504443e+18
14309.0	1.663207947527782e+18
14310.0	1.6624821651636221e+18
14311.0	1.6623630049869821e+18
14312.0	1.6619983958179835e+18
14313.0	1.6615883522703357e+18
14314.0	1.661220087345971e+18
14315.0	1.6608229337333757e+18
14316.0	1.6603984450027515e+18
14317.0	1.6599505889656832e+18
14318.0	1.6596302062157821e+18
14319.0	1.6592334686781437e+18
14320.0	1.6588367093301243e+18
14321.0	1.6584383477579776e+18
14322.0	1.6580181019852797e+18
14323.0	1.6576390895763453e+18
14324.0	1.6572487189921792e+18
14325.0	1.6568474046300157e+18
14326.0	1.6564567018569723e+18
14327.0	1.6560545553448957e+18
14328.0	1.655659839461785e+18
14329.0	1.6552683867471872e+18
14330.0	1.654872233056665e+18
14331.0	1.6544756985233403e+18
14332.0	1.6540794626244605e+18
14333.0	1.6536849161912315e+18
14334.0	1.6532898446311421e+18
14335.0	1.6528720231661565e+18
14336.0	1.652480003381657e+18
14337.0	1.6521021670555648e+18
14338.0	1.6517075350585344e+18
14339.0	1.6513075947503608e+18
14340.0	1.6509194085597181e+18
14341.0	1.6505231575613435e+18
14342.0	1.65012726391767e+18
14343.0	1.6497194852941821e+18
14344.0	1.6493306062045181e+18
14345.0	1.6489475286761467e+18
14346.0	1.6485523094765565e+18
14347.0	1.648152677869158e+18
14348.0	1.647758753870643e+18
14349.0	1.647368170215833e+18
14350.0	1.6469695687294976e+18
14351.0	1.646572943599206e+18
14352.0	1.6461823851102203e+18
14353.0	1.6457937778114552e+18
14354.0	1.6453997766377467e+18
14355.0	1.6450069297364987e+18
14356.0	1.644613411746611e+18
14357.0	1.644220009519513e+18
14358.0	1.6438273035468797e+18
14359.0	1.643425643574067e+18
14360.0	1.6430414553939963e+18
14361.0	1.6426496470024192e+18
14362.0	1.642257477900697e+18
14363.0	1.6418650990837757e+18
14364.0	1.6414540589694976e+18
14365.0	1.6410792576417787e+18
14366.0	1.6406858688364541e+18
14367.0	1.6402971340308477e+18
14368.0	1.639905471601049e+18
14369.0	1.6395150355857405e+18
14370.0	1.6391235409281021e+18
14371.0	1.6387323532935165e+18
14372.0	1.6383382564896763e+18
14373.0	1.637950285047398e+18
14374.0	1.6375573358051328e+18
14375.0	1.6371675205468157e+18
14376.0	1.6367779082928125e+18
14377.0	1.636387358192435e+18
14378.0	1.635995788037324e+18
14379.0	1.6356069693456381e+18
14380.0	1.6352163437477888e+18
14381.0	1.634819851157504e+18
14382.0	1.6344350120214525e+18
14383.0	1.634022524033433e+18
14384.0	1.6336442129121277e+18
14385.0	1.6332675711238141e+18
14386.0	1.6328680468905981e+18
14387.0	1.632487695659827e+18
14388.0	1.632096828470067e+18
14389.0	1.6317096388460541e+18
14390.0	1.6313199292841981e+18
14391.0	1.630930367361843e+18
14392.0	1.630522407544422e+18
14393.0	1.6301547247894528e+18
14394.0	1.629745793571225e+18
14395.0	1.629355461574656e+18
14396.0	1.6289884230647803e+18
14397.0	1.6286010153369595e+18
14398.0	1.6281967649619965e+18
14399.0	1.627823822549811e+18
14400.0	1.627416074125312e+18
14401.0	1.6270458831765504e+18
14402.0	1.626658834481152e+18
14403.0	1.6214787297902502e+18
14404.0	1.6136333831438316e+18
14405.0	1.6248743477116897e+18
14406.0	1.6251106598322176e+18
14407.0	1.617320832348983e+18
14408.0	1.624321489790566e+18
14409.0	1.623938717607526e+18
14410.0	1.623557524160512e+18
14411.0	1.623175963292467e+18
14412.0	1.6227875422207997e+18
14413.0	1.622402775226777e+18
14414.0	1.6220165368709115e+18
14415.0	1.6216309545041915e+18
14416.0	1.621243431013581e+18
14417.0	1.6208438530932733e+18
14418.0	1.620439661438566e+18
14419.0	1.6200868483301376e+18
14420.0	1.6196986201964541e+18
14421.0	1.619315983908864e+18
14422.0	1.6189287422754816e+18
14423.0	1.6185411718086653e+18
14424.0	1.590496976489658e+18
14425.0	1.6177721746915325e+18
14426.0	1.6173890535423997e+18
14427.0	1.6170052646600704e+18
14428.0	1.616595623765606e+18
14429.0	1.61623476094894e+18
14430.0	1.6158515626246144e+18
14431.0	1.615437262697267e+18
14432.0	1.6150570641391613e+18
14433.0	1.609135020625097e+18
14434.0	1.6143040053772285e+18
14435.0	1.6139188072087547e+18
14436.0	1.6135440981557243e+18
14437.0	1.613160342827827e+18
14438.0	1.612609132429312e+18
14439.0	1.6123541858549757e+18
14440.0	1.6120090969767933e+18
14441.0	1.611622029826457e+18
14442.0	1.6112374624813056e+18
14443.0	1.610835388111257e+18
14444.0	1.6104743592001533e+18
14445.0	1.6100931657531387e+18
14446.0	1.6039104546340887e+18
14447.0	1.6093205296578557e+18
14448.0	1.6089458994577405e+18
14449.0	1.6085634544304123e+18
14450.0	1.608177610339123e+18
14451.0	1.6077966786166784e+18
14452.0	1.607413495391846e+18
14453.0	1.6069186715385853e+18
14454.0	1.606649949192192e+18
14455.0	1.6062660244144125e+18
14456.0	1.605864607711232e+18
14457.0	1.6054678802399224e+18
14458.0	1.6051045226512381e+18
14459.0	1.604708390771097e+18
14460.0	1.604362265060966e+18
14461.0	1.6039730588155901e+18
14462.0	1.6035639615029248e+18
14463.0	1.6032182585786363e+18
14464.0	1.60283829993472e+18
14465.0	1.6024484813209595e+18
14466.0	1.602072413313433e+18
14467.0	1.6016134457262077e+18
14468.0	1.6013071709372408e+18
14469.0	1.600926066409472e+18
14470.0	1.6005389724155901e+18
14471.0	1.6001628372992e+18
14472.0	1.599787433669427e+18
14473.0	1.5994146036645885e+18
14474.0	1.5990356600422397e+18
14475.0	1.5986507487641595e+18
14476.0	1.5979085851262979e+18
14477.0	1.597897277282713e+18
14478.0	1.5975151325675515e+18
14479.0	1.597131961086771e+18
14480.0	1.5967510276866048e+18
14481.0	1.5963813266325501e+18
14482.0	1.5960004787961853e+18
14483.0	1.595616512075366e+18
14484.0	1.5952422341967867e+18
14485.0	1.5948423744192512e+18
14486.0	1.594332070228787e+18
14487.0	1.5941092838998016e+18
14488.0	1.593721797319065e+18
14489.0	1.5933495880712192e+18
14490.0	1.5929633866252288e+18
14491.0	1.5925965746077693e+18
14492.0	1.592219005039411e+18
14493.0	1.591836551623475e+18
14494.0	1.5914529355464701e+18
14495.0	1.59108674093056e+18
14496.0	1.5906377910190077e+18
14497.0	1.5903307260231675e+18
14498.0	1.5899524283236347e+18
14499.0	1.5895776387399675e+18
14500.0	1.589200634563788e+18
14501.0	1.5886507713757181e+18
14502.0	1.5881693877501955e+18
14503.0	1.5880547205119997e+18
14504.0	1.5876904854749181e+18
14505.0	1.5871561445670907e+18
14506.0	1.586562645517926e+18
14507.0	1.5864376116379643e+18
14508.0	1.5861887937806333e+18
14509.0	1.5858124288163837e+18
14510.0	1.5854357585068032e+18
14511.0	1.5850613648654333e+18
14512.0	1.5846760979103741e+18
14513.0	1.5843099787919357e+18
14514.0	1.5838601262661632e+18
14515.0	1.583551970751283e+18
14516.0	1.5820941112115203e+18
14517.0	1.582808453192089e+18
14518.0	1.5824329874866176e+18
14519.0	1.5820575838568448e+18
14520.0	1.5816832036372483e+18
14521.0	1.581302359156326e+18
14522.0	1.5809332989919232e+18
14523.0	1.5801798996525053e+18
14524.0	1.5797740252430328e+18
14525.0	1.5798052493197312e+18
14526.0	1.5794323538837504e+18
14527.0	1.5790144133005307e+18
14528.0	1.578609508614144e+18
14529.0	1.5783060456865792e+18
14530.0	1.5779269846237181e+18
14531.0	1.5775625885253632e+18
14532.0	1.5764693113110525e+18
14533.0	1.576815933626777e+18
14534.0	1.5764433133371387e+18
14535.0	1.5760622943731712e+18
14536.0	1.5756938700652541e+18
14537.0	1.5753148475899901e+18
14538.0	1.5749476345970685e+18
14539.0	1.5745766987399163e+18
14540.0	1.574204460970803e+18
14541.0	1.573818635334451e+18
14542.0	1.5734575141486587e+18
14543.0	1.5728368309764093e+18
14544.0	1.5727129228476413e+18
14545.0	1.5723314492211197e+18
14546.0	1.5447954097700713e+18
14547.0	1.5473671388790595e+18
14548.0	1.5712164606115835e+18
14549.0	1.5707902119510013e+18
14550.0	1.5704763505049597e+18
14551.0	1.5701096861270013e+18
14552.0	1.569729004385075e+18
14553.0	1.569353505125171e+18
14554.0	1.568994573366067e+18
14555.0	1.5686206947852285e+18
14556.0	1.5682403452321787e+18
14557.0	1.5678798179598333e+18
14558.0	1.5675086405107707e+18
14559.0	1.5663175504494564e+18
14560.0	1.566747188107673e+18
14561.0	1.5663922375819264e+18
14562.0	1.56601088475136e+18
14563.0	1.5656539461255168e+18
14564.0	1.5652811144429565e+18
14565.0	1.5649140373454848e+18
14566.0	1.5645437306339325e+18
14567.0	1.5641724525215744e+18
14568.0	1.5637855464325115e+18
14569.0	1.5634333322706941e+18
14570.0	1.5628341205794816e+18
14571.0	1.5626917189255168e+18
14572.0	1.5623013382750203e+18
14573.0	1.5619285451800576e+18
14574.0	1.5615748261019648e+18
14575.0	1.5612140471713792e+18
14576.0	1.560844812523929e+18
14577.0	1.5604715043684347e+18
14578.0	1.5601062224330747e+18
14579.0	1.5597369575866365e+18
14580.0	1.5593693520068605e+18
14581.0	1.558973290591027e+18
14582.0	1.5586315957436413e+18
14583.0	1.558262943265587e+18
14584.0	1.557888618410803e+18
14585.0	1.5575253732294653e+18
14586.0	1.5571553651523581e+18
14587.0	1.5567806560993277e+18
14588.0	1.5564187631616e+18
14589.0	1.5560678039355387e+18
14590.0	1.5557156820484093e+18
14591.0	1.555361352279654e+18
14592.0	1.555007092975206e+18
14593.0	1.5545978580893693e+18
14594.0	1.5543054547025923e+18
14595.0	1.5539510460809213e+18
14596.0	1.5535594994139133e+18
14597.0	1.5532361034760187e+18
14598.0	1.5528982002794496e+18
14599.0	1.5525493801484285e+18
14600.0	1.5521974948200443e+18
14601.0	1.5518459081261053e+18
14602.0	1.5514744840519677e+18
14603.0	1.5511410402394107e+18
14604.0	1.5507705774997501e+18
14605.0	1.5504368736403453e+18
14606.0	1.5500534085582843e+18
14607.0	1.5497386461757435e+18
14608.0	1.549382611841843e+18
14609.0	1.5489879865556987e+18
14610.0	1.5486779637366781e+18
14611.0	1.5483356028338173e+18
14612.0	1.5479860294057981e+18
14613.0	1.5476367042805752e+18
14614.0	1.5472843793891325e+18
14615.0	1.5469306821214205e+18
14616.0	1.5465853566844925e+18
14617.0	1.5462349058080763e+18
14618.0	1.5458673673371643e+18
14619.0	1.5455271488847872e+18
14620.0	1.5451411806420984e+18
14621.0	1.5448354343354363e+18
14622.0	1.5444838560301053e+18
14623.0	1.5441358328168448e+18
14624.0	1.543754865862246e+18
14625.0	1.543434375738163e+18
14626.0	1.543073546475929e+18
14627.0	1.5427146130391035e+18
14628.0	1.5423878163595264e+18
14629.0	1.5420383922487293e+18
14630.0	1.541688664470323e+18
14631.0	1.5413336569020413e+18
14632.0	1.538516975406286e+18
14633.0	1.5404046135328758e+18
14634.0	1.5402855892516864e+18
14635.0	1.5398156913082358e+18
14636.0	1.5391170679013376e+18
14637.0	1.5392432241770493e+18
14638.0	1.5388928789970941e+18
14639.0	1.5385408577732603e+18
14640.0	1.5381938026053632e+18
14641.0	1.5286470667403185e+18
14642.0	1.5374960147038203e+18
14643.0	1.5371504006987776e+18
14644.0	1.5367955407699963e+18
14645.0	1.5364399543877624e+18
14646.0	1.5360964576673792e+18
14647.0	1.5357494830301181e+18
14648.0	1.5354073553305595e+18
