# Flux units: erg / (cm m2 s)
# Wavelength units: Angstrom
wave	flux
14000.0	1.5335802259111933e+18
14001.0	1.533308604461875e+18
14002.0	1.5330809477070843e+18
14003.0	1.532824825049907e+18
14004.0	1.5325685027438592e+18
14005.0	1.532312049575526e+18
14006.0	1.532054851498803e+18
14007.0	1.531798493960601e+18
14008.0	1.5315338635771896e+18
14009.0	1.5312841397501947e+18
14010.0	1.531027572496793e+18
14011.0	1.530704033952563e+18
14012.0	1.5305131042013181e+18
14013.0	1.5302624710492157e+18
14014.0	1.5300072644280315e+18
14015.0	1.5297515360354304e+18
14016.0	1.5294960005808123e+18
14017.0	1.5292404332494843e+18
14018.0	1.528982599316275e+18
14019.0	1.5287292935536635e+18
14020.0	1.5284737329332221e+18
14021.0	1.5282182578765821e+18
14022.0	1.527962896905011e+18
14023.0	1.5277073580949501e+18
14024.0	1.5274518125740032e+18
14025.0	1.5271970790703101e+18
14026.0	1.5269418573496315e+18
14027.0	1.5266867698466816e+18
14028.0	1.5264315749695485e+18
14029.0	1.526175662027571e+18
14030.0	1.5259005777608701e+18
14031.0	1.5256589304856573e+18
14032.0	1.525411493393203e+18
14033.0	1.525153312171622e+18
14034.0	1.5249028031709184e+18
14035.0	1.5246482726715387e+18
14036.0	1.5243937522384893e+18
14037.0	1.5241392737484797e+18
14038.0	1.5238848187465725e+18
14039.0	1.523630437564416e+18
14040.0	1.5233760815480832e+18
14041.0	1.523121703721369e+18
14042.0	1.5228663595270141e+18
14043.0	1.5226093896204285e+18
14044.0	1.522356590529741e+18
14045.0	1.522104024642355e+18
14046.0	1.5218512708501501e+18
14047.0	1.521597302387507e+18
14048.0	1.5213434765312e+18
14049.0	1.5210896657743867e+18
14050.0	1.5208358751502336e+18
14051.0	1.5205815711432696e+18
14052.0	1.5203283559776253e+18
14053.0	1.5200749545848832e+18
14054.0	1.519821450851123e+18
14055.0	1.5195679823495165e+18
14056.0	1.5193145641795584e+18
14057.0	1.5190613607579643e+18
14058.0	1.5188082059902973e+18
14059.0	1.5185529221939197e+18
14060.0	1.5183017236496381e+18
14061.0	1.518047854172569e+18
14062.0	1.5177952815742973e+18
14063.0	1.5175409658232832e+18
14064.0	1.5172829423075323e+18
14065.0	1.5170356092338173e+18
14066.0	1.5167837446340603e+18
14067.0	1.5165310361403387e+18
14068.0	1.516278312547123e+18
14069.0	1.516025597342515e+18
14070.0	1.5157730163556347e+18
14071.0	1.515520138412032e+18
14072.0	1.5152679634337787e+18
14073.0	1.5150155317641213e+18
14074.0	1.514763145392947e+18
14075.0	1.5145089185611776e+18
14076.0	1.5142582199779325e+18
14077.0	1.5140012332941312e+18
14078.0	1.51375291875328e+18
14079.0	1.5135014819725307e+18
14080.0	1.513249863997849e+18
14081.0	1.5129979104788477e+18
14082.0	1.5127458831400957e+18
14083.0	1.5124936225980413e+18
14084.0	1.5122403403235325e+18
14085.0	1.5119700862173181e+18
14086.0	1.5117342019158016e+18
14087.0	1.5114851776987136e+18
14088.0	1.5112354136063997e+18
14089.0	1.5109840422567936e+18
14090.0	1.5107326407081981e+18
14091.0	1.5104812475482112e+18
14092.0	1.510229908075315e+18
14093.0	1.5099786055122941e+18
14094.0	1.5097273230819325e+18
14095.0	1.5094760406515707e+18
14096.0	1.5092243941556221e+18
14097.0	1.5089720295948285e+18
14098.0	1.5087226295681027e+18
14099.0	1.5084717162364925e+18
14100.0	1.5082197006417915e+18
14101.0	1.5079701244542973e+18
14102.0	1.5077192530657277e+18
14103.0	1.5074667425431547e+18
14104.0	1.5072178995199995e+18
14105.0	1.5069673200549885e+18
14106.0	1.506716750656307e+18
14107.0	1.5064662164897787e+18
14108.0	1.5062157292994552e+18
14109.0	1.5059649770291197e+18
14110.0	1.505714796861849e+18
14111.0	1.5054644069793792e+18
14112.0	1.5052140959498237e+18
14113.0	1.5049639929577467e+18
14114.0	1.5047136919945216e+18
14115.0	1.5044627937624064e+18
14116.0	1.5042076978708477e+18
14117.0	1.503922080867942e+18
14118.0	1.503710562117222e+18
14119.0	1.5034629689966587e+18
14120.0	1.5032136125906941e+18
14121.0	1.5029640800239613e+18
14122.0	1.5027141162827773e+18
14123.0	1.5024639310823421e+18
14124.0	1.5022097814257656e+18
14125.0	1.5019260401156093e+18
14126.0	1.5017125131321344e+18
14127.0	1.5014664316387325e+18
14128.0	1.5012175265398781e+18
14129.0	1.5009672087994365e+18
14130.0	1.5007173708873723e+18
14131.0	1.5004692241186813e+18
14132.0	1.5002155106697213e+18
14133.0	1.499925056795443e+18
14134.0	1.4997172558757883e+18
14135.0	1.4994721390723072e+18
14136.0	1.4992247841882107e+18
14137.0	1.4989762230222848e+18
14138.0	1.498727505828249e+18
14139.0	1.4984788909752315e+18
14140.0	1.4982301502930941e+18
14141.0	1.4979809683701757e+18
14142.0	1.4977320079065085e+18
14143.0	1.4974844265299968e+18
14144.0	1.497236264661811e+18
14145.0	1.4969879098556413e+18
14146.0	1.4967395214950397e+18
14147.0	1.496491326072422e+18
14148.0	1.4962431574933501e+18
14149.0	1.495995019113267e+18
14150.0	1.4957468589228024e+18
14151.0	1.4954986467229693e+18
14152.0	1.495250835498598e+18
14153.0	1.495002876634726e+18
14154.0	1.4947522518712312e+18
14155.0	1.4945063901593597e+18
14156.0	1.4942592550567936e+18
14157.0	1.4940114673205248e+18
14158.0	1.493763523556147e+18
14159.0	1.4935159220469752e+18
14160.0	1.4932661646655483e+18
14161.0	1.4930158620246013e+18
14162.0	1.4927646265704448e+18
14163.0	1.4925244959555581e+18
14164.0	1.4922779480555515e+18
14165.0	1.4920305076076541e+18
14166.0	1.4917842029772797e+18
14167.0	1.4915356619440123e+18
14168.0	1.4912900586012672e+18
14169.0	1.4910430795268093e+18
14170.0	1.4907957363867648e+18
14171.0	1.4905487355019267e+18
14172.0	1.4903020668059648e+18
14173.0	1.4900541381410813e+18
14174.0	1.4898076942598141e+18
14175.0	1.489561735240089e+18
14176.0	1.4893151185534973e+18
14177.0	1.4890685069000704e+18
14178.0	1.4888218801471485e+18
14179.0	1.4885750789111805e+18
14180.0	1.488328905143091e+18
14181.0	1.4880825032048637e+18
14182.0	1.4878360912003067e+18
14183.0	1.4875897614041083e+18
14184.0	1.4873430121775101e+18
14185.0	1.4870965146091515e+18
14186.0	1.486843539357696e+18
14187.0	1.4866007696867325e+18
14188.0	1.4863587231137787e+18
14189.0	1.4861129721315323e+18
14190.0	1.4858670634434557e+18
14191.0	1.4856210842910715e+18
14192.0	1.4853746303434747e+18
14193.0	1.4851288072191997e+18
14194.0	1.4848838313443328e+18
14195.0	1.4846383487975421e+18
14196.0	1.4843927655874557e+18
14197.0	1.4841471924436995e+18
14198.0	1.4839011998695421e+18
14199.0	1.4836557642989563e+18
14200.0	1.4834068256456701e+18
14201.0	1.4831639838326781e+18
14202.0	1.4829199994912763e+18
14203.0	1.4826745353994235e+18
14204.0	1.4824293380653053e+18
14205.0	1.482183434410393e+18
14206.0	1.4819294860804093e+18
14207.0	1.4816925297147904e+18
14208.0	1.4814483927007232e+18
14209.0	1.4811928153030653e+18
14210.0	1.4809492134821885e+18
14211.0	1.480714144553369e+18
14212.0	1.4804700914253821e+18
14213.0	1.4802256624877563e+18
14214.0	1.4799808829063165e+18
14215.0	1.479735175544832e+18
14216.0	1.4794920535523325e+18
14217.0	1.47924763803648e+18
14218.0	1.479003222520627e+18
14219.0	1.4787588606918653e+18
14220.0	1.4785145391284221e+18
14221.0	1.4782702309867515e+18
14222.0	1.478025978209894e+18
14223.0	1.4777816985894912e+18
14224.0	1.4775369961832448e+18
14225.0	1.4772778586603515e+18
14226.0	1.4770466518466557e+18
14227.0	1.476804311672422e+18
14228.0	1.476511948550963e+18
14229.0	1.4762990037368832e+18
14230.0	1.4760734021910528e+18
14231.0	1.4758303254970365e+18
14232.0	1.4755867958181885e+18
14233.0	1.4753432141299712e+18
14234.0	1.475099583787827e+18
14235.0	1.474855794062131e+18
14236.0	1.4746123499470845e+18
14237.0	1.4743684092264445e+18
14238.0	1.474123869559193e+18
14239.0	1.4738730518577155e+18
14240.0	1.4734463955107837e+18
14241.0	1.4733793654996987e+18
14242.0	1.4731475463176187e+18
14243.0	1.4728965977538557e+18
14244.0	1.4726654144282621e+18
14245.0	1.4724235658264568e+18
14246.0	1.472180930373222e+18
14247.0	1.471938029839974e+18
14248.0	1.4716932922015741e+18
14249.0	1.4714524284223488e+18
14250.0	1.471209816457216e+18
14251.0	1.4709673319989245e+18
14252.0	1.4707246680244221e+18
14253.0	1.4704818564104192e+18
14254.0	1.470238804882227e+18
14255.0	1.4699916932677632e+18
14256.0	1.4697405047898112e+18
14257.0	1.469505288221491e+18
14258.0	1.4692689610014715e+18
14259.0	1.4690257081466877e+18
14260.0	1.4687837991469053e+18
14261.0	1.468541452261785e+18
14262.0	1.468317275101593e+18
14263.0	1.4680566662168576e+18
14264.0	1.4678217650601981e+18
14265.0	1.4675920564518907e+18
14266.0	1.4673517647757307e+18
14267.0	1.4671065288540157e+18
14268.0	1.4668644906696704e+18
14269.0	1.4666225615372288e+18
14270.0	1.4663809494941693e+18
14271.0	1.4661390639824893e+18
14272.0	1.465896592945971e+18
14273.0	1.4656507933097981e+18
14274.0	1.4653798026838013e+18
14275.0	1.465160953967411e+18
14276.0	1.4649298914377728e+18
14277.0	1.464689950405427e+18
14278.0	1.4644492845973501e+18
14279.0	1.4642081121173504e+18
14280.0	1.4639668322631677e+18
14281.0	1.463726283895603e+18
14282.0	1.463485312742195e+18
14283.0	1.4632443030011904e+18
14284.0	1.4630032966156288e+18
14285.0	1.462758787147366e+18
14286.0	1.4625167909060605e+18
14287.0	1.4622750312235003e+18
14288.0	1.4620276025196544e+18
14289.0	1.461671073257881e+18
14290.0	1.461546779253145e+18
14291.0	1.4613120576126973e+18
14292.0	1.4610722105327616e+18
14293.0	1.4608308417593344e+18
14294.0	1.4605800475459581e+18
14295.0	1.4603452957065213e+18
14296.0	1.4600169873997821e+18
14297.0	1.4598553758334973e+18
14298.0	1.4596124685893632e+18
14299.0	1.4593878703210493e+18
14300.0	1.4591501891796987e+18
14301.0	1.4589104612179965e+18
14302.0	1.4586702400061437e+18
14303.0	1.4584264116928507e+18
14304.0	1.4581893445976064e+18
14305.0	1.4579467980636157e+18
14306.0	1.4577063990132739e+18
14307.0	1.457466434492825e+18
14308.0	1.4572267887394813e+18
14309.0	1.4569868644843515e+18
14310.0	1.4567466063626235e+18
14311.0	1.4565065965436925e+18
14312.0	1.456263602058035e+18
14313.0	1.4560060365602813e+18
14314.0	1.4557890685698048e+18
14315.0	1.4555492131012608e+18
14316.0	1.4553068041404416e+18
14317.0	1.4550710523789307e+18
14318.0	1.4548324468129787e+18
14319.0	1.4545934503378941e+18
14320.0	1.4543543179673597e+18
14321.0	1.4541150731894781e+18
14322.0	1.453873318540083e+18
14323.0	1.4536349277224957e+18
14324.0	1.4533982683135997e+18
14325.0	1.453159619126886e+18
14326.0	1.4529208524996603e+18
14327.0	1.4526820137304064e+18
14328.0	1.4524388179181565e+18
14329.0	1.4522003566362621e+18
14330.0	1.451961752748032e+18
14331.0	1.4517231555706877e+18
14332.0	1.4514846389239808e+18
14333.0	1.451246152476262e+18
14334.0	1.4510076559622144e+18
14335.0	1.4507678978015232e+18
14336.0	1.4505293207568381e+18
14337.0	1.4502925304856576e+18
14338.0	1.4500542654971901e+18
14339.0	1.449816072650752e+18
14340.0	1.449578091197235e+18
14341.0	1.4493400459902973e+18
14342.0	1.449102036015513e+18
14343.0	1.4488640629506048e+18
14344.0	1.4486261133737981e+18
14345.0	1.448388165474713e+18
14346.0	1.448150090068787e+18
14347.0	1.4479117562937341e+18
14348.0	1.4476746422222845e+18
14349.0	1.4474370265120763e+18
14350.0	1.4471981692878845e+18
14351.0	1.4469606408191997e+18
14352.0	1.4467235888234493e+18
14353.0	1.4464838826721277e+18
14354.0	1.4462448408985597e+18
14355.0	1.4460072637759488e+18
14356.0	1.445769988643225e+18
14357.0	1.4455330406662144e+18
14358.0	1.4452958427086848e+18
14359.0	1.4450585826754557e+18
14360.0	1.4448213612298235e+18
14361.0	1.4445842924568573e+18
14362.0	1.444347223683891e+18
14363.0	1.444109933451673e+18
14364.0	1.443869844779827e+18
14365.0	1.443634129928192e+18
14366.0	1.4433985543274493e+18
14367.0	1.443162701902643e+18
14368.0	1.4429260039061501e+18
14369.0	1.442689364629913e+18
14370.0	1.442452723675955e+18
14371.0	1.4422161280204797e+18
14372.0	1.4419795692748797e+18
14373.0	1.4417430306619387e+18
14374.0	1.4415065172148221e+18
14375.0	1.4412695457497085e+18
14376.0	1.441033812443136e+18
14377.0	1.4407974063702016e+18
14378.0	1.440560966742835e+18
14379.0	1.4403249515790336e+18
14380.0	1.4400887199891453e+18
14381.0	1.4398492487188477e+18
14382.0	1.4396119517757437e+18
14383.0	1.4393760221757435e+18
14384.0	1.4391381279637501e+18
14385.0	1.4389041713643515e+18
14386.0	1.4386666093412347e+18
14387.0	1.4384323692068864e+18
14388.0	1.438196520137523e+18
14389.0	1.4379607012671485e+18
14390.0	1.4377249142734845e+18
14391.0	1.437489427591987e+18
14392.0	1.4372537865601021e+18
14393.0	1.4370182512246781e+18
14394.0	1.4367782112067581e+18
14395.0	1.4365460464140285e+18
14396.0	1.4363117056163837e+18
14397.0	1.4360762390675453e+18
14398.0	1.4358407389642747e+18
14399.0	1.4356051583303677e+18
14400.0	1.4353675761745915e+18
14401.0	1.4351324418146304e+18
14402.0	1.4348955022262272e+18
14403.0	1.434641344181043e+18
14404.0	1.4341309946920957e+18
14405.0	1.4339380583858173e+18
14406.0	1.4339462154682363e+18
14407.0	1.4337080058445821e+18
14408.0	1.4334863150678013e+18
14409.0	1.4332521722413053e+18
14410.0	1.4330198430318587e+18
14411.0	1.4327857438261245e+18
14412.0	1.4325510859390973e+18
14413.0	1.4323144802172925e+18
14414.0	1.4320779214716925e+18
14415.0	1.431843511887462e+18
14416.0	1.4316091744452603e+18
14417.0	1.4313746910412795e+18
14418.0	1.431140180793753e+18
14419.0	1.4309057728872445e+18
14420.0	1.4306710629908477e+18
14421.0	1.4304371315572736e+18
14422.0	1.4302022807322621e+18
14423.0	1.4299642573357053e+18
14424.0	1.4296856364318715e+18
14425.0	1.4294954884988923e+18
14426.0	1.429266159055667e+18
14427.0	1.4290328651563008e+18
14428.0	1.428796279567155e+18
14429.0	1.4285649519575037e+18
14430.0	1.4283305507618813e+18
14431.0	1.4280910392262653e+18
14432.0	1.4278625301889021e+18
14433.0	1.4276193595424765e+18
14434.0	1.4273941388394493e+18
14435.0	1.427161641857843e+18
14436.0	1.426929565984358e+18
14437.0	1.4266962536300541e+18
14438.0	1.4264621326139387e+18
14439.0	1.4262291407044608e+18
14440.0	1.4259960447762432e+18
14441.0	1.425760962425651e+18
14442.0	1.425526732357632e+18
14443.0	1.4252894891016187e+18
14444.0	1.4250606176763901e+18
14445.0	1.4248258087944187e+18
14446.0	1.424500557296435e+18
14447.0	1.4243504481894397e+18
14448.0	1.424129515742822e+18
14449.0	1.4238977754136573e+18
14450.0	1.4236620421070845e+18
14451.0	1.423428040209203e+18
14452.0	1.4231953117020157e+18
14453.0	1.422962509375078e+18
14454.0	1.4227297875787773e+18
14455.0	1.422496695006003e+18
14456.0	1.4222645620899835e+18
14457.0	1.4220319627673597e+18
14458.0	1.4217992778809341e+18
14459.0	1.421566591316787e+18
14460.0	1.4213338611318781e+18
14461.0	1.421100082370969e+18
14462.0	1.4208684427051003e+18
14463.0	1.4206365513809917e+18
14464.0	1.4204043949768701e+18
14465.0	1.420169748833894e+18
14466.0	1.4199407213805565e+18
14467.0	1.4197080398495741e+18
14468.0	1.4194763230085117e+18
14469.0	1.4192417959837693e+18
14470.0	1.419009406376345e+18
14471.0	1.4187795568394237e+18
14472.0	1.418549047957913e+18
14473.0	1.418317364671283e+18
14474.0	1.4180856159535101e+18
14475.0	1.4178537716056064e+18
14476.0	1.4176216101683197e+18
14477.0	1.417390460397158e+18
14478.0	1.417158918039142e+18
14479.0	1.416927278373273e+18
14480.0	1.4166945532215293e+18
14481.0	1.416464131581542e+18
14482.0	1.4162320523526141e+18
14483.0	1.4160001073414141e+18
14484.0	1.4157671707967485e+18
14485.0	1.4155308720979965e+18
14486.0	1.4152790746071037e+18
14487.0	1.4150735134457853e+18
14488.0	1.414844501091942e+18
14489.0	1.414613290922803e+18
14490.0	1.414382699832934e+18
14491.0	1.4141489764368381e+18
14492.0	1.413916497910169e+18
14493.0	1.4136854790012925e+18
14494.0	1.4134517069512701e+18
14495.0	1.4132212299464701e+18
14496.0	1.4129810523553792e+18
14497.0	1.4127607876419581e+18
14498.0	1.4125311679528957e+18
14499.0	1.4123005718298621e+18
14500.0	1.4120696569397248e+18
14501.0	1.4118359217995773e+18
14502.0	1.4115833424904187e+18
14503.0	1.4113760616644608e+18
14504.0	1.4111466030366717e+18
14505.0	1.410916381045555e+18
14506.0	1.410682518398566e+18
14507.0	1.410433381774131e+18
14508.0	1.4102240725827581e+18
14509.0	1.409995580322611e+18
14510.0	1.4097655714021373e+18
14511.0	1.4095349937340413e+18
14512.0	1.4093037852426237e+18
14513.0	1.409073353536307e+18
14514.0	1.408839735836672e+18
14515.0	1.4086011772469245e+18
14516.0	1.4080630262333437e+18
14517.0	1.408120365724467e+18
14518.0	1.4079209232138237e+18
14519.0	1.4076943049687037e+18
14520.0	1.4074655107186685e+18
14521.0	1.4072361754034176e+18
14522.0	1.4070065959796733e+18
14523.0	1.4067764654243837e+18
14524.0	1.4065468843229181e+18
14525.0	1.4063174298894333e+18
14526.0	1.406088087024435e+18
14527.0	1.4058523914665981e+18
14528.0	1.4056153000443901e+18
14529.0	1.4053984696270845e+18
14530.0	1.4051694195245053e+18
14531.0	1.404941383604633e+18
14532.0	1.404711839413043e+18
14533.0	1.4044831214993403e+18
14534.0	1.4042541208895485e+18
14535.0	1.4040249063702525e+18
14536.0	1.4037956582965245e+18
14537.0	1.4035659018731517e+18
14538.0	1.403337679726182e+18
14539.0	1.4031088074620925e+18
14540.0	1.4028797833641981e+18
14541.0	1.4026459358167037e+18
14542.0	1.4024172002869245e+18
14543.0	1.4021865597042685e+18
14544.0	1.4019587762814973e+18
14545.0	1.4017276063776765e+18
14546.0	1.4014010856833021e+18
14547.0	1.4011649757282301e+18
14548.0	1.401037851407155e+18
14549.0	1.4008039828881405e+18
14550.0	1.4005856441991165e+18
14551.0	1.4003589261295613e+18
14552.0	1.4001304078647296e+18
14553.0	1.3999011371417597e+18
14554.0	1.3996740029972477e+18
14555.0	1.3994454570500093e+18
14556.0	1.3992165680087037e+18
14557.0	1.3989864777187323e+18
14558.0	1.3987459134128123e+18
14559.0	1.3982916526735355e+18
14560.0	1.3982885446942717e+18
14561.0	1.3980730472267773e+18
14562.0	1.3978444794691581e+18
14563.0	1.3976201051766781e+18
14564.0	1.397390702752563e+18
14565.0	1.3971647186862077e+18
14566.0	1.3969368824152064e+18
14567.0	1.3967089052155901e+18
14568.0	1.3964805438177277e+18
14569.0	1.3962481886035963e+18
14570.0	1.3959606136995837e+18
14571.0	1.3957941593899005e+18
14572.0	1.3955656956510205e+18
14573.0	1.3953370196803584e+18
14574.0	1.395114750928486e+18
14575.0	1.3948876645990397e+18
14576.0	1.3946602980900861e+18
14577.0	1.3944330800594944e+18
14578.0	1.3942055633944573e+18
14579.0	1.393978405761843e+18
14580.0	1.3937511340441597e+18
14581.0	1.3935236324786173e+18
14582.0	1.3932965536989181e+18
14583.0	1.393069240038195e+18
14584.0	1.3928413005873147e+18
14585.0	1.3926148895408125e+18
14586.0	1.3923877512019965e+18
14587.0	1.3921608477442045e+18
14588.0	1.3919339476418557e+18
14589.0	1.3917071742074877e+18
14590.0	1.39148040077312e+18
14591.0	1.391253479699251e+18
14592.0	1.391025234064179e+18
14593.0	1.3907896878235645e+18
14594.0	1.3905724060991485e+18
14595.0	1.3903465059188736e+18
14596.0	1.3901162210131965e+18
14597.0	1.3898864142581757e+18
14598.0	1.3896625097277437e+18
14599.0	1.3894371053142013e+18
14600.0	1.389210874622771e+18
14601.0	1.3889845684338685e+18
14602.0	1.3887582102355968e+18
14603.0	1.3885316565827581e+18
14604.0	1.3883018900930557e+18
14605.0	1.3880768178683904e+18
14606.0	1.387841005708902e+18
14607.0	1.3876268277694461e+18
14608.0	1.3873995921227773e+18
14609.0	1.3871730401476608e+18
14610.0	1.3869468463661056e+18
14611.0	1.3867200771260413e+18
14612.0	1.3864976439574528e+18
14613.0	1.386271879672627e+18
14614.0	1.3860441155436541e+18
14615.0	1.3858190399635456e+18
14616.0	1.3855944769273853e+18
14617.0	1.3853650526928893e+18
14618.0	1.3851398143737856e+18
14619.0	1.3849110150905853e+18
14620.0	1.3846827770052605e+18
14621.0	1.3844652520112125e+18
14622.0	1.3842403802742784e+18
14623.0	1.384014522037043e+18
14624.0	1.3837849107365883e+18
14625.0	1.383563349983232e+18
14626.0	1.3833373927604221e+18
14627.0	1.3831120135127037e+18
14628.0	1.382888267526963e+18
14629.0	1.3826630115917821e+18
14630.0	1.3824364227067901e+18
14631.0	1.3822109595729917e+18
14632.0	1.3819800933367805e+18
14633.0	1.381759873921843e+18
14634.0	1.381536787280691e+18
14635.0	1.3813111362420736e+18
14636.0	1.3810840918556672e+18
14637.0	1.3808617492840445e+18
14638.0	1.3806364144959485e+18
14639.0	1.3804104295907325e+18
14640.0	1.3801848045567997e+18
14641.0	1.3799457225179136e+18
14642.0	1.3797350233341952e+18
14643.0	1.3795117127172093e+18
14644.0	1.379286994491801e+18
14645.0	1.3790591187943421e+18
14646.0	1.378835219297075e+18
