# Flux units: erg / (cm m2 s)
# Wavelength units: Angstrom
wave	flux
14000.0	1.691258135668326e+18
14001.0	1.6915809913798656e+18
14002.0	1.6915415665999872e+18
14003.0	1.6912692321189885e+18
14004.0	1.69097782362112e+18
14005.0	1.6906866751700987e+18
14006.0	1.6903809825505275e+18
14007.0	1.6900772377657341e+18
14008.0	1.68968408048599e+18
14009.0	1.6894678657925115e+18
14010.0	1.6891498939285504e+18
14011.0	1.6883601199071232e+18
14012.0	1.6885417936683003e+18
14013.0	1.688299235390259e+18
14014.0	1.6880026192445437e+18
14015.0	1.6877113348980733e+18
14016.0	1.68741500396503e+18
14017.0	1.6871179834884093e+18
14018.0	1.6867679117770747e+18
14019.0	1.6865221121409021e+18
14020.0	1.6862233753550848e+18
14021.0	1.6859243802001405e+18
14022.0	1.6856249958137856e+18
14023.0	1.68531567092695e+18
14024.0	1.6850200664473597e+18
14025.0	1.68472981054423e+18
14026.0	1.6844301208125437e+18
14027.0	1.6841276880060408e+18
14028.0	1.683809081963315e+18
14029.0	1.6834455415029757e+18
14030.0	1.6821691896299523e+18
14031.0	1.682534407811891e+18
14032.0	1.682596352648806e+18
14033.0	1.6822955153555453e+18
14034.0	1.682049569757593e+18
14035.0	1.6817553628200957e+18
14036.0	1.681432713468313e+18
14037.0	1.6811601860493307e+18
14038.0	1.680873805683097e+18
14039.0	1.6805738089283581e+18
14040.0	1.6802802680463357e+18
14041.0	1.6799839622791165e+18
14042.0	1.6796784693084157e+18
14043.0	1.67936080782295e+18
14044.0	1.679057688828313e+18
14045.0	1.6787648492339197e+18
14046.0	1.678499712178585e+18
14047.0	1.6781997707886587e+18
14048.0	1.677908808564736e+18
14049.0	1.6776171299536893e+18
14050.0	1.6773212033515515e+18
14051.0	1.6770191128002552e+18
14052.0	1.6767247766781952e+18
14053.0	1.6764345392300032e+18
14054.0	1.6761392551952381e+18
14055.0	1.6758437983551485e+18
14056.0	1.6755483280932867e+18
14057.0	1.6752528980967421e+18
14058.0	1.67495733388247e+18
14059.0	1.674611684645273e+18
14060.0	1.674365883331379e+18
14061.0	1.674064463868723e+18
14062.0	1.6737700019175421e+18
14063.0	1.6734412439814141e+18
14064.0	1.6728851883229181e+18
14065.0	1.6728725399797757e+18
14066.0	1.6725923604725757e+18
14067.0	1.672297591498342e+18
14068.0	1.6720075788648448e+18
14069.0	1.671712407237427e+18
14070.0	1.671418124802457e+18
14071.0	1.671121723405107e+18
14072.0	1.6708293955158013e+18
14073.0	1.6705345644658688e+18
14074.0	1.6702387737591805e+18
14075.0	1.6699234476621821e+18
14076.0	1.669625605101977e+18
14077.0	1.6691026978668541e+18
14078.0	1.6689933339066365e+18
14079.0	1.6687510239313915e+18
14080.0	1.6684484401299453e+18
14081.0	1.6681750788833275e+18
14082.0	1.667884133436621e+18
14083.0	1.6675839303221248e+18
14084.0	1.667260831340953e+18
14085.0	1.6667694635941885e+18
14086.0	1.666629632209715e+18
14087.0	1.6663721338208253e+18
14088.0	1.666109748228915e+18
14089.0	1.6658297918586877e+18
14090.0	1.66553940173783e+18
14091.0	1.6652474546913275e+18
14092.0	1.6649546989830141e+18
14093.0	1.6646611027361787e+18
14094.0	1.6643662465204221e+18
14095.0	1.664068229477171e+18
14096.0	1.6637601880473597e+18
14097.0	1.6634558845812733e+18
14098.0	1.6631833789726715e+18
14099.0	1.6628982350872576e+18
14100.0	1.6626010317389821e+18
14101.0	1.6623195083767805e+18
14102.0	1.662025442367897e+18
14103.0	1.6617221723783163e+18
14104.0	1.6614406221725693e+18
14105.0	1.66115183427584e+18
14106.0	1.66085943927767e+18
14107.0	1.6605266866864125e+18
14108.0	1.6602568134230013e+18
14109.0	1.6599781841305597e+18
14110.0	1.6596858277199872e+18
14111.0	1.6593883542585344e+18
14112.0	1.6590860137267195e+18
14113.0	1.6587965480304635e+18
14114.0	1.6584759002005504e+18
14115.0	1.6581451004772347e+18
14116.0	1.657505972433715e+18
14117.0	1.655548984007065e+18
14118.0	1.6571009536622592e+18
14119.0	1.6569747705430013e+18
14120.0	1.6567217248272381e+18
14121.0	1.656440901074944e+18
14122.0	1.6561625989382141e+18
14123.0	1.6558692929372157e+18
14124.0	1.655534178113945e+18
14125.0	1.654997245126246e+18
14126.0	1.6549762400518144e+18
14127.0	1.654722883957555e+18
14128.0	1.6544388893114363e+18
14129.0	1.6541398002040832e+18
14130.0	1.6538279033700347e+18
14131.0	1.6535499334221816e+18
14132.0	1.6532171757977595e+18
14133.0	1.6526279230619643e+18
14134.0	1.652601643230822e+18
14135.0	1.6523901999775741e+18
14136.0	1.65211209245655e+18
14137.0	1.6518218281648125e+18
14138.0	1.6515299717152765e+18
14139.0	1.6512429101940728e+18
14140.0	1.6509460222574587e+18
14141.0	1.650630073725747e+18
14142.0	1.650323139592192e+18
14143.0	1.6500729174818816e+18
14144.0	1.6497978617364475e+18
14145.0	1.6495117128957947e+18
14146.0	1.649219873223475e+18
14147.0	1.648938349861273e+18
14148.0	1.6486498673098747e+18
14149.0	1.6483615860850685e+18
14150.0	1.6480737511342077e+18
14151.0	1.6477825221525504e+18
14152.0	1.6474946553249787e+18
14153.0	1.6472076776898557e+18
14154.0	1.6468935041875965e+18
14155.0	1.646598450000691e+18
14156.0	1.6463384803278843e+18
14157.0	1.6460504155291643e+18
14158.0	1.645759736840192e+18
14159.0	1.6454700815613947e+18
14160.0	1.6451619394682875e+18
14161.0	1.6448486367035387e+18
14162.0	1.644533115990835e+18
14163.0	1.64426182337495e+18
14164.0	1.6439919870214144e+18
14165.0	1.643723564987187e+18
14166.0	1.64344905114583e+18
14167.0	1.6431511465099261e+18
14168.0	1.6428763675885563e+18
14169.0	1.6425889940111357e+18
14170.0	1.6423018267934712e+18
14171.0	1.642011637999206e+18
14172.0	1.6417278077698043e+18
14173.0	1.641432038873497e+18
14174.0	1.6411460376723453e+18
14175.0	1.6408646233620477e+18
14176.0	1.6405788973072381e+18
14177.0	1.640291500241715e+18
14178.0	1.6400034975186944e+18
14179.0	1.639713775131033e+18
14180.0	1.6394282252369915e+18
14181.0	1.639140059774976e+18
14182.0	1.6388505789792253e+18
14183.0	1.6385596268216315e+18
14184.0	1.638259680398541e+18
14185.0	1.6379338400202747e+18
14186.0	1.637408778590617e+18
14187.0	1.6372997417861115e+18
14188.0	1.6370928317366267e+18
14189.0	1.6368258156331005e+18
14190.0	1.6365488875503608e+18
14191.0	1.6362610861539328e+18
14192.0	1.6359566585364477e+18
14193.0	1.635652650349363e+18
14194.0	1.6354012605448192e+18
14195.0	1.6351231597346813e+18
14196.0	1.6348385560756221e+18
14197.0	1.63455185190912e+18
14198.0	1.634259461944115e+18
14199.0	1.6339581817323515e+18
14200.0	1.6334929780539387e+18
14201.0	1.633312740422451e+18
14202.0	1.633107387298611e+18
14203.0	1.6328304206282747e+18
14204.0	1.632545459614515e+18
14205.0	1.6322511973122048e+18
14206.0	1.6318969346523133e+18
14207.0	1.6316740493377533e+18
14208.0	1.6313960391245821e+18
14209.0	1.6310242308521981e+18
14210.0	1.630751512172953e+18
14211.0	1.6305370775420925e+18
14212.0	1.6302661590581243e+18
14213.0	1.629983404248268e+18
14214.0	1.6296972973506557e+18
14215.0	1.6294012012986365e+18
14216.0	1.6291277041565693e+18
14217.0	1.6288447681527805e+18
14218.0	1.6285473399898112e+18
14219.0	1.6282718027382781e+18
14220.0	1.6279830131638272e+18
14221.0	1.6277004227706875e+18
14222.0	1.6274011356921856e+18
14223.0	1.627114956652544e+18
14224.0	1.6267895977803776e+18
14225.0	1.625778587644723e+18
14226.0	1.6260749588430843e+18
14227.0	1.6258701476233213e+18
14228.0	1.6233955451731968e+18
14229.0	1.624395415237426e+18
14230.0	1.6250783888572413e+18
14231.0	1.624833032139571e+18
14232.0	1.6245655143972861e+18
14233.0	1.6242848399622141e+18
14234.0	1.624004380275507e+18
14235.0	1.6237195165695997e+18
14236.0	1.6234359681974267e+18
14237.0	1.623145670351257e+18
14238.0	1.6228488579121147e+18
14239.0	1.6224835323559933e+18
14240.0	1.620844458750771e+18
14241.0	1.621833792723353e+18
14242.0	1.6216779491639293e+18
14243.0	1.6213482198269947e+18
14244.0	1.6211551929237496e+18
14245.0	1.6208779997609981e+18
14246.0	1.62059857690624e+18
14247.0	1.6203148339183616e+18
14248.0	1.6200226285027325e+18
14249.0	1.6197499064680443e+18
14250.0	1.6194686481858552e+18
14251.0	1.619183472423731e+18
14252.0	1.6188904986116093e+18
14253.0	1.618583207123353e+18
14254.0	1.6182776252334077e+18
14255.0	1.6178828288196605e+18
14256.0	1.6170709592047613e+18
14257.0	1.6170635940069376e+18
14258.0	1.6170970611974141e+18
14259.0	1.616839483955609e+18
14260.0	1.6165496323833853e+18
14261.0	1.6162429650075648e+18
14262.0	1.6158723193962493e+18
14263.0	1.614747747640934e+18
14264.0	1.6147628605571072e+18
14265.0	1.6150665667543037e+18
14266.0	1.614891716286873e+18
14267.0	1.614640980793753e+18
14268.0	1.6143662371045376e+18
14269.0	1.614080249325158e+18
14270.0	1.6137952212025341e+18
14271.0	1.613481478874726e+18
14272.0	1.6131362692005888e+18
14273.0	1.6125873153376253e+18
14274.0	1.6109855559385085e+18
14275.0	1.6116665246810112e+18
14276.0	1.6119396476911616e+18
14277.0	1.6117770999562237e+18
14278.0	1.6115356221308925e+18
14279.0	1.6112695690395643e+18
14280.0	1.6109958101729277e+18
14281.0	1.610723678696243e+18
14282.0	1.6104462892400637e+18
14283.0	1.6101671851524093e+18
14284.0	1.6098869620244477e+18
14285.0	1.6096054587949053e+18
14286.0	1.6093217275510781e+18
14287.0	1.6090312418000893e+18
14288.0	1.6086806869049341e+18
14289.0	1.6075475671580667e+18
14290.0	1.6081214754521088e+18
14291.0	1.6078963654787067e+18
14292.0	1.6076191068848123e+18
14293.0	1.607332823826432e+18
14294.0	1.6069736152432637e+18
14295.0	1.6067066729594875e+18
14296.0	1.6057947859714048e+18
14297.0	1.6060476706258941e+18
14298.0	1.6056783806136315e+18
14299.0	1.605595272996454e+18
14300.0	1.6053694667685888e+18
14301.0	1.6051021671301115e+18
14302.0	1.6048251669053437e+18
14303.0	1.6045107300007933e+18
14304.0	1.604253300398489e+18
14305.0	1.6039831855431677e+18
14306.0	1.603698138965606e+18
14307.0	1.6034140889546747e+18
14308.0	1.6031334111641597e+18
14309.0	1.6028461785153533e+18
14310.0	1.6025515420811256e+18
14311.0	1.6022423816110077e+18
14312.0	1.6019618313273341e+18
14313.0	1.6015877228986365e+18
14314.0	1.6014429657235453e+18
14315.0	1.6011623030325243e+18
14316.0	1.600865609711616e+18
14317.0	1.6006086163169277e+18
14318.0	1.6003455160156157e+18
14319.0	1.6000727990140925e+18
14320.0	1.5997964900106235e+18
14321.0	1.5995143710572544e+18
14322.0	1.5992177616224253e+18
14323.0	1.5989457811406843e+18
14324.0	1.5986826254745597e+18
14325.0	1.598397278584832e+18
14326.0	1.5981316080140288e+18
14327.0	1.5978463466881021e+18
14328.0	1.5975715845439485e+18
14329.0	1.597300432856678e+18
14330.0	1.597022957836697e+18
14331.0	1.596744962723021e+18
14332.0	1.5964671035047933e+18
14333.0	1.5961887309037563e+18
14334.0	1.5959087225241597e+18
14335.0	1.5956083415711741e+18
14336.0	1.595282504548352e+18
14337.0	1.5950671018721277e+18
14338.0	1.5947953243947003e+18
14339.0	1.5944998490996739e+18
14340.0	1.5942324404092925e+18
14341.0	1.593953438662656e+18
14342.0	1.593666076829286e+18
14343.0	1.5934007451582464e+18
14344.0	1.5930966295969787e+18
14345.0	1.5928317978869752e+18
14346.0	1.5925634010185723e+18
14347.0	1.5922780155412477e+18
14348.0	1.5920059058749435e+18
14349.0	1.5917254377996285e+18
14350.0	1.591386247790592e+18
14351.0	1.5911042060124157e+18
14352.0	1.5908825320128507e+18
14353.0	1.590619721957376e+18
14354.0	1.5903414584082432e+18
14355.0	1.590053306368e+18
14356.0	1.5897693452763133e+18
14357.0	1.589505743336243e+18
14358.0	1.5892468457275392e+18
14359.0	1.5889560395317248e+18
14360.0	1.5886874329481213e+18
14361.0	1.5884132462624765e+18
14362.0	1.5881345565720576e+18
14363.0	1.5878387406995453e+18
14364.0	1.5874132017151997e+18
14365.0	1.5871854610743293e+18
14366.0	1.586975014387712e+18
14367.0	1.586743302579814e+18
14368.0	1.5864689598660605e+18
14369.0	1.5861999137193984e+18
14370.0	1.5859251968737275e+18
14371.0	1.585652011787878e+18
14372.0	1.5853678292369405e+18
14373.0	1.585095404158976e+18
14374.0	1.5848203333140477e+18
14375.0	1.584538143896371e+18
14376.0	1.584275182845952e+18
14377.0	1.5839991842209787e+18
14378.0	1.5837225681944576e+18
14379.0	1.5834471047626747e+18
14380.0	1.5831711413698557e+18
14381.0	1.582887428580966e+18
14382.0	1.582622024767897e+18
14383.0	1.582347801172377e+18
14384.0	1.5820551327055867e+18
14385.0	1.5817985201537021e+18
14386.0	1.5815052225413123e+18
14387.0	1.5812481922367488e+18
14388.0	1.580970952097792e+18
14389.0	1.5806975757516797e+18
14390.0	1.5804222784143357e+18
14391.0	1.580148829926195e+18
14392.0	1.5798723313401853e+18
14393.0	1.57959833255936e+18
14394.0	1.5792838738444285e+18
14395.0	1.5790390808412157e+18
14396.0	1.5787688820998144e+18
14397.0	1.578498653159424e+18
14398.0	1.5782204399419387e+18
14399.0	1.5779267413540864e+18
14400.0	1.5776381027745787e+18
14401.0	1.5773589852651515e+18
14402.0	1.577057752029593e+18
14403.0	1.5765781736325115e+18
14404.0	1.5742380388909048e+18
14405.0	1.5742515193839603e+18
14406.0	1.575858852174233e+18
14407.0	1.5755689234268157e+18
14408.0	1.5754186834575357e+18
14409.0	1.575164902899712e+18
14410.0	1.5749022069293053e+18
14411.0	1.5746412708888576e+18
14412.0	1.5743719630176253e+18
14413.0	1.5741031853064187e+18
14414.0	1.5738292788002813e+18
14415.0	1.5735561490792443e+18
14416.0	1.5732801101889533e+18
14417.0	1.5730034304090107e+18
14418.0	1.572728935022592e+18
14419.0	1.5724577279705088e+18
14420.0	1.5721813183037435e+18
14421.0	1.571905834739302e+18
14422.0	1.5716175115714557e+18
14423.0	1.571287943295795e+18
14424.0	1.5705781613625341e+18
14425.0	1.570736667466137e+18
14426.0	1.5705330507841533e+18
14427.0	1.5702697474785275e+18
14428.0	1.569974772144537e+18
14429.0	1.569715017220096e+18
14430.0	1.5693902220623872e+18
14431.0	1.5688561999216635e+18
14432.0	1.5688634342572032e+18
14433.0	1.5685208485396477e+18
14434.0	1.5683366330302464e+18
14435.0	1.56806923943936e+18
14436.0	1.567805865669427e+18
14437.0	1.567536901731123e+18
14438.0	1.567235230610227e+18
14439.0	1.5669765947260925e+18
14440.0	1.5667251311017981e+18
14441.0	1.5664420390699e+18
14442.0	1.5661633846116347e+18
14443.0	1.5658599116177403e+18
14444.0	1.565614826690969e+18
14445.0	1.5653201466359803e+18
14446.0	1.5643440398204928e+18
14447.0	1.564685051835187e+18
14448.0	1.5645349947375613e+18
14449.0	1.5642762967777277e+18
14450.0	1.564001850045235e+18
14451.0	1.5637341024550912e+18
14452.0	1.5634659807330301e+18
14453.0	1.563193515389747e+18
14454.0	1.5629186576154621e+18
14455.0	1.562641336945868e+18
14456.0	1.5623679538888701e+18
14457.0	1.5620957754359805e+18
14458.0	1.561823469476249e+18
14459.0	1.5615450733871101e+18
14460.0	1.561265712608051e+18
14461.0	1.560972807582515e+18
14462.0	1.5606888582348797e+18
14463.0	1.5604429428359165e+18
14464.0	1.560180629386035e+18
14465.0	1.5598975021219835e+18
14466.0	1.5596533835628541e+18
14467.0	1.559372730938163e+18
14468.0	1.559112883739033e+18
14469.0	1.5588009265070075e+18
14470.0	1.5585534743150587e+18
14471.0	1.5583032438161405e+18
14472.0	1.5580406233432064e+18
14473.0	1.5577778787188733e+18
14474.0	1.5575128809144315e+18
14475.0	1.5572425513107453e+18
14476.0	1.5569645444530173e+18
14477.0	1.5566898611617787e+18
14478.0	1.5564192094355453e+18
14479.0	1.556149498911129e+18
14480.0	1.5558640463249403e+18
14481.0	1.5556113730633728e+18
14482.0	1.555336308929331e+18
14483.0	1.555061436055552e+18
14484.0	1.5547770471448573e+18
14485.0	1.5544591943991293e+18
14486.0	1.554046248393113e+18
14487.0	1.5539638168977405e+18
14488.0	1.5537088451575803e+18
14489.0	1.5534253185957888e+18
14490.0	1.5531718333169664e+18
14491.0	1.552916427046912e+18
14492.0	1.5526491089534973e+18
14493.0	1.5523656276901885e+18
14494.0	1.5520838627360765e+18
14495.0	1.5518168717983744e+18
14496.0	1.551482622679449e+18
14497.0	1.551287126170009e+18
14498.0	1.5510289063608315e+18
14499.0	1.5507631955247104e+18
14500.0	1.5504925773529085e+18
14501.0	1.5501852690874368e+18
14502.0	1.5497641240559616e+18
14503.0	1.5496631319265275e+18
14504.0	1.5494074572210176e+18
14505.0	1.549140088795955e+18
14506.0	1.5488382968791035e+18
14507.0	1.5484363886034944e+18
14508.0	1.5483184145760253e+18
14509.0	1.548070935540531e+18
14510.0	1.5478016679346168e+18
14511.0	1.5475342223343613e+18
14512.0	1.547257118090854e+18
14513.0	1.5469815590289405e+18
14514.0	1.5466820790124544e+18
14515.0	1.5463158357426173e+18
14516.0	1.543793993685402e+18
14517.0	1.5455735714414592e+18
14518.0	1.545611306755686e+18
14519.0	1.5453501593223163e+18
14520.0	1.545119173967872e+18
14521.0	1.5448562213060603e+18
14522.0	1.544587633177395e+18
14523.0	1.5443107822698493e+18
14524.0	1.5440446150934525e+18
14525.0	1.5437833586081787e+18
14526.0	1.543503056627302e+18
14527.0	1.543183833183027e+18
14528.0	1.5428673293254653e+18
14529.0	1.5426935106568192e+18
14530.0	1.542426341880627e+18
14531.0	1.5421717778268152e+18
14532.0	1.5419029850161147e+18
14533.0	1.541637108085555e+18
14534.0	1.5413723501953021e+18
14535.0	1.541096264328806e+18
14536.0	1.540835123606323e+18
14537.0	1.5405615576776704e+18
14538.0	1.5403053360349181e+18
14539.0	1.5400378367475707e+18
14540.0	1.5397710521696253e+18
14541.0	1.5394763838586877e+18
14542.0	1.5392321025605624e+18
14543.0	1.5389494719021053e+18
14544.0	1.5386874604421115e+18
14545.0	1.538381631927091e+18
14546.0	1.537194907297382e+18
14547.0	1.5368803361751037e+18
14548.0	1.5375503091302395e+18
14549.0	1.5372607494815744e+18
14550.0	1.5370687157895163e+18
14551.0	1.5368301689438205e+18
14552.0	1.5365612939247613e+18
14553.0	1.5362934221832192e+18
14554.0	1.5360352057294848e+18
14555.0	1.5357665253261307e+18
14556.0	1.5354920148402176e+18
14557.0	1.5352073189064701e+18
14558.0	1.534811749063065e+18
14559.0	1.5328989719560184e+18
14560.0	1.534267778033254e+18
14561.0	1.534134214616678e+18
14562.0	1.5338633246539773e+18
14563.0	1.5336266551787515e+18
14564.0	1.533325264237363e+18
14565.0	1.5331057041670144e+18
14566.0	1.5328424142831616e+18
14567.0	1.5325737389129725e+18
14568.0	1.5322987620204544e+18
14569.0	1.5319910846562301e+18
14570.0	1.5312921106055163e+18
14571.0	1.5314729421504512e+18
14572.0	1.5312073890201597e+18
14573.0	1.5309289912532992e+18
14574.0	1.530699801060966e+18
14575.0	1.5304427640455165e+18
14576.0	1.5301646934343675e+18
14577.0	1.5299152732749821e+18
14578.0	1.5296562364153853e+18
14579.0	1.5293969982291965e+18
14580.0	1.529130950171033e+18
14581.0	1.5288642377351165e+18
14582.0	1.5285878817554432e+18
14583.0	1.5283220048248835e+18
14584.0	1.5280446338236413e+18
14585.0	1.5277892007100413e+18
14586.0	1.5275287260430336e+18
14587.0	1.5272659025657853e+18
14588.0	1.527001872806707e+18
14589.0	1.52673705787392e+18
14590.0	1.5264715567529981e+18
14591.0	1.5262000560996347e+18
14592.0	1.5259152645357565e+18
14593.0	1.5255935664521216e+18
14594.0	1.525389859173171e+18
14595.0	1.5251195094368253e+18
14596.0	1.5246362316636157e+18
14597.0	1.5243365754863613e+18
14598.0	1.5242987428642813e+18
14599.0	1.5240797666410493e+18
14600.0	1.523821499855667e+18
14601.0	1.5235584062652413e+18
14602.0	1.5232891353038843e+18
14603.0	1.5230243589586941e+18
14604.0	1.522725737935667e+18
14605.0	1.522440964826726e+18
14606.0	1.5221336985042944e+18
14607.0	1.5219678087479293e+18
14608.0	1.5216759858528253e+18
14609.0	1.521386958041907e+18
14610.0	1.521115542952345e+18
14611.0	1.5208364237651965e+18
14612.0	1.5206573286621181e+18
14613.0	1.5203963859107837e+18
14614.0	1.520091589194547e+18
14615.0	1.5198396709076987e+18
14616.0	1.5196018421268477e+18
14617.0	1.5192394777493501e+18
14618.0	1.518955315331072e+18
14619.0	1.5184740155916285e+18
14620.0	1.5181008382984187e+18
14621.0	1.5182197333950464e+18
14622.0	1.5180053558067195e+18
14623.0	1.5177552427483136e+18
14624.0	1.517468662733209e+18
14625.0	1.517231634225561e+18
14626.0	1.5169454149206013e+18
14627.0	1.5166859988959232e+18
14628.0	1.5164598269247485e+18
14629.0	1.5161973054373883e+18
14630.0	1.5159027059130365e+18
14631.0	1.5156377701842941e+18
14632.0	1.5153017628131325e+18
14633.0	1.515111633335091e+18
14634.0	1.5148793074810877e+18
14635.0	1.5145916335915003e+18
14636.0	1.5142500108861437e+18
14637.0	1.5140936656879613e+18
14638.0	1.513816767804211e+18
14639.0	1.513548768555827e+18
14640.0	1.513281514215833e+18
14641.0	1.512883278472806e+18
14642.0	1.5127559930904573e+18
14643.0	1.5125112252530685e+18
14644.0	1.5122369429372928e+18
14645.0	1.5119405549617155e+18
14646.0	1.5116776526315515e+18
14647.0	1.511442689399193e+18
14648.0	1.511176956752691e+18
