# Flux units: erg / (cm m2 s)
# Wavelength units: Angstrom
wave	flux
14000.0	1.7247417543950333e+18
14001.0	1.724320923097497e+18
14002.0	1.7239941096407035e+18
14003.0	1.7236195415162877e+18
14004.0	1.7232451445194744e+18
14005.0	1.7228706250489853e+18
14006.0	1.7224925655859197e+18
14007.0	1.7221173699936253e+18
14008.0	1.7217003924226048e+18
14009.0	1.7213733793169405e+18
14010.0	1.7209931388157947e+18
14011.0	1.720330180414669e+18
14012.0	1.720251429840486e+18
14013.0	1.7198777341313021e+18
14014.0	1.7195013523898365e+18
14015.0	1.7191293092364285e+18
14016.0	1.718756985903513e+18
14017.0	1.7183835837956093e+18
14018.0	1.7180099719725053e+18
14019.0	1.717637100024627e+18
14020.0	1.717263597253427e+18
14021.0	1.716890329363251e+18
14022.0	1.7165174020505597e+18
14023.0	1.7161376866762747e+18
14024.0	1.7157652056375293e+18
14025.0	1.715399757607731e+18
14026.0	1.7150263840210941e+18
14027.0	1.7146549029044224e+18
14028.0	1.7142796519473147e+18
14029.0	1.71390849295319e+18
14030.0	1.7133651124813824e+18
14031.0	1.7131574961111037e+18
14032.0	1.7127939892051963e+18
14033.0	1.712401759705497e+18
14034.0	1.71205037433815e+18
14035.0	1.7116788345012221e+18
14036.0	1.7113072577544187e+18
14037.0	1.7109355652448253e+18
14038.0	1.7105643877957632e+18
14039.0	1.7101911383605248e+18
14040.0	1.7098159410905085e+18
14041.0	1.7094488891588605e+18
14042.0	1.7090751598952448e+18
14043.0	1.7086883813130235e+18
14044.0	1.7083323453014008e+18
14045.0	1.7079657228664832e+18
14046.0	1.7075922200952827e+18
14047.0	1.707215333359616e+18
14048.0	1.7068484559110141e+18
14049.0	1.706478803510886e+18
14050.0	1.706108530353766e+18
14051.0	1.7057341585227776e+18
14052.0	1.705366393559449e+18
14053.0	1.7049981621895165e+18
14054.0	1.7046283957043197e+18
14055.0	1.7042580822818813e+18
14056.0	1.703888884544307e+18
14057.0	1.7035192791203837e+18
14058.0	1.7031497693265915e+18
14059.0	1.7027803383857147e+18
14060.0	1.7024110164967421e+18
14061.0	1.7020384515719163e+18
14062.0	1.7016725857894395e+18
14063.0	1.7012961772044288e+18
14064.0	1.7009022179737597e+18
14065.0	1.700555288634982e+18
14066.0	1.7001904714285053e+18
14067.0	1.6998185356492797e+18
14068.0	1.6994532788797437e+18
14069.0	1.6990840559763453e+18
14070.0	1.6987163262451712e+18
14071.0	1.698346682233651e+18
14072.0	1.697979804785049e+18
14073.0	1.69761169253335e+18
14074.0	1.697243706110771e+18
14075.0	1.6968676464918525e+18
14076.0	1.6965039181266944e+18
14077.0	1.6960999697416187e+18
14078.0	1.6957696062259197e+18
14079.0	1.6954000779771904e+18
14080.0	1.6950373310791677e+18
14081.0	1.6946698999824381e+18
14082.0	1.694297048167219e+18
14083.0	1.6939348096188413e+18
14084.0	1.6935628318965757e+18
14085.0	1.6930650317651968e+18
14086.0	1.692825047112089e+18
14087.0	1.6924612499603453e+18
14088.0	1.6920891665416187e+18
14089.0	1.691724401344512e+18
14090.0	1.6913596881567744e+18
14091.0	1.690994864239411e+18
14092.0	1.6906284901072893e+18
14093.0	1.6902621730177021e+18
14094.0	1.6898960421552125e+18
14095.0	1.689529968335257e+18
14096.0	1.6891555579166715e+18
14097.0	1.6887912742256635e+18
14098.0	1.6884283595554813e+18
14099.0	1.6880665102385147e+18
14100.0	1.6876952203821056e+18
14101.0	1.687335424596377e+18
14102.0	1.6869698188607488e+18
14103.0	1.686597623034675e+18
14104.0	1.6862380336087037e+18
14105.0	1.6858734697381885e+18
14106.0	1.6855073975959547e+18
14107.0	1.685135470205337e+18
14108.0	1.6847675727020032e+18
14109.0	1.6844058022379515e+18
14110.0	1.6840371145277435e+18
14111.0	1.683663363453747e+18
14112.0	1.6833106644303872e+18
14113.0	1.6829498016137208e+18
14114.0	1.6825793439072253e+18
14115.0	1.6822205765648381e+18
14116.0	1.6818344254504957e+18
14117.0	1.681208194052915e+18
14118.0	1.681128668371353e+18
14119.0	1.6807587374694397e+18
14120.0	1.680397166654259e+18
14121.0	1.680030223774515e+18
14122.0	1.6796663947460603e+18
14123.0	1.6793037535444987e+18
14124.0	1.678938919560806e+18
14125.0	1.678365393787289e+18
14126.0	1.6782189874118653e+18
14127.0	1.6778574702837757e+18
14128.0	1.6774937402408957e+18
14129.0	1.6771262202249208e+18
14130.0	1.6767584703610875e+18
14131.0	1.6764036204986363e+18
14132.0	1.676034362363085e+18
14133.0	1.6754188063080438e+18
14134.0	1.6753115545993216e+18
14135.0	1.6749429977513981e+18
14136.0	1.6745712012230653e+18
14137.0	1.674224476566323e+18
14138.0	1.6738587248689147e+18
14139.0	1.6735002578386941e+18
14140.0	1.6731275100422141e+18
14141.0	1.672776273992089e+18
14142.0	1.6723874670444541e+18
14143.0	1.672042842895155e+18
14144.0	1.6716915850346493e+18
14145.0	1.671329361585766e+18
14146.0	1.6709677840596987e+18
14147.0	1.6706068021248e+18
14148.0	1.67024491757568e+18
14149.0	1.6698832712630267e+18
14150.0	1.6695238026330107e+18
14151.0	1.669159466932633e+18
14152.0	1.6688020652556285e+18
14153.0	1.6684411974057981e+18
14154.0	1.6680688673619965e+18
14155.0	1.667643101885235e+18
14156.0	1.6673569178124285e+18
14157.0	1.6669989708759035e+18
14158.0	1.6666364420816893e+18
14159.0	1.6662723647504381e+18
14160.0	1.665911621052006e+18
14161.0	1.6655215776235515e+18
14162.0	1.6651421541728253e+18
14163.0	1.664831404900352e+18
14164.0	1.6644586134831104e+18
14165.0	1.6639982986854395e+18
14166.0	1.6637522792677376e+18
14167.0	1.663366438531891e+18
14168.0	1.662956366462976e+18
14169.0	1.6625989261983741e+18
14170.0	1.6622376573730816e+18
14171.0	1.6618789420400635e+18
14172.0	1.6615215302967293e+18
14173.0	1.6611070374313981e+18
14174.0	1.660802215549337e+18
14175.0	1.6604449564786685e+18
14176.0	1.660085774739046e+18
14177.0	1.6597275174240256e+18
14178.0	1.659368023628185e+18
14179.0	1.6589990003736568e+18
14180.0	1.658652497176166e+18
14181.0	1.658294266704691e+18
14182.0	1.657935744309657e+18
14183.0	1.6575780758749181e+18
14184.0	1.6572177230856187e+18
14185.0	1.6568622373666813e+18
14186.0	1.6564445031432187e+18
14187.0	1.6561353594503168e+18
14188.0	1.6557872875831293e+18
14189.0	1.6554299916025853e+18
14190.0	1.6550722896134141e+18
14191.0	1.6547101483728893e+18
14192.0	1.654349564058009e+18
14193.0	1.6539877466177533e+18
14194.0	1.653638359416832e+18
14195.0	1.6532822864953341e+18
14196.0	1.652925217007206e+18
14197.0	1.6525684176322557e+18
14198.0	1.6522090597318653e+18
14199.0	1.6518532955111421e+18
14200.0	1.6514659414704125e+18
14201.0	1.6511418744438781e+18
14202.0	1.6507849760833533e+18
14203.0	1.6504163017949181e+18
14204.0	1.6500718504509435e+18
14205.0	1.649715873159577e+18
14206.0	1.6493021537239035e+18
14207.0	1.6490051466690557e+18
14208.0	1.6486494881447933e+18
14209.0	1.6482258030428157e+18
14210.0	1.647899677451878e+18
14211.0	1.6475801318850557e+18
14212.0	1.6472265419915261e+18
14213.0	1.6468709002444795e+18
14214.0	1.6465158926761981e+18
14215.0	1.6461546523721725e+18
14216.0	1.6458060721553403e+18
14217.0	1.6454509857341435e+18
14218.0	1.645090602745856e+18
14219.0	1.6447411585023995e+18
14220.0	1.6443864697012221e+18
14221.0	1.644030772589363e+18
14222.0	1.6436678897958912e+18
14223.0	1.6433225844916221e+18
14224.0	1.6429682715000832e+18
14225.0	1.64251808342999e+18
14226.0	1.6422596992040957e+18
14227.0	1.6418998648307707e+18
14228.0	1.6412870921158656e+18
14229.0	1.641165182153523e+18
14230.0	1.6408375969447933e+18
14231.0	1.6404783095087096e+18
14232.0	1.640130053092147e+18
14233.0	1.6397730440019965e+18
14234.0	1.639422881693696e+18
14235.0	1.6390681492717563e+18
14236.0	1.638715822702592e+18
14237.0	1.638362108657664e+18
14238.0	1.638009354269491e+18
14239.0	1.6376536202477563e+18
14240.0	1.6365621197406213e+18
14241.0	1.6369503948505085e+18
14242.0	1.6365976538841085e+18
14243.0	1.6361720008146944e+18
14244.0	1.635892232349286e+18
14245.0	1.6355301900943357e+18
14246.0	1.6351714596618237e+18
14247.0	1.6348324558798848e+18
14248.0	1.6344747991891963e+18
14249.0	1.6341279789023232e+18
14250.0	1.6337768787476477e+18
14251.0	1.633426008440832e+18
14252.0	1.6330739838615547e+18
14253.0	1.6327218133204992e+18
14254.0	1.6323691277189115e+18
14255.0	1.6320031361073155e+18
14256.0	1.6315734346956797e+18
14257.0	1.6313121580777472e+18
14258.0	1.6309640224571392e+18
14259.0	1.6306036344356861e+18
14260.0	1.6302568326037504e+18
14261.0	1.629900806658457e+18
14262.0	1.629568970103193e+18
14263.0	1.6290781862035453e+18
14264.0	1.6288450600763387e+18
14265.0	1.6285131480236032e+18
14266.0	1.628164391646003e+18
14267.0	1.6278116154474493e+18
14268.0	1.627458205070131e+18
14269.0	1.627103469292748e+18
14270.0	1.6267572731183101e+18
14271.0	1.626405164652953e+18
14272.0	1.6260566280568832e+18
14273.0	1.625706279521485e+18
14274.0	1.6251521129775104e+18
14275.0	1.6249883908374523e+18
14276.0	1.6246424110891005e+18
14277.0	1.6242953357885435e+18
14278.0	1.6239568319676413e+18
14279.0	1.6236070874120192e+18
14280.0	1.6232537693093885e+18
14281.0	1.6229080965840893e+18
14282.0	1.6225588469563395e+18
14283.0	1.6222095369306107e+18
14284.0	1.6218603175018493e+18
14285.0	1.6215111484047357e+18
14286.0	1.621161606853427e+18
14287.0	1.6208131658874877e+18
14288.0	1.620464213216461e+18
14289.0	1.6196421564760044e+18
14290.0	1.619764358361907e+18
14291.0	1.6194176387383293e+18
14292.0	1.6190685300391933e+18
14293.0	1.618720077329203e+18
14294.0	1.6183077420138493e+18
14295.0	1.618018479321907e+18
14296.0	1.617293456965632e+18
14297.0	1.6173281740587005e+18
14298.0	1.6168948907114493e+18
14299.0	1.6166246030508032e+18
14300.0	1.6162796148359163e+18
14301.0	1.6159336283766781e+18
14302.0	1.615587150345011e+18
14303.0	1.6152250678247421e+18
14304.0	1.6148853476556795e+18
14305.0	1.6145446426640381e+18
14306.0	1.6141716079771648e+18
14307.0	1.6138452273725435e+18
14308.0	1.613504401584947e+18
14309.0	1.6131561082585085e+18
14310.0	1.612693411096166e+18
14311.0	1.6124098727903232e+18
14312.0	1.6121005177044987e+18
14313.0	1.611720307402342e+18
14314.0	1.611421973269708e+18
14315.0	1.6110765253591037e+18
14316.0	1.6107018951589888e+18
14317.0	1.6102871758012416e+18
14318.0	1.609940167609548e+18
14319.0	1.6095941459181568e+18
14320.0	1.609247748417126e+18
14321.0	1.6089005623869437e+18
14322.0	1.608534307373056e+18
14323.0	1.6082040562647037e+18
14324.0	1.6078640693379072e+18
14325.0	1.6075141402329088e+18
14326.0	1.6071729436688381e+18
14327.0	1.6068242812436477e+18
14328.0	1.6064788115226621e+18
14329.0	1.6061365277949947e+18
14330.0	1.6057912157798397e+18
14331.0	1.6054457930350584e+18
14332.0	1.6051008098533376e+18
14333.0	1.6047557880840192e+18
14334.0	1.6044108166463485e+18
14335.0	1.6040557168033792e+18
14336.0	1.6037064772419581e+18
14337.0	1.603374870534553e+18
14338.0	1.6030304410009597e+18
14339.0	1.6026818842722301e+18
14340.0	1.6023427194290176e+18
14341.0	1.601997503043993e+18
14342.0	1.601652773198233e+18
14343.0	1.6013043976634363e+18
14344.0	1.6009612129992701e+18
14345.0	1.6006217360998395e+18
14346.0	1.6002765583024125e+18
14347.0	1.5999254749249533e+18
14348.0	1.5995899389935608e+18
14349.0	1.5992463265103867e+18
14350.0	1.5988951357587453e+18
14351.0	1.5985485419642877e+18
14352.0	1.598211002833305e+18
14353.0	1.5978714839908347e+18
14354.0	1.5975275225415677e+18
14355.0	1.5971828480606203e+18
14356.0	1.5968407841144832e+18
14357.0	1.5964995221192701e+18
14358.0	1.5961565505257467e+18
14359.0	1.5958066734301181e+18
14360.0	1.595469942960947e+18
14361.0	1.5951279528345597e+18
14362.0	1.5947854828797947e+18
14363.0	1.5944427646222333e+18
14364.0	1.5940742581059581e+18
14365.0	1.593755353428787e+18
14366.0	1.5934112661503995e+18
14367.0	1.5930734921383933e+18
14368.0	1.5927310842593275e+18
14369.0	1.5923892585496576e+18
14370.0	1.5920472868782077e+18
14371.0	1.5917048873877496e+18
14372.0	1.591355152898457e+18
14373.0	1.591015927657267e+18
14374.0	1.590674271397478e+18
14375.0	1.590331814864486e+18
14376.0	1.5899912508014587e+18
14377.0	1.5896494955560957e+18
14378.0	1.5893071866626048e+18
14379.0	1.5889671745699835e+18
14380.0	1.5886258790203387e+18
14381.0	1.5882790067240957e+18
14382.0	1.5879431268597757e+18
14383.0	1.5875948586991616e+18
14384.0	1.5872528215965696e+18
14385.0	1.5869212081782781e+18
14386.0	1.586572262218137e+18
14387.0	1.586239712631193e+18
14388.0	1.5858982107217915e+18
14389.0	1.585558760665907e+18
14390.0	1.5852172570787837e+18
14391.0	1.5848779680841723e+18
14392.0	1.584534447875686e+18
14393.0	1.5841977861931003e+18
14394.0	1.5838399734743035e+18
14395.0	1.5835112021164024e+18
14396.0	1.5831777230716925e+18
14397.0	1.5828380129689597e+18
14398.0	1.5824967576846333e+18
14399.0	1.582158527332352e+18
14400.0	1.5818088985395197e+18
14401.0	1.5814766492647421e+18
14402.0	1.5811397493456893e+18
14403.0	1.578894236424597e+18
14404.0	1.5746451262930929e+18
14405.0	1.5794681128419295e+18
14406.0	1.5797829071011835e+18
14407.0	1.5764574967955476e+18
14408.0	1.5790980041015293e+18
14409.0	1.5787568008265725e+18
14410.0	1.5784251035222013e+18
14411.0	1.5780881415274493e+18
14412.0	1.5777484247138301e+18
14413.0	1.5774116724342781e+18
14414.0	1.5770719623315453e+18
14415.0	1.576734154765107e+18
14416.0	1.5763955788021757e+18
14417.0	1.5760506107199485e+18
14418.0	1.5757044917207035e+18
14419.0	1.5753810722947067e+18
14420.0	1.5750413437370363e+18
14421.0	1.5747055309815805e+18
14422.0	1.5743662000439293e+18
14423.0	1.5740267130781693e+18
14424.0	1.5618358275735457e+18
14425.0	1.5733527018471421e+18
14426.0	1.5730172900671485e+18
14427.0	1.5726797073154048e+18
14428.0	1.5723302764937213e+18
14429.0	1.5720044814139387e+18
14430.0	1.5716683213701115e+18
14431.0	1.571288605995827e+18
14432.0	1.5709853695606781e+18
14433.0	1.568415739281406e+18
14434.0	1.5703130595393533e+18
14435.0	1.5699729937596413e+18
14436.0	1.5696413081993216e+18
14437.0	1.56930433613824e+18
14438.0	1.568907823415296e+18
14439.0	1.5686187201069053e+18
14440.0	1.568294252104908e+18
14441.0	1.567954595689267e+18
14442.0	1.5676145215209467e+18
14443.0	1.5672197251071997e+18
14444.0	1.5668624257712123e+18
14445.0	1.5665286430588925e+18
14446.0	1.563674632257537e+18
14447.0	1.5658528282771453e+18
14448.0	1.565521211503411e+18
14449.0	1.5651855195439101e+18
14450.0	1.5648468999602176e+18
14451.0	1.564512613931417e+18
14452.0	1.564177801098035e+18
14453.0	1.5638044291891197e+18
14454.0	1.563507719090995e+18
14455.0	1.5631683512434688e+18
14456.0	1.562829344106086e+18
14457.0	1.5624894897192952e+18
14458.0	1.562165335451238e+18
14459.0	1.5618282711154688e+18
14460.0	1.561496406038937e+18
14461.0	1.5611527667122173e+18
14462.0	1.5607837048700928e+18
14463.0	1.5604907612569597e+18
14464.0	1.5601583358214141e+18
14465.0	1.5598125087457277e+18
14466.0	1.5594878259953664e+18
14467.0	1.5591213226786813e+18
14468.0	1.558816891705753e+18
14469.0	1.558475978676633e+18
14470.0	1.5581363256164347e+18
14471.0	1.5578105221480448e+18
14472.0	1.5574797257801728e+18
14473.0	1.5571491693264893e+18
14474.0	1.5568163143942141e+18
14475.0	1.556479944635187e+18
14476.0	1.5560021865660419e+18
14477.0	1.5558154142089213e+18
14478.0	1.5554800963813373e+18
14479.0	1.5551454278320125e+18
14480.0	1.5548066186657787e+18
14481.0	1.55448170774528e+18
14482.0	1.5541468814901248e+18
14483.0	1.553809807088025e+18
14484.0	1.5534798764244992e+18
14485.0	1.553127858556108e+18
14486.0	1.552669570446131e+18
14487.0	1.5524829742497787e+18
14488.0	1.5521438513496064e+18
14489.0	1.5518136572837885e+18
14490.0	1.5514823458553853e+18
14491.0	1.5511516417622013e+18
14492.0	1.5508194864398333e+18
14493.0	1.5504837307269123e+18
14494.0	1.5501447152009216e+18
14495.0	1.5498225121230843e+18
14496.0	1.549423674078003e+18
14497.0	1.5491577300385792e+18
14498.0	1.5488253029253115e+18
14499.0	1.5484938405019648e+18
14500.0	1.54816168853504e+18
14501.0	1.5477669424529403e+18
14502.0	1.5473328487661565e+18
14503.0	1.5471559581892605e+18
14504.0	1.5468319935037437e+18
14505.0	1.5464480972472315e+18
14506.0	1.5460376007147515e+18
14507.0	1.5457192815624187e+18
14508.0	1.5455082040524797e+18
14509.0	1.5451768540364795e+18
14510.0	1.5448438715973632e+18
14511.0	1.5445142680895488e+18
14512.0	1.5441752877957115e+18
14513.0	1.5438510580301821e+18
14514.0	1.5434914870591485e+18
14515.0	1.5431831822270464e+18
14516.0	1.5416708588109832e+18
14517.0	1.5425225927688187e+18
14518.0	1.5421918718984192e+18
14519.0	1.5418612298809341e+18
14520.0	1.5415301013241853e+18
14521.0	1.5411981523615741e+18
14522.0	1.540868899497574e+18
14523.0	1.540401560079564e+18
14524.0	1.540063336438169e+18
14525.0	1.5398755104718843e+18
14526.0	1.539546789445632e+18
14527.0	1.5392106059137021e+18
14528.0	1.5388149572173821e+18
14529.0	1.5385526135685115e+18
14530.0	1.5382177889910781e+18
14531.0	1.5378965640249344e+18
14532.0	1.5373558058319867e+18
14533.0	1.537237635511091e+18
14534.0	1.5369083272822781e+18
14535.0	1.5365730513977341e+18
14536.0	1.5362470768017405e+18
14537.0	1.5359121029070843e+18
14538.0	1.5355897807110141e+18
14539.0	1.5352605211361277e+18
14540.0	1.5349311390875643e+18
14541.0	1.534590937412403e+18
14542.0	1.5342715864612864e+18
14543.0	1.5338513708875776e+18
14544.0	1.5336140303237115e+18
14545.0	1.533281328064102e+18
14546.0	1.5179265045692308e+18
14547.0	1.519355094577958e+18
14548.0	1.5322918229639163e+18
14549.0	1.5319102922948605e+18
14550.0	1.5316366240251901e+18
14551.0	1.5313122315206653e+18
14552.0	1.5309827320315901e+18
14553.0	1.5306501086248957e+18
14554.0	1.530326496260915e+18
14555.0	1.529997662827315e+18
14556.0	1.5296658011062267e+18
14557.0	1.5293412357963773e+18
14558.0	1.5290128167600125e+18
14559.0	1.5278117845204959e+18
14560.0	1.5283507223855104e+18
14561.0	1.5280248450973693e+18
14562.0	1.5276883092439037e+18
14563.0	1.5273722214612987e+18
14564.0	1.527040087949312e+18
14565.0	1.5267163950546944e+18
14566.0	1.5263885279887357e+18
14567.0	1.5260605602594813e+18
14568.0	1.525722059794022e+18
14569.0	1.525405161671884e+18
14570.0	1.5248325888442368e+18
14571.0	1.524748209514086e+18
14572.0	1.524400914432e+18
14573.0	1.5240718008188925e+18
14574.0	1.5237560703909885e+18
14575.0	1.5234390145630205e+18
14576.0	1.5231103841337341e+18
14577.0	1.5227819416092672e+18
14578.0	1.522456804196352e+18
14579.0	1.5221307624914941e+18
14580.0	1.5218037175091195e+18
14581.0	1.5214728842313725e+18
14582.0	1.5211493473648635e+18
14583.0	1.5208224399556605e+18
14584.0	1.5204898685583357e+18
14585.0	1.5201686888906747e+18
14586.0	1.5198400836272123e+18
14587.0	1.5195120722771965e+18
14588.0	1.519188231743078e+18
14589.0	1.5188731707260928e+18
14590.0	1.518558769053696e+18
14591.0	1.518243763401523e+18
14592.0	1.5179261874798592e+18
14593.0	1.5175580282519547e+18
14594.0	1.5173012445724667e+18
14595.0	1.516982440558592e+18
14596.0	1.5166408379858941e+18
14597.0	1.5163312664739837e+18
14598.0	1.5160413998022653e+18
14599.0	1.5157297730813947e+18
14600.0	1.5154150241206267e+18
14601.0	1.5151015200292864e+18
14602.0	1.5147826103189501e+18
14603.0	1.5144522098933757e+18
14604.0	1.5140348951003136e+18
14605.0	1.513733757494886e+18
14606.0	1.5133885729865728e+18
14607.0	1.513111062734438e+18
14608.0	1.5127968070238205e+18
14609.0	1.5124733087449088e+18
14610.0	1.5121584356327421e+18
14611.0	1.5118546556157947e+18
14612.0	1.511542862800486e+18
14613.0	1.5112292328800256e+18
14614.0	1.5109134001111035e+18
14615.0	1.5105998222000125e+18
14616.0	1.5102878129586176e+18
14617.0	1.5099738944700413e+18
14618.0	1.5096552649392125e+18
14619.0	1.509335991163289e+18
14620.0	1.5089706706403325e+18
14621.0	1.508719097964134e+18
14622.0	1.508403884274483e+18
14623.0	1.5080916653178875e+18
14624.0	1.5077492641497085e+18
14625.0	1.507462816674611e+18
14626.0	1.5071465124659195e+18
14627.0	1.5068282386120704e+18
14628.0	1.5065233915641853e+18
14629.0	1.506209684468531e+18
14630.0	1.5058953650044925e+18
14631.0	1.505581315653632e+18
14632.0	1.504249535214388e+18
14633.0	1.5048674853781496e+18
14634.0	1.5046381525794816e+18
14635.0	1.5042615091134456e+18
14636.0	1.5037464116723707e+18
14637.0	1.503699811277209e+18
14638.0	1.5033841781571581e+18
14639.0	1.503066704576512e+18
14640.0	1.502756362990387e+18
14641.0	1.498625500354966e+18
14642.0	1.5021280981942267e+18
14643.0	1.5018164731510781e+18
14644.0	1.501497160787558e+18
14645.0	1.501176427393843e+18
14646.0	1.5008674565062653e+18
14647.0	1.5005531588526075e+18
