# Flux units: erg / (cm m2 s)
# Wavelength units: Angstrom
wave	flux
14000.0	2.1421973720530934e+18
14001.0	2.1421632169967616e+18
14002.0	2.1418271928483835e+18
14003.0	2.1414088865218555e+18
14004.0	2.140985791977881e+18
14005.0	2.140560917371289e+18
14006.0	2.1401297211097083e+18
14007.0	2.139701006198374e+18
14008.0	2.1392071420018683e+18
14009.0	2.13884903400407e+18
14010.0	2.1384155879178237e+18
14011.0	2.137529058014003e+18
14012.0	2.1375722928996352e+18
14013.0	2.137155102257971e+18
14014.0	2.1367254796992504e+18
14015.0	2.1363037692755965e+18
14016.0	2.1358801462493181e+18
14017.0	2.1354552431214587e+18
14018.0	2.13503007826903e+18
14019.0	2.1346049973026816e+18
14020.0	2.1341792049823744e+18
14021.0	2.1337530100088827e+18
14022.0	2.1333221358698493e+18
14023.0	2.1328830962597883e+18
14024.0	2.132460869097881e+18
14025.0	2.1320523388551165e+18
14026.0	2.1316284171943933e+18
14027.0	2.1312041683779581e+18
14028.0	2.130769868331417e+18
14029.0	2.1303257435471867e+18
14030.0	2.127436418383873e+18
14031.0	2.1292546793668603e+18
14032.0	2.1290674573803517e+18
14033.0	2.1286132511670272e+18
14034.0	2.1282321533501435e+18
14035.0	2.127814689239859e+18
14036.0	2.1273830332825592e+18
14037.0	2.126971246582169e+18
14038.0	2.1265487543402493e+18
14039.0	2.1261223144194043e+18
14040.0	2.1256997567463424e+18
14041.0	2.1252792375050237e+18
14042.0	2.1248495058943995e+18
14043.0	2.1244052183711744e+18
14044.0	2.1240045549649915e+18
14045.0	2.1235887199223803e+18
14046.0	2.1231632212033533e+18
14047.0	2.1227312800333821e+18
14048.0	2.1223222179528696e+18
14049.0	2.1219022976581627e+18
14050.0	2.121480755006668e+18
14051.0	2.121052630653337e+18
14052.0	2.1206330693910525e+18
14053.0	2.1202159878012928e+18
14054.0	2.1197947387510776e+18
14055.0	2.1193734041370621e+18
14056.0	2.1189521332764667e+18
14057.0	2.1185310050222077e+18
14058.0	2.1181099170332667e+18
14059.0	2.1176839267418112e+18
14060.0	2.1172677897093115e+18
14061.0	2.116841817872793e+18
14062.0	2.1164252144336893e+18
14063.0	2.115986151335526e+18
14064.0	2.11515361722368e+18
14065.0	2.1151557110202363e+18
14066.0	2.1147440216276987e+18
14067.0	2.1143053108510715e+18
14068.0	2.1139040048775163e+18
14069.0	2.1134802979651576e+18
14070.0	2.113062151022182e+18
14071.0	2.112642207239372e+18
14072.0	2.1122248253374461e+18
14073.0	2.1118049771847677e+18
14074.0	2.1113847666442237e+18
14075.0	2.1109477436555261e+18
14076.0	2.1105204162199547e+18
14077.0	2.1095573218131968e+18
14078.0	2.1096509370007547e+18
14079.0	2.1092754662621184e+18
14080.0	2.1088688050012152e+18
14081.0	2.108451059033702e+18
14082.0	2.1080311840374776e+18
14083.0	2.1076109214875645e+18
14084.0	2.1071813576491003e+18
14085.0	2.1063311000862717e+18
14086.0	2.1062962085101565e+18
14087.0	2.1059347215810555e+18
14088.0	2.105505177875251e+18
14089.0	2.1050890710417403e+18
14090.0	2.1046810927693821e+18
14091.0	2.1042682742702075e+18
14092.0	2.1038513470308344e+18
14093.0	2.1034332688744443e+18
14094.0	2.1030140062466043e+18
14095.0	2.1025897339420667e+18
14096.0	2.1020956986179581e+18
14097.0	2.101705438763417e+18
14098.0	2.1013018762543101e+18
14099.0	2.100923617142374e+18
14100.0	2.100502764034457e+18
14101.0	2.100096663132569e+18
14102.0	2.0996803381952512e+18
14103.0	2.0992530829017083e+18
14104.0	2.0988452153589757e+18
14105.0	2.0984313549946875e+18
14106.0	2.098015001536102e+18
14107.0	2.097598233680281e+18
14108.0	2.0971690154524664e+18
14109.0	2.096761270383411e+18
14110.0	2.096345806117273e+18
14111.0	2.0959245419675645e+18
14112.0	2.0955077137137661e+18
14113.0	2.0950890148003835e+18
14114.0	2.0946640512745467e+18
14115.0	2.0942401866563584e+18
14116.0	2.0936580407492603e+18
14117.0	2.0889407942819843e+18
14118.0	2.09293039108096e+18
14119.0	2.0925167001665533e+18
14120.0	2.0921267423019005e+18
14121.0	2.0917440321945597e+18
14122.0	2.0913272693719037e+18
14123.0	2.0909042301927421e+18
14124.0	2.0904815349465083e+18
14125.0	2.0897416932753403e+18
14126.0	2.0896862999412733e+18
14127.0	2.089285626468761e+18
14128.0	2.0888765190897656e+18
14129.0	2.088454107378483e+18
14130.0	2.0880314003881981e+18
14131.0	2.0876360016723963e+18
14132.0	2.0872072045527037e+18
14133.0	2.086377014217932e+18
14134.0	2.086382027250073e+18
14135.0	2.0859538357878776e+18
14136.0	2.0855289511149565e+18
14137.0	2.0851322420985853e+18
14138.0	2.0847025910185981e+18
14139.0	2.084320416104448e+18
14140.0	2.0838980463362045e+18
14141.0	2.0834057440985088e+18
14142.0	2.0828449220329467e+18
14143.0	2.0826518280208376e+18
14144.0	2.0822601605578747e+18
14145.0	2.0818526453366784e+18
14146.0	2.081431131206451e+18
14147.0	2.0810260184825853e+18
14148.0	2.0806111833620475e+18
14149.0	2.0802002388779005e+18
14150.0	2.0797966797242365e+18
14151.0	2.0793725382819835e+18
14152.0	2.0789737069477883e+18
14153.0	2.0785620041334784e+18
14154.0	2.0781274675281915e+18
14155.0	2.0776769019707387e+18
14156.0	2.077318188315443e+18
14157.0	2.0769153807810555e+18
14158.0	2.0765016009474045e+18
14159.0	2.076093087481856e+18
14160.0	2.0756705012875261e+18
14161.0	2.07522446222295e+18
14162.0	2.0747717810585597e+18
14163.0	2.074429457065574e+18
14164.0	2.0739258553729021e+18
14165.0	2.0735827428507643e+18
14166.0	2.073210555413299e+18
14167.0	2.0727928446779387e+18
14168.0	2.0723935955910648e+18
14169.0	2.0719825907089405e+18
14170.0	2.0715742248828928e+18
14171.0	2.0711661878902781e+18
14172.0	2.0707584663093243e+18
14173.0	2.0703269647024128e+18
14174.0	2.0699317119483901e+18
14175.0	2.0695292215033853e+18
14176.0	2.069120303706931e+18
14177.0	2.0687114530193403e+18
14178.0	2.0683016040873976e+18
14179.0	2.067888612782899e+18
14180.0	2.0674837483618296e+18
14181.0	2.0670744346230781e+18
14182.0	2.0666642384027643e+18
14183.0	2.0662544012148733e+18
14184.0	2.0658373045256187e+18
14185.0	2.065407765852979e+18
14186.0	2.0642468831690747e+18
14187.0	2.0645317854625784e+18
14188.0	2.0642005293989888e+18
14189.0	2.0637948647047165e+18
14190.0	2.0633883930263547e+18
14191.0	2.062977116353331e+18
14192.0	2.0625624825593853e+18
14193.0	2.0620400853516283e+18
14194.0	2.0617559900422144e+18
14195.0	2.0613571972956155e+18
14196.0	2.0609507994370043e+18
14197.0	2.060543453665689e+18
14198.0	2.0601315646242816e+18
14199.0	2.0597218062893053e+18
14200.0	2.0588384254689277e+18
14201.0	2.0588419654615035e+18
14202.0	2.058501867805081e+18
14203.0	2.0580953038520315e+18
14204.0	2.0576918587834363e+18
14205.0	2.0572839912407037e+18
14206.0	2.05678076535767e+18
14207.0	2.0564705479229435e+18
14208.0	2.0560667421442045e+18
14209.0	2.0555549531701243e+18
14210.0	2.055174123788697e+18
14211.0	2.0548443457978365e+18
14212.0	2.0544245244887035e+18
14213.0	2.0539251607207933e+18
14214.0	2.0535202342240253e+18
14215.0	2.0531027868909568e+18
14216.0	2.052709539014246e+18
14217.0	2.052303907874406e+18
14218.0	2.0518871366631421e+18
14219.0	2.0514920651030525e+18
14220.0	2.051081105519411e+18
14221.0	2.0506760431271933e+18
14222.0	2.0502395502985208e+18
14223.0	2.0498651197472763e+18
14224.0	2.0494471909081083e+18
14225.0	2.0475640037769224e+18
14226.0	2.0485768862498808e+18
14227.0	2.048224200648294e+18
14228.0	2.0443167400656904e+18
14229.0	2.0466521570541537e+18
14230.0	2.0470063828041725e+18
14231.0	2.0464836383080443e+18
14232.0	2.046108246422323e+18
14233.0	2.0457022981931003e+18
14234.0	2.0453004972916736e+18
14235.0	2.0448943074705405e+18
14236.0	2.0444917314617336e+18
14237.0	2.044083712924057e+18
14238.0	2.0436782982103035e+18
14239.0	2.0432578494332925e+18
14240.0	2.0416476376727552e+18
14241.0	2.0424290331525115e+18
14242.0	2.042049913369395e+18
14243.0	2.0415403456987133e+18
14244.0	2.0412573711073277e+18
14245.0	2.0408468343095293e+18
14246.0	2.0404427584176125e+18
14247.0	2.0400447307120635e+18
14248.0	2.039633636910694e+18
14249.0	2.0392405349957627e+18
14250.0	2.0388043189911547e+18
14251.0	2.0383138404368381e+18
14252.0	2.0379089793712125e+18
14253.0	2.03750198256599e+18
14254.0	2.0370899928612861e+18
14255.0	2.0366294029172733e+18
14256.0	2.0347603371687936e+18
14257.0	2.0355433197731835e+18
14258.0	2.035461936853811e+18
14259.0	2.0350568341962747e+18
14260.0	2.0346206970445821e+18
14261.0	2.0342375054311424e+18
14262.0	2.0338249151021053e+18
14263.0	2.031245434919322e+18
14264.0	2.032213310832639e+18
14265.0	2.032630457853542e+18
14266.0	2.0322705798594555e+18
14267.0	2.031877605451366e+18
14268.0	2.031476742396313e+18
14269.0	2.0310687674793981e+18
14270.0	2.030672677542297e+18
14271.0	2.0302642160861176e+18
14272.0	2.0298427120222203e+18
14273.0	2.0292774825820155e+18
14274.0	2.0252615673643013e+18
14275.0	2.027915031714201e+18
14276.0	2.0280772573265915e+18
14277.0	2.0277169330585592e+18
14278.0	2.0273343705907192e+18
14279.0	2.026936602932019e+18
14280.0	2.0265340571222016e+18
14281.0	2.0261396331626493e+18
14282.0	2.025739649233715e+18
14283.0	2.0253390814576637e+18
14284.0	2.024938218402611e+18
14285.0	2.0245367647895547e+18
14286.0	2.024134853158502e+18
14287.0	2.0237342149181435e+18
14288.0	2.023324379407974e+18
14289.0	2.022145894069042e+18
14290.0	2.022523993797427e+18
14291.0	2.0221316971888637e+18
14292.0	2.021732797068083e+18
14293.0	2.021329044976435e+18
14294.0	2.02082271363072e+18
14295.0	2.0205074965856248e+18
14296.0	2.0194993385766917e+18
14297.0	2.0196934694207483e+18
14298.0	2.0187986683494397e+18
14299.0	2.0187487796199421e+18
14300.0	2.018376308647526e+18
14301.0	2.017981367949721e+18
14302.0	2.0175831707942907e+18
14303.0	2.0171511457382397e+18
14304.0	2.0167667864305661e+18
14305.0	2.0163749528731645e+18
14306.0	2.015948934060441e+18
14307.0	2.0155462305447933e+18
14308.0	2.015154509394739e+18
14309.0	2.0147354816479227e+18
14310.0	2.014270088386969e+18
14311.0	2.0138210998878203e+18
14312.0	2.013468978000691e+18
14313.0	2.0130789245059064e+18
14314.0	2.012750609488281e+18
14315.0	2.012370993099571e+18
14316.0	2.0119414477160445e+18
14317.0	2.011546124497715e+18
14318.0	2.0111925580922875e+18
14319.0	2.0108031068995581e+18
14320.0	2.0104077283164155e+18
14321.0	2.0100090093895677e+18
14322.0	2.0095851833589755e+18
14323.0	2.0092000422330363e+18
14324.0	2.008822103565926e+18
14325.0	2.0084163952508925e+18
14326.0	2.007971512136499e+18
14327.0	2.0074918649528315e+18
14328.0	2.0070956542197755e+18
14329.0	2.006703525383372e+18
14330.0	2.0063062492971005e+18
14331.0	2.0059055422701563e+18
14332.0	2.005511551162777e+18
14333.0	2.0051141526028283e+18
14334.0	2.004716304413491e+18
14335.0	2.0043041989459968e+18
14336.0	2.0037618402066432e+18
14337.0	2.0035199597281277e+18
14338.0	2.0031253914845181e+18
14339.0	2.0027186748588027e+18
14340.0	2.0023313627611133e+18
14341.0	2.0019306808999933e+18
14342.0	2.0015383624810496e+18
14343.0	2.0011426735194112e+18
14344.0	2.0007423859228672e+18
14345.0	2.0003488847101947e+18
14346.0	1.9999455403048952e+18
14347.0	1.999521465971507e+18
14348.0	1.9991500955844605e+18
14349.0	1.9987595404509181e+18
14350.0	1.9982296924815352e+18
14351.0	1.997829029075353e+18
14352.0	1.9975667491799037e+18
14353.0	1.9971796618969083e+18
14354.0	1.9967691301322747e+18
14355.0	1.9963423043354621e+18
14356.0	1.9959547120582653e+18
14357.0	1.9955992766709755e+18
14358.0	1.9951528483749883e+18
14359.0	1.9946600059109373e+18
14360.0	1.9942685599072253e+18
14361.0	1.993876226388787e+18
14362.0	1.9934856528003072e+18
14363.0	1.9930830012940288e+18
14364.0	1.9923003542339581e+18
14365.0	1.992150456519884e+18
14366.0	1.9918291090800637e+18
14367.0	1.991510197692006e+18
14368.0	1.9911167367446525e+18
14369.0	1.9907227942911997e+18
14370.0	1.9903285464924155e+18
14371.0	1.989934526863769e+18
14372.0	1.9895350445735933e+18
14373.0	1.9891424560414717e+18
14374.0	1.9887502718402555e+18
14375.0	1.9883547355512832e+18
14376.0	1.9879613551345661e+18
14377.0	1.9875663389392896e+18
14378.0	1.9871703144333307e+18
14379.0	1.9867780027252736e+18
14380.0	1.986382934520627e+18
14381.0	1.9859788116525056e+18
14382.0	1.98559399936e+18
14383.0	1.9851993119981568e+18
14384.0	1.9847902515953656e+18
14385.0	1.984413574574899e+18
14386.0	1.9840028733603837e+18
14387.0	1.983625635980902e+18
14388.0	1.9832309586853883e+18
14389.0	1.9828379423342587e+18
14390.0	1.982443365702041e+18
14391.0	1.9820514784575483e+18
14392.0	1.9816573682319352e+18
14393.0	1.9812647159463933e+18
14394.0	1.980836036267212e+18
14395.0	1.9803738105446397e+18
14396.0	1.9799462733938688e+18
14397.0	1.9795532335546365e+18
14398.0	1.979159072997376e+18
14399.0	1.97876491747328e+18
14400.0	1.9783555315924987e+18
14401.0	1.9779684745084928e+18
14402.0	1.9775697706811387e+18
14403.0	1.9766314360897526e+18
14404.0	1.9740426428743662e+18
14405.0	1.975023019491325e+18
14406.0	1.975981852485222e+18
14407.0	1.9749184320045056e+18
14408.0	1.9751771752628221e+18
14409.0	1.9748153913769981e+18
14410.0	1.9744116157972475e+18
14411.0	1.974046228165427e+18
14412.0	1.973654926445772e+18
14413.0	1.9732656430252027e+18
14414.0	1.972871021094502e+18
14415.0	1.9724788637368317e+18
14416.0	1.9720802790277117e+18
14417.0	1.9716646453116928e+18
14418.0	1.9712670403919872e+18
14419.0	1.9709029949374461e+18
14420.0	1.9705090122186747e+18
14421.0	1.9701171182632952e+18
14422.0	1.9697084017934333e+18
14423.0	1.9692360174665725e+18
14424.0	1.966032049038949e+18
14425.0	1.9684687534358525e+18
14426.0	1.9681500551184384e+18
14427.0	1.9677695226937341e+18
14428.0	1.9673597039607805e+18
14429.0	1.9669858824224765e+18
14430.0	1.9665742785937403e+18
14431.0	1.965509175358259e+18
14432.0	1.9657934451507192e+18
14433.0	1.9648851249987581e+18
14434.0	1.965002454781132e+18
14435.0	1.9645753672597501e+18
14436.0	1.964140974938521e+18
14437.0	1.9637232423927803e+18
14438.0	1.9632562385190912e+18
14439.0	1.9629263531540475e+18
14440.0	1.9625528554160125e+18
14441.0	1.9621570389475325e+18
14442.0	1.9617617576722424e+18
14443.0	1.961337705149235e+18
14444.0	1.960982321771315e+18
14445.0	1.960587876001382e+18
14446.0	1.9591301691342853e+18
14447.0	1.9597728925351933e+18
14448.0	1.959422711771955e+18
14449.0	1.9590345088040952e+18
14450.0	1.9586384121561083e+18
14451.0	1.9582489844514816e+18
14452.0	1.9578594007187453e+18
14453.0	1.957462940005171e+18
14454.0	1.9570757923241981e+18
14455.0	1.9566770566201344e+18
14456.0	1.9562829010960381e+18
14457.0	1.9558941662904315e+18
14458.0	1.9554977324204027e+18
14459.0	1.9550960858693627e+18
14460.0	1.9546855557824507e+18
14461.0	1.9542343174586363e+18
14462.0	1.9537790559584253e+18
14463.0	1.953483510199091e+18
14464.0	1.9531358476959741e+18
14465.0	1.9527456868270077e+18
14466.0	1.952380096190873e+18
14467.0	1.951977384286617e+18
14468.0	1.951604634812416e+18
14469.0	1.9511700025769974e+18
14470.0	1.9508019389792253e+18
14471.0	1.9504431078834173e+18
14472.0	1.9500596126023675e+18
14473.0	1.949674897617715e+18
14474.0	1.9492906423287805e+18
14475.0	1.948899478182297e+18
14476.0	1.9484808748990461e+18
14477.0	1.9481218961637373e+18
14478.0	1.947735057183539e+18
14479.0	1.9473470102437883e+18
14480.0	1.9469435349762043e+18
14481.0	1.9465728943980544e+18
14482.0	1.9461803964628987e+18
14483.0	1.9457873297801208e+18
14484.0	1.9453929192423421e+18
14485.0	1.9449364564934653e+18
14486.0	1.9442367056576507e+18
14487.0	1.9440961310425083e+18
14488.0	1.943674256202137e+18
14489.0	1.9432597985689597e+18
14490.0	1.942920648825241e+18
14491.0	1.9425480084029437e+18
14492.0	1.94216096474071e+18
14493.0	1.941755224548966e+18
14494.0	1.9413631527550973e+18
14495.0	1.9409891416342525e+18
14496.0	1.940493720512102e+18
14497.0	1.940215926725017e+18
14498.0	1.9398310020251643e+18
14499.0	1.9394430087725053e+18
14500.0	1.9390538729914363e+18
14501.0	1.9386414252687355e+18
14502.0	1.9380815964143616e+18
14503.0	1.9378649622904832e+18
14504.0	1.9374951874166781e+18
14505.0	1.937095176644198e+18
14506.0	1.9366892737134587e+18
14507.0	1.9361281077149693e+18
14508.0	1.9359468500287483e+18
14509.0	1.9355628715638781e+18
14510.0	1.9351727929032704e+18
14511.0	1.9347865696468987e+18
14512.0	1.9343870085038075e+18
14513.0	1.934008853410611e+18
14514.0	1.933594714544537e+18
14515.0	1.9332184586321915e+18
14516.0	1.9308470712926218e+18
14517.0	1.9324122882375675e+18
14518.0	1.932069402207846e+18
14519.0	1.9316861166419965e+18
14520.0	1.931299650115993e+18
14521.0	1.9309117105504253e+18
14522.0	1.9305169141366781e+18
14523.0	1.9300583827570683e+18
14524.0	1.929704918692659e+18
14525.0	1.9293571689480187e+18
14526.0	1.928971803007385e+18
14527.0	1.9285653464285181e+18
14528.0	1.9280949283913725e+18
14529.0	1.9278063049113597e+18
14530.0	1.9274144327663608e+18
14531.0	1.9270404736548861e+18
14532.0	1.9266140471558136e+18
14533.0	1.9262675288588283e+18
14534.0	1.925884325501337e+18
14535.0	1.925487091358105e+18
14536.0	1.9251066830847992e+18
14537.0	1.9247119084814333e+18
14538.0	1.9243375836266493e+18
14539.0	1.9239512949391355e+18
14540.0	1.9235644861579261e+18
14541.0	1.9231417221251072e+18
14542.0	1.9226354176229373e+18
14543.0	1.9222181800050683e+18
14544.0	1.9218576208560128e+18
14545.0	1.9214467703242752e+18
14546.0	1.91768489571123e+18
14547.0	1.9174960228466662e+18
14548.0	1.9202781936091133e+18
14549.0	1.9198198568452093e+18
14550.0	1.9195301227134973e+18
14551.0	1.9191571735904253e+18
14552.0	1.918770774173286e+18
14553.0	1.918379611704525e+18
14554.0	1.9179991665213437e+18
14555.0	1.9176121396363261e+18
14556.0	1.9172242621464568e+18
14557.0	1.916835787387699e+18
14558.0	1.916431292065382e+18
14559.0	1.914578483439204e+18
14560.0	1.9156508142993403e+18
14561.0	1.9152809119186941e+18
14562.0	1.9148696973213693e+18
14563.0	1.9144997110546424e+18
14564.0	1.9140901221695483e+18
14565.0	1.913742889163161e+18
14566.0	1.9133594106593277e+18
14567.0	1.9129682884558843e+18
14568.0	1.9125659875934203e+18
14569.0	1.912189105890918e+18
14570.0	1.9113912402182136e+18
14571.0	1.9114173841539064e+18
14572.0	1.910998675174195e+18
14573.0	1.910593287303987e+18
14574.0	1.910188845668761e+18
14575.0	1.9098473118826493e+18
14576.0	1.909458743171481e+18
14577.0	1.9091055492202496e+18
14578.0	1.9087245587775483e+18
14579.0	1.9083429358338043e+18
14580.0	1.9079557696978936e+18
14581.0	1.907563932785049e+18
14582.0	1.907171230167859e+18
14583.0	1.9067998765580288e+18
14584.0	1.9063818990649336e+18
14585.0	1.9060246467051517e+18
14586.0	1.9056414332813307e+18
14587.0	1.9052581074501627e+18
14588.0	1.9048729008930813e+18
14589.0	1.904490138776371e+18
14590.0	1.9041073682710528e+18
14591.0	1.9037199773204477e+18
14592.0	1.9033278568726525e+18
14593.0	1.9028571737554936e+18
14594.0	1.9025712748953597e+18
14595.0	1.902180310397747e+18
14596.0	1.9014292732903416e+18
14597.0	1.9009673596239864e+18
14598.0	1.9009886398447616e+18
14599.0	1.900655581908172e+18
14600.0	1.900269427438387e+18
14601.0	1.8998871971594235e+18
14602.0	1.8994967695327232e+18
14603.0	1.8991170055045115e+18
14604.0	1.898688577483571e+18
14605.0	1.8983060015939581e+18
14606.0	1.8978744446222333e+18
14607.0	1.897448976102195e+18
14608.0	1.8970673867128827e+18
14609.0	1.8966751203033083e+18
14610.0	1.896267457442611e+18
14611.0	1.8959028197523453e+18
14612.0	1.895541809296179e+18
14613.0	1.8951655349288955e+18
14614.0	1.8947805716414461e+18
14615.0	1.8944012035555328e+18
14616.0	1.8940221240377344e+18
14617.0	1.8936313340231677e+18
14618.0	1.8932175910993915e+18
14619.0	1.8924373079490552e+18
14620.0	1.891530897044275e+18
14621.0	1.892089100186419e+18
14622.0	1.8917215164170237e+18
14623.0	1.8913448628846587e+18
14624.0	1.890915460107468e+18
14625.0	1.8905772331106304e+18
14626.0	1.890197516058624e+18
14627.0	1.889812973879296e+18
14628.0	1.889435352301568e+18
14629.0	1.8890510114488315e+18
14630.0	1.8886613337636861e+18
14631.0	1.888282485771468e+18
14632.0	1.8876769440366587e+18
14633.0	1.8874655779586043e+18
14634.0	1.8871245911097341e+18
14635.0	1.8866839140433912e+18
14636.0	1.8861576899526653e+18
14637.0	1.8859881964503037e+18
14638.0	1.8855803356184568e+18
14639.0	1.8851883040899072e+18
14640.0	1.884817150128947e+18
14641.0	1.8835616909230072e+18
14642.0	1.8840460357271547e+18
14643.0	1.8836783814934525e+18
14644.0	1.883281519804416e+18
14645.0	1.88289369767936e+18
14646.0	1.8824974433255421e+18
14647.0	1.8820876665356283e+18
14648.0	1.881729878982656e+18
