# Flux units: erg / (cm m2 s)
# Wavelength units: Angstrom
wave	flux
14000.0	1.7567065351127035e+18
14001.0	1.7564517915426816e+18
14002.0	1.7563525408882688e+18
14003.0	1.7560496500637693e+18
14004.0	1.755743982610022e+18
14005.0	1.7554373219450877e+18
14006.0	1.755120217463193e+18
14007.0	1.7548103926153213e+18
14008.0	1.7543814294011904e+18
14009.0	1.7542014199398397e+18
14010.0	1.7538816277479424e+18
14011.0	1.7527550175608837e+18
14012.0	1.7532802517958653e+18
14013.0	1.752981607284736e+18
14014.0	1.7526687222726653e+18
14015.0	1.7523666736644093e+18
14016.0	1.7520628835811325e+18
14017.0	1.7517566775787515e+18
14018.0	1.7514334242471933e+18
14019.0	1.7511438427881472e+18
14020.0	1.7508365362003965e+18
14021.0	1.7505291004280827e+18
14022.0	1.750215915103846e+18
14023.0	1.7498980892016635e+18
14024.0	1.7495894790242304e+18
14025.0	1.7493034979557376e+18
14026.0	1.7489975050239997e+18
14027.0	1.748693152903987e+18
14028.0	1.748377596959129e+18
14029.0	1.7480639838158848e+18
14030.0	1.7453421439221778e+18
14031.0	1.747315745148108e+18
14032.0	1.7471549221109757e+18
14033.0	1.7467947672928253e+18
14034.0	1.7465479090143227e+18
14035.0	1.746249001100902e+18
14036.0	1.7459294790221821e+18
14037.0	1.745638114145075e+18
14038.0	1.7453357937459197e+18
14039.0	1.745025863201587e+18
14040.0	1.744721868436275e+18
14041.0	1.7444195597811712e+18
14042.0	1.7441034317332477e+18
14043.0	1.7437603359883261e+18
14044.0	1.7434813275308032e+18
14045.0	1.7431882396336123e+18
14046.0	1.7428924170502141e+18
14047.0	1.7425767587643387e+18
14048.0	1.7422860448432125e+18
14049.0	1.741984766309171e+18
14050.0	1.741680763155251e+18
14051.0	1.7413661417013243e+18
14052.0	1.7410675005456381e+18
14053.0	1.7407684970020861e+18
14054.0	1.7404647102742528e+18
14055.0	1.7401608195276797e+18
14056.0	1.7398569371697152e+18
14057.0	1.7395532108398587e+18
14058.0	1.739249425789747e+18
14059.0	1.738930641908531e+18
14060.0	1.73864213586903e+18
14061.0	1.7383294337286141e+18
14062.0	1.738034305721958e+18
14063.0	1.73770819019735e+18
14064.0	1.7369193842212867e+18
14065.0	1.7371122181865464e+18
14066.0	1.7368191437111296e+18
14067.0	1.7365079783636987e+18
14068.0	1.736215766237184e+18
14069.0	1.73590824657879e+18
14070.0	1.7356080250093565e+18
14071.0	1.735303213193625e+18
14072.0	1.7350043304460288e+18
14073.0	1.7347015335739387e+18
14074.0	1.7343985638965243e+18
14075.0	1.7340727604281344e+18
14076.0	1.7337799208337403e+18
14077.0	1.732947338067968e+18
14078.0	1.733142586274611e+18
14079.0	1.7328718741503997e+18
14080.0	1.7325764340875261e+18
14081.0	1.732280764176793e+18
14082.0	1.7319788111986688e+18
14083.0	1.7316750697693181e+18
14084.0	1.7313682883084285e+18
14085.0	1.7305623326621696e+18
14086.0	1.73071419834368e+18
14087.0	1.730457082475315e+18
14088.0	1.7301484269993984e+18
14089.0	1.7298591710183421e+18
14090.0	1.7295587699326976e+18
14091.0	1.729263828153139e+18
14092.0	1.72896298247127e+18
14093.0	1.72866149589975e+18
14094.0	1.7283595261444093e+18
14095.0	1.7280552176451584e+18
14096.0	1.7276680431206397e+18
14097.0	1.727411791278899e+18
14098.0	1.7271115965530112e+18
14099.0	1.726851851694899e+18
14100.0	1.726537186620211e+18
14101.0	1.7262531802300413e+18
14102.0	1.725950104856166e+18
14103.0	1.7256309384544256e+18
14104.0	1.7253477692473341e+18
14105.0	1.725050775614259e+18
14106.0	1.7247463077314557e+18
14107.0	1.7244314815954944e+18
14108.0	1.7241271412195328e+18
14109.0	1.7238370782543872e+18
14110.0	1.7235399772471293e+18
14111.0	1.72323277635584e+18
14112.0	1.722931497821798e+18
14113.0	1.7226381565886461e+18
14114.0	1.722321508447027e+18
14115.0	1.722027190779904e+18
14116.0	1.7216327869530107e+18
14117.0	1.717102343041844e+18
14118.0	1.72109533890478e+18
14119.0	1.7207633379327997e+18
14120.0	1.7204846935408637e+18
14121.0	1.7202111007686656e+18
14122.0	1.7198836363558907e+18
14123.0	1.719606233477939e+18
14124.0	1.7192987607957504e+18
14125.0	1.7184569958596603e+18
14126.0	1.7187342863302653e+18
14127.0	1.718446298706739e+18
14128.0	1.7181471542345725e+18
14129.0	1.7178358664134653e+18
14130.0	1.7175224579522557e+18
14131.0	1.7172483098542077e+18
14132.0	1.716938109196697e+18
14133.0	1.7159716559912947e+18
14134.0	1.7163343559131128e+18
14135.0	1.7160333592363003e+18
14136.0	1.715732151166566e+18
14137.0	1.71544536982487e+18
14138.0	1.7151231885574141e+18
14139.0	1.7148611267657725e+18
14140.0	1.714558427201536e+18
14141.0	1.714203080733491e+18
14142.0	1.713711530115072e+18
14143.0	1.7136604065824765e+18
14144.0	1.7133724978118653e+18
14145.0	1.7130739992625147e+18
14146.0	1.7127696337207293e+18
14147.0	1.7124769904197627e+18
14148.0	1.7121773124321275e+18
14149.0	1.7118829813432315e+18
14150.0	1.711589589778432e+18
14151.0	1.7112835414818813e+18
14152.0	1.7109924987273208e+18
14153.0	1.7106973774315515e+18
14154.0	1.7103685993627643e+18
14155.0	1.7099996180512768e+18
14156.0	1.7097934227111933e+18
14157.0	1.7095080087126013e+18
14158.0	1.7092063141036027e+18
14159.0	1.7089138553520125e+18
14160.0	1.70860429222871e+18
14161.0	1.7082463150931965e+18
14162.0	1.7078891600412667e+18
14163.0	1.7077044814807037e+18
14164.0	1.7073086515904507e+18
14165.0	1.7070953091563515e+18
14166.0	1.7068334218477565e+18
14167.0	1.7065217716387835e+18
14168.0	1.7062377635708923e+18
14169.0	1.7059476653735933e+18
14170.0	1.70564656300032e+18
14171.0	1.7053514266050557e+18
14172.0	1.7050591473696763e+18
14173.0	1.7047340770656253e+18
14174.0	1.7044584123072507e+18
14175.0	1.704170186447257e+18
14176.0	1.7038755919560704e+18
14177.0	1.703579807960268e+18
14178.0	1.7032834870935552e+18
14179.0	1.7029822991564797e+18
14180.0	1.7026924828164093e+18
14181.0	1.7023967575408637e+18
14182.0	1.7020999266467837e+18
14183.0	1.7018047399198715e+18
14184.0	1.7015011813621757e+18
14185.0	1.7012011208540157e+18
14186.0	1.700172311769907e+18
14187.0	1.700560643922329e+18
14188.0	1.7003199395266557e+18
14189.0	1.7000260043800576e+18
14190.0	1.699731867906867e+18
14191.0	1.6994338256977915e+18
14192.0	1.6991310305034235e+18
14193.0	1.698730207713689e+18
14194.0	1.6985512719941632e+18
14195.0	1.6982644503871485e+18
14196.0	1.6979701276868605e+18
14197.0	1.6976755550060541e+18
14198.0	1.6973739660935165e+18
14199.0	1.6970786166276093e+18
14200.0	1.696310814048256e+18
14201.0	1.6964523751636987e+18
14202.0	1.6961979956592635e+18
14203.0	1.695902446544486e+18
14204.0	1.69561172255703e+18
14205.0	1.6953166197161984e+18
14206.0	1.6948689197072381e+18
14207.0	1.6947297543782397e+18
14208.0	1.69443828212695e+18
14209.0	1.6939760798924795e+18
14210.0	1.693729265234739e+18
14211.0	1.6935485091872765e+18
14212.0	1.6932639390826493e+18
14213.0	1.6929704351105024e+18
14214.0	1.6926769344937981e+18
14215.0	1.692364787679232e+18
14216.0	1.6920918324412408e+18
14217.0	1.6917987462217725e+18
14218.0	1.6914905420529661e+18
14219.0	1.691211994968883e+18
14220.0	1.690913154164326e+18
14221.0	1.6906228093419515e+18
14222.0	1.6903085385318395e+18
14223.0	1.6900369992908797e+18
14224.0	1.689737091455385e+18
14225.0	1.6879004761980938e+18
14226.0	1.6891157623603197e+18
14227.0	1.6888469259288576e+18
14228.0	1.6842909957488653e+18
14229.0	1.6874909359669212e+18
14230.0	1.6879818708615163e+18
14231.0	1.6876823036035072e+18
14232.0	1.6874052580802557e+18
14233.0	1.6871110997966848e+18
14234.0	1.6868216609439741e+18
14235.0	1.6865263215443963e+18
14236.0	1.686232861193011e+18
14237.0	1.6859113812131837e+18
14238.0	1.6856186573815805e+18
14239.0	1.6853069283196923e+18
14240.0	1.6828189577838595e+18
14241.0	1.684709161146777e+18
14242.0	1.6844409052069885e+18
14243.0	1.683967779327181e+18
14244.0	1.6838699899682808e+18
14245.0	1.68356878525399e+18
14246.0	1.6832773113249787e+18
14247.0	1.682991232948633e+18
14248.0	1.6826823845347323e+18
14249.0	1.6824084461518843e+18
14250.0	1.6821200374202365e+18
14251.0	1.681831429039718e+18
14252.0	1.6815394064957437e+18
14253.0	1.6812457347514365e+18
14254.0	1.680946271512166e+18
14255.0	1.680561298158387e+18
14256.0	1.6787598462681093e+18
14257.0	1.67982510720942e+18
14258.0	1.679741051679539e+18
14259.0	1.6794326327623675e+18
14260.0	1.6791091864928253e+18
14261.0	1.6788457187704832e+18
14262.0	1.6785824624410621e+18
14263.0	1.676022789439489e+18
14264.0	1.6773576803745784e+18
14265.0	1.6777132617236477e+18
14266.0	1.6774451131580413e+18
14267.0	1.6771597880786944e+18
14268.0	1.6768686614380541e+18
14269.0	1.6765689096306685e+18
14270.0	1.676288975070822e+18
14271.0	1.6759954761318397e+18
14272.0	1.6756961504657405e+18
14273.0	1.675351215937945e+18
14274.0	1.6714816785743885e+18
14275.0	1.674335071974195e+18
14276.0	1.674480941478707e+18
14277.0	1.6742123130847232e+18
14278.0	1.673937701935513e+18
14279.0	1.673648548295475e+18
14280.0	1.6733528314085376e+18
14281.0	1.6730726284132347e+18
14282.0	1.6727837700521981e+18
14283.0	1.6724942473134075e+18
14284.0	1.6722045198925821e+18
14285.0	1.6719138462367741e+18
14286.0	1.6716216341102587e+18
14287.0	1.671334039073587e+18
14288.0	1.6710354851594237e+18
14289.0	1.6693298395611113e+18
14290.0	1.6704575486558203e+18
14291.0	1.6701760487817216e+18
14292.0	1.669886059636326e+18
14293.0	1.6695955403309053e+18
14294.0	1.6691354956464128e+18
14295.0	1.6689919531417597e+18
14296.0	1.667589054083892e+18
14297.0	1.6684050559270907e+18
14298.0	1.667576149049344e+18
14299.0	1.6678027404509181e+18
14300.0	1.6675357159587837e+18
14301.0	1.6672527883436032e+18
14302.0	1.6669635625615357e+18
14303.0	1.6666335463342077e+18
14304.0	1.6663653373706237e+18
14305.0	1.6660952778801147e+18
14306.0	1.6657815120642048e+18
14307.0	1.6654912427393024e+18
14308.0	1.665211782974668e+18
14309.0	1.6648997150130176e+18
14310.0	1.6645107184828413e+18
14311.0	1.6640423824982016e+18
14312.0	1.6639382966501376e+18
14313.0	1.6635639147528192e+18
14314.0	1.6634711367483392e+18
14315.0	1.6632047430795261e+18
14316.0	1.662858501606604e+18
14317.0	1.6625961680240637e+18
14318.0	1.662353621490073e+18
14319.0	1.6620712005468157e+18
14320.0	1.6617845953658877e+18
14321.0	1.6614946078982141e+18
14322.0	1.6611602983813115e+18
14323.0	1.6608683530125307e+18
14324.0	1.6606078817009661e+18
14325.0	1.6603093630189565e+18
14326.0	1.6600343609606141e+18
14327.0	1.6597388269453307e+18
14328.0	1.6594516043628541e+18
14329.0	1.659173404567142e+18
14330.0	1.6588864806191096e+18
14331.0	1.6585991691173885e+18
14332.0	1.658312528704307e+18
14333.0	1.658025621533491e+18
14334.0	1.6577384576712704e+18
14335.0	1.6574323640762365e+18
14336.0	1.657007585099776e+18
14337.0	1.6568733505945597e+18
14338.0	1.6565877470134267e+18
14339.0	1.6562905822527488e+18
14340.0	1.6560161304870912e+18
14341.0	1.655721640014643e+18
14342.0	1.655439041232896e+18
14343.0	1.6551572041367544e+18
14344.0	1.6548589941555197e+18
14345.0	1.6545802507780093e+18
14346.0	1.6542883154755581e+18
14347.0	1.6539588881285115e+18
14348.0	1.6537177559138304e+18
14349.0	1.6534382542061563e+18
14350.0	1.6530168021516285e+18
14351.0	1.65269749146583e+18
14352.0	1.6525391665561597e+18
14353.0	1.6522648372641792e+18
14354.0	1.6519647717228541e+18
14355.0	1.6516486235422715e+18
14356.0	1.6513689020530685e+18
14357.0	1.6511215505244157e+18
14358.0	1.6508402402328576e+18
14359.0	1.650535936766771e+18
14360.0	1.6502580121174013e+18
14361.0	1.6499774802886653e+18
14362.0	1.6496971799855104e+18
14363.0	1.6494081739849723e+18
14364.0	1.6487368957624315e+18
14365.0	1.6487312602955768e+18
14366.0	1.648477016686592e+18
14367.0	1.6482712541986808e+18
14368.0	1.6479864475353085e+18
14369.0	1.647702301894246e+18
14370.0	1.647417704946073e+18
14371.0	1.6471333009358843e+18
14372.0	1.6468411089420288e+18
14373.0	1.6465582132035581e+18
14374.0	1.646276298932224e+18
14375.0	1.6459834660487163e+18
14376.0	1.6457029962956797e+18
14377.0	1.6454174078140413e+18
14378.0	1.6451300292034557e+18
14379.0	1.6448488598405115e+18
14380.0	1.644563246193049e+18
14381.0	1.6442643936444413e+18
14382.0	1.643990498882355e+18
14383.0	1.6436786557353981e+18
14384.0	1.643373624138137e+18
14385.0	1.643112441472614e+18
14386.0	1.642805205349171e+18
14387.0	1.6425431855005696e+18
14388.0	1.6422543976038397e+18
14389.0	1.6419742684282875e+18
14390.0	1.6416878360526843e+18
14391.0	1.641406639846195e+18
14392.0	1.6411214892498941e+18
14393.0	1.6408386069331963e+18
14394.0	1.6405042957385725e+18
14395.0	1.6402558855675896e+18
14396.0	1.6399847187808256e+18
14397.0	1.6397027323674621e+18
14398.0	1.6394183904329725e+18
14399.0	1.6391324479520765e+18
14400.0	1.638823096221696e+18
14401.0	1.63855534695383e+18
14402.0	1.6382695873445885e+18
14403.0	1.6374938826964982e+18
14404.0	1.6335064031821793e+18
14405.0	1.6350374298386373e+18
14406.0	1.637124564162969e+18
14407.0	1.6361746918801405e+18
14408.0	1.636553929103769e+18
14409.0	1.6362690804973563e+18
14410.0	1.635985456627712e+18
14411.0	1.6357302097412093e+18
14412.0	1.6354452520828925e+18
14413.0	1.6351678206836733e+18
14414.0	1.6348815393030141e+18
14415.0	1.6345997525385213e+18
14416.0	1.6343149240647677e+18
14417.0	1.6340169489645568e+18
14418.0	1.6337121589592061e+18
14419.0	1.633454491120435e+18
14420.0	1.633147610673971e+18
14421.0	1.6328694997975035e+18
14422.0	1.6325750143582205e+18
14423.0	1.6322350744076285e+18
14424.0	1.6291781918326769e+18
14425.0	1.631692192219136e+18
14426.0	1.6314523837267965e+18
14427.0	1.6311735514300413e+18
14428.0	1.6308634933788667e+18
14429.0	1.6306053490671613e+18
14430.0	1.6303162776354813e+18
14431.0	1.629347668557824e+18
14432.0	1.6297518199472125e+18
14433.0	1.6289435725332475e+18
14434.0	1.629169685784166e+18
14435.0	1.6288364617531387e+18
14436.0	1.6286311186956288e+18
14437.0	1.6283541436366848e+18
14438.0	1.6279903347408893e+18
14439.0	1.627774202255769e+18
14440.0	1.6275087598551037e+18
14441.0	1.6272138818289661e+18
14442.0	1.6269214482432e+18
14443.0	1.626583813482086e+18
14444.0	1.626372138703257e+18
14445.0	1.6260922897072125e+18
14446.0	1.6242710004367365e+18
14447.0	1.625498651407155e+18
14448.0	1.6252528735813632e+18
14449.0	1.6249733282529275e+18
14450.0	1.6246842618544125e+18
14451.0	1.6244053171503101e+18
14452.0	1.6241270838001661e+18
14453.0	1.6238391599300603e+18
14454.0	1.6235611178401792e+18
14455.0	1.6232691221397504e+18
14456.0	1.6229892429447165e+18
14457.0	1.6227089225089021e+18
14458.0	1.6224259126853624e+18
14459.0	1.622133794511257e+18
14460.0	1.621821352417689e+18
14461.0	1.6214175768379384e+18
14462.0	1.6209636055056384e+18
14463.0	1.6209154867724285e+18
14464.0	1.620689321512141e+18
14465.0	1.6203887509766144e+18
14466.0	1.6201473838809085e+18
14467.0	1.6198436944609275e+18
14468.0	1.6195878016516093e+18
14469.0	1.6192348929130493e+18
14470.0	1.6189843000262653e+18
14471.0	1.61874163269632e+18
14472.0	1.6184680768339963e+18
14473.0	1.6181931435622397e+18
14474.0	1.617918003930726e+18
14475.0	1.617635581309747e+18
14476.0	1.6173238371483648e+18
14477.0	1.6170733952565248e+18
14478.0	1.616793594914406e+18
14479.0	1.6165108937916413e+18
14480.0	1.6162103400333304e+18
14481.0	1.6159567490580475e+18
14482.0	1.615670623705497e+18
14483.0	1.6153818693631997e+18
14484.0	1.615096983846912e+18
14485.0	1.6147766094856187e+18
14486.0	1.6141383085588475e+18
14487.0	1.6142703871918077e+18
14488.0	1.613974958872985e+18
14489.0	1.613650563013017e+18
14490.0	1.6134171869052925e+18
14491.0	1.6131537644814333e+18
14492.0	1.612875917007257e+18
14493.0	1.6125789065969661e+18
14494.0	1.6122849647394816e+18
14495.0	1.6120306087231488e+18
14496.0	1.6115709566255104e+18
14497.0	1.6114735145549821e+18
14498.0	1.611197356546457e+18
14499.0	1.6109178967818235e+18
14500.0	1.6106374001852413e+18
14501.0	1.6103316287127547e+18
14502.0	1.6097534002855933e+18
14503.0	1.6097708217466875e+18
14504.0	1.609508013368934e+18
14505.0	1.6092244800962557e+18
14506.0	1.6089267952418808e+18
14507.0	1.6083372505825277e+18
14508.0	1.608397591517593e+18
14509.0	1.608120759064985e+18
14510.0	1.6078148080762875e+18
14511.0	1.607534002778931e+18
14512.0	1.6072346066485248e+18
14513.0	1.6069729659650048e+18
14514.0	1.606650371978035e+18
14515.0	1.6063977926688765e+18
14516.0	1.6024348179562524e+18
14517.0	1.6058069158985725e+18
14518.0	1.6055738837237752e+18
14519.0	1.6052902363660285e+18
14520.0	1.6050192105078781e+18
14521.0	1.6047415207395325e+18
14522.0	1.6044590410760187e+18
14523.0	1.6041064477491197e+18
14524.0	1.6038651930607616e+18
14525.0	1.6036174489452544e+18
14526.0	1.6033430558998525e+18
14527.0	1.603032960938803e+18
14528.0	1.602589866275635e+18
14529.0	1.6024938066477053e+18
14530.0	1.6022060857819133e+18
14531.0	1.6019491628515325e+18
14532.0	1.6016318721425405e+18
14533.0	1.6013936037986304e+18
14534.0	1.6011172511744e+18
14535.0	1.6008235760746493e+18
14536.0	1.6005541071421437e+18
14537.0	1.600261515850547e+18
14538.0	1.600002121636249e+18
14539.0	1.599723754068377e+18
14540.0	1.59944494022656e+18
14541.0	1.5991354677002237e+18
14542.0	1.5988838094602237e+18
14543.0	1.5985720384552957e+18
14544.0	1.598325232186163e+18
14545.0	1.5980250508820477e+18
14546.0	1.593871592692119e+18
14547.0	1.5937705602973665e+18
14548.0	1.5971779273031675e+18
14549.0	1.5967625553117181e+18
14550.0	1.5966425831178237e+18
14551.0	1.5963803921416187e+18
14552.0	1.5961012125564923e+18
14553.0	1.5958110371839997e+18
14554.0	1.5955467104681981e+18
14555.0	1.5952680358772733e+18
14556.0	1.5949884033073147e+18
14557.0	1.5947082607099901e+18
14558.0	1.5944118811230205e+18
14559.0	1.591411084781153e+18
14560.0	1.5938489585500157e+18
14561.0	1.5935833987088381e+18
14562.0	1.5932726125264893e+18
14563.0	1.5930255462105085e+18
14564.0	1.592703212270387e+18
14565.0	1.5924839072137216e+18
14566.0	1.592193543936409e+18
14567.0	1.591897137505894e+18
14568.0	1.5916024842944507e+18
14569.0	1.591334652818227e+18
14570.0	1.590300142836121e+18
14571.0	1.5907772902146048e+18
14572.0	1.590448978552422e+18
14573.0	1.5901530553057275e+18
14574.0	1.5898565415010301e+18
14575.0	1.5896454421807104e+18
14576.0	1.5893679419949056e+18
14577.0	1.5891077609291776e+18
14578.0	1.588834711738777e+18
14579.0	1.5885641556426747e+18
14580.0	1.5882850012233725e+18
14581.0	1.587998793662464e+18
14582.0	1.5877180588294141e+18
14583.0	1.587452285917593e+18
14584.0	1.5871352535777277e+18
14585.0	1.586894121363046e+18
14586.0	1.5866148629250048e+18
14587.0	1.5863405789315067e+18
14588.0	1.5860635300528125e+18
14589.0	1.5857876119584763e+18
14590.0	1.5855114824712192e+18
14591.0	1.5852271808020475e+18
14592.0	1.5849426375409664e+18
14593.0	1.5845171975421947e+18
14594.0	1.5844000070107133e+18
14595.0	1.584115490593177e+18
14596.0	1.5834605819002872e+18
14597.0	1.5830983399964667e+18
14598.0	1.5832483803168763e+18
14599.0	1.5830206228987904e+18
14600.0	1.582738165045657e+18
14601.0	1.5824629113290747e+18
14602.0	1.582171866896793e+18
14603.0	1.5819072767787003e+18
14604.0	1.5815528077590528e+18
14605.0	1.5812816745267197e+18
14606.0	1.580954505392947e+18
14607.0	1.580782169830195e+18
14608.0	1.5805004031983616e+18
14609.0	1.5802060788203515e+18
14610.0	1.5798667210391547e+18
14611.0	1.5796330697850872e+18
14612.0	1.5794103253991421e+18
14613.0	1.579141344683622e+18
14614.0	1.578849625807257e+18
14615.0	1.578581037678592e+18
14616.0	1.5783175984775165e+18
14617.0	1.5780119830331392e+18
14618.0	1.5777272535449597e+18
14619.0	1.5771394201616376e+18
14620.0	1.5762482463244288e+18
14621.0	1.5769283460071421e+18
14622.0	1.5766566087950333e+18
14623.0	1.5763859268698107e+18
14624.0	1.576030900846592e+18
14625.0	1.5758293393735683e+18
14626.0	1.5755451618557947e+18
14627.0	1.5752683998674944e+18
14628.0	1.5750079151341563e+18
14629.0	1.5747306229858301e+18
14630.0	1.5744374981787643e+18
14631.0	1.57415433568256e+18
14632.0	1.573620224622592e+18
14633.0	1.573554191178137e+18
14634.0	1.5733090341093368e+18
14635.0	1.572925157985484e+18
14636.0	1.5723970246475776e+18
14637.0	1.572492956768665e+18
14638.0	1.572190406521651e+18
14639.0	1.5719020682543104e+18
14640.0	1.571648728937267e+18
14641.0	1.5704970921770998e+18
14642.0	1.5710913982103547e+18
14643.0	1.5708257913929725e+18
14644.0	1.5705305727893504e+18
14645.0	1.570232706741043e+18
14646.0	1.5699653735481341e+18
14647.0	1.5696575468666877e+18
14648.0	1.569417082385203e+18
