# Flux units: erg / (cm m2 s)
# Wavelength units: Angstrom
wave	flux
14000.0	8.826808329830399e+17
14001.0	8.82499550130995e+17
14002.0	8.823853224558591e+17
14003.0	8.82237620040499e+17
14004.0	8.820899562127357e+17
14005.0	8.81942308323328e+17
14006.0	8.817937964072959e+17
14007.0	8.816466954551293e+17
14008.0	8.81490778075955e+17
14009.0	8.813520044949503e+17
14010.0	8.812035152281599e+17
14011.0	8.809851345960957e+17
14012.0	8.809095893090301e+17
14013.0	8.807621846892543e+17
14014.0	8.806147884580864e+17
14015.0	8.804672403931135e+17
14016.0	8.80320131052339e+17
14017.0	8.801728354844671e+17
14018.0	8.80025406537728e+17
14019.0	8.798783408177152e+17
14020.0	8.797310678990847e+17
14021.0	8.795838520229885e+17
14022.0	8.794367133220864e+17
14023.0	8.792893053468671e+17
14024.0	8.791417405046783e+17
14025.0	8.789955455221757e+17
14026.0	8.788483766222845e+17
14027.0	8.787015441055744e+17
14028.0	8.785545740156928e+17
14029.0	8.784076207030268e+17
14030.0	8.782297268486143e+17
14031.0	8.781125841321981e+17
14032.0	8.779669662859264e+17
14033.0	8.778168336908285e+17
14034.0	8.776733784276991e+17
14035.0	8.775266465742847e+17
14036.0	8.773799063322624e+17
14037.0	8.772332013223935e+17
14038.0	8.770865390944255e+17
14039.0	8.769398928048127e+17
14040.0	8.767923254460416e+17
14041.0	8.766464114819071e+17
14042.0	8.764991494684671e+17
14043.0	8.763484674195455e+17
14044.0	8.762050566160381e+17
14045.0	8.760597592145917e+17
14046.0	8.75913863705395e+17
14047.0	8.757666931277824e+17
14048.0	8.756209679073276e+17
14049.0	8.754747351760893e+17
14050.0	8.753284126867455e+17
14051.0	8.7518133354496e+17
14052.0	8.750358624993279e+17
14053.0	8.748896306069503e+17
14054.0	8.747434322690045e+17
14055.0	8.745972565803008e+17
14056.0	8.744511119294463e+17
14057.0	8.743049991553021e+17
14058.0	8.741589174190079e+17
14059.0	8.740128616873983e+17
14060.0	8.738668361547775e+17
14061.0	8.737200380313599e+17
14062.0	8.735748731699199e+17
14063.0	8.734276296114175e+17
14064.0	8.732748487327743e+17
14065.0	8.731362018197503e+17
14066.0	8.729912894554112e+17
14067.0	8.728454702825468e+17
14068.0	8.726996745977856e+17
14069.0	8.725537899937791e+17
14070.0	8.724081696309247e+17
14071.0	8.722621382262784e+17
14072.0	8.721167871377407e+17
14073.0	8.719711399313407e+17
14074.0	8.718255246016511e+17
14075.0	8.716786090377216e+17
14076.0	8.715343753117695e+17
14077.0	8.713822093180925e+17
14078.0	8.712429550698495e+17
14079.0	8.710974823464957e+17
14080.0	8.709525532049408e+17
14081.0	8.708071190691837e+17
14082.0	8.706614215311357e+17
14083.0	8.705162558308352e+17
14084.0	8.703710599315455e+17
14085.0	8.702023071432703e+17
14086.0	8.700799626510335e+17
14087.0	8.699351517888511e+17
14088.0	8.697890968961024e+17
14089.0	8.696448447152127e+17
14090.0	8.694994055462911e+17
14091.0	8.693545678405631e+17
14092.0	8.692094717657088e+17
14093.0	8.690643933069311e+17
14094.0	8.689193618243583e+17
14095.0	8.687743504744445e+17
14096.0	8.686275196354557e+17
14097.0	8.684825946882045e+17
14098.0	8.683382795927548e+17
14099.0	8.681939057770493e+17
14100.0	8.680476747235327e+17
14101.0	8.679041951334399e+17
14102.0	8.677593624608767e+17
14103.0	8.67612657451008e+17
14104.0	8.674698430775293e+17
14105.0	8.673250875801599e+17
14106.0	8.671804109357053e+17
14107.0	8.6703563866112e+17
14108.0	8.66890280022835e+17
14109.0	8.667460697849855e+17
14110.0	8.666015340691455e+17
14111.0	8.664563213926399e+17
14112.0	8.663126706749437e+17
14113.0	8.661683060867071e+17
14114.0	8.660221983457279e+17
14115.0	8.658785820213248e+17
14116.0	8.657329272651776e+17
14117.0	8.655358872518656e+17
14118.0	8.654455796924413e+17
14119.0	8.653006950105088e+17
14120.0	8.651563404886013e+17
14121.0	8.650125052215295e+17
14122.0	8.648670769577983e+17
14123.0	8.647236535713791e+17
14124.0	8.645792176799744e+17
14125.0	8.643934293065727e+17
14126.0	8.642917610553343e+17
14127.0	8.641476615471101e+17
14128.0	8.640032516603901e+17
14129.0	8.638584701583357e+17
14130.0	8.637140896317439e+17
14131.0	8.63571344044851e+17
14132.0	8.63427382948659e+17
14133.0	8.63233538156134e+17
14134.0	8.631388441935871e+17
14135.0	8.629938999525372e+17
14136.0	8.628497568235519e+17
14137.0	8.627073157431295e+17
14138.0	8.625628806905852e+17
14139.0	8.624197274173439e+17
14140.0	8.622753838006271e+17
14141.0	8.62132307702579e+17
14142.0	8.619849945186303e+17
14143.0	8.618445264388095e+17
14144.0	8.617013865873408e+17
14145.0	8.615575051829247e+17
14146.0	8.61414058308403e+17
14147.0	8.612706064007165e+17
14148.0	8.611271100334079e+17
14149.0	8.609837059407871e+17
14150.0	8.608402473222144e+17
14151.0	8.606965831827455e+17
14152.0	8.605534148100093e+17
14153.0	8.604100023287807e+17
14154.0	8.602647628087295e+17
14155.0	8.600947173359616e+17
14156.0	8.59978998166323e+17
14157.0	8.598361502384125e+17
14158.0	8.596925666295804e+17
14159.0	8.595495760953343e+17
14160.0	8.594064739926013e+17
14161.0	8.592575854280701e+17
14162.0	8.591108577689599e+17
14163.0	8.589769797795839e+17
14164.0	8.58831998628659e+17
14165.0	8.586837324988413e+17
14166.0	8.58548048442163e+17
14167.0	8.584040252702719e+17
14168.0	8.582619356725245e+17
14169.0	8.581192362229757e+17
14170.0	8.579759722201088e+17
14171.0	8.578331184201728e+17
14172.0	8.576906312024064e+17
14173.0	8.57543370866688e+17
14174.0	8.574047642189824e+17
14175.0	8.572622753234943e+17
14176.0	8.571195574190076e+17
14177.0	8.569768403533824e+17
14178.0	8.568341182545919e+17
14179.0	8.566905816219647e+17
14180.0	8.565489349427199e+17
14181.0	8.564058923991039e+17
14182.0	8.562630167887871e+17
14183.0	8.561205631254527e+17
14184.0	8.559775960793088e+17
14185.0	8.55835576107008e+17
14186.0	8.556831660048383e+17
14187.0	8.55548525490995e+17
14188.0	8.554081807237119e+17
14189.0	8.552657899749375e+17
14190.0	8.551234973728767e+17
14191.0	8.549811712163836e+17
14192.0	8.548382545018879e+17
14193.0	8.546953394651133e+17
14194.0	8.545543479361533e+17
14195.0	8.544122935705599e+17
14196.0	8.542700831768575e+17
14197.0	8.541279323422719e+17
14198.0	8.539851951439872e+17
14199.0	8.53843583696896e+17
14200.0	8.536954735951872e+17
14201.0	8.53559594083942e+17
14202.0	8.534175841779711e+17
14203.0	8.532745978380285e+17
14204.0	8.531334192431103e+17
14205.0	8.529915007729663e+17
14206.0	8.528389396758528e+17
14207.0	8.527079440121855e+17
14208.0	8.525660590964735e+17
14209.0	8.524107507302399e+17
14210.0	8.52274560840499e+17
14211.0	8.521400042127356e+17
14212.0	8.519982560313343e+17
14213.0	8.518565716033536e+17
14214.0	8.517148360048639e+17
14215.0	8.51571633238835e+17
14216.0	8.514316735086591e+17
14217.0	8.512900536729597e+17
14218.0	8.511476067205117e+17
14219.0	8.510069306032128e+17
14220.0	8.508654273691645e+17
14221.0	8.507238880641021e+17
14222.0	8.505824343228416e+17
14223.0	8.504410107805695e+17
14224.0	8.502996140818431e+17
14225.0	8.501374564171775e+17
14226.0	8.500168693383167e+17
14227.0	8.4987554562048e+17
14228.0	8.496587026202621e+17
14229.0	8.495867241693181e+17
14230.0	8.494517153955839e+17
14231.0	8.493104889855999e+17
14232.0	8.491692994854911e+17
14233.0	8.490276452564991e+17
14234.0	8.488869926273024e+17
14235.0	8.487456185778175e+17
14236.0	8.486047872712703e+17
14237.0	8.484635960934399e+17
14238.0	8.48322662445875e+17
14239.0	8.481811684392957e+17
14240.0	8.4784812392448e+17
14241.0	8.478990897512447e+17
14242.0	8.477581770751999e+17
14243.0	8.47603230257971e+17
14244.0	8.474764028936191e+17
14245.0	8.473343686606847e+17
14246.0	8.471921683333119e+17
14247.0	8.470539534335999e+17
14248.0	8.469110014869503e+17
14249.0	8.467722539106301e+17
14250.0	8.466315190730752e+17
14251.0	8.464910585430015e+17
14252.0	8.463503933308927e+17
14253.0	8.462097088249853e+17
14254.0	8.460689211391999e+17
14255.0	8.45924829180723e+17
14256.0	8.457702959218685e+17
14257.0	8.456464414801919e+17
14258.0	8.455070312038397e+17
14259.0	8.453653979463679e+17
14260.0	8.452245557346303e+17
14261.0	8.450846756962301e+17
14262.0	8.449546304618493e+17
14263.0	8.44787653541888e+17
14264.0	8.446698045046783e+17
14265.0	8.445336204869631e+17
14266.0	8.443931188527103e+17
14267.0	8.442530743975933e+17
14268.0	8.441128479096831e+17
14269.0	8.439723664080893e+17
14270.0	8.438324653981693e+17
14271.0	8.436922120667136e+17
14272.0	8.435521843888125e+17
14273.0	8.434120594030591e+17
14274.0	8.432336681041919e+17
14275.0	8.431285580070911e+17
14276.0	8.429913690341373e+17
14277.0	8.428496502128639e+17
14278.0	8.427113187115009e+17
14279.0	8.425713640144893e+17
14280.0	8.424307055132671e+17
14281.0	8.42291560316928e+17
14282.0	8.421517364822012e+17
14283.0	8.420118967091199e+17
14284.0	8.418720879738879e+17
14285.0	8.417323111153663e+17
14286.0	8.415924679868415e+17
14287.0	8.414528270237695e+17
14288.0	8.413131172741119e+17
14289.0	8.410509892124668e+17
14290.0	8.410336524763136e+17
14291.0	8.408942363279357e+17
14292.0	8.40754725388288e+17
14293.0	8.406149267193855e+17
14294.0	8.404630073507839e+17
14295.0	8.403351238606847e+17
14296.0	8.400984090869757e+17
14297.0	8.400571388133373e+17
14298.0	8.398994069782525e+17
14299.0	8.397772571017217e+17
14300.0	8.396380884172799e+17
14301.0	8.394995161628668e+17
14302.0	8.393597619535868e+17
14303.0	8.39218129534976e+17
14304.0	8.390800958291967e+17
14305.0	8.389421493649407e+17
14306.0	8.388012685656063e+17
14307.0	8.386633682386943e+17
14308.0	8.385247632687101e+17
14309.0	8.383855585132544e+17
14310.0	8.382393366872061e+17
14311.0	8.380992653885437e+17
14312.0	8.379657799860221e+17
14313.0	8.377980187312128e+17
14314.0	8.376900581851133e+17
14315.0	8.375512116232191e+17
14316.0	8.374075122515964e+17
14317.0	8.372724019757056e+17
14318.0	8.371337433186303e+17
14319.0	8.369948841738237e+17
14320.0	8.368559772139519e+17
14321.0	8.367171793059839e+17
14322.0	8.365742860795903e+17
14323.0	8.364385240088573e+17
14324.0	8.36300814942208e+17
14325.0	8.361620774322173e+17
14326.0	8.360233709600765e+17
14327.0	8.358846779097085e+17
14328.0	8.35745349841715e+17
14329.0	8.356073899556863e+17
14330.0	8.354687824691199e+17
14331.0	8.35330164077363e+17
14332.0	8.351916413157373e+17
14333.0	8.350531093266433e+17
14334.0	8.349146117308415e+17
14335.0	8.347736529174525e+17
14336.0	8.346357735620607e+17
14337.0	8.344991751471105e+17
14338.0	8.343606632906752e+17
14339.0	8.342222671970303e+17
14340.0	8.340841261170685e+17
14341.0	8.339456704643071e+17
14342.0	8.338075008630783e+17
14343.0	8.336689369972736e+17
14344.0	8.335308370214911e+17
14345.0	8.333927731167228e+17
14346.0	8.332543552126975e+17
14347.0	8.331148023300095e+17
14348.0	8.329782592798717e+17
14349.0	8.328401467211775e+17
14350.0	8.327005963550717e+17
14351.0	8.325624720523263e+17
14352.0	8.324247822794748e+17
14353.0	8.322876310552573e+17
14354.0	8.321496216764415e+17
14355.0	8.320114403311612e+17
14356.0	8.318737060986879e+17
14357.0	8.317361119559676e+17
14358.0	8.315982200176637e+17
14359.0	8.314593373847552e+17
14360.0	8.313223530938365e+17
14361.0	8.311846784204797e+17
14362.0	8.310469215387648e+17
14363.0	8.309091311026173e+17
14364.0	8.307668611497983e+17
14365.0	8.306333245767676e+17
14366.0	8.304948563410943e+17
14367.0	8.303577185386493e+17
14368.0	8.302200329601024e+17
14369.0	8.300824690163711e+17
14370.0	8.299448841011199e+17
14371.0	8.298073277071357e+17
14372.0	8.296692830961663e+17
14373.0	8.295321662652416e+17
14374.0	8.293947214397437e+17
14375.0	8.292564629192703e+17
14376.0	8.291198988976128e+17
14377.0	8.289824196788221e+17
14378.0	8.288448406355967e+17
14379.0	8.287077430984701e+17
14380.0	8.285703980974079e+17
14381.0	8.284321018281983e+17
14382.0	8.282956728631293e+17
14383.0	8.281579965120511e+17
14384.0	8.280199418347519e+17
14385.0	8.278841143328765e+17
14386.0	8.277458163859453e+17
14387.0	8.276097347092479e+17
14388.0	8.274724534616064e+17
14389.0	8.273355169857536e+17
14390.0	8.27198168629248e+17
14391.0	8.270613688877055e+17
14392.0	8.269239827824639e+17
14393.0	8.267873390690301e+17
14394.0	8.266471939506175e+17
14395.0	8.265125366595583e+17
14396.0	8.263764608548863e+17
14397.0	8.262395554168831e+17
14398.0	8.261025979695105e+17
14399.0	8.2596581081088e+17
14400.0	8.258267176239103e+17
14401.0	8.256916442578943e+17
14402.0	8.255553469939711e+17
14403.0	8.252735400968188e+17
14404.0	8.245907115999228e+17
14405.0	8.249757923278836e+17
14406.0	8.250082872786944e+17
14407.0	8.246362005045248e+17
14408.0	8.247347842646012e+17
14409.0	8.245960752758784e+17
14410.0	8.244613869469696e+17
14411.0	8.243251182043135e+17
14412.0	8.241882505150463e+17
14413.0	8.240521998761981e+17
14414.0	8.239154856984573e+17
14415.0	8.237791297142783e+17
14416.0	8.236428089622528e+17
14417.0	8.235061602156543e+17
14418.0	8.233685551677439e+17
14419.0	8.232334406975488e+17
14420.0	8.230967156146173e+17
14421.0	8.229608746909693e+17
14422.0	8.228243031195648e+17
14423.0	8.226872257150973e+17
14424.0	8.215834124091383e+17
14425.0	8.224150220963839e+17
14426.0	8.222791065141247e+17
14427.0	8.221426439946239e+17
14428.0	8.220047034023935e+17
14429.0	8.21870508323635e+17
14430.0	8.21734575125299e+17
14431.0	8.215899295186944e+17
14432.0	8.214619235549183e+17
14433.0	8.211489177468923e+17
14434.0	8.211891344113663e+17
14435.0	8.210524412051456e+17
14436.0	8.209183912493053e+17
14437.0	8.207825394204671e+17
14438.0	8.206424605720573e+17
14439.0	8.205099826413565e+17
14440.0	8.203748430053373e+17
14441.0	8.202377085583357e+17
14442.0	8.201001764913152e+17
14443.0	8.199605892153343e+17
14444.0	8.19831204164403e+17
14445.0	8.196959949029372e+17
14446.0	8.192962567602176e+17
14447.0	8.194240764968957e+17
14448.0	8.192889586712575e+17
14449.0	8.191533316571136e+17
14450.0	8.190172214591485e+17
14451.0	8.188820549795837e+17
14452.0	8.187465101737983e+17
14453.0	8.186086291406847e+17
14454.0	8.184753886855165e+17
14455.0	8.183393464352767e+17
14456.0	8.182040457379837e+17
14457.0	8.180682786340863e+17
14458.0	8.179335601061885e+17
14459.0	8.177979431583743e+17
14460.0	8.176627557072897e+17
14461.0	8.175261413539839e+17
14462.0	8.173850047021055e+17
14463.0	8.172566170566655e+17
14464.0	8.171216074440703e+17
14465.0	8.16982936204083e+17
14466.0	8.168511209734143e+17
14467.0	8.167127315906557e+17
14468.0	8.16580590043136e+17
14469.0	8.164433649991679e+17
14470.0	8.163067464515583e+17
14471.0	8.161738633510911e+17
14472.0	8.160396171018237e+17
14473.0	8.159051527487488e+17
14474.0	8.157700533780476e+17
14475.0	8.156347333869565e+17
14476.0	8.154884729733119e+17
14477.0	8.153650874548224e+17
14478.0	8.152301541785599e+17
14479.0	8.150946538323965e+17
14480.0	8.149591409033215e+17
14481.0	8.14825483534336e+17
14482.0	8.146903329931261e+17
14483.0	8.1455473533911e+17
14484.0	8.144206098857983e+17
14485.0	8.14282195337216e+17
14486.0	8.141213236461567e+17
14487.0	8.140160717815807e+17
14488.0	8.138813574479871e+17
14489.0	8.137458847842301e+17
14490.0	8.136116376961025e+17
14491.0	8.134772278689791e+17
14492.0	8.133426477531136e+17
14493.0	8.132080743481343e+17
14494.0	8.130716839706624e+17
14495.0	8.129389912915965e+17
14496.0	8.127911051657212e+17
14497.0	8.126698956521471e+17
14498.0	8.125354329767933e+17
14499.0	8.124010055335936e+17
14500.0	8.12266533630771e+17
14501.0	8.121277399171071e+17
14502.0	8.119679377735679e+17
14503.0	8.118618747305983e+17
14504.0	8.117286124650497e+17
14505.0	8.115913588998143e+17
14506.0	8.114517825290237e+17
14507.0	8.113013991145471e+17
14508.0	8.111918992588799e+17
14509.0	8.110575557017599e+17
14510.0	8.109228287852543e+17
14511.0	8.107891521224701e+17
14512.0	8.106535259471871e+17
14513.0	8.105208248795135e+17
14514.0	8.103829564293119e+17
14515.0	8.102524481437696e+17
14516.0	8.097966548058112e+17
14517.0	8.099844505731071e+17
14518.0	8.098504392048639e+17
14519.0	8.097164362252284e+17
14520.0	8.095822143029248e+17
14521.0	8.094479093334015e+17
14522.0	8.093145480822783e+17
14523.0	8.091714921168893e+17
14524.0	8.090372056023039e+17
14525.0	8.089123101343743e+17
14526.0	8.087790134755327e+17
14527.0	8.086443217911807e+17
14528.0	8.084934073778175e+17
14529.0	8.083766547316735e+17
14530.0	8.082421912174591e+17
14531.0	8.081099230019581e+17
14532.0	8.079605596422143e+17
14533.0	8.078426057474047e+17
14534.0	8.077090070986751e+17
14535.0	8.075744068501501e+17
14536.0	8.074416688726015e+17
14537.0	8.07306915951411e+17
14538.0	8.071745244233727e+17
14539.0	8.070409660399615e+17
14540.0	8.069074210783231e+17
14541.0	8.067726572519421e+17
14542.0	8.066404225908735e+17
14543.0	8.065003873632255e+17
14544.0	8.063734769516544e+17
14545.0	8.062398950801404e+17
14546.0	8.043006938578926e+17
14547.0	8.043927454089194e+17
14548.0	8.058386134335485e+17
14549.0	8.056943981625343e+17
14550.0	8.055731752271871e+17
14551.0	8.054399154782207e+17
14552.0	8.053065609379837e+17
14553.0	8.051716637327357e+17
14554.0	8.050401353924607e+17
14555.0	8.049068949372927e+17
14556.0	8.047734741270525e+17
14557.0	8.046405381783548e+17
14558.0	8.045073732206592e+17
14559.0	8.041396183236596e+17
14560.0	8.042408134574079e+17
14561.0	8.041071888039935e+17
14562.0	8.0397276807168e+17
14563.0	8.038419284361215e+17
14564.0	8.037080454135807e+17
14565.0	8.035752638152701e+17
14566.0	8.034422725017599e+17
14567.0	8.033092845436927e+17
14568.0	8.031755852316671e+17
14569.0	8.030434243903485e+17
14570.0	8.028462459650047e+17
14571.0	8.027773117399039e+17
14572.0	8.026406789316607e+17
14573.0	8.025071213871101e+17
14574.0	8.023774964219901e+17
14575.0	8.022462197399551e+17
14576.0	8.021133022461951e+17
14577.0	8.019801809092608e+17
14578.0	8.018476006375421e+17
14579.0	8.017152778960896e+17
14580.0	8.015826028331007e+17
14581.0	8.014495578324991e+17
14582.0	8.013172459962367e+17
14583.0	8.011846221037567e+17
14584.0	8.010508632326143e+17
14585.0	8.009193860628479e+17
14586.0	8.007864559861757e+17
14587.0	8.006539696668671e+17
14588.0	8.00521979114291e+17
14589.0	8.003925420539901e+17
14590.0	8.002635663671296e+17
14591.0	8.00134521893683e+17
14592.0	8.000055134912511e+17
14593.0	7.998651100037119e+17
14594.0	7.997478355861503e+17
14595.0	7.996183104454653e+17
14596.0	7.994846119723007e+17
14597.0	7.993551807840255e+17
14598.0	7.992318112038911e+17
14599.0	7.99103554420736e+17
14600.0	7.989746810748925e+17
14601.0	7.988460166053885e+17
14602.0	7.987167875825663e+17
14603.0	7.985885115056127e+17
14604.0	7.984555738791936e+17
14605.0	7.98329805996032e+17
14606.0	7.981920281427967e+17
14607.0	7.980733880598525e+17
14608.0	7.979442672500735e+17
14609.0	7.978157294485503e+17
14610.0	7.976857488064511e+17
14611.0	7.97558867755008e+17
14612.0	7.974305891614719e+17
14613.0	7.97302066459443e+17
14614.0	7.971729120952319e+17
14615.0	7.970449027760127e+17
14616.0	7.969164488605696e+17
14617.0	7.967877911019519e+17
14618.0	7.966593900347392e+17
14619.0	7.965293171179519e+17
14620.0	7.963912053981181e+17
14621.0	7.962741381791743e+17
14622.0	7.961457169793021e+17
14623.0	7.960176590061567e+17
14624.0	7.958836920975356e+17
14625.0	7.957608996536317e+17
14626.0	7.956322318286847e+17
14627.0	7.955033601605632e+17
14628.0	7.953757560111101e+17
14629.0	7.952473448775679e+17
14630.0	7.951188599242748e+17
14631.0	7.949906266292221e+17
14632.0	7.947780383309824e+17
14633.0	7.947282209046527e+17
14634.0	7.946056650194943e+17
14635.0	7.944538035322876e+17
14636.0	7.942433509736447e+17
14637.0	7.94221334233088e+17
14638.0	7.940929172275197e+17
14639.0	7.939636789772285e+17
14640.0	7.938364741255167e+17
14641.0	7.933942678159356e+17
14642.0	7.935800268292096e+17
14643.0	7.93452362281779e+17
14644.0	7.933237179449343e+17
14645.0	7.931937154924543e+17
14646.0	7.93067424999014e+17
14647.0	7.929392202252288e+17
14648.0	7.928118870278144e+17
14649.0	7.92683923845939e+17
14650.0	7.925554565087228e+17
14651.0	7.924276577435647e+17
14652.0	7.922947419275261e+17
14653.0	7.921679858663424e+17
14654.0	7.920410947485696e+17
14655.0	7.918701877657599e+17
14656.0	7.917792913260543e+17
14657.0	7.915972241391616e+17
14658.0	7.915288116854783e+17
14659.0	7.914032862330879e+17
14660.0	7.912744254701565e+17
14661.0	7.911474731155455e+17
14662.0	7.910195468435455e+17
14663.0	7.908908412698624e+17
14664.0	7.907637689581564e+17
14665.0	7.906357025964032e+17
