# Flux units: erg / (cm m2 s)
# Wavelength units: Angstrom
wave	flux
14000.0	1.9431010693283837e+18
14001.0	1.942706271236915e+18
14002.0	1.942440166136217e+18
14003.0	1.9420751006269437e+18
14004.0	1.94170886071255e+18
14005.0	1.9413417517383677e+18
14006.0	1.9409688848236544e+18
14007.0	1.9405983314870272e+18
14008.0	1.940179807056691e+18
14009.0	1.939854933046067e+18
14010.0	1.9394786385461243e+18
14011.0	1.9386425292095483e+18
14012.0	1.9387455111168e+18
14013.0	1.9384084618805243e+18
14014.0	1.9380406868508672e+18
14015.0	1.9376800186499064e+18
14016.0	1.9373158557548541e+18
14017.0	1.9369510368706555e+18
14018.0	1.9365857297694717e+18
14019.0	1.9362203941470205e+18
14020.0	1.935854530042265e+18
14021.0	1.9354889326952443e+18
14022.0	1.9351242631282683e+18
14023.0	1.9347489769390075e+18
14024.0	1.9343856294166528e+18
14025.0	1.9340292897374205e+18
14026.0	1.9336637678878712e+18
14027.0	1.9332995261399037e+18
14028.0	1.9329285198184443e+18
14029.0	1.9325626943012861e+18
14030.0	1.9320794651820032e+18
14031.0	1.9317942910975997e+18
14032.0	1.9314739301580797e+18
14033.0	1.9310767597682683e+18
14034.0	1.9307493926633472e+18
14035.0	1.930385862269337e+18
14036.0	1.9300221490036733e+18
14037.0	1.929658418960793e+18
14038.0	1.9292947140837373e+18
14039.0	1.9289270900490237e+18
14040.0	1.9285651987890168e+18
14041.0	1.9282024485355515e+18
14042.0	1.9278308030021632e+18
14043.0	1.9274462440456187e+18
14044.0	1.9271042035875837e+18
14045.0	1.9267471642984445e+18
14046.0	1.9263830852894715e+18
14047.0	1.926018699257446e+18
14048.0	1.9256613965660155e+18
14049.0	1.9252990758092797e+18
14050.0	1.9249361275846653e+18
14051.0	1.9245681847828477e+18
14052.0	1.9242058086612987e+18
14053.0	1.923848524424806e+18
14054.0	1.9234863261417472e+18
14055.0	1.9231240439726075e+18
14056.0	1.9227618003910653e+18
14057.0	1.92239966921687e+18
14058.0	1.922037583341158e+18
14059.0	1.9216755477970936e+18
14060.0	1.921313409912012e+18
14061.0	1.9209463730798584e+18
14062.0	1.9205884714418173e+18
14063.0	1.920216748733235e+18
14064.0	1.919836407568793e+18
14065.0	1.9194980312547325e+18
14066.0	1.9191435924340733e+18
14067.0	1.9187826507644925e+18
14068.0	1.9184213735505917e+18
14069.0	1.918059884943769e+18
14070.0	1.9176991429230587e+18
14071.0	1.9173360252485632e+18
14072.0	1.9169773250150397e+18
14073.0	1.916616557828505e+18
14074.0	1.9162558241964027e+18
14075.0	1.9158787948544e+18
14076.0	1.9155331506503675e+18
14077.0	1.9151443034374141e+18
14078.0	1.9148072743337981e+18
14079.0	1.9144452455006203e+18
14080.0	1.914092284752691e+18
14081.0	1.9137323312611328e+18
14082.0	1.9133714902548477e+18
14083.0	1.9130090520575997e+18
14084.0	1.9126403106603003e+18
14085.0	1.912118519110041e+18
14086.0	1.9119069785489408e+18
14087.0	1.9115696793321472e+18
14088.0	1.9112029780443133e+18
14089.0	1.9108543995052032e+18
14090.0	1.910495305007104e+18
14091.0	1.9101363296272381e+18
14092.0	1.909777251906355e+18
14093.0	1.909418133920153e+18
14094.0	1.9090589471473664e+18
14095.0	1.9086994466406397e+18
14096.0	1.908336701420339e+18
14097.0	1.9079669802336253e+18
14098.0	1.90762183599063e+18
14099.0	1.907263826978406e+18
14100.0	1.9068969965060093e+18
14101.0	1.9065478945177597e+18
14102.0	1.906189226160947e+18
14103.0	1.9058192617046008e+18
14104.0	1.9054703694315512e+18
14105.0	1.90511523603415e+18
14106.0	1.9047571968229373e+18
14107.0	1.904399078758809e+18
14108.0	1.9040301343571963e+18
14109.0	1.9036802773942264e+18
14110.0	1.9033239024828413e+18
14111.0	1.9029619793461243e+18
14112.0	1.9026018295611387e+18
14113.0	1.9022516269875197e+18
14114.0	1.9018811407597565e+18
14115.0	1.9015321411125243e+18
14116.0	1.901146644309606e+18
14117.0	1.9005769135423483e+18
14118.0	1.9004502958931965e+18
14119.0	1.9000978552389627e+18
14120.0	1.8997477331959803e+18
14121.0	1.8993831877804032e+18
14122.0	1.8990334012817405e+18
14123.0	1.8986729729949693e+18
14124.0	1.898285852157542e+18
14125.0	1.8976296633630712e+18
14126.0	1.897584641703936e+18
14127.0	1.8972498993348603e+18
14128.0	1.89689617186816e+18
14129.0	1.8965307087388664e+18
14130.0	1.8961642171662333e+18
14131.0	1.8958243510353917e+18
14132.0	1.895433168433971e+18
14133.0	1.8947223815454715e+18
14134.0	1.8947254920413184e+18
14135.0	1.8943927780376573e+18
14136.0	1.8940489239625728e+18
14137.0	1.8936955119075325e+18
14138.0	1.89334047246254e+18
14139.0	1.89298585412567e+18
14140.0	1.8926299020001275e+18
14141.0	1.892271418192691e+18
14142.0	1.8919128035229693e+18
14143.0	1.8915645622059003e+18
14144.0	1.8912118329835523e+18
14145.0	1.8908558791802877e+18
14146.0	1.8905021013819387e+18
14147.0	1.8901481625223168e+18
14148.0	1.8897940659568637e+18
14149.0	1.8894398049746941e+18
14150.0	1.8890851329507325e+18
14151.0	1.888729440872038e+18
14152.0	1.8883768777441272e+18
14153.0	1.888022672126771e+18
14154.0	1.8876445606543355e+18
14155.0	1.887311695655731e+18
14156.0	1.886960028431155e+18
14157.0	1.8866057875816445e+18
14158.0	1.8862496525844475e+18
14159.0	1.885896839476019e+18
14160.0	1.8855261250781181e+18
14161.0	1.885148189766451e+18
14162.0	1.8847605907783675e+18
14163.0	1.8844728262918141e+18
14164.0	1.8841147065499643e+18
14165.0	1.8837647438905341e+18
14166.0	1.8834221967605755e+18
14167.0	1.8830583509549053e+18
14168.0	1.8827169195098107e+18
14169.0	1.8823668108886008e+18
14170.0	1.8820118184198136e+18
14171.0	1.8816588140511232e+18
14172.0	1.881307698796953e+18
14173.0	1.8809433194758141e+18
14174.0	1.8805962240425981e+18
14175.0	1.8802508818284541e+18
14176.0	1.8798992028598272e+18
14177.0	1.879547114527129e+18
14178.0	1.8791945245556733e+18
14179.0	1.8788400437919747e+18
14180.0	1.8784908746948603e+18
14181.0	1.8781389809778683e+18
14182.0	1.8777865587785725e+18
14183.0	1.877434839544627e+18
14184.0	1.87707925987328e+18
14185.0	1.87672734770135e+18
14186.0	1.8763248471900152e+18
14187.0	1.8759978139516928e+18
14188.0	1.8756727570694144e+18
14189.0	1.87532565324759e+18
14190.0	1.8749745010835453e+18
14191.0	1.8746225754898427e+18
14192.0	1.8742663129858045e+18
14193.0	1.8739159845830653e+18
14194.0	1.8735700618772475e+18
14195.0	1.8732205220036603e+18
14196.0	1.872869854701158e+18
14197.0	1.8725191320338432e+18
14198.0	1.8721649834590203e+18
14199.0	1.8718126065582077e+18
14200.0	1.871443455796838e+18
14201.0	1.8711094365257725e+18
14202.0	1.8707640691458043e+18
14203.0	1.870412442186547e+18
14204.0	1.8700630264643581e+18
14205.0	1.8697080256069627e+18
14206.0	1.8692748966100987e+18
14207.0	1.869002902706585e+18
14208.0	1.8686591274844155e+18
14209.0	1.8682145648148475e+18
14210.0	1.8678808072683515e+18
14211.0	1.8676058354089981e+18
14212.0	1.8672669490675707e+18
14213.0	1.8669194207821821e+18
14214.0	1.8665693071278077e+18
14215.0	1.8662120581234683e+18
14216.0	1.865872735574425e+18
14217.0	1.8655240463056893e+18
14218.0	1.8651637606252541e+18
14219.0	1.8648262147833853e+18
14220.0	1.8644774315622397e+18
14221.0	1.8641283950051325e+18
14222.0	1.863771936207667e+18
14223.0	1.8634305735491581e+18
14224.0	1.863079787128422e+18
14225.0	1.8626492804104195e+18
14226.0	1.86237318112215e+18
14227.0	1.8620327646986237e+18
14228.0	1.8614686341660664e+18
14229.0	1.8612650879483904e+18
14230.0	1.8609902771503096e+18
14231.0	1.8606056376631293e+18
14232.0	1.8602581093777405e+18
14233.0	1.8599089000153088e+18
14234.0	1.859561982420582e+18
14235.0	1.8592121405571075e+18
14236.0	1.8588652196069376e+18
14237.0	1.8585144902287352e+18
14238.0	1.8581611687706621e+18
14239.0	1.857773388588646e+18
14240.0	1.8561589842018304e+18
14241.0	1.8570411251859453e+18
14242.0	1.85674916471767e+18
14243.0	1.8563234311176187e+18
14244.0	1.8560790223126525e+18
14245.0	1.8557320879407096e+18
14246.0	1.8553880459608061e+18
14247.0	1.8550423614914555e+18
14248.0	1.8546879528697853e+18
14249.0	1.8543113496690683e+18
14250.0	1.8539657423749115e+18
14251.0	1.8536207457714176e+18
14252.0	1.8532740076929021e+18
14253.0	1.8529260264226816e+18
14254.0	1.8525769646997504e+18
14255.0	1.8522007909957627e+18
14256.0	1.8518082175631355e+18
14257.0	1.8515037983342587e+18
14258.0	1.8511916800409592e+18
14259.0	1.8508296746958843e+18
14260.0	1.8504962778595325e+18
14261.0	1.8501358311178237e+18
14262.0	1.8498240634683387e+18
14263.0	1.8493699042312187e+18
14264.0	1.84906884883415e+18
14265.0	1.8487856511057917e+18
14266.0	1.8484520143552507e+18
14267.0	1.8481085277011965e+18
14268.0	1.8477615815852027e+18
14269.0	1.8473671475593213e+18
14270.0	1.8470292527513597e+18
14271.0	1.84668304483287e+18
14272.0	1.846334159270707e+18
14273.0	1.845969476281958e+18
14274.0	1.8454473357656061e+18
14275.0	1.845243547956019e+18
14276.0	1.8449397662613504e+18
14277.0	1.8446071898308603e+18
14278.0	1.844269001421619e+18
14279.0	1.8439238521454587e+18
14280.0	1.843577661004185e+18
14281.0	1.8432378418495483e+18
14282.0	1.842893932409651e+18
14283.0	1.8425496018616323e+18
14284.0	1.8422050901196797e+18
14285.0	1.8418602411556861e+18
14286.0	1.8415144946106368e+18
14287.0	1.841165676157337e+18
14288.0	1.8407869137289213e+18
14289.0	1.839638025076735e+18
14290.0	1.840102034217369e+18
14291.0	1.8397810994970621e+18
14292.0	1.8394011274313725e+18
14293.0	1.8390535219707904e+18
14294.0	1.83862054396887e+18
14295.0	1.8383266054668288e+18
14296.0	1.8373789360324605e+18
14297.0	1.8376049888854016e+18
14298.0	1.8372173882195963e+18
14299.0	1.8369765848383488e+18
14300.0	1.8366509927628792e+18
14301.0	1.8363134754422781e+18
14302.0	1.835973498581811e+18
14303.0	1.8355975077494781e+18
14304.0	1.8352757576564733e+18
14305.0	1.8349456323772413e+18
14306.0	1.8346020853252093e+18
14307.0	1.8342586875903997e+18
14308.0	1.8339179993759744e+18
14309.0	1.8335736587616253e+18
14310.0	1.8332229293834237e+18
14311.0	1.8328788504936443e+18
14312.0	1.8325252320788477e+18
14313.0	1.8321181731979261e+18
14314.0	1.8318630722732024e+18
14315.0	1.8315166747721728e+18
14316.0	1.8311464888565755e+18
14317.0	1.8307921657987064e+18
14318.0	1.8304503300227072e+18
14319.0	1.830109596509798e+18
14320.0	1.829767673492275e+18
14321.0	1.8294220779421693e+18
14322.0	1.8290587841069056e+18
14323.0	1.8287230921474043e+18
14324.0	1.8284009796665344e+18
14325.0	1.8280515773661184e+18
14326.0	1.8277201501749243e+18
14327.0	1.8273720632082427e+18
14328.0	1.827033153378713e+18
14329.0	1.8266969077710843e+18
14330.0	1.8263561037938685e+18
14331.0	1.8260149911158781e+18
14332.0	1.8256742861242363e+18
14333.0	1.8253334737584125e+18
14334.0	1.8249924835540987e+18
14335.0	1.8246424302977021e+18
14336.0	1.824301659874918e+18
14337.0	1.8239674459881464e+18
14338.0	1.82362800432087e+18
14339.0	1.8232792210997243e+18
14340.0	1.8229494565306365e+18
14341.0	1.8226094192721915e+18
14342.0	1.82226699461591e+18
14343.0	1.8219282945015803e+18
14344.0	1.8215799541989376e+18
14345.0	1.8211996952428541e+18
14346.0	1.8208579248979965e+18
14347.0	1.8205137453449213e+18
14348.0	1.8201789090234363e+18
14349.0	1.8198396569387003e+18
14350.0	1.8194927863201787e+18
14351.0	1.8191478182379517e+18
14352.0	1.8188113679482875e+18
14353.0	1.8184799223021563e+18
14354.0	1.8181408463781888e+18
14355.0	1.8178005390065661e+18
14356.0	1.8174616727977981e+18
14357.0	1.8171245212205053e+18
14358.0	1.8167856097132541e+18
14359.0	1.8164316154888187e+18
14360.0	1.816106753222246e+18
14361.0	1.8157681034395645e+18
14362.0	1.8154292338753533e+18
14363.0	1.8150890607214587e+18
14364.0	1.814731746285977e+18
14365.0	1.8144011361452032e+18
14366.0	1.8140695680253947e+18
14367.0	1.813735939663462e+18
14368.0	1.8133975952261115e+18
14369.0	1.8130596567973885e+18
14370.0	1.8127214381891581e+18
14371.0	1.8123832564908027e+18
14372.0	1.81203993928663e+18
14373.0	1.8117067521654781e+18
14374.0	1.8113686560309245e+18
14375.0	1.8110290784681981e+18
14376.0	1.8106914973941755e+18
14377.0	1.810303812842291e+18
14378.0	1.8099643829190653e+18
14379.0	1.80962821448663e+18
14380.0	1.8092894975950843e+18
14381.0	1.80894185858007e+18
14382.0	1.808613650936627e+18
14383.0	1.8082765278806013e+18
14384.0	1.807922253476659e+18
14385.0	1.8076025267159037e+18
14386.0	1.8072473832521725e+18
14387.0	1.8069273108807675e+18
14388.0	1.806587444749926e+18
14389.0	1.8062520212258813e+18
14390.0	1.8059142488915963e+18
14391.0	1.8055785015672824e+18
14392.0	1.8052411083980797e+18
14393.0	1.8049045121466365e+18
14394.0	1.8045298853019643e+18
14395.0	1.8042206594007037e+18
14396.0	1.8038930825805821e+18
14397.0	1.803555739743027e+18
14398.0	1.8032179355320317e+18
14399.0	1.8028794233225216e+18
14400.0	1.8025260867649533e+18
14401.0	1.8021902706540541e+18
14402.0	1.801837227697766e+18
14403.0	1.8012155597029376e+18
14404.0	1.7989479193116662e+18
14405.0	1.7991896286625772e+18
14406.0	1.8004457220472827e+18
14407.0	1.799894808605491e+18
14408.0	1.7998090753540093e+18
14409.0	1.799495225652019e+18
14410.0	1.7991779869523965e+18
14411.0	1.7988462477049853e+18
14412.0	1.7985101698695165e+18
14413.0	1.7981642421305336e+18
14414.0	1.797789477712691e+18
14415.0	1.7974546346803197e+18
14416.0	1.7971201238368256e+18
14417.0	1.7967838530633725e+18
14418.0	1.7964466192777213e+18
14419.0	1.79611090550784e+18
14420.0	1.7957715074613243e+18
14421.0	1.7954371140583421e+18
14422.0	1.795088772077977e+18
14423.0	1.7946943212748797e+18
14424.0	1.79331631457239e+18
14425.0	1.7940099366911997e+18
14426.0	1.7937526010413053e+18
14427.0	1.793426998899507e+18
14428.0	1.7930726271877123e+18
14429.0	1.792759123096371e+18
14430.0	1.7924236844728315e+18
14431.0	1.7920539498643453e+18
14432.0	1.7917405900570621e+18
14433.0	1.7912029960470518e+18
14434.0	1.79106288280535e+18
14435.0	1.7907443740704765e+18
14436.0	1.7904216492212221e+18
14437.0	1.7900885594079232e+18
14438.0	1.7897491613614077e+18
14439.0	1.7894159205531648e+18
14440.0	1.7890863002681336e+18
14441.0	1.788744016540467e+18
14442.0	1.7884048416309248e+18
14443.0	1.7880385564180475e+18
14444.0	1.7877355246649341e+18
14445.0	1.7873895080067072e+18
14446.0	1.7862771483869184e+18
14447.0	1.7866589743349755e+18
14448.0	1.786407418435993e+18
14449.0	1.7860815025602555e+18
14450.0	1.7857442889072637e+18
14451.0	1.7854139891449853e+18
14452.0	1.7850841524338688e+18
14453.0	1.7847500677316603e+18
14454.0	1.7844013633634296e+18
14455.0	1.7840245185708027e+18
14456.0	1.7836984231788541e+18
14457.0	1.783363138905702e+18
14458.0	1.7830315607195648e+18
14459.0	1.7826974038753277e+18
14460.0	1.7823632151543805e+18
14461.0	1.7820198643957755e+18
14462.0	1.7816941381025787e+18
14463.0	1.7813631689293821e+18
14464.0	1.781031664562995e+18
14465.0	1.780682584385126e+18
14466.0	1.780366102337945e+18
14467.0	1.7800200051490816e+18
14468.0	1.779699083850547e+18
14469.0	1.7793521679335421e+18
14470.0	1.779015997823385e+18
14471.0	1.7786999284957181e+18
14472.0	1.7783706655653885e+18
14473.0	1.778043268261478e+18
14474.0	1.7777140254638077e+18
14475.0	1.7773796605820923e+18
14476.0	1.7770381720944637e+18
14477.0	1.7767181567655933e+18
14478.0	1.7763840435421181e+18
14479.0	1.7760526264172541e+18
14480.0	1.775706096376217e+18
14481.0	1.7753907870564347e+18
14482.0	1.775053942502195e+18
14483.0	1.7747181649788925e+18
14484.0	1.7743748175757307e+18
14485.0	1.7740077287342077e+18
14486.0	1.773498895905587e+18
14487.0	1.7733854550818816e+18
14488.0	1.7730679043260413e+18
14489.0	1.7727361986330621e+18
14490.0	1.7724072628584443e+18
14491.0	1.772077144290099e+18
14492.0	1.7717477790187517e+18
14493.0	1.7714096895950843e+18
14494.0	1.7710627803889661e+18
14495.0	1.7707380137525243e+18
14496.0	1.770323705436569e+18
14497.0	1.7700847693594621e+18
14498.0	1.7697616619896827e+18
14499.0	1.769431657506406e+18
14500.0	1.7690993344118781e+18
14501.0	1.76874188743639e+18
14502.0	1.768261921485619e+18
14503.0	1.7680905489350656e+18
14504.0	1.7677270369959933e+18
14505.0	1.7673829899829243e+18
14506.0	1.7670282776936443e+18
14507.0	1.7665408945356795e+18
14508.0	1.7663895606919165e+18
14509.0	1.7660707516448765e+18
14510.0	1.765738517469593e+18
14511.0	1.7654091370987517e+18
14512.0	1.765070012520857e+18
14513.0	1.7647412495515643e+18
14514.0	1.764385933282508e+18
14515.0	1.7640220807659515e+18
14516.0	1.7616048647831557e+18
14517.0	1.7632533353070587e+18
14518.0	1.7630811574501379e+18
14519.0	1.762767413444608e+18
14520.0	1.7624416368197627e+18
14521.0	1.762114866983731e+18
14522.0	1.7617850738933757e+18
14523.0	1.7614437464670203e+18
14524.0	1.7611142385893376e+18
14525.0	1.7607935437832187e+18
14526.0	1.7604647824916477e+18
14527.0	1.7600980208058365e+18
14528.0	1.759708905157427e+18
14529.0	1.7594695345504253e+18
14530.0	1.759137929520742e+18
14531.0	1.7588212427915261e+18
14532.0	1.7584821433794557e+18
14533.0	1.758165043930726e+18
14534.0	1.7578392689836032e+18
14535.0	1.7574994431180797e+18
14536.0	1.757176686392115e+18
14537.0	1.7568426000121853e+18
14538.0	1.756523759088435e+18
14539.0	1.756195838335385e+18
14540.0	1.7558668018974717e+18
14541.0	1.7555153292886013e+18
14542.0	1.7552042125950976e+18
14543.0	1.75485739901911e+18
14544.0	1.7545398381969403e+18
14545.0	1.754178997190656e+18
14546.0	1.752219955232767e+18
14547.0	1.7519003308130294e+18
14548.0	1.75317082743767e+18
14549.0	1.7528005559582715e+18
14550.0	1.7525584976412672e+18
14551.0	1.752252345325977e+18
14552.0	1.7519253909405693e+18
14553.0	1.7515934637883387e+18
14554.0	1.7512725575892987e+18
14555.0	1.7509438885724157e+18
14556.0	1.7506133774172157e+18
14557.0	1.7502769623597053e+18
14558.0	1.74988668740567e+18
14559.0	1.7480218595819507e+18
14560.0	1.7491992896339963e+18
14561.0	1.7489064936603643e+18
14562.0	1.748568540132147e+18
14563.0	1.748266917665177e+18
14564.0	1.7479420906307581e+18
14565.0	1.7476165153325053e+18
14566.0	1.7472895039045627e+18
14567.0	1.7469614623555581e+18
14568.0	1.7466261512388605e+18
14569.0	1.7462803644284923e+18
14570.0	1.7455392493666296e+18
14571.0	1.7456323880812541e+18
14572.0	1.745291243526553e+18
14573.0	1.7449527866818552e+18
14574.0	1.7446689463861243e+18
14575.0	1.7443448927813627e+18
14576.0	1.7440185104990203e+18
14577.0	1.7436859793670144e+18
14578.0	1.7433656217829376e+18
14579.0	1.7430405128912893e+18
14580.0	1.742714214495027e+18
14581.0	1.742385884377907e+18
14582.0	1.7420608610500605e+18
14583.0	1.7417336449400827e+18
14584.0	1.7414009510690813e+18
14585.0	1.7410806438166525e+18
14586.0	1.7407532146360315e+18
14587.0	1.740428729856819e+18
14588.0	1.740103015307673e+18
14589.0	1.7397777285775357e+18
14590.0	1.739452211999539e+18
14591.0	1.739125474040217e+18
14592.0	1.73878285476823e+18
14593.0	1.7383858588614653e+18
14594.0	1.738139956884275e+18
14595.0	1.7378180708958203e+18
14596.0	1.737477481666969e+18
14597.0	1.7371490374647803e+18
14598.0	1.7368473915097085e+18
14599.0	1.7365277234692093e+18
14600.0	1.7362035708788733e+18
14601.0	1.7358788579295227e+18
14602.0	1.7355515294121984e+18
14603.0	1.7352269892681725e+18
14604.0	1.7348744026521597e+18
14605.0	1.7345734210748413e+18
14606.0	1.7341790138925053e+18
14607.0	1.7339262701666304e+18
14608.0	1.733604840518451e+18
14609.0	1.7332823069294587e+18
14610.0	1.7329572064264187e+18
14611.0	1.732632181420851e+18
14612.0	1.7323105353465853e+18
14613.0	1.731986946470707e+18
14614.0	1.731660330985062e+18
14615.0	1.731337918192025e+18
14616.0	1.7310147219030013e+18
14617.0	1.7306899452002296e+18
14618.0	1.7303614187896827e+18
14619.0	1.7300097482096637e+18
14620.0	1.7296677396283387e+18
14621.0	1.7293907729580032e+18
14622.0	1.7290664291074043e+18
14623.0	1.7287430717571072e+18
14624.0	1.728381324781158e+18
14625.0	1.7280589069549563e+18
14626.0	1.7277152357515261e+18
14627.0	1.7273928632238072e+18
14628.0	1.7270707809419261e+18
14629.0	1.726747416880742e+18
14630.0	1.726423096518246e+18
14631.0	1.726096628672102e+18
14632.0	1.7256859912110077e+18
14633.0	1.7254231257907197e+18
14634.0	1.7251266321186816e+18
14635.0	1.724802195993395e+18
14636.0	1.7244718811316221e+18
14637.0	1.7241581908131837e+18
14638.0	1.7238310267125757e+18
14639.0	1.723499721995059e+18
14640.0	1.723159651182182e+18
14641.0	1.7225070996881403e+18
14642.0	1.7225117788536827e+18
14643.0	1.7222125723058176e+18
14644.0	1.7218802961874941e+18
14645.0	1.7215541739519997e+18
14646.0	1.7212395575312381e+18
14647.0	1.7209177906610176e+18
14648.0	1.7206000956211197e+18
