# Flux units: erg / (cm m2 s)
# Wavelength units: Angstrom
wave	flux
14000.0	1.689901761508147e+18
14001.0	1.6896338427903997e+18
14002.0	1.689528384566067e+18
14003.0	1.6892364626853885e+18
14004.0	1.688940279391846e+18
14005.0	1.6886415610609661e+18
14006.0	1.6883364791320568e+18
14007.0	1.688031731069747e+18
14008.0	1.6876770003255293e+18
14009.0	1.6874196747419643e+18
14010.0	1.6870994832523261e+18
14011.0	1.686312089917849e+18
14012.0	1.686491171599155e+18
14013.0	1.6862489522208765e+18
14014.0	1.685952614576947e+18
14015.0	1.685661595310489e+18
14016.0	1.6853655932108797e+18
14017.0	1.6850689552547837e+18
14018.0	1.6847583586549757e+18
14019.0	1.6844741509382136e+18
14020.0	1.684176123828633e+18
14021.0	1.6838782359699453e+18
14022.0	1.683580843039129e+18
14023.0	1.6832729475710976e+18
14024.0	1.6829782171844605e+18
14025.0	1.6826884494983163e+18
14026.0	1.6823905951940605e+18
14027.0	1.6820927291457533e+18
14028.0	1.6817862245089277e+18
14029.0	1.6814749249437693e+18
14030.0	1.68093523378176e+18
14031.0	1.680791417808486e+18
14032.0	1.6805965118570493e+18
14033.0	1.680273228326502e+18
14034.0	1.6800162164768765e+18
14035.0	1.679721237787443e+18
14036.0	1.6794190247624704e+18
14037.0	1.679126114703769e+18
14038.0	1.678833587165593e+18
14039.0	1.678533436060467e+18
14040.0	1.678239881756672e+18
14041.0	1.677943695107686e+18
14042.0	1.6776383531319293e+18
14043.0	1.6773210825555965e+18
14044.0	1.677038945147289e+18
14045.0	1.6767499072700408e+18
14046.0	1.6764615874576381e+18
14047.0	1.6761635788029947e+18
14048.0	1.6758744285183997e+18
14049.0	1.6755794028527608e+18
14050.0	1.6752835970465795e+18
14051.0	1.6749818235846653e+18
14052.0	1.6746877793861632e+18
14053.0	1.6743978690936832e+18
14054.0	1.6741029390581757e+18
14055.0	1.6738078597054461e+18
14056.0	1.6735127887413243e+18
14057.0	1.673217776497459e+18
14058.0	1.6729227491540984e+18
14059.0	1.672615754622566e+18
14060.0	1.6723324595863547e+18
14061.0	1.672032063533875e+18
14062.0	1.671740114809651e+18
14063.0	1.671432412279603e+18
14064.0	1.671076080988979e+18
14065.0	1.670849739567923e+18
14066.0	1.6705622586163197e+18
14067.0	1.6702708283080704e+18
14068.0	1.669976626403737e+18
14069.0	1.669682171163443e+18
14070.0	1.6693881890406395e+18
14071.0	1.6690919453491197e+18
14072.0	1.6688001073545213e+18
14073.0	1.668506220861849e+18
14074.0	1.668212003858022e+18
14075.0	1.667900294928793e+18
14076.0	1.6676187531116544e+18
14077.0	1.6672677385207805e+18
14078.0	1.6670187847679997e+18
14079.0	1.666733889185382e+18
14080.0	1.666442541085491e+18
14081.0	1.6661543269695485e+18
14082.0	1.665860848163225e+18
14083.0	1.665563154920243e+18
14084.0	1.6652523670601725e+18
14085.0	1.6648130120384507e+18
14086.0	1.6646427132297216e+18
14087.0	1.6643805054763003e+18
14088.0	1.6640908434866168e+18
14089.0	1.663810747865497e+18
14090.0	1.663518673312153e+18
14091.0	1.6632264947400696e+18
14092.0	1.662934054443417e+18
14093.0	1.6626414010761213e+18
14094.0	1.6623484406857723e+18
14095.0	1.6620547169320952e+18
14096.0	1.661757585725849e+18
14097.0	1.6614513696571387e+18
14098.0	1.6611759532015613e+18
14099.0	1.6608845396705277e+18
14100.0	1.6605848767823867e+18
14101.0	1.6603025430806525e+18
14102.0	1.660008344531763e+18
14103.0	1.6597052993568763e+18
14104.0	1.6594240763068416e+18
14105.0	1.6591357917265915e+18
14106.0	1.658844047684403e+18
14107.0	1.6585419906875387e+18
14108.0	1.6582488944017405e+18
14109.0	1.6579659130994688e+18
14110.0	1.6576751371026432e+18
14111.0	1.657379713816985e+18
14112.0	1.6570839986077693e+18
14113.0	1.656797252498227e+18
14114.0	1.6564905247244285e+18
14115.0	1.6561986112323581e+18
14116.0	1.6558168540708861e+18
14117.0	1.655111897264947e+18
14118.0	1.6552828302524413e+18
14119.0	1.6550294859022333e+18
14120.0	1.654751990749593e+18
14121.0	1.6544557537689597e+18
14122.0	1.6541721399656443e+18
14123.0	1.6538749768826875e+18
14124.0	1.6535369294020603e+18
14125.0	1.6529991726530557e+18
14126.0	1.652972800547225e+18
14127.0	1.6527183438675965e+18
14128.0	1.6524337251090432e+18
14129.0	1.65213432226775e+18
14130.0	1.6518304080330747e+18
14131.0	1.651552870937395e+18
14132.0	1.6512119159652347e+18
14133.0	1.6506251445796861e+18
14134.0	1.650625911298457e+18
14135.0	1.6503887133409277e+18
14136.0	1.650113157634457e+18
14137.0	1.6498266195623933e+18
14138.0	1.649537759523635e+18
14139.0	1.6492492652281853e+18
14140.0	1.648958475809587e+18
14141.0	1.6486629166284797e+18
14142.0	1.6483695300968448e+18
14143.0	1.6480900569104381e+18
14144.0	1.6478046445895675e+18
14145.0	1.647514586657587e+18
14146.0	1.6472261259165693e+18
14147.0	1.6469395744227325e+18
14148.0	1.646651256288051e+18
14149.0	1.6463627804475387e+18
14150.0	1.646073700627251e+18
14151.0	1.6457839346188285e+18
14152.0	1.6454948346658813e+18
14153.0	1.6452081657315325e+18
14154.0	1.644894463669043e+18
14155.0	1.6446219211505661e+18
14156.0	1.6443416091033597e+18
14157.0	1.644052675244851e+18
14158.0	1.6437622113042432e+18
14159.0	1.6434730761191421e+18
14160.0	1.6431657124888576e+18
14161.0	1.6428537904889853e+18
14162.0	1.6425408467566592e+18
14163.0	1.6422974294851584e+18
14164.0	1.6420152820105213e+18
14165.0	1.6417376845168635e+18
14166.0	1.6414580922122237e+18
14167.0	1.6411585249542141e+18
14168.0	1.6408832209059837e+18
14169.0	1.6405985266499581e+18
14170.0	1.6403085727367163e+18
14171.0	1.6400185399705597e+18
14172.0	1.6397349563662333e+18
14173.0	1.6394395850899453e+18
14174.0	1.6391547180285947e+18
14175.0	1.6388738489778176e+18
14176.0	1.6385875944407037e+18
14177.0	1.638300705724825e+18
14178.0	1.63801327510487e+18
14179.0	1.637724242260787e+18
14180.0	1.6374395429715965e+18
14181.0	1.637152546881536e+18
14182.0	1.636864891446886e+18
14183.0	1.6365773031211005e+18
14184.0	1.6362854852591613e+18
14185.0	1.6359909494882304e+18
14186.0	1.635627769738035e+18
14187.0	1.635384156173107e+18
14188.0	1.6351370261037053e+18
14189.0	1.6348571754299392e+18
14190.0	1.6345715768819707e+18
14191.0	1.63428420330455e+18
14192.0	1.633990887237222e+18
14193.0	1.6337040354312192e+18
14194.0	1.633426484913766e+18
14195.0	1.6331429482856443e+18
14196.0	1.6328574235574272e+18
14197.0	1.6325713401479163e+18
14198.0	1.632281493608857e+18
14199.0	1.6319910279905277e+18
14200.0	1.6316639595200512e+18
14201.0	1.6314056356921341e+18
14202.0	1.6311375844343805e+18
14203.0	1.6308526099988475e+18
14204.0	1.6305672899526653e+18
14205.0	1.630273589687091e+18
14206.0	1.629917593940787e+18
14207.0	1.6296944083140603e+18
14208.0	1.6294166329819133e+18
14209.0	1.6290455511629821e+18
14210.0	1.6287731176964093e+18
14211.0	1.628558746818969e+18
14212.0	1.6282883064856576e+18
14213.0	1.6280061120348152e+18
14214.0	1.62772042121216e+18
14215.0	1.627427452433203e+18
14216.0	1.6271519873236987e+18
14217.0	1.6268696452333565e+18
14218.0	1.6265734166413307e+18
14219.0	1.6263006241423357e+18
14220.0	1.6260147923910653e+18
14221.0	1.625731056114073e+18
14222.0	1.6254382819508221e+18
14223.0	1.625159162763673e+18
14224.0	1.624864220984115e+18
14225.0	1.6243987270598656e+18
14226.0	1.624259464423014e+18
14227.0	1.6239954631852024e+18
14228.0	1.623158959584051e+18
14229.0	1.623199043708518e+18
14230.0	1.6231592095645693e+18
14231.0	1.62288648585216e+18
14232.0	1.6226056285454333e+18
14233.0	1.6223220466188285e+18
14234.0	1.622038857279078e+18
14235.0	1.621753153034649e+18
14236.0	1.6214692724735995e+18
14237.0	1.621180325193318e+18
14238.0	1.6208836855595005e+18
14239.0	1.6205204319895547e+18
14240.0	1.6188834840575995e+18
14241.0	1.6198762590371837e+18
14242.0	1.6197154393554941e+18
14243.0	1.619385349308416e+18
14244.0	1.6191910825689085e+18
14245.0	1.6189145638502397e+18
14246.0	1.6186374663176192e+18
14247.0	1.618353201558323e+18
14248.0	1.618062173903257e+18
14249.0	1.6177908594769915e+18
14250.0	1.6175115775508477e+18
14251.0	1.6172300407668739e+18
14252.0	1.6169443365224443e+18
14253.0	1.6166502772244475e+18
14254.0	1.6163598015397885e+18
14255.0	1.616030239975014e+18
14256.0	1.615633928578662e+18
14257.0	1.615419646620467e+18
14258.0	1.615220784601497e+18
14259.0	1.6149304381014008e+18
14260.0	1.6146568805613565e+18
14261.0	1.614359187318374e+18
14262.0	1.6140837641519101e+18
14263.0	1.6135896029986813e+18
14264.0	1.6133807602139139e+18
14265.0	1.6132455996063741e+18
14266.0	1.6129957918932992e+18
14267.0	1.612722074969702e+18
14268.0	1.612441405567795e+18
14269.0	1.612153776976691e+18
14270.0	1.6118767633301501e+18
14271.0	1.6115793100013565e+18
14272.0	1.611283260925542e+18
14273.0	1.6109338837909501e+18
14274.0	1.6103198695620605e+18
14275.0	1.6102828909002747e+18
14276.0	1.6101334159720443e+18
14277.0	1.6098872455593981e+18
14278.0	1.6096182816210941e+18
14279.0	1.609340106991206e+18
14280.0	1.6090600969338875e+18
14281.0	1.608784391910195e+18
14282.0	1.6085048935579643e+18
14283.0	1.6082245110464507e+18
14284.0	1.6079435480432637e+18
14285.0	1.6076617243688957e+18
14286.0	1.607377872329113e+18
14287.0	1.6070870711664637e+18
14288.0	1.6067361555611643e+18
14289.0	1.6056068224319478e+18
14290.0	1.6061789338861568e+18
14291.0	1.6059531243028475e+18
14292.0	1.605678118889062e+18
14293.0	1.6053914801537021e+18
14294.0	1.6050344224096253e+18
14295.0	1.6047676764192763e+18
14296.0	1.6038629835014144e+18
14297.0	1.6041297949229053e+18
14298.0	1.6038469595824123e+18
14299.0	1.603686844543795e+18
14300.0	1.603438516581171e+18
14301.0	1.6031677860020221e+18
14302.0	1.602890656592691e+18
14303.0	1.602577342083891e+18
14304.0	1.602321806629273e+18
14305.0	1.6020547418718205e+18
14306.0	1.6017752586190848e+18
14307.0	1.60149465464832e+18
14308.0	1.601216235071078e+18
14309.0	1.6009349902106621e+18
14310.0	1.6006505761341437e+18
14311.0	1.6003627596382203e+18
14312.0	1.600061417350758e+18
14313.0	1.5996794269859837e+18
14314.0	1.5995275780816888e+18
14315.0	1.599243606923673e+18
14316.0	1.5989452358811643e+18
14317.0	1.5986918059671547e+18
14318.0	1.598419850651238e+18
14319.0	1.5981435315814395e+18
14320.0	1.5978654509039613e+18
14321.0	1.597582320284467e+18
14322.0	1.5972851874004992e+18
14323.0	1.597012740512153e+18
14324.0	1.5967525091147776e+18
14325.0	1.5964676370202624e+18
14326.0	1.596199852520243e+18
14327.0	1.595914696890777e+18
14328.0	1.595638015433113e+18
14329.0	1.5953669711200253e+18
14330.0	1.595089684004864e+18
14331.0	1.5948119623598077e+18
14332.0	1.5945345091502083e+18
14333.0	1.594256856291737e+18
14334.0	1.5939785960980475e+18
14335.0	1.5936890213498877e+18
14336.0	1.5934046475386877e+18
14337.0	1.5931422703353853e+18
14338.0	1.592867541745664e+18
14339.0	1.5925705397239803e+18
14340.0	1.5923036360278013e+18
14341.0	1.5920251644411901e+18
14342.0	1.5917449211805693e+18
14343.0	1.5914723300081664e+18
14344.0	1.5911863053189115e+18
14345.0	1.5909151536316413e+18
14346.0	1.5906395408826365e+18
14347.0	1.590358435273113e+18
14348.0	1.5900859095318525e+18
14349.0	1.5898091374772216e+18
14350.0	1.589517426989465e+18
14351.0	1.5892356200923133e+18
14352.0	1.5889684043399163e+18
14353.0	1.5887023126609915e+18
14354.0	1.5884263928889341e+18
14355.0	1.5881478072172541e+18
14356.0	1.5878697600942077e+18
14357.0	1.5875975698972672e+18
14358.0	1.5873251280420864e+18
14359.0	1.587034390632857e+18
14360.0	1.5867719647756285e+18
14361.0	1.5864959879610363e+18
14362.0	1.5862194642092032e+18
14363.0	1.5859386471677947e+18
14364.0	1.5856256849805307e+18
14365.0	1.5853619672776701e+18
14366.0	1.5851005044326397e+18
14367.0	1.5848293695225853e+18
14368.0	1.5845553606754304e+18
14369.0	1.5842807092609021e+18
14370.0	1.5840056400936957e+18
14371.0	1.5837304903958525e+18
14372.0	1.5834496448331776e+18
14373.0	1.583178355572736e+18
14374.0	1.582903034747289e+18
14375.0	1.582622633780838e+18
14376.0	1.5823544768266237e+18
14377.0	1.5820787718029312e+18
14378.0	1.5818024376336381e+18
14379.0	1.5815289455247357e+18
14380.0	1.5812532757331965e+18
14381.0	1.5809682643877888e+18
14382.0	1.5807031843749888e+18
14383.0	1.5804292761911293e+18
14384.0	1.580136993600307e+18
14385.0	1.5798806763274237e+18
14386.0	1.5795877746573307e+18
14387.0	1.579331046342656e+18
14388.0	1.5790541786578941e+18
14389.0	1.578781141211545e+18
14390.0	1.5785062096175104e+18
14391.0	1.578233115128627e+18
14392.0	1.577958555988787e+18
14393.0	1.577684422990233e+18
14394.0	1.5773694206935037e+18
14395.0	1.5771249380687867e+18
14396.0	1.5768589889961984e+18
14397.0	1.5765851227553787e+18
14398.0	1.5763089932681216e+18
14399.0	1.5760181585510397e+18
14400.0	1.5757262551252992e+18
14401.0	1.575447672809062e+18
14402.0	1.5751475099598848e+18
14403.0	1.5746715403419643e+18
14404.0	1.572343292257894e+18
14405.0	1.5723527613186035e+18
14406.0	1.5739521651965947e+18
14407.0	1.573664660756889e+18
14408.0	1.5735128890277885e+18
14409.0	1.5732576824066048e+18
14410.0	1.5730036837449723e+18
14411.0	1.5727374612037632e+18
14412.0	1.5724654840774653e+18
14413.0	1.5721969026596864e+18
14414.0	1.5719236269768701e+18
14415.0	1.5716514837561344e+18
14416.0	1.571377681268736e+18
14417.0	1.571105835004723e+18
14418.0	1.5708315107459072e+18
14419.0	1.570558065613209e+18
14420.0	1.5702817029226493e+18
14421.0	1.57000965029888e+18
14422.0	1.5697238084812797e+18
14423.0	1.569402051677388e+18
14424.0	1.5687027202719741e+18
14425.0	1.568848380061286e+18
14426.0	1.5686388728987643e+18
14427.0	1.5683743817662464e+18
14428.0	1.5680806160695293e+18
14429.0	1.5678294611460093e+18
14430.0	1.5675463909244923e+18
14431.0	1.567207702554214e+18
14432.0	1.5669962760781821e+18
14433.0	1.5666371933241341e+18
14434.0	1.566448612383129e+18
14435.0	1.5661874062295037e+18
14436.0	1.5659174994116603e+18
14437.0	1.565647733522432e+18
14438.0	1.5653684901838843e+18
14439.0	1.5650983786840064e+18
14440.0	1.5648330436575232e+18
14441.0	1.5645486564245504e+18
14442.0	1.5642698862034941e+18
14443.0	1.5639667269435387e+18
14444.0	1.5637217644904443e+18
14445.0	1.563427391458508e+18
14446.0	1.5624549571756032e+18
14447.0	1.562793269736243e+18
14448.0	1.5626441991389181e+18
14449.0	1.5623863215849467e+18
14450.0	1.5621127841775613e+18
14451.0	1.5618459559788544e+18
14452.0	1.5615789516193792e+18
14453.0	1.5613077781217277e+18
14454.0	1.5610364452405243e+18
14455.0	1.560758993708646e+18
14456.0	1.5604934053462013e+18
14457.0	1.560221691622195e+18
14458.0	1.5599513620185085e+18
14459.0	1.5596785846190075e+18
14460.0	1.5594048895057915e+18
14461.0	1.5591236748443643e+18
14462.0	1.5588573516398587e+18
14463.0	1.558590912672563e+18
14464.0	1.5583192476024832e+18
14465.0	1.5580347211186176e+18
14466.0	1.5577835242520568e+18
14467.0	1.5575004171206653e+18
14468.0	1.5572410883375101e+18
14469.0	1.5569494399254528e+18
14470.0	1.5566824053669888e+18
14471.0	1.5564293311299581e+18
14472.0	1.556163420644966e+18
14473.0	1.5558990637301757e+18
14474.0	1.555632883132006e+18
14475.0	1.5553618539184125e+18
14476.0	1.5550864508846077e+18
14477.0	1.5548111401254907e+18
14478.0	1.5545391344779264e+18
14479.0	1.5542696403795965e+18
14480.0	1.5539841592721403e+18
14481.0	1.5537312108642301e+18
14482.0	1.5534562054504448e+18
14483.0	1.5531814718275581e+18
14484.0	1.552897265788518e+18
14485.0	1.5525797267767293e+18
14486.0	1.5521682370330627e+18
14487.0	1.5520856511873027e+18
14488.0	1.551839078121472e+18
14489.0	1.5515689867542525e+18
14490.0	1.5513039587508221e+18
14491.0	1.5510391085858813e+18
14492.0	1.5507716764073981e+18
14493.0	1.5504952835178493e+18
14494.0	1.550207057657856e+18
14495.0	1.5499402009378813e+18
14496.0	1.549606629618483e+18
14497.0	1.5494117119229947e+18
14498.0	1.5491551161483264e+18
14499.0	1.5488884490108923e+18
14500.0	1.5486172402810877e+18
14501.0	1.5483100746219515e+18
14502.0	1.5478936741871616e+18
14503.0	1.547791276127027e+18
14504.0	1.5475337492168701e+18
14505.0	1.5472671055675387e+18
14506.0	1.5469647751020541e+18
14507.0	1.5465652139589632e+18
14508.0	1.5464481844887547e+18
14509.0	1.5461984522731515e+18
14510.0	1.5459295537659901e+18
14511.0	1.5456624218996733e+18
14512.0	1.5453857119207421e+18
14513.0	1.5451114363158528e+18
14514.0	1.5448115620347901e+18
14515.0	1.544444723173785e+18
14516.0	1.5419325884137472e+18
14517.0	1.5437025729576957e+18
14518.0	1.5437424255565821e+18
14519.0	1.543502851945267e+18
14520.0	1.5432514638184443e+18
14521.0	1.5429896855617533e+18
14522.0	1.5427233858453501e+18
14523.0	1.5424515949461504e+18
14524.0	1.5421847180935165e+18
14525.0	1.5419194652753915e+18
14526.0	1.5416422486245373e+18
14527.0	1.5413201965416443e+18
14528.0	1.541003053472153e+18
14529.0	1.540827912758886e+18
14530.0	1.5405610610720763e+18
14531.0	1.5403067335770107e+18
14532.0	1.5400383249645563e+18
14533.0	1.5397758689083387e+18
14534.0	1.5395109432459264e+18
14535.0	1.5392325354127357e+18
14536.0	1.5389717302345725e+18
14537.0	1.538701596924313e+18
14538.0	1.5384426523394043e+18
14539.0	1.5381754902740987e+18
14540.0	1.537909687163289e+18
14541.0	1.5376202852204544e+18
14542.0	1.5373708432506877e+18
14543.0	1.5370886051790843e+18
14544.0	1.5368288016007165e+18
14545.0	1.5365245937647613e+18
14546.0	1.5353370017529853e+18
14547.0	1.535026601446604e+18
14548.0	1.535691094962995e+18
14549.0	1.5354024765161467e+18
14550.0	1.5352104176582653e+18
14551.0	1.5349722701103101e+18
14552.0	1.5347070575575037e+18
14553.0	1.5344363924094973e+18
14554.0	1.5341785668648957e+18
14555.0	1.5339103109251067e+18
14556.0	1.5336380016099323e+18
14557.0	1.5333521480482813e+18
14558.0	1.532956482574745e+18
14559.0	1.5310516981334006e+18
14560.0	1.5324144358916093e+18
14561.0	1.5322828823855104e+18
14562.0	1.5320150727196672e+18
14563.0	1.5317815993040893e+18
14564.0	1.5315107479289853e+18
14565.0	1.531258051179315e+18
14566.0	1.5309934023409664e+18
14567.0	1.5307249383636987e+18
14568.0	1.530450110788403e+18
14569.0	1.5301424653008893e+18
14570.0	1.5294463031115768e+18
14571.0	1.529626232042291e+18
14572.0	1.5293630411440125e+18
14573.0	1.5290883914072064e+18
14574.0	1.5288668935684093e+18
14575.0	1.528606621905715e+18
14576.0	1.5283385052168187e+18
14577.0	1.528071425359872e+18
14578.0	1.5278146953674747e+18
14579.0	1.527552730883686e+18
14580.0	1.5272885098643453e+18
14581.0	1.527022131295027e+18
14582.0	1.5267542545203197e+18
14583.0	1.526480312782028e+18
14584.0	1.5262097717854203e+18
14585.0	1.5259507651248123e+18
14586.0	1.525686795763712e+18
14587.0	1.525423648486195e+18
14588.0	1.5251599844704256e+18
14589.0	1.524895677887283e+18
14590.0	1.5246308092674043e+18
14591.0	1.5243606625353728e+18
14592.0	1.524076891026227e+18
14593.0	1.5237570317254653e+18
14594.0	1.5235562705256448e+18
14595.0	1.523297597731635e+18
14596.0	1.522983818493952e+18
14597.0	1.5227132540092413e+18
14598.0	1.5225058137997307e+18
14599.0	1.522254598478233e+18
14600.0	1.5219928386764797e+18
14601.0	1.5217294984609792e+18
14602.0	1.5214615076012032e+18
14603.0	1.521198063366963e+18
14604.0	1.520909391233024e+18
14605.0	1.5206546594070525e+18
14606.0	1.520312187774566e+18
14607.0	1.520143598564147e+18
14608.0	1.5198744634982397e+18
14609.0	1.5196077896499197e+18
14610.0	1.5193428925087741e+18
14611.0	1.5190748529950715e+18
14612.0	1.5188341787983872e+18
14613.0	1.5185720364761085e+18
14614.0	1.5182966703521792e+18
14615.0	1.5180363936563197e+18
14616.0	1.5177822624546816e+18
14617.0	1.5174942496653307e+18
14618.0	1.5172251615756288e+18
14619.0	1.5169092482760701e+18
14620.0	1.516618931974963e+18
14621.0	1.5164514332835837e+18
14622.0	1.5161975906500603e+18
14623.0	1.515936728429363e+18
14624.0	1.515646148725965e+18
14625.0	1.515406979445555e+18
14626.0	1.5151457699364864e+18
14627.0	1.514886139163443e+18
14628.0	1.5146340329717757e+18
14629.0	1.5143721876062205e+18
14630.0	1.5141014503161853e+18
14631.0	1.5138363535261693e+18
14632.0	1.5135260169732093e+18
14633.0	1.513300935521075e+18
14634.0	1.5130584728731643e+18
14635.0	1.512791087670886e+18
14636.0	1.5125095609532413e+18
14637.0	1.5122742152003581e+18
14638.0	1.512006714235289e+18
14639.0	1.5117374516625403e+18
14640.0	1.5114630149963773e+18
14641.0	1.511067238793216e+18
14642.0	1.5109390424080381e+18
14643.0	1.510696281125683e+18
14644.0	1.5104238963130365e+18
14645.0	1.510153756291891e+18
14646.0	1.509897249436467e+18
14647.0	1.5096429638844413e+18
14648.0	1.509375707866726e+18
