# Flux units: erg / (cm m2 s)
# Wavelength units: Angstrom
wave	flux
14000.0	1.5948247902191613e+18
14001.0	1.5950812500983805e+18
14002.0	1.5951121453416443e+18
14003.0	1.5948599015768064e+18
14004.0	1.594592038223872e+18
14005.0	1.5943278524366843e+18
14006.0	1.5940458240802813e+18
14007.0	1.5937694915887096e+18
14008.0	1.593351488929792e+18
14009.0	1.5932177745182715e+18
14010.0	1.592934501292441e+18
14011.0	1.5920045553090557e+18
14012.0	1.5923862201958397e+18
14013.0	1.5921593586810883e+18
14014.0	1.591887653345689e+18
14015.0	1.5916231806681085e+18
14016.0	1.5913544063123456e+18
14017.0	1.5910846991433725e+18
14018.0	1.590728793994035e+18
14019.0	1.5905435903066112e+18
14020.0	1.590272150051225e+18
14021.0	1.5900003490856957e+18
14022.0	1.5897275867856893e+18
14023.0	1.589445286638387e+18
14024.0	1.589176322700083e+18
14025.0	1.5889162976624635e+18
14026.0	1.5886447886204925e+18
14027.0	1.5883718115721213e+18
14028.0	1.5880844900040701e+18
14029.0	1.5877652128727035e+18
14030.0	1.5861251309568e+18
14031.0	1.5868992031817725e+18
14032.0	1.5869880553177088e+18
14033.0	1.586698599687782e+18
14034.0	1.586482663496089e+18
14035.0	1.5862141407985664e+18
14036.0	1.5859049937502203e+18
14037.0	1.5856695607558141e+18
14038.0	1.585414776920473e+18
14039.0	1.5851415968677885e+18
14040.0	1.584875384392908e+18
14041.0	1.5846065597054976e+18
14042.0	1.5843270949076992e+18
14043.0	1.5840297120432125e+18
14044.0	1.583740622156595e+18
14045.0	1.5834759968063485e+18
14046.0	1.583257975206707e+18
14047.0	1.5829831946076157e+18
14048.0	1.5827199751880701e+18
14049.0	1.582456967161446e+18
14050.0	1.5821884310421501e+18
14051.0	1.5819115415470077e+18
14052.0	1.581646124312166e+18
14053.0	1.5813823260786688e+18
14054.0	1.5811150868381696e+18
14055.0	1.58084676714496e+18
14056.0	1.5805784440963067e+18
14057.0	1.5803102200332285e+18
14058.0	1.5800417946435581e+18
14059.0	1.5796932194598907e+18
14060.0	1.579504918698393e+18
14061.0	1.5792291130114048e+18
14062.0	1.5789645547700221e+18
14063.0	1.5786644489633787e+18
14064.0	1.5780364559581181e+18
14065.0	1.5781474926067712e+18
14066.0	1.5778936566841344e+18
14067.0	1.577625427587891e+18
14068.0	1.5773623457415165e+18
14069.0	1.5770935546085368e+18
14070.0	1.576826697888563e+18
14071.0	1.5765569806532605e+18
14072.0	1.5762926321270784e+18
14073.0	1.5760249919111165e+18
14074.0	1.5757566420189181e+18
14075.0	1.5754678457335803e+18
14076.0	1.5752026164035581e+18
14077.0	1.5746170999537667e+18
14078.0	1.5746226850889728e+18
14079.0	1.5744043581439997e+18
14080.0	1.5741169443012603e+18
14081.0	1.573880580171366e+18
14082.0	1.5736190804164603e+18
14083.0	1.57334621913088e+18
14084.0	1.5730556041953277e+18
14085.0	1.572502779828633e+18
14086.0	1.572462189032243e+18
14087.0	1.5722232563105787e+18
14088.0	1.5720044310822907e+18
14089.0	1.5717524507197435e+18
14090.0	1.5714879948193792e+18
14091.0	1.5712235389190144e+18
14092.0	1.5709579438456832e+18
14093.0	1.5706914243477504e+18
14094.0	1.5704236247482368e+18
14095.0	1.570151661043712e+18
14096.0	1.569859359997952e+18
14097.0	1.5695858360123392e+18
14098.0	1.569342354987417e+18
14099.0	1.5690897136025597e+18
14100.0	1.5688164765073405e+18
14101.0	1.5685649793286141e+18
14102.0	1.5682960724328443e+18
14103.0	1.5680150003777533e+18
14104.0	1.5677661372219387e+18
14105.0	1.5675043086335997e+18
14106.0	1.5672388075126781e+18
14107.0	1.5669073199235072e+18
14108.0	1.5666876055027707e+18
14109.0	1.566437541098291e+18
14110.0	1.5661733200789501e+18
14111.0	1.565902790826393e+18
14112.0	1.5656269515849728e+18
14113.0	1.5653684146864125e+18
14114.0	1.565077692376678e+18
14115.0	1.5647870975737853e+18
14116.0	1.5642244300144635e+18
14117.0	1.5615303698350077e+18
14118.0	1.5638585340329984e+18
14119.0	1.5637097218047997e+18
14120.0	1.5634739482329085e+18
14121.0	1.5632219645149181e+18
14122.0	1.5629666790408192e+18
14123.0	1.562703322048102e+18
14124.0	1.562403233018675e+18
14125.0	1.561780536580505e+18
14126.0	1.5619014717865981e+18
14127.0	1.5616680789016576e+18
14128.0	1.5614086981091323e+18
14129.0	1.5611351137255421e+18
14130.0	1.5608447923912701e+18
14131.0	1.5605962027040765e+18
14132.0	1.560304243913523e+18
14133.0	1.559607447545446e+18
14134.0	1.5597187291414528e+18
14135.0	1.559546029513113e+18
14136.0	1.559294364562227e+18
14137.0	1.5590280279359488e+18
14138.0	1.5587599146024957e+18
14139.0	1.5585054914772992e+18
14140.0	1.5582348699500541e+18
14141.0	1.557929071634022e+18
14142.0	1.557630121777561e+18
14143.0	1.557439094718464e+18
14144.0	1.5571931021443067e+18
14145.0	1.556932360719564e+18
14146.0	1.5566656231178235e+18
14147.0	1.5564108074057725e+18
14148.0	1.5561486097186813e+18
14149.0	1.5558874220199933e+18
14150.0	1.5556261454020605e+18
14151.0	1.5553606543474685e+18
14152.0	1.5550997585723392e+18
14153.0	1.5548393761800187e+18
14154.0	1.554549397100953e+18
14155.0	1.5542670415888381e+18
14156.0	1.5540482851471357e+18
14157.0	1.5537882265550843e+18
14158.0	1.5535235307405307e+18
14159.0	1.5532620729286653e+18
14160.0	1.5529781101592576e+18
14161.0	1.552683961942016e+18
14162.0	1.5523810342076413e+18
14163.0	1.552135976124416e+18
14164.0	1.5519004995092475e+18
14165.0	1.5516685326876667e+18
14166.0	1.5514255214247933e+18
14167.0	1.5511525426987005e+18
14168.0	1.5509046509436925e+18
14169.0	1.5506439816609795e+18
14170.0	1.5503824114417664e+18
14171.0	1.5501185460994043e+18
14172.0	1.5498620862201853e+18
14173.0	1.5495888558358525e+18
14174.0	1.5493309900259325e+18
14175.0	1.5490776574197757e+18
14176.0	1.5488183286366205e+18
14177.0	1.5485572785111035e+18
14178.0	1.5482956931923965e+18
14179.0	1.5480315006943232e+18
14180.0	1.54777337987072e+18
14181.0	1.5475118247510013e+18
14182.0	1.5472490281172987e+18
14183.0	1.5469857935982592e+18
14184.0	1.5467134524063741e+18
14185.0	1.5464189434789888e+18
14186.0	1.545786925619609e+18
14187.0	1.5458276204347387e+18
14188.0	1.5456478760534013e+18
14189.0	1.5454063697068032e+18
14190.0	1.5451577246547965e+18
14191.0	1.544895839023923e+18
14192.0	1.5446141009133565e+18
14193.0	1.5443202865627128e+18
14194.0	1.5441149216948221e+18
14195.0	1.543863112459878e+18
14196.0	1.5436044597985277e+18
14197.0	1.5433441864581115e+18
14198.0	1.5430776434720765e+18
14199.0	1.5428066192916477e+18
14200.0	1.5422918255181821e+18
14201.0	1.5422051527426043e+18
14202.0	1.5420326879952893e+18
14203.0	1.541779712743833e+18
14204.0	1.5415206557515773e+18
14205.0	1.5412536362926075e+18
14206.0	1.5408969929457664e+18
14207.0	1.5407310495023101e+18
14208.0	1.540479560712192e+18
14209.0	1.5401047090528253e+18
14210.0	1.5398639425814523e+18
14211.0	1.5396970394812413e+18
14212.0	1.5394508388696064e+18
14213.0	1.539193808565043e+18
14214.0	1.5389335285137403e+18
14215.0	1.538659907220275e+18
14216.0	1.538416057096601e+18
14217.0	1.5381592767725565e+18
14218.0	1.5378868483391488e+18
14219.0	1.5376378861977595e+18
14220.0	1.5373755559706621e+18
14221.0	1.5371202587525115e+18
14222.0	1.5368474410876925e+18
14223.0	1.5365896205762557e+18
14224.0	1.5363014484033533e+18
14225.0	1.5350436823302144e+18
14226.0	1.5356529972609021e+18
14227.0	1.5354599267368957e+18
14228.0	1.5321878025469957e+18
14229.0	1.5339442344558572e+18
14230.0	1.5347476248657915e+18
14231.0	1.5345169834442747e+18
14232.0	1.5342733799456765e+18
14233.0	1.5340176616194048e+18
14234.0	1.5337629935468541e+18
14235.0	1.5335034684702715e+18
14236.0	1.5332469683257341e+18
14237.0	1.5329834100064253e+18
14238.0	1.532716439201382e+18
14239.0	1.5323935532908544e+18
14240.0	1.5303250097995776e+18
14241.0	1.5318114090614781e+18
14242.0	1.5316535757242365e+18
14243.0	1.53130742317056e+18
14244.0	1.5311768746196992e+18
14245.0	1.530922355864371e+18
14246.0	1.5306676173275133e+18
14247.0	1.5304106306437115e+18
14248.0	1.530139522577203e+18
14249.0	1.529897385407283e+18
14250.0	1.5296426368040957e+18
14251.0	1.5293845260468221e+18
14252.0	1.5291225716293632e+18
14253.0	1.5288486265356285e+18
14254.0	1.5285784210833403e+18
14255.0	1.5282186101981181e+18
14256.0	1.5271657023209472e+18
14257.0	1.5273917702733821e+18
14258.0	1.5275166330257403e+18
14259.0	1.5272735009669115e+18
14260.0	1.5269934204452864e+18
14261.0	1.526730164115865e+18
14262.0	1.526410313203712e+18
14263.0	1.524910245543936e+18
14264.0	1.525181568358809e+18
14265.0	1.5256746373152763e+18
14266.0	1.5255033402621955e+18
14267.0	1.5252705480015872e+18
14268.0	1.525018529051443e+18
14269.0	1.524757478925926e+18
14270.0	1.5245047771430907e+18
14271.0	1.5242313034891264e+18
14272.0	1.523929467951513e+18
14273.0	1.5234400732053501e+18
14274.0	1.5211548653912064e+18
14275.0	1.5224783058763768e+18
14276.0	1.522847295576473e+18
14277.0	1.522684273046323e+18
14278.0	1.5224538295959555e+18
14279.0	1.5222060687032315e+18
14280.0	1.5219541755822075e+18
14281.0	1.5217076226490365e+18
14282.0	1.521454904088985e+18
14283.0	1.521200823218995e+18
14284.0	1.520945901810483e+18
14285.0	1.520689930148249e+18
14286.0	1.5204323478732797e+18
14287.0	1.520170492441395e+18
14288.0	1.5198612480851963e+18
14289.0	1.5184552200765432e+18
14290.0	1.519356218651443e+18
14291.0	1.5191495233503224e+18
14292.0	1.5188955800535037e+18
14293.0	1.5186365650042883e+18
14294.0	1.5182713837322237e+18
14295.0	1.5180698642022397e+18
14296.0	1.516949773641319e+18
14297.0	1.5174794924261373e+18
14298.0	1.5170146226143232e+18
14299.0	1.5170483800506365e+18
14300.0	1.5168446224400381e+18
14301.0	1.5166009535102973e+18
14302.0	1.5163477651881981e+18
14303.0	1.516055804719923e+18
14304.0	1.5158228312653821e+18
14305.0	1.515581001118515e+18
14306.0	1.5153174797090813e+18
14307.0	1.5150569580658685e+18
14308.0	1.514801630648729e+18
14309.0	1.5145335408033792e+18
14310.0	1.514249625010176e+18
14311.0	1.5139479975100413e+18
14312.0	1.513710819685171e+18
14313.0	1.5133197914341373e+18
14314.0	1.5132754408636413e+18
14315.0	1.5130240107937787e+18
14316.0	1.5127418868072448e+18
14317.0	1.5125179629830141e+18
14318.0	1.5122864407576573e+18
14319.0	1.5120405119369213e+18
14320.0	1.5117897563111421e+18
14321.0	1.5115273606529021e+18
14322.0	1.5112467986251776e+18
14323.0	1.5110031984820221e+18
14324.0	1.5107696126590976e+18
14325.0	1.5105077589049341e+18
14326.0	1.5102689570455547e+18
14327.0	1.5100084521795581e+18
14328.0	1.5097587568738304e+18
14329.0	1.5095148144754683e+18
14330.0	1.5092626210422781e+18
14331.0	1.509009925970329e+18
14332.0	1.5087575647649792e+18
14333.0	1.508504755607961e+18
14334.0	1.5082507150032893e+18
14335.0	1.5079739211382784e+18
14336.0	1.5076489733079037e+18
14337.0	1.5074860195643387e+18
14338.0	1.507239402877747e+18
14339.0	1.5069785976995837e+18
14340.0	1.506736895059558e+18
14341.0	1.5064824383799293e+18
14342.0	1.5062148619173885e+18
14343.0	1.5059814975537147e+18
14344.0	1.5056874198007805e+18
14345.0	1.5054545285545981e+18
14346.0	1.5052141764804603e+18
14347.0	1.504945633650278e+18
14348.0	1.504704910799667e+18
14349.0	1.5044530176786432e+18
14350.0	1.5041172653211648e+18
14351.0	1.503861000057651e+18
14352.0	1.5036838158794747e+18
14353.0	1.5034466028224507e+18
14354.0	1.5031923877347325e+18
14355.0	1.5029231218065403e+18
14356.0	1.5026587212709888e+18
14357.0	1.5024270346289147e+18
14358.0	1.5022013441638395e+18
14359.0	1.5019346166284285e+18
14360.0	1.5016892011905021e+18
14361.0	1.5014426465796093e+18
14362.0	1.5011921442897915e+18
14363.0	1.5009257321660413e+18
14364.0	1.500461197898547e+18
14365.0	1.500298853167923e+18
14366.0	1.5001267138985981e+18
14367.0	1.4999387772026875e+18
14368.0	1.499685820406169e+18
14369.0	1.4994424719212541e+18
14370.0	1.4991923336970237e+18
14371.0	1.4989451616845821e+18
14372.0	1.4986840712937472e+18
14373.0	1.4984360637759485e+18
14374.0	1.498180207876505e+18
14375.0	1.4979180940754941e+18
14376.0	1.4976858336526336e+18
14377.0	1.4974357356937213e+18
14378.0	1.4971837117104125e+18
14379.0	1.4969334292021248e+18
14380.0	1.4966823933968381e+18
14381.0	1.4964232424521725e+18
14382.0	1.4961839238545405e+18
14383.0	1.4959349382250496e+18
14384.0	1.4956661001158653e+18
14385.0	1.4954361717260285e+18
14386.0	1.4951664695902203e+18
14387.0	1.4949359657418747e+18
14388.0	1.4946834669633536e+18
14389.0	1.4944355047440381e+18
14390.0	1.4941850192314365e+18
14391.0	1.4939372298174464e+18
14392.0	1.4936847159394301e+18
14393.0	1.493436372877312e+18
14394.0	1.493143583614566e+18
14395.0	1.4929270015000573e+18
14396.0	1.4926799452504064e+18
14397.0	1.492438551311155e+18
14398.0	1.4921877520646141e+18
14399.0	1.4919271918338048e+18
14400.0	1.4916634338656253e+18
14401.0	1.4914164011040763e+18
14402.0	1.491149254138265e+18
14403.0	1.4906957257244667e+18
14404.0	1.487744546321202e+18
14405.0	1.487992634369636e+18
14406.0	1.4900710864846848e+18
14407.0	1.489737986605056e+18
14408.0	1.489649629396992e+18
14409.0	1.4894092555124736e+18
14410.0	1.4891703781556221e+18
14411.0	1.4889374768431101e+18
14412.0	1.488691855045427e+18
14413.0	1.4884487498301435e+18
14414.0	1.4881989018517501e+18
14415.0	1.4879509111111675e+18
14416.0	1.487699732699545e+18
14417.0	1.4874458330234877e+18
14418.0	1.4871939197698048e+18
14419.0	1.4869519050735613e+18
14420.0	1.4867005186244605e+18
14421.0	1.486450930692915e+18
14422.0	1.486188969564569e+18
14423.0	1.485887667542425e+18
14424.0	1.485043867530035e+18
14425.0	1.4853934040481787e+18
14426.0	1.4852065176059901e+18
14427.0	1.4849656789925888e+18
14428.0	1.484693534094131e+18
14429.0	1.4844599969251328e+18
14430.0	1.4841699507372024e+18
14431.0	1.4835345925341181e+18
14432.0	1.4836940985597947e+18
14433.0	1.483334727237632e+18
14434.0	1.4832032223854587e+18
14435.0	1.482956043662131e+18
14436.0	1.4827356078211067e+18
14437.0	1.4824938733043712e+18
14438.0	1.482202996644249e+18
14439.0	1.481979759008153e+18
14440.0	1.481756056643174e+18
14441.0	1.4814943220072448e+18
14442.0	1.481238206060953e+18
14443.0	1.4809445427052541e+18
14444.0	1.4807402079584256e+18
14445.0	1.4804794967326715e+18
14446.0	1.4792796170878976e+18
14447.0	1.4799031272210432e+18
14448.0	1.479761468797747e+18
14449.0	1.4795240997126141e+18
14450.0	1.4792727468179453e+18
14451.0	1.479029535906201e+18
14452.0	1.4787861505114107e+18
14453.0	1.4785379869655037e+18
14454.0	1.478287283349094e+18
14455.0	1.478033516213043e+18
14456.0	1.477784592659251e+18
14457.0	1.4775361388675075e+18
14458.0	1.4772876682985472e+18
14459.0	1.4770303611699197e+18
14460.0	1.476770450217369e+18
14461.0	1.476483878590873e+18
14462.0	1.476211250508595e+18
14463.0	1.476012326413926e+18
14464.0	1.4757878388752381e+18
14465.0	1.4755239601111037e+18
14466.0	1.4753169108107264e+18
14467.0	1.4750590768775165e+18
14468.0	1.4748271318663163e+18
14469.0	1.4745150672601088e+18
14470.0	1.4743077327470587e+18
14471.0	1.4740890601914365e+18
14472.0	1.47385414057984e+18
14473.0	1.4736157581508603e+18
14474.0	1.4733756862562301e+18
14475.0	1.4731295460425725e+18
14476.0	1.4728783995076605e+18
14477.0	1.472638193395302e+18
14478.0	1.4723926890381307e+18
14479.0	1.4721472585007101e+18
14480.0	1.4718834619449344e+18
14481.0	1.4716595934855163e+18
14482.0	1.4714081785151485e+18
14483.0	1.4711579077509115e+18
14484.0	1.470893225358131e+18
14485.0	1.4705975806132221e+18
14486.0	1.4701320632008701e+18
14487.0	1.4701588631257088e+18
14488.0	1.4699241565847555e+18
14489.0	1.4696523824627707e+18
14490.0	1.4694319449440253e+18
14491.0	1.4692022732455936e+18
14492.0	1.4689574768869373e+18
14493.0	1.468699557389926e+18
14494.0	1.4684403611467773e+18
14495.0	1.4682016633061373e+18
14496.0	1.467857094521651e+18
14497.0	1.4677218298953725e+18
14498.0	1.4674859875368952e+18
14499.0	1.4672453116624893e+18
14500.0	1.4670004297400315e+18
14501.0	1.466721047150592e+18
14502.0	1.4662577460084736e+18
14503.0	1.4662422119841792e+18
14504.0	1.466011953083187e+18
14505.0	1.4657709215318013e+18
14506.0	1.4654967885332475e+18
14507.0	1.465050512909926e+18
14508.0	1.465025028318822e+18
14509.0	1.4648000307527677e+18
14510.0	1.464553744577331e+18
14511.0	1.4643114815782912e+18
14512.0	1.464056291734323e+18
14513.0	1.4638103981457405e+18
14514.0	1.4635335975698432e+18
14515.0	1.4632265527066621e+18
14516.0	1.459941575491585e+18
14517.0	1.462564325792153e+18
14518.0	1.4625721003540477e+18
14519.0	1.4623068290809853e+18
14520.0	1.4621167633563645e+18
14521.0	1.4618773994602493e+18
14522.0	1.4616315931131904e+18
14523.0	1.461371165422387e+18
14524.0	1.4611331588030464e+18
14525.0	1.4608994018525181e+18
14526.0	1.4606540854001664e+18
14527.0	1.4603572662501373e+18
14528.0	1.4600341605580797e+18
14529.0	1.4599194211778557e+18
14530.0	1.4596744587247613e+18
14531.0	1.4594476777406464e+18
14532.0	1.4592008530165757e+18
14533.0	1.4589599187730432e+18
14534.0	1.4587126846849021e+18
14535.0	1.4584607697534973e+18
14536.0	1.4582247579451392e+18
14537.0	1.4579712911212541e+18
14538.0	1.457744057152307e+18
14539.0	1.457500760676761e+18
14540.0	1.4572582829293565e+18
14541.0	1.4569835576950781e+18
14542.0	1.4567688680505341e+18
14543.0	1.4565086567858173e+18
14544.0	1.4562725896126464e+18
14545.0	1.4560016157638653e+18
14546.0	1.4546192335634424e+18
14547.0	1.4543068921331707e+18
14548.0	1.4552451445161981e+18
14549.0	1.4549407068323835e+18
14550.0	1.4548029977657344e+18
14551.0	1.4545868233375741e+18
14552.0	1.4543396345479165e+18
14553.0	1.454093623518822e+18
14554.0	1.4538634266935293e+18
14555.0	1.4536195530817536e+18
14556.0	1.4533698158329856e+18
14557.0	1.453115642688307e+18
14558.0	1.4527726861942781e+18
14559.0	1.4502956074270705e+18
14560.0	1.4522785971830781e+18
14561.0	1.452137577971712e+18
14562.0	1.451882768970547e+18
14563.0	1.451669278896947e+18
14564.0	1.4513624873697277e+18
14565.0	1.4511989481013245e+18
14566.0	1.4509604465541115e+18
14567.0	1.4507156233519101e+18
14568.0	1.4504653307772925e+18
14569.0	1.4501927228276736e+18
14570.0	1.4493532983132157e+18
14571.0	1.4497198620278784e+18
14572.0	1.4494622277435392e+18
14573.0	1.4492037076221955e+18
14574.0	1.448998376308736e+18
14575.0	1.4487700350435323e+18
14576.0	1.448520799433523e+18
14577.0	1.4482965367095293e+18
14578.0	1.4480603202191357e+18
14579.0	1.4478271420825597e+18
14580.0	1.447585142485811e+18
14581.0	1.4473405021552637e+18
14582.0	1.4470935432134653e+18
14583.0	1.4468616804106237e+18
14584.0	1.446600781280051e+18
14585.0	1.4463757199605757e+18
14586.0	1.4461395118587901e+18
14587.0	1.4459012451926016e+18
14588.0	1.4456614534774781e+18
14589.0	1.445420844711936e+18
14590.0	1.4451749393793021e+18
14591.0	1.4449246350606336e+18
14592.0	1.4446652878225408e+18
14593.0	1.4443357463904253e+18
14594.0	1.444190482543411e+18
14595.0	1.443944738272051e+18
14596.0	1.4434204787933181e+18
14597.0	1.4431309392773115e+18
14598.0	1.4431873459552253e+18
14599.0	1.442998016750387e+18
14600.0	1.4427609345556475e+18
14601.0	1.442520679789363e+18
14602.0	1.4422737023926267e+18
14603.0	1.4420329090777085e+18
14604.0	1.4417399587536893e+18
14605.0	1.4414625558757376e+18
14606.0	1.4411946455465981e+18
14607.0	1.441071299454566e+18
14608.0	1.4407850835050499e+18
14609.0	1.4405026441068541e+18
14610.0	1.4402486974545915e+18
14611.0	1.4399853085851645e+18
14612.0	1.4398807412310016e+18
14613.0	1.4396460447563776e+18
14614.0	1.4393423956017147e+18
14615.0	1.4391238757187581e+18
14616.0	1.4389275890024445e+18
14617.0	1.4385421291094013e+18
14618.0	1.438305999860531e+18
14619.0	1.4378067099123707e+18
14620.0	1.4373734366314493e+18
14621.0	1.437680640878182e+18
14622.0	1.4374788780785664e+18
14623.0	1.437249436227993e+18
14624.0	1.4369685722103803e+18
14625.0	1.4367701011005437e+18
14626.0	1.436486280937472e+18
14627.0	1.436249532609331e+18
14628.0	1.436067900791193e+18
14629.0	1.435828555350016e+18
14630.0	1.4355386903560192e+18
14631.0	1.4352989858824187e+18
14632.0	1.4349540110893053e+18
14633.0	1.4348287339397115e+18
14634.0	1.4346279408631808e+18
14635.0	1.434348789799321e+18
14636.0	1.433988465531289e+18
14637.0	1.433915360490291e+18
14638.0	1.4336573017423872e+18
14639.0	1.4334123778768893e+18
14640.0	1.433179344024371e+18
14641.0	1.432752578625536e+18
14642.0	1.432700139759206e+18
14643.0	1.4324761068830715e+18
14644.0	1.432223401744793e+18
14645.0	1.4319254216114173e+18
14646.0	1.4316892302868477e+18
14647.0	1.4314966395912187e+18
