# Flux units: erg / (cm m2 s)
# Wavelength units: Angstrom
wave	flux
14000.0	1.656140927808307e+18
14001.0	1.655828574633984e+18
14002.0	1.6555592164311037e+18
14003.0	1.6552683213160448e+18
14004.0	1.654977313793638e+18
14005.0	1.654686351569715e+18
14006.0	1.654394360902451e+18
14007.0	1.6541039858810875e+18
14008.0	1.6538011789426685e+18
14009.0	1.6535229875355643e+18
14010.0	1.6532324296425472e+18
14011.0	1.6528519441940477e+18
14012.0	1.6526512937238525e+18
14013.0	1.652360957290086e+18
14014.0	1.6520705621360637e+18
14015.0	1.6517799421673467e+18
14016.0	1.651489998320435e+18
14017.0	1.651199811203891e+18
14018.0	1.6509096777744381e+18
14019.0	1.6506196164870144e+18
14020.0	1.6503295233228797e+18
14021.0	1.6500394955898877e+18
14022.0	1.64974960878551e+18
14023.0	1.6494596901044221e+18
14024.0	1.6491689543729152e+18
14025.0	1.6488805053759485e+18
14026.0	1.648590667225497e+18
14027.0	1.6483013508464635e+18
14028.0	1.6480118750838781e+18
14029.0	1.64772237583319e+18
14030.0	1.6473891971006461e+18
14031.0	1.6471430719864824e+18
14032.0	1.6468544736722941e+18
14033.0	1.6465600469532667e+18
14034.0	1.6462761496150013e+18
14035.0	1.6459871671025656e+18
14036.0	1.645698184590131e+18
14037.0	1.6454092641533947e+18
14038.0	1.6451204024369147e+18
14039.0	1.644831604473856e+18
14040.0	1.6445428652310525e+18
14041.0	1.644254193097113e+18
14042.0	1.6439640680562685e+18
14043.0	1.643671354290995e+18
14044.0	1.6433867221106688e+18
14045.0	1.6431001337069565e+18
14046.0	1.6428117719515133e+18
14047.0	1.642523312888217e+18
14048.0	1.6422351809806333e+18
14049.0	1.6419470809497597e+18
14050.0	1.6416589742079997e+18
14051.0	1.6413697601699835e+18
14052.0	1.641082938562969e+18
14053.0	1.6407950297923581e+18
14054.0	1.640507174708838e+18
14055.0	1.6402193833787387e+18
14056.0	1.6399316541243387e+18
14057.0	1.6396439869456381e+18
14058.0	1.639356380164915e+18
14059.0	1.6390688388153344e+18
14060.0	1.6387813595414523e+18
14061.0	1.6384929675870205e+18
14062.0	1.6382065788321787e+18
14063.0	1.6379172741971965e+18
14064.0	1.6376229112315904e+18
14065.0	1.6373436897034237e+18
14066.0	1.6370577908432896e+18
14067.0	1.6367707544879104e+18
14068.0	1.6364837751750656e+18
14069.0	1.636196678421708e+18
14070.0	1.6359099809660923e+18
14071.0	1.635622790260326e+18
14072.0	1.6353364686143485e+18
14073.0	1.6350498013577216e+18
14074.0	1.6347632028876795e+18
14075.0	1.6344766211948541e+18
14076.0	1.6341901720420347e+18
14077.0	1.6338943544918016e+18
14078.0	1.6336166848561152e+18
14079.0	1.6333303011344381e+18
14080.0	1.6330448737140733e+18
14081.0	1.6327587013853184e+18
14082.0	1.6324723159859197e+18
14083.0	1.632186355050086e+18
14084.0	1.6319005115547643e+18
14085.0	1.6315811740254205e+18
14086.0	1.6313279001395197e+18
14087.0	1.6310429642915837e+18
14088.0	1.6307571174408192e+18
14089.0	1.6304715541250048e+18
14090.0	1.6301857961934848e+18
14091.0	1.6299004023275515e+18
14092.0	1.6296148994097147e+18
14093.0	1.6293294803779581e+18
14094.0	1.6290441167110141e+18
14095.0	1.6287588050534397e+18
14096.0	1.6284717032669181e+18
14097.0	1.6281882891124733e+18
14098.0	1.6279023902523387e+18
14099.0	1.6276181976350715e+18
14100.0	1.6273314599141368e+18
14101.0	1.6270482789629947e+18
14102.0	1.6267633766694907e+18
14103.0	1.6264763369586685e+18
14104.0	1.6261938354847741e+18
14105.0	1.6259091127074808e+18
14106.0	1.6256244989820925e+18
14107.0	1.6253398600908797e+18
14108.0	1.6250554426589184e+18
14109.0	1.6247703507828733e+18
14110.0	1.6244862370185213e+18
14111.0	1.624201292781977e+18
14112.0	1.6239177662201853e+18
14113.0	1.623633801773056e+18
14114.0	1.623349679620096e+18
14115.0	1.6230653712400381e+18
14116.0	1.622780227354624e+18
14117.0	1.6224199198638077e+18
14118.0	1.6222136288935928e+18
14119.0	1.6219287953866744e+18
14120.0	1.6216451413180416e+18
14121.0	1.6213620912291837e+18
14122.0	1.6210769892868093e+18
14123.0	1.6207943552729088e+18
14124.0	1.6205105787305984e+18
14125.0	1.6201661089316861e+18
14126.0	1.61994468491264e+18
14127.0	1.619661425108582e+18
14128.0	1.619377948878438e+18
14129.0	1.6190933871624187e+18
14130.0	1.6188098555674621e+18
14131.0	1.6185286241288187e+18
14132.0	1.6182454633103352e+18
14133.0	1.617889923904307e+18
14134.0	1.6176795577483261e+18
14135.0	1.617395100051046e+18
14136.0	1.6171128519131133e+18
14137.0	1.616831150712422e+18
14138.0	1.616547766756966e+18
14139.0	1.6162659296608256e+18
14140.0	1.6159828879605757e+18
14141.0	1.6157005408370685e+18
14142.0	1.615412804871782e+18
14143.0	1.6151357157277693e+18
14144.0	1.6148538316554237e+18
14145.0	1.61457157177344e+18
14146.0	1.6142891541856256e+18
14147.0	1.614007105696563e+18
14148.0	1.613725072306995e+18
14149.0	1.6134431748128765e+18
14150.0	1.613161218598502e+18
14151.0	1.6128789889155072e+18
14152.0	1.6125974940745725e+18
14153.0	1.61231570731008e+18
14154.0	1.6120308570259456e+18
14155.0	1.6117475385016315e+18
14156.0	1.6114701725335547e+18
14157.0	1.6111892279853053e+18
14158.0	1.6109072247947261e+18
14159.0	1.610626343999897e+18
14160.0	1.6103442267242493e+18
14161.0	1.6100556686753787e+18
14162.0	1.6097683773063168e+18
14163.0	1.6095010323693565e+18
14164.0	1.6092179051053056e+18
14165.0	1.6089326957887485e+18
14166.0	1.6086579873316861e+18
14167.0	1.6083771954561024e+18
14168.0	1.6080960999129088e+18
14169.0	1.6078155160748032e+18
14170.0	1.6075343316123643e+18
14171.0	1.6072536404000765e+18
14172.0	1.6069734357270525e+18
14173.0	1.6066881962115072e+18
14174.0	1.6064117848670205e+18
14175.0	1.6061318905724925e+18
14176.0	1.605851504705536e+18
14177.0	1.6055711691702267e+18
14178.0	1.6052908034359293e+18
14179.0	1.6050097397694461e+18
14180.0	1.6047305199190013e+18
14181.0	1.6044504192647168e+18
14182.0	1.604170276667392e+18
14183.0	1.6038903991500797e+18
14184.0	1.603609795179315e+18
14185.0	1.603330588750643e+18
14186.0	1.603034955749785e+18
14187.0	1.602767780262707e+18
14188.0	1.602491224634163e+18
14189.0	1.6022115970973693e+18
14190.0	1.601932060157542e+18
14191.0	1.6016525383172093e+18
14192.0	1.601372130639872e+18
14193.0	1.601091627332403e+18
14194.0	1.600814288207872e+18
14195.0	1.6005352612954112e+18
14196.0	1.600256016279142e+18
14197.0	1.5999768685707261e+18
14198.0	1.5996970564845563e+18
14199.0	1.5994184758460413e+18
14200.0	1.599131026771148e+18
14201.0	1.5988605260398587e+18
14202.0	1.5985820208988157e+18
14203.0	1.5983022188789752e+18
14204.0	1.5980240677371901e+18
14205.0	1.597745389790822e+18
14206.0	1.5974510150811643e+18
14207.0	1.5971885355368448e+18
14208.0	1.596910092471501e+18
14209.0	1.596614115537715e+18
14210.0	1.5963408633430008e+18
14211.0	1.5960748320620541e+18
14212.0	1.5957965500579837e+18
14213.0	1.5955184257597435e+18
14214.0	1.5952401840209915e+18
14215.0	1.5949604423991296e+18
14216.0	1.5946842206371837e+18
14217.0	1.5944062490116093e+18
14218.0	1.5941283109404672e+18
14219.0	1.5938504533999616e+18
14220.0	1.5935726713569275e+18
14221.0	1.593294855759462e+18
14222.0	1.5930171928346621e+18
14223.0	1.592739581919232e+18
14224.0	1.5924620246908925e+18
14225.0	1.592156719625011e+18
14226.0	1.5919069689544704e+18
14227.0	1.5916284218703867e+18
14228.0	1.5912491225710592e+18
14229.0	1.5910362264109053e+18
14230.0	1.590772582527795e+18
14231.0	1.590495337355673e+18
14232.0	1.5902181374820347e+18
14233.0	1.5899409812291581e+18
14234.0	1.5896639122178043e+18
14235.0	1.5893865227616253e+18
14236.0	1.5891098815692797e+18
14237.0	1.588832767259443e+18
14238.0	1.5885560186929155e+18
14239.0	1.5882784799195133e+18
14240.0	1.5877646441250813e+18
14241.0	1.5877255498563581e+18
14242.0	1.5874490965688315e+18
14243.0	1.587151745581056e+18
14244.0	1.5868961245626365e+18
14245.0	1.586615745406566e+18
14246.0	1.5860704506544125e+18
14247.0	1.5857961649831933e+18
14248.0	1.5855172337008635e+18
14249.0	1.5852431292235776e+18
14250.0	1.5849668319641597e+18
14251.0	1.584690947424256e+18
14252.0	1.5844147575390205e+18
14253.0	1.584138559265177e+18
14254.0	1.5838622603280381e+18
14255.0	1.583581733532467e+18
14256.0	1.5832828155527165e+18
14257.0	1.5830337091272701e+18
14258.0	1.582758938594508e+18
14259.0	1.5824831765282816e+18
14260.0	1.5822066125111293e+18
14261.0	1.581932581853593e+18
14262.0	1.581679214015283e+18
14263.0	1.5813624568217597e+18
14264.0	1.581119881766502e+18
14265.0	1.5808500554792957e+18
14266.0	1.5805529444057085e+18
14267.0	1.5802775430496253e+18
14268.0	1.5800021802811387e+18
14269.0	1.5797264937123837e+18
14270.0	1.5794515973505021e+18
14271.0	1.5791763033686013e+18
14272.0	1.5789012140687357e+18
14273.0	1.5786258915655677e+18
14274.0	1.578289402688307e+18
14275.0	1.578070312380006e+18
14276.0	1.577800670642176e+18
14277.0	1.5775256954273792e+18
14278.0	1.577251426533376e+18
14279.0	1.5769765234606077e+18
14280.0	1.5767009761427453e+18
14281.0	1.576427289418137e+18
14282.0	1.576152728600576e+18
14283.0	1.5758781812047872e+18
14284.0	1.5756036824629248e+18
14285.0	1.575329213920051e+18
14286.0	1.5750547302776832e+18
14287.0	1.574780489904947e+18
14288.0	1.574500548634214e+18
14289.0	1.574055640353996e+18
14290.0	1.5739333596151803e+18
14291.0	1.573659223261184e+18
14292.0	1.5733852043476987e+18
14293.0	1.5731107509043195e+18
14294.0	1.5728182904750077e+18
14295.0	1.5725629009821693e+18
14296.0	1.5721663379275779e+18
14297.0	1.5720148413448187e+18
14298.0	1.5717171363577853e+18
14299.0	1.5714671004745725e+18
14300.0	1.5711938516353021e+18
14301.0	1.5709201363894272e+18
14302.0	1.5706460839215101e+18
14303.0	1.570368342143795e+18
14304.0	1.5700974035271677e+18
14305.0	1.5698256461823995e+18
14306.0	1.5695508152516605e+18
14307.0	1.569278229112422e+18
14308.0	1.5690056396177405e+18
14309.0	1.568732075366809e+18
14310.0	1.568451855594291e+18
14311.0	1.568176380418457e+18
14312.0	1.5679089532731387e+18
14313.0	1.5676185295978493e+18
14314.0	1.5673430359670781e+18
14315.0	1.5670700538855421e+18
14316.0	1.5667900740272123e+18
14317.0	1.5665231803973632e+18
14318.0	1.5662513408442363e+18
14319.0	1.5659785802219515e+18
14320.0	1.565705735713587e+18
14321.0	1.5654330690437112e+18
14322.0	1.5651549313236992e+18
14323.0	1.5648852912635904e+18
14324.0	1.5646151831191544e+18
14325.0	1.5643426674442237e+18
14326.0	1.564070178612838e+18
14327.0	1.563797746823987e+18
14328.0	1.5635244476530685e+18
14329.0	1.563253069473382e+18
14330.0	1.5629807987458043e+18
14331.0	1.5627085296959485e+18
14332.0	1.5624363982192637e+18
14333.0	1.5621642851975163e+18
14334.0	1.5618922141188096e+18
14335.0	1.5616182639919104e+18
14336.0	1.5613454329053181e+18
14337.0	1.5610762206642173e+18
14338.0	1.560804146230067e+18
14339.0	1.560532321776435e+18
14340.0	1.5602608077012992e+18
14341.0	1.559984461787955e+18
14342.0	1.5596939793924093e+18
14343.0	1.5594220408537085e+18
14344.0	1.5591504428924923e+18
14345.0	1.558878967404953e+18
14346.0	1.558606996989542e+18
14347.0	1.558333676008243e+18
14348.0	1.5580643295494141e+18
14349.0	1.5577929580806141e+18
14350.0	1.5575194122846203e+18
14351.0	1.557247958607462e+18
14352.0	1.5569789846028285e+18
14353.0	1.5567077557403643e+18
14354.0	1.5564361108029437e+18
14355.0	1.5561645883392e+18
14356.0	1.5558937285754875e+18
14357.0	1.5556232848867325e+18
14358.0	1.5553522925830141e+18
14359.0	1.5550812667248637e+18
14360.0	1.5548102073122816e+18
14361.0	1.5545395253870587e+18
14362.0	1.5542687948079101e+18
14363.0	1.5539979937644544e+18
14364.0	1.5537204851900416e+18
14365.0	1.553455437053952e+18
14366.0	1.553184768550502e+18
14367.0	1.5529155344990205e+18
14368.0	1.552644929748992e+18
14369.0	1.5523745397473277e+18
14370.0	1.5521041195466747e+18
14371.0	1.5518337563885563e+18
14372.0	1.5515634116853757e+18
14373.0	1.5512905755656187e+18
14374.0	1.5509998566113277e+18
14375.0	1.550729579017011e+18
14376.0	1.550411170945433e+18
14377.0	1.5501192020885501e+18
14378.0	1.549848731556249e+18
14379.0	1.549578977411072e+18
14380.0	1.5493088407453693e+18
14381.0	1.549038408800665e+18
14382.0	1.548768599290675e+18
14383.0	1.5484983485399037e+18
14384.0	1.5482288913514493e+18
14385.0	1.547959101974118e+18
14386.0	1.5476892807200765e+18
14387.0	1.5474194628214781e+18
14388.0	1.5471494939279352e+18
14389.0	1.5468800468058107e+18
14390.0	1.546610124888473e+18
14391.0	1.5463408354721792e+18
14392.0	1.5460710930710528e+18
14393.0	1.545801796943872e+18
14394.0	1.545527355244544e+18
14395.0	1.5452614833471488e+18
14396.0	1.5449935075868667e+18
14397.0	1.5447241779052544e+18
14398.0	1.5444548264132603e+18
14399.0	1.5441856225607677e+18
14400.0	1.5439135816810493e+18
14401.0	1.5436463608954877e+18
14402.0	1.5433778734301184e+18
14403.0	1.542994336206028e+18
14404.0	1.5422442101014523e+18
14405.0	1.5423189895086072e+18
14406.0	1.5423017475637248e+18
14407.0	1.5418675699908605e+18
14408.0	1.5417633549582333e+18
14409.0	1.5414925925023741e+18
14410.0	1.5412182514663421e+18
14411.0	1.5409351476903933e+18
14412.0	1.540665989136384e+18
14413.0	1.5403978372153341e+18
14414.0	1.540128834689433e+18
14415.0	1.5398603656790013e+18
14416.0	1.5395919470002173e+18
14417.0	1.539323186066227e+18
14418.0	1.5390534134661115e+18
14419.0	1.538786155770675e+18
14420.0	1.538517191832371e+18
14421.0	1.5382494543085565e+18
14422.0	1.537981070861926e+18
14423.0	1.5377113418825725e+18
14424.0	1.536763291605401e+18
14425.0	1.537175068239462e+18
14426.0	1.5369082266189821e+18
14427.0	1.5366402206597115e+18
14428.0	1.5363692132564992e+18
14429.0	1.5361035057758203e+18
14430.0	1.5358361105072123e+18
14431.0	1.5355558538248192e+18
14432.0	1.5352996657364992e+18
14433.0	1.5349067248828416e+18
14434.0	1.5347625012232192e+18
14435.0	1.5344939198054397e+18
14436.0	1.5342290058870781e+18
14437.0	1.533961313661747e+18
14438.0	1.5336896519471104e+18
14439.0	1.533425102094336e+18
14440.0	1.5331582856396797e+18
14441.0	1.5328892361375744e+18
14442.0	1.532620624520806e+18
14443.0	1.5323471575777275e+18
14444.0	1.5320874278191101e+18
14445.0	1.5318205727768576e+18
14446.0	1.5313197728792576e+18
14447.0	1.5312842001481725e+18
14448.0	1.5310184742125563e+18
14449.0	1.530751177929523e+18
14450.0	1.5304838514475003e+18
14451.0	1.5302078444339197e+18
14452.0	1.5299268143218685e+18
14453.0	1.5296576910000125e+18
14454.0	1.5293923962388477e+18
14455.0	1.5291243953127427e+18
14456.0	1.5288576510001155e+18
14457.0	1.5285903144517632e+18
14458.0	1.5283236724801533e+18
14459.0	1.5280563678085115e+18
14460.0	1.5277893416386557e+18
14461.0	1.527519278792704e+18
14462.0	1.5272467312410621e+18
14463.0	1.5269878420209664e+18
14464.0	1.5267218644271096e+18
14465.0	1.5264512361889792e+18
14466.0	1.5261884328443901e+18
14467.0	1.5259190612197373e+18
14468.0	1.5256546992717821e+18
14469.0	1.5253845173075965e+18
14470.0	1.525116967688601e+18
14471.0	1.5248532013318141e+18
14472.0	1.5245882991575037e+18
14473.0	1.524321804825395e+18
14474.0	1.5240553021046781e+18
14475.0	1.5237886316118013e+18
14476.0	1.5235142704431101e+18
14477.0	1.5232558123974656e+18
14478.0	1.5229894673825787e+18
14479.0	1.5227230636474365e+18
14480.0	1.5224553479340032e+18
14481.0	1.5221905044799485e+18
14482.0	1.5217928475508736e+18
14483.0	1.5213209111756797e+18
14484.0	1.5210548379516925e+18
14485.0	1.5207845435801597e+18
14486.0	1.5204798743707643e+18
14487.0	1.5202577792630781e+18
14488.0	1.5199917026836477e+18
14489.0	1.5197244735094781e+18
14490.0	1.519459062985523e+18
14491.0	1.5191932128985088e+18
14492.0	1.518927418176307e+18
14493.0	1.5186613533409275e+18
14494.0	1.5183924900659197e+18
14495.0	1.5181293947977723e+18
14496.0	1.5178437660508157e+18
14497.0	1.5175974362546173e+18
14498.0	1.5173317237407741e+18
14499.0	1.5170658669428736e+18
14500.0	1.516799961491046e+18
14501.0	1.516511170238873e+18
14502.0	1.5162105057509376e+18
14503.0	1.515978134598451e+18
14504.0	1.5157135226699773e+18
14505.0	1.5154453522939904e+18
14506.0	1.5151758867169277e+18
14507.0	1.5148806966345725e+18
14508.0	1.5146512782721027e+18
14509.0	1.5143856127344637e+18
14510.0	1.5141199203532797e+18
14511.0	1.5138542497824765e+18
14512.0	1.5135863495196672e+18
14513.0	1.5133229388398584e+18
14514.0	1.5130525136060413e+18
14515.0	1.5127914970349563e+18
14516.0	1.5121288037138435e+18
14517.0	1.5122600434860024e+18
14518.0	1.5119951329230843e+18
14519.0	1.5117297106550781e+18
14520.0	1.5114642682544125e+18
14521.0	1.511198832564633e+18
14522.0	1.5109333834530813e+18
14523.0	1.5106599131545597e+18
14524.0	1.510395328069632e+18
14525.0	1.5101372995207163e+18
14526.0	1.5098727949664253e+18
14527.0	1.5096042487807995e+18
14528.0	1.5093210057539584e+18
14529.0	1.5090752346390525e+18
14530.0	1.5088093275095037e+18
14531.0	1.5085460980236285e+18
14532.0	1.5082701631520765e+18
14533.0	1.5080157047947264e+18
14534.0	1.50775061807104e+18
14535.0	1.5074852411015165e+18
14536.0	1.5072200235155453e+18
14537.0	1.5069530309001216e+18
14538.0	1.5066895648555003e+18
14539.0	1.5064243304923136e+18
14540.0	1.5061590961291267e+18
14541.0	1.5058931789332477e+18
14542.0	1.505628664312627e+18
14543.0	1.5053588548026363e+18
14544.0	1.5050981553209344e+18
14545.0	1.5048326592331773e+18
14546.0	1.503570432098303e+18
14547.0	1.5033923771826166e+18
14548.0	1.5040357901271035e+18
14549.0	1.503755211322163e+18
14550.0	1.503507202126643e+18
14551.0	1.5032422009667581e+18
14552.0	1.5029768793620475e+18
14553.0	1.502710465560576e+18
14554.0	1.5024468367769597e+18
14555.0	1.5021816577785853e+18
14556.0	1.5019163311407096e+18
14557.0	1.5016381045014525e+18
14558.0	1.5013641963175936e+18
14559.0	1.5008067917709304e+18
14560.0	1.5008335078096893e+18
14561.0	1.5005677130874877e+18
14562.0	1.500300198700646e+18
14563.0	1.5000383835340797e+18
14564.0	1.4997722364903421e+18
14565.0	1.4995080876130301e+18
14566.0	1.4992428951928832e+18
14567.0	1.4989776541188093e+18
14568.0	1.4987119466381312e+18
14569.0	1.4984471971364864e+18
14570.0	1.4981015059562493e+18
14571.0	1.497916362666803e+18
14572.0	1.4976459441438715e+18
14573.0	1.497381298660966e+18
14574.0	1.4971189550120957e+18
14575.0	1.4968558563885053e+18
14576.0	1.4965905901486075e+18
14577.0	1.4963256443535357e+18
14578.0	1.4960600845123581e+18
14579.0	1.4957952242810877e+18
14580.0	1.4955300318609405e+18
14581.0	1.4952643092807675e+18
14582.0	1.4949994305945597e+18
14583.0	1.494734132477952e+18
14584.0	1.4944670073225213e+18
14585.0	1.4942033030414336e+18
14586.0	1.4939373657128957e+18
14587.0	1.4936722387238912e+18
14588.0	1.4934073784926205e+18
14589.0	1.493145798207078e+18
14590.0	1.4928847799582715e+18
14591.0	1.4926236056813565e+18
14592.0	1.4923624129495037e+18
14593.0	1.4920841208791037e+18
14594.0	1.4918403663855613e+18
14595.0	1.4915783482146813e+18
14596.0	1.491310837183283e+18
14597.0	1.4910485908422653e+18
14598.0	1.4907946022469624e+18
14599.0	1.490534223210086e+18
14600.0	1.4902727821754365e+18
14601.0	1.490011532401049e+18
14602.0	1.4897496350261248e+18
14603.0	1.4894887325401088e+18
14604.0	1.4892208809312253e+18
14605.0	1.4889643405213693e+18
14606.0	1.4886928767778813e+18
14607.0	1.488441371210547e+18
14608.0	1.488181305907609e+18
14609.0	1.4879191015096315e+18
14610.0	1.487655556612096e+18
14611.0	1.487395642304102e+18
14612.0	1.4871346794201085e+18
14613.0	1.4868729749831677e+18
14614.0	1.4866105474482173e+18
14615.0	1.4863492204986365e+18
14616.0	1.4860873533227003e+18
14617.0	1.4858253301186557e+18
14618.0	1.485563318658662e+18
14619.0	1.4852968998240256e+18
14620.0	1.4850223390064635e+18
14621.0	1.4847770896629757e+18
14622.0	1.4845012722319352e+18
14623.0	1.4841147201421307e+18
14624.0	1.4835278296383485e+18
14625.0	1.483274045725081e+18
14626.0	1.4830114286075896e+18
14627.0	1.4827484239364099e+18
14628.0	1.4824866020589565e+18
14629.0	1.4822240050741245e+18
14630.0	1.4819611614642176e+18
14631.0	1.4816984923373565e+18
14632.0	1.4813791984287741e+18
14633.0	1.4811659600134141e+18
14634.0	1.4809091612344315e+18
14635.0	1.4806397778657275e+18
14636.0	1.4803658529046525e+18
14637.0	1.480119838520115e+18
14638.0	1.4798560855851005e+18
14639.0	1.4795912203206653e+18
14640.0	1.479328767619891e+18
14641.0	1.4788491976114176e+18
14642.0	1.478801273493913e+18
14643.0	1.478538382907801e+18
14644.0	1.47827455950848e+18
14645.0	1.4780074645520381e+18
14646.0	1.477746030228275e+18
14647.0	1.4774816833798141e+18
