# Flux units: erg / (cm m2 s)
# Wavelength units: Angstrom
wave	flux
14000.0	1.846345030906675e+18
14001.0	1.8459072143556608e+18
14002.0	1.8457115265859581e+18
14003.0	1.8453762104360955e+18
14004.0	1.84504030372823e+18
14005.0	1.8447040748978176e+18
14006.0	1.844359606776627e+18
14007.0	1.844021492187136e+18
14008.0	1.8435990972530688e+18
14009.0	1.8433495630086141e+18
14010.0	1.8430035882934272e+18
14011.0	1.8419962154582016e+18
14012.0	1.8423417153781752e+18
14013.0	1.8420172943523837e+18
14014.0	1.841676866184806e+18
14015.0	1.8413460060635136e+18
14016.0	1.8410130689228797e+18
14017.0	1.840678333264691e+18
14018.0	1.8403433442705403e+18
14019.0	1.840008425740697e+18
14020.0	1.8396727589470203e+18
14021.0	1.839337283413606e+18
14022.0	1.8390032775643133e+18
14023.0	1.83865757967319e+18
14024.0	1.8383216276668413e+18
14025.0	1.8379998859624443e+18
14026.0	1.837663915501158e+18
14027.0	1.8373311025119227e+18
14028.0	1.8369899378245627e+18
14029.0	1.8366575006449661e+18
14030.0	1.836125555523584e+18
14031.0	1.8359587245654013e+18
14032.0	1.835658601981542e+18
14033.0	1.8352828963618813e+18
14034.0	1.8349926119374843e+18
14035.0	1.834659441593548e+18
14036.0	1.8343259457716221e+18
14037.0	1.8339924348502013e+18
14038.0	1.8336589641940987e+18
14039.0	1.8333209620119547e+18
14040.0	1.8329885885857787e+18
14041.0	1.8326573375553533e+18
14042.0	1.832314454881075e+18
14043.0	1.831949827257139e+18
14044.0	1.8316459096670205e+18
14045.0	1.8313222184501245e+18
14046.0	1.8309886169317376e+18
14047.0	1.8306534467436541e+18
14048.0	1.8303274486595581e+18
14049.0	1.8299955013746685e+18
14050.0	1.829662857835315e+18
14051.0	1.829321676370739e+18
14052.0	1.8289929083682813e+18
14053.0	1.8286655144198141e+18
14054.0	1.8283333825855485e+18
14055.0	1.8280011802869755e+18
14056.0	1.8276690165759997e+18
14057.0	1.8273369921159163e+18
14058.0	1.8270049944993795e+18
14059.0	1.826673065669427e+18
14060.0	1.8263411401949181e+18
14061.0	1.8260019417972733e+18
14062.0	1.825677148317286e+18
14063.0	1.8253298683346941e+18
14064.0	1.82497274012631e+18
14065.0	1.8246735604219904e+18
14066.0	1.8243516341682176e+18
14067.0	1.8240204569575421e+18
14068.0	1.8236891757281277e+18
14069.0	1.823357181467033e+18
14070.0	1.8230268162736123e+18
14071.0	1.8226927517040635e+18
14072.0	1.822364965168742e+18
14073.0	1.822034131890995e+18
14074.0	1.8217033892102136e+18
14075.0	1.821353634588262e+18
14076.0	1.8210414558969853e+18
14077.0	1.820666439820902e+18
14078.0	1.8203761100980221e+18
14079.0	1.8200398460354555e+18
14080.0	1.819719899493171e+18
14081.0	1.8193897356263421e+18
14082.0	1.8190585500270587e+18
14083.0	1.8187271010254843e+18
14084.0	1.81839473934336e+18
14085.0	1.8178121119301627e+18
14086.0	1.817726101854617e+18
14087.0	1.8174084135256061e+18
14088.0	1.8170676330364925e+18
14089.0	1.8167503423275005e+18
14090.0	1.8164204854837245e+18
14091.0	1.816091489311129e+18
14092.0	1.8157621492056061e+18
14093.0	1.8154327889674237e+18
14094.0	1.815103422018355e+18
14095.0	1.814773808444211e+18
14096.0	1.814436559559065e+18
14097.0	1.8140980439941115e+18
14098.0	1.8137835248812027e+18
14099.0	1.8134575234416637e+18
14100.0	1.813115842016051e+18
14101.0	1.8128005058527227e+18
14102.0	1.8124715566563328e+18
14103.0	1.8121262396080125e+18
14104.0	1.8118114520596475e+18
14105.0	1.8114862173388797e+18
14106.0	1.8111578050134013e+18
14107.0	1.8108292383375355e+18
14108.0	1.8104884813365243e+18
14109.0	1.8101681489182717e+18
14110.0	1.8098430786142205e+18
14111.0	1.8095084620742653e+18
14112.0	1.8091793501388797e+18
14113.0	1.808860427006771e+18
14114.0	1.8085179486633981e+18
14115.0	1.8082019514777597e+18
14116.0	1.8078578641993725e+18
14117.0	1.807180380084633e+18
14118.0	1.807215922616729e+18
14119.0	1.8068827522727933e+18
14120.0	1.8065624198545403e+18
14121.0	1.8062274442821632e+18
14122.0	1.8059070615322621e+18
14123.0	1.8055797917351933e+18
14124.0	1.8052409708249088e+18
14125.0	1.8044391205634043e+18
14126.0	1.8045943148445693e+18
14127.0	1.8042758564413437e+18
14128.0	1.8039489540653053e+18
14129.0	1.8036110257029117e+18
14130.0	1.803273295311667e+18
14131.0	1.8029689499025403e+18
14132.0	1.8026245941886976e+18
14133.0	1.8017416311209974e+18
14134.0	1.8019772822192123e+18
14135.0	1.801650381520896e+18
14136.0	1.801336612349542e+18
14137.0	1.8010118809452544e+18
14138.0	1.8006846061150208e+18
14139.0	1.8003607706140664e+18
14140.0	1.8000334689402875e+18
14141.0	1.7997031305904123e+18
14142.0	1.7993641804955648e+18
14143.0	1.7990562279849981e+18
14144.0	1.798733036729139e+18
14145.0	1.7984057434439677e+18
14146.0	1.7980808157462523e+18
14147.0	1.7977563561328637e+18
14148.0	1.797431601240473e+18
14149.0	1.7971068060827648e+18
14150.0	1.7967815344521208e+18
14151.0	1.7964539744092155e+18
14152.0	1.79612943426519e+18
14153.0	1.7958065231888381e+18
14154.0	1.7954536194834432e+18
14155.0	1.7951503511715835e+18
14156.0	1.794831233423769e+18
14157.0	1.7945071059992576e+18
14158.0	1.794178559456051e+18
14159.0	1.7938576046030843e+18
14160.0	1.793519473236377e+18
14161.0	1.7931483108868093e+18
14162.0	1.7927725985562621e+18
14163.0	1.7925544427388928e+18
14164.0	1.7922151503888381e+18
14165.0	1.7918874695499776e+18
14166.0	1.7915860366655485e+18
14167.0	1.7912487038943227e+18
14168.0	1.7909376358547453e+18
14169.0	1.7906172984033277e+18
14170.0	1.7902905772212221e+18
14171.0	1.7899665907253243e+18
14172.0	1.789645951284019e+18
14173.0	1.78929917797335e+18
14174.0	1.7889918294425597e+18
14175.0	1.7886759698300925e+18
14176.0	1.788352948024115e+18
14177.0	1.788029822199398e+18
14178.0	1.7877061595037693e+18
14179.0	1.7873787554889728e+18
14180.0	1.7870606225637379e+18
14181.0	1.7867377148428288e+18
14182.0	1.7864140001378296e+18
14183.0	1.7860918624911352e+18
14184.0	1.7857636649140221e+18
14185.0	1.7854446293745661e+18
14186.0	1.7850392767365115e+18
14187.0	1.7847695578234877e+18
14188.0	1.7844741714477053e+18
14189.0	1.7841559831576579e+18
14190.0	1.7838336190185464e+18
14191.0	1.7835110753632253e+18
14192.0	1.7831808729088e+18
14193.0	1.7828577319845885e+18
14194.0	1.7825445936365565e+18
14195.0	1.7822242058534907e+18
14196.0	1.7819021739032576e+18
14197.0	1.7815803416018941e+18
14198.0	1.7812532077002747e+18
14199.0	1.7809317612748797e+18
14200.0	1.7805759718883323e+18
14201.0	1.7802889154002941e+18
14202.0	1.7799701130641403e+18
14203.0	1.7796451786555387e+18
14204.0	1.7793262353907707e+18
14205.0	1.7790032555278333e+18
14206.0	1.7785535657410555e+18
14207.0	1.778360664666931e+18
14208.0	1.7780426374381565e+18
14209.0	1.7775811868229632e+18
14210.0	1.7772954322468861e+18
14211.0	1.7770727751024635e+18
14212.0	1.7767607541170176e+18
14213.0	1.7764415843598333e+18
14214.0	1.7761198829207547e+18
14215.0	1.7757866102358013e+18
14216.0	1.7754805082521597e+18
14217.0	1.7751602781749243e+18
14218.0	1.774826681689702e+18
14219.0	1.7745196485705725e+18
14220.0	1.7741996198199296e+18
14221.0	1.773879050842931e+18
14222.0	1.7735503465938941e+18
14223.0	1.773239047028736e+18
14224.0	1.7729184260423675e+18
14225.0	1.7724712192835581e+18
14226.0	1.772274274900377e+18
14227.0	1.7719584924631037e+18
14228.0	1.7712959149047805e+18
14229.0	1.7712506935967741e+18
14230.0	1.771000818774835e+18
14231.0	1.7706822630637563e+18
14232.0	1.7703555704029181e+18
14233.0	1.770001829514445e+18
14234.0	1.7696845555826688e+18
14235.0	1.7693625135661053e+18
14236.0	1.769045679197388e+18
14237.0	1.7687243820892152e+18
14238.0	1.768403997661593e+18
14239.0	1.7680662454599675e+18
14240.0	1.7659495496810496e+18
14241.0	1.7674178010284027e+18
14242.0	1.767118938413465e+18
14243.0	1.7666491897872381e+18
14244.0	1.7664919604297725e+18
14245.0	1.7661663448662016e+18
14246.0	1.765848451855155e+18
14247.0	1.7655343504949243e+18
14248.0	1.7652028276735997e+18
14249.0	1.7648982624829437e+18
14250.0	1.7645786028310525e+18
14251.0	1.7642265765740544e+18
14252.0	1.7639082423222264e+18
14253.0	1.7635888930488315e+18
14254.0	1.7632686210285563e+18
14255.0	1.7629137426448381e+18
14256.0	1.762505801282355e+18
14257.0	1.76228794409943e+18
14258.0	1.761998792137113e+18
14259.0	1.761660078601011e+18
14260.0	1.7613550268710907e+18
14261.0	1.7610236852436987e+18
14262.0	1.7607497820930043e+18
14263.0	1.7602430631936e+18
14264.0	1.7600431593095165e+18
14265.0	1.7597935009136635e+18
14266.0	1.7594843085668352e+18
14267.0	1.7591679087280125e+18
14268.0	1.758850983762329e+18
14269.0	1.7585238515384317e+18
14270.0	1.7582071245438976e+18
14271.0	1.7578576517791736e+18
14272.0	1.7575394450341885e+18
14273.0	1.7572135224475648e+18
14274.0	1.7565914165673984e+18
14275.0	1.7565421922156541e+18
14276.0	1.7562575399026685e+18
14277.0	1.7559474197757947e+18
14278.0	1.7556398514634752e+18
14279.0	1.7553221631344637e+18
14280.0	1.7550006160457725e+18
14281.0	1.7546914975186941e+18
14282.0	1.754375590930022e+18
14283.0	1.7540592951099387e+18
14284.0	1.7537429690908664e+18
14285.0	1.7534264887214077e+18
14286.0	1.7531096241537021e+18
14287.0	1.7527920901750784e+18
14288.0	1.75246303863767e+18
14289.0	1.7509931011801065e+18
14290.0	1.75183217337303e+18
14291.0	1.7515273078702075e+18
14292.0	1.751211215054438e+18
14293.0	1.7508801687060475e+18
14294.0	1.750394765259571e+18
14295.0	1.7501963562254333e+18
14296.0	1.7489783219552264e+18
14297.0	1.7495609778896893e+18
14298.0	1.74910315954176e+18
14299.0	1.748942569707929e+18
14300.0	1.7486393383059453e+18
14301.0	1.748329078928179e+18
14302.0	1.7480159741345787e+18
14303.0	1.7476631694147584e+18
14304.0	1.74736897254359e+18
14305.0	1.7470716853092347e+18
14306.0	1.7467530826219515e+18
14307.0	1.7464383370166264e+18
14308.0	1.746127084427673e+18
14309.0	1.7458095856812027e+18
14310.0	1.7454715465891837e+18
14311.0	1.7451581716824061e+18
14312.0	1.7448386982576123e+18
14313.0	1.744416754630656e+18
14314.0	1.744238592340787e+18
14315.0	1.743923266243788e+18
14316.0	1.7435578668679165e+18
14317.0	1.7432937129574397e+18
14318.0	1.7429816584175616e+18
14319.0	1.742629313393459e+18
14320.0	1.7423147842142203e+18
14321.0	1.741997386131046e+18
14322.0	1.7416468077477885e+18
14323.0	1.7413490272632824e+18
14324.0	1.7410592662880253e+18
14325.0	1.7407351338303485e+18
14326.0	1.740432395678515e+18
14327.0	1.7401110213951485e+18
14328.0	1.7397978713030653e+18
14329.0	1.7394915596042237e+18
14330.0	1.7391781242994685e+18
14331.0	1.7388643651944443e+18
14332.0	1.7385512234909693e+18
14333.0	1.7382379106598912e+18
14334.0	1.7379245508526077e+18
14335.0	1.7375980746178557e+18
14336.0	1.7372845369720832e+18
14337.0	1.736981506896691e+18
14338.0	1.7366688047562747e+18
14339.0	1.7363462409682944e+18
14340.0	1.7360458818256893e+18
14341.0	1.7357327468331005e+18
14342.0	1.7354176270958587e+18
14343.0	1.7351061111046144e+18
14344.0	1.7347903437668347e+18
14345.0	1.73448235099095e+18
14346.0	1.734155550955929e+18
14347.0	1.7338042696073213e+18
14348.0	1.7335014710575096e+18
14349.0	1.7331897671614467e+18
14350.0	1.7328665624838144e+18
14351.0	1.7325477651808253e+18
14352.0	1.732241183368806e+18
14353.0	1.7319383663640568e+18
14354.0	1.731626172573286e+18
14355.0	1.7313124369563643e+18
14356.0	1.7310011290025984e+18
14357.0	1.730692423195033e+18
14358.0	1.7303805632708603e+18
14359.0	1.7300515150888957e+18
14360.0	1.7297555448659965e+18
14361.0	1.729444485215027e+18
14362.0	1.72913314538455e+18
14363.0	1.7288207720775677e+18
14364.0	1.728477773640499e+18
14365.0	1.7281870462975997e+18
14366.0	1.727878447864217e+18
14367.0	1.7275754479878136e+18
14368.0	1.727263670272e+18
14369.0	1.7269529629425661e+18
14370.0	1.7266417506189312e+18
14371.0	1.7263306087596032e+18
14372.0	1.7260133163728893e+18
14373.0	1.7257080532500475e+18
14374.0	1.7253969181016061e+18
14375.0	1.7250835733938176e+18
14376.0	1.7247754665328635e+18
14377.0	1.724463856589209e+18
14378.0	1.7241418313498621e+18
14379.0	1.723795482502758e+18
14380.0	1.7234837165309947e+18
14381.0	1.7231603524698107e+18
14382.0	1.722861293561446e+18
14383.0	1.722550416782131e+18
14384.0	1.7222211169419261e+18
14385.0	1.7219313777770493e+18
14386.0	1.7216003431727096e+18
14387.0	1.7213098876207104e+18
14388.0	1.720995719151616e+18
14389.0	1.7206886642221053e+18
14390.0	1.720370469221171e+18
14391.0	1.7200619714510843e+18
14392.0	1.719750992330752e+18
14393.0	1.719441766429491e+18
14394.0	1.7190873510969336e+18
14395.0	1.7188099113091067e+18
14396.0	1.718511367461273e+18
14397.0	1.7182012221685752e+18
14398.0	1.7178907748859904e+18
14399.0	1.71758031250391e+18
14400.0	1.7172482360344576e+18
14401.0	1.71694944723927e+18
14402.0	1.7166346496245757e+18
14403.0	1.7158943499354104e+18
14404.0	1.7126101243396076e+18
14405.0	1.7137215209471954e+18
14406.0	1.7153812271726587e+18
14407.0	1.714535501135872e+18
14408.0	1.7147684628463613e+18
14409.0	1.7144596211433472e+18
14410.0	1.714172467347456e+18
14411.0	1.7138663234207736e+18
14412.0	1.713554916481433e+18
14413.0	1.7132506365034493e+18
14414.0	1.712939175877017e+18
14415.0	1.712612273500979e+18
14416.0	1.7122771100237821e+18
14417.0	1.71196679192576e+18
14418.0	1.7116540461645821e+18
14419.0	1.7113473754333181e+18
14420.0	1.7110337522237435e+18
14421.0	1.7107290209386496e+18
14422.0	1.7104111732260861e+18
14423.0	1.710066946696806e+18
14424.0	1.7075510605512696e+18
14425.0	1.7094448877928448e+18
14426.0	1.709181800913305e+18
14427.0	1.7088773850398715e+18
14428.0	1.7085442985820157e+18
14429.0	1.7082601630072824e+18
14430.0	1.7079541767864315e+18
14431.0	1.7075888277422077e+18
14432.0	1.7073290627514368e+18
14433.0	1.7065944069177336e+18
14434.0	1.7066977830895613e+18
14435.0	1.7063982661631997e+18
14436.0	1.706107209986867e+18
14437.0	1.7057999436644347e+18
14438.0	1.7054794032087035e+18
14439.0	1.7051772539371515e+18
14440.0	1.704875800920064e+18
14441.0	1.7045578928095232e+18
14442.0	1.7042420801732605e+18
14443.0	1.703888112792371e+18
14444.0	1.7036355116728312e+18
14445.0	1.703326898139955e+18
14446.0	1.7017649158422536e+18
14447.0	1.7026764723191805e+18
14448.0	1.7024127311282176e+18
14449.0	1.7021085031596032e+18
14450.0	1.7017950292672507e+18
14451.0	1.7014906184269821e+18
14452.0	1.7011865968181243e+18
14453.0	1.7008754432147453e+18
14454.0	1.7005730825502715e+18
14455.0	1.700256377366118e+18
14456.0	1.6999393483816957e+18
14457.0	1.69960637768663e+18
14458.0	1.699301983623577e+18
14459.0	1.698992992603341e+18
14460.0	1.6986847381028861e+18
14461.0	1.6983581242949632e+18
14462.0	1.6980560723312635e+18
14463.0	1.6977597145546747e+18
14464.0	1.6974589527588856e+18
14465.0	1.6971256867848187e+18
14466.0	1.6968446113742848e+18
14467.0	1.6965163181670395e+18
14468.0	1.6962294915268603e+18
14469.0	1.695902644515635e+18
14470.0	1.6955870986371067e+18
14471.0	1.6953044277133307e+18
14472.0	1.6950033337286653e+18
14473.0	1.6947019947966461e+18
14474.0	1.6943989110341632e+18
14475.0	1.6940904837283837e+18
14476.0	1.6937607124484093e+18
14477.0	1.6934805631401981e+18
14478.0	1.6931716073521147e+18
14479.0	1.6928659147325435e+18
14480.0	1.692541382977126e+18
14481.0	1.6922568732704765e+18
14482.0	1.69194535560151e+18
14483.0	1.6916328732426237e+18
14484.0	1.691319788581683e+18
14485.0	1.6909793587363837e+18
14486.0	1.690378960896e+18
14487.0	1.6904155083833341e+18
14488.0	1.690113649357619e+18
14489.0	1.6898052472176635e+18
14490.0	1.6895019721949181e+18
14491.0	1.6891977341599741e+18
14492.0	1.688894381962035e+18
14493.0	1.688580743652966e+18
14494.0	1.688257535619891e+18
14495.0	1.6879705143640061e+18
14496.0	1.6875182090092541e+18
14497.0	1.6873630096949243e+18
14498.0	1.6870617965920253e+18
14499.0	1.686756818681856e+18
14500.0	1.6864506563002363e+18
14501.0	1.6861210678919165e+18
14502.0	1.6855837574168579e+18
14503.0	1.685514675552256e+18
14504.0	1.6852202538663933e+18
14505.0	1.6849116151676925e+18
14506.0	1.6845505208254461e+18
14507.0	1.6839877542805504e+18
14508.0	1.6839639994204157e+18
14509.0	1.6836629238906877e+18
14510.0	1.683355560260403e+18
14511.0	1.6830534831308797e+18
14512.0	1.68273257693184e+18
14513.0	1.6824407624253435e+18
14514.0	1.6821002033954813e+18
14515.0	1.6818095330951165e+18
14516.0	1.6785121508065293e+18
14517.0	1.681156894359552e+18
14518.0	1.6809141330771963e+18
14519.0	1.680615448300748e+18
14520.0	1.6803113444835328e+18
14521.0	1.680008519090176e+18
14522.0	1.67970378612736e+18
14523.0	1.6793717633449981e+18
14524.0	1.6790676981153787e+18
14525.0	1.67878456246272e+18
14526.0	1.678483376203366e+18
14527.0	1.678148541559603e+18
14528.0	1.6777202242682877e+18
14529.0	1.6775596159795197e+18
14530.0	1.6772487140343805e+18
14531.0	1.6769627514208253e+18
14532.0	1.6766282556768253e+18
14533.0	1.6763561225224187e+18
14534.0	1.6760548121116672e+18
14535.0	1.6757375935447037e+18
14536.0	1.6754415595683835e+18
14537.0	1.6751264549306365e+18
14538.0	1.6748386216574976e+18
14539.0	1.6745350832324603e+18
14540.0	1.674230986126131e+18
14541.0	1.673899689797222e+18
14542.0	1.6736191193808893e+18
14543.0	1.6732870429114365e+18
14544.0	1.6730087592296443e+18
14545.0	1.672685390135296e+18
14546.0	1.6692692318683116e+18
14547.0	1.6690887727775718e+18
14548.0	1.6717582442692603e+18
14549.0	1.6713480346271736e+18
14550.0	1.6711762023809021e+18
14551.0	1.6708889965756413e+18
14552.0	1.670585228302745e+18
14553.0	1.670273131819827e+18
14554.0	1.6699804063105021e+18
14555.0	1.6696765977722883e+18
14556.0	1.6693718648094715e+18
14557.0	1.6690658232238075e+18
14558.0	1.6687387530756093e+18
14559.0	1.6662273145700316e+18
14560.0	1.66812946834391e+18
14561.0	1.6678444351881213e+18
14562.0	1.6674972944564221e+18
14563.0	1.667206659388211e+18
14564.0	1.666903644412313e+18
14565.0	1.666604005012275e+18
14566.0	1.6663010034581504e+18
14567.0	1.665997241896141e+18
14568.0	1.6656866100641792e+18
14569.0	1.6653807781937147e+18
14570.0	1.6644705303396344e+18
14571.0	1.6647744277970941e+18
14572.0	1.6644365027901437e+18
14573.0	1.6641195358814205e+18
14574.0	1.663868495042969e+18
14575.0	1.6635704108908544e+18
14576.0	1.6632678606438397e+18
14577.0	1.6629586196430848e+18
14578.0	1.6626619951087616e+18
14579.0	1.6623616443547648e+18
14580.0	1.662058988411289e+18
14581.0	1.661753040778035e+18
14582.0	1.661452887995187e+18
14583.0	1.6611499250286592e+18
14584.0	1.6608357834031104e+18
14585.0	1.660544005806489e+18
14586.0	1.660238039718297e+18
14587.0	1.659938272811417e+18
14588.0	1.6596362141368315e+18
14589.0	1.6593352241709053e+18
14590.0	1.659034074821427e+18
14591.0	1.6587321117769725e+18
14592.0	1.6584179114311677e+18
14593.0	1.657993080445337e+18
14594.0	1.657823144024473e+18
14595.0	1.657518387573555e+18
14596.0	1.6571938994388987e+18
14597.0	1.656887185086873e+18
14598.0	1.6566200095997947e+18
14599.0	1.6563250040668157e+18
14600.0	1.656024225493811e+18
14601.0	1.6557233865228285e+18
14602.0	1.6554192273407997e+18
14603.0	1.655120527464857e+18
14604.0	1.654773074676941e+18
14605.0	1.6545131117150205e+18
14606.0	1.6541230867415037e+18
14607.0	1.653911370019635e+18
14608.0	1.6536141683490813e+18
14609.0	1.6533149114695677e+18
14610.0	1.6530114854518784e+18
14611.0	1.652710809219891e+18
14612.0	1.6524149262385147e+18
14613.0	1.6521150821564413e+18
14614.0	1.6518101881323515e+18
14615.0	1.651513137456742e+18
14616.0	1.6512131541237752e+18
14617.0	1.6509119494094848e+18
14618.0	1.6506080351748093e+18
14619.0	1.6502769368170493e+18
14620.0	1.6499300678762493e+18
14621.0	1.649708071754137e+18
14622.0	1.6494046054711293e+18
14623.0	1.649106516285849e+18
14624.0	1.6487403887788024e+18
14625.0	1.6484996676059133e+18
14626.0	1.6482027545034747e+18
14627.0	1.6478758034735104e+18
14628.0	1.64756437640151e+18
14629.0	1.6472636934586365e+18
14630.0	1.6469620978352125e+18
14631.0	1.6466602371317757e+18
14632.0	1.64617153192919e+18
14633.0	1.6460263888781307e+18
14634.0	1.645756790761062e+18
14635.0	1.64545095050199e+18
14636.0	1.6451334567886843e+18
14637.0	1.6448564515307515e+18
14638.0	1.644551453487923e+18
14639.0	1.6442407092486144e+18
14640.0	1.6439365752324093e+18
14641.0	1.642928440711577e+18
14642.0	1.643332852147814e+18
14643.0	1.6430482266783741e+18
14644.0	1.6427352040931325e+18
14645.0	1.6424220070248443e+18
14646.0	1.6421390844428285e+18
14647.0	1.6418372858150912e+18
14648.0	1.6415436493029376e+18
