# Flux units: erg / (cm m2 s)
# Wavelength units: Angstrom
wave	flux
14000.0	1.6668985072287744e+18
14001.0	1.6664979092537341e+18
14002.0	1.6661265942315003e+18
14003.0	1.6657405437804536e+18
14004.0	1.665354669490176e+18
14005.0	1.6649687348019197e+18
14006.0	1.6645814227042304e+18
14007.0	1.664195191059251e+18
14008.0	1.663792125155737e+18
14009.0	1.6634257778671613e+18
14010.0	1.6630377628041213e+18
14011.0	1.6625404475342843e+18
14012.0	1.6622696733343744e+18
14013.0	1.6618842872610816e+18
14014.0	1.66149496021975e+18
14015.0	1.6611106797649915e+18
14016.0	1.6607263355568123e+18
14017.0	1.660341627283046e+18
14018.0	1.659956662317875e+18
14019.0	1.6595725278248957e+18
14020.0	1.65918796719063e+18
14021.0	1.658803586072576e+18
14022.0	1.658418736870195e+18
14023.0	1.658027168392806e+18
14024.0	1.6576468607827965e+18
14025.0	1.6572676134928384e+18
14026.0	1.65688365851607e+18
14027.0	1.656499894799564e+18
14028.0	1.656098543527526e+18
14029.0	1.6557153334591485e+18
14030.0	1.655051692225331e+18
14031.0	1.654944759283712e+18
14032.0	1.654563215192883e+18
14033.0	1.6541688784748541e+18
14034.0	1.6537972430077947e+18
14035.0	1.6534146402746365e+18
14036.0	1.6530319788212221e+18
14037.0	1.6526485506490365e+18
14038.0	1.652266978036941e+18
14039.0	1.651883809911603e+18
14040.0	1.6514997341388797e+18
14041.0	1.65111942652887e+18
14042.0	1.6507363808772093e+18
14043.0	1.650348362458726e+18
14044.0	1.649972361560064e+18
14045.0	1.649592181456896e+18
14046.0	1.6492101994807293e+18
14047.0	1.6488271857057787e+18
14048.0	1.6484475961606141e+18
14049.0	1.6480670519918592e+18
14050.0	1.647685887066112e+18
14051.0	1.6473006872199163e+18
14052.0	1.6469196061802493e+18
14053.0	1.6465394478874621e+18
14054.0	1.6461588198326267e+18
14055.0	1.6457776649732093e+18
14056.0	1.6453976358649853e+18
14057.0	1.6450171772600315e+18
14058.0	1.6446368746831872e+18
14059.0	1.6442566627033085e+18
14060.0	1.6438765497090043e+18
14061.0	1.6434951952007165e+18
14062.0	1.6431166424875003e+18
14063.0	1.6427338283614203e+18
14064.0	1.6423134383046653e+18
14065.0	1.6419759964815357e+18
14066.0	1.641597999094169e+18
14067.0	1.6412114654593021e+18
14068.0	1.6408394793484285e+18
14069.0	1.6404594686951421e+18
14070.0	1.6400811693178875e+18
14071.0	1.6397017794215933e+18
14072.0	1.639323466622566e+18
14073.0	1.6389441522237437e+18
14074.0	1.638562712151654e+18
14075.0	1.6381806077018107e+18
14076.0	1.637797191273676e+18
14077.0	1.6373587271221248e+18
14078.0	1.6370444126912507e+18
14079.0	1.636669181866803e+18
14080.0	1.6362931138592765e+18
14081.0	1.6359151684812795e+18
14082.0	1.6355332754243584e+18
14083.0	1.6351594488528893e+18
14084.0	1.63478216114176e+18
14085.0	1.6343180563709947e+18
14086.0	1.6340222925078525e+18
14087.0	1.6336500614496253e+18
14088.0	1.6332701061611515e+18
14089.0	1.6328887449419776e+18
14090.0	1.632517361133158e+18
14091.0	1.6321420548112384e+18
14092.0	1.6317653123596285e+18
14093.0	1.6313886336614397e+18
14094.0	1.6310121529343997e+18
14095.0	1.6306357544157181e+18
14096.0	1.6302457780961275e+18
14097.0	1.629876952812748e+18
14098.0	1.6294996097368061e+18
14099.0	1.6291276722798592e+18
14100.0	1.6287496228831232e+18
14101.0	1.6283760379035648e+18
14102.0	1.628000233298329e+18
14103.0	1.627622098337792e+18
14104.0	1.6272487029407741e+18
14105.0	1.6268730426195965e+18
14106.0	1.6264985751584765e+18
14107.0	1.626120832784793e+18
14108.0	1.6257461186985981e+18
14109.0	1.6253724179562493e+18
14110.0	1.624993925641011e+18
14111.0	1.6246144703135741e+18
14112.0	1.6242476163530747e+18
14113.0	1.62387080511488e+18
14114.0	1.6234971899363325e+18
14115.0	1.623124725674803e+18
14116.0	1.6227250621906941e+18
14117.0	1.6219223328030715e+18
14118.0	1.6220030278565885e+18
14119.0	1.6216216112726016e+18
14120.0	1.6212485480644603e+18
14121.0	1.6208777866903547e+18
14122.0	1.6204973817724925e+18
14123.0	1.620121808692838e+18
14124.0	1.6197449789997053e+18
14125.0	1.6193004398182397e+18
14126.0	1.6190080196542461e+18
14127.0	1.618636449618329e+18
14128.0	1.6182631850835963e+18
14129.0	1.6178884240211963e+18
14130.0	1.6175135958499325e+18
14131.0	1.6171451027554304e+18
14132.0	1.6167715043540987e+18
14133.0	1.6162979372335101e+18
14134.0	1.6160275673645053e+18
14135.0	1.6156516486742016e+18
14136.0	1.6152501111750653e+18
14137.0	1.6149108070809595e+18
14138.0	1.6145327056748541e+18
14139.0	1.614167277777715e+18
14140.0	1.6137878929145853e+18
14141.0	1.6134235656028157e+18
14142.0	1.613009634774221e+18
14143.0	1.6126704934191104e+18
14144.0	1.6123096557682688e+18
14145.0	1.6119381746515963e+18
14146.0	1.611566364701491e+18
14147.0	1.6111956989575168e+18
14148.0	1.6108229947817981e+18
14149.0	1.6104508677423104e+18
14150.0	1.6100837084364797e+18
14151.0	1.6097077813575677e+18
14152.0	1.6093426906824704e+18
14153.0	1.608972236331417e+18
14154.0	1.6085971430801405e+18
14155.0	1.608013584531456e+18
14156.0	1.6078546606751741e+18
14157.0	1.6074903165861888e+18
14158.0	1.6071163004321792e+18
14159.0	1.6067482921992184e+18
14160.0	1.6063787371069435e+18
14161.0	1.605997172883456e+18
14162.0	1.6056198465847293e+18
14163.0	1.6052701641048061e+18
14164.0	1.604884358601113e+18
14165.0	1.6044529794678781e+18
14166.0	1.604162384664985e+18
14167.0	1.6037912290263037e+18
14168.0	1.6034217360097277e+18
14169.0	1.6030562577809405e+18
14170.0	1.6026852296491005e+18
14171.0	1.602317614002995e+18
14172.0	1.6019505587159037e+18
14173.0	1.6015460902371325e+18
14174.0	1.6012125860265981e+18
14175.0	1.600845738776985e+18
14176.0	1.6004757005008893e+18
14177.0	1.6001091686629376e+18
14178.0	1.599741014468198e+18
14179.0	1.5993662886379515e+18
14180.0	1.599006437487411e+18
14181.0	1.5986388855947261e+18
14182.0	1.5982712783372285e+18
14183.0	1.597904073732915e+18
14184.0	1.5975358574624765e+18
14185.0	1.597169659491123e+18
14186.0	1.5967167249907707e+18
14187.0	1.596431092888371e+18
14188.0	1.5960680691662848e+18
14189.0	1.5957004853968893e+18
14190.0	1.5953347420880896e+18
14191.0	1.5949678528954365e+18
14192.0	1.5946008496177147e+18
14193.0	1.5942215033421821e+18
14194.0	1.5938656502022141e+18
14195.0	1.5935004957736957e+18
14196.0	1.593134388399308e+18
14197.0	1.592768440408473e+18
14198.0	1.5924015981920253e+18
14199.0	1.5920356216799232e+18
14200.0	1.591619063539302e+18
14201.0	1.591305141695283e+18
14202.0	1.5909371888271357e+18
14203.0	1.5905597887086592e+18
14204.0	1.590202663855718e+18
14205.0	1.5898375933132797e+18
14206.0	1.5894495295963133e+18
14207.0	1.589108124994765e+18
14208.0	1.5887433732194304e+18
14209.0	1.5883516269035515e+18
14210.0	1.5879986477006843e+18
14211.0	1.587648530690867e+18
14212.0	1.587284874467737e+18
14213.0	1.5869189013110781e+18
14214.0	1.5865563557396477e+18
14215.0	1.5861895957315581e+18
14216.0	1.5858284007260157e+18
14217.0	1.5854644408352765e+18
14218.0	1.5850984123138043e+18
14219.0	1.5847369220292603e+18
14220.0	1.5843729017405435e+18
14221.0	1.5840080493019133e+18
14222.0	1.583632211142246e+18
14223.0	1.5832822602268667e+18
14224.0	1.582919837129113e+18
14225.0	1.5824074408198144e+18
14226.0	1.5821936772775933e+18
14227.0	1.5818308230053885e+18
14228.0	1.5810873088016384e+18
14229.0	1.581065032014233e+18
14230.0	1.5807426661974013e+18
14231.0	1.5803675729461248e+18
14232.0	1.5800177310826493e+18
14233.0	1.5796539507081213e+18
14234.0	1.5792906786832381e+18
14235.0	1.5789273546489853e+18
14236.0	1.5785655925735421e+18
14237.0	1.5782035553517563e+18
14238.0	1.5778418687737853e+18
14239.0	1.577477972636467e+18
14240.0	1.5768380493529085e+18
14241.0	1.5767560456765437e+18
14242.0	1.5763954563284987e+18
14243.0	1.5760054347104253e+18
14244.0	1.5756732441559035e+18
14245.0	1.5753081031491581e+18
14246.0	1.5749443512958968e+18
14247.0	1.5745890987802621e+18
14248.0	1.5742264944885757e+18
14249.0	1.573868186841907e+18
14250.0	1.5735074582429693e+18
14251.0	1.5731474191876093e+18
14252.0	1.5727869422469115e+18
14253.0	1.5724264837611515e+18
14254.0	1.5720658927353853e+18
14255.0	1.571700335653683e+18
14256.0	1.571216386791833e+18
14257.0	1.5709843360841725e+18
14258.0	1.5706264059248637e+18
14259.0	1.570262977871872e+18
14260.0	1.5699027374899197e+18
14261.0	1.5695435725275133e+18
14262.0	1.5691924321075197e+18
14263.0	1.5686409314631677e+18
14264.0	1.5684471831396347e+18
14265.0	1.5681109945745405e+18
14266.0	1.5677551967993853e+18
14267.0	1.567396521731686e+18
14268.0	1.5670377745219581e+18
14269.0	1.5666773009367037e+18
14270.0	1.5663203623108605e+18
14271.0	1.565960563169689e+18
14272.0	1.5656031665258493e+18
14273.0	1.565244853846016e+18
14274.0	1.5646078263099392e+18
14275.0	1.5645037404618747e+18
14276.0	1.5641618778423293e+18
14277.0	1.5638070816669696e+18
14278.0	1.5634545319608315e+18
14279.0	1.563096710853427e+18
14280.0	1.562737540857856e+18
14281.0	1.562381472969523e+18
14282.0	1.5620239370747901e+18
14283.0	1.5616634970439677e+18
14284.0	1.5613061993857021e+18
14285.0	1.560948970514022e+18
14286.0	1.5605911779278843e+18
14287.0	1.5602348885803005e+18
14288.0	1.5598779264663547e+18
14289.0	1.5593424816177144e+18
14290.0	1.5591627523358715e+18
14291.0	1.558807496464793e+18
14292.0	1.5584512993918973e+18
14293.0	1.5580944597516285e+18
14294.0	1.5577122345058304e+18
14295.0	1.5573796329095163e+18
14296.0	1.5568816129966077e+18
14297.0	1.5566702133641216e+18
14298.0	1.5562472329052157e+18
14299.0	1.5559542087614464e+18
14300.0	1.555600842004889e+18
14301.0	1.5552452673667067e+18
14302.0	1.5548908017025016e+18
14303.0	1.5545290178166781e+18
14304.0	1.5541775015870464e+18
14305.0	1.5538244871520256e+18
14306.0	1.5534497814544381e+18
14307.0	1.5531098549256187e+18
14308.0	1.5527600214507515e+18
14309.0	1.552403819344691e+18
14310.0	1.551967271151206e+18
14311.0	1.5516061801644032e+18
14312.0	1.5513280122454013e+18
14313.0	1.5509694864949243e+18
14314.0	1.550630021339545e+18
14315.0	1.5502780890349568e+18
14316.0	1.54991427846144e+18
14317.0	1.5495553852899328e+18
14318.0	1.549215913423667e+18
14319.0	1.5488621104594941e+18
14320.0	1.548508208509747e+18
14321.0	1.5481540515463165e+18
14322.0	1.5477923750346747e+18
14323.0	1.5474450463981563e+18
14324.0	1.547093107382681e+18
14325.0	1.5467389000876024e+18
14326.0	1.5463875331751933e+18
14327.0	1.5460330540892152e+18
14328.0	1.545680145350656e+18
14329.0	1.545328421083545e+18
14330.0	1.544975564354355e+18
14331.0	1.5446213453152253e+18
14332.0	1.544270141141811e+18
14333.0	1.543917596468838e+18
14334.0	1.5435651088383997e+18
14335.0	1.543207051172249e+18
14336.0	1.5428417105166333e+18
14337.0	1.542507674468352e+18
14338.0	1.5421538882813947e+18
14339.0	1.5417989545328637e+18
14340.0	1.5414492653420541e+18
14341.0	1.541096126755635e+18
14342.0	1.540745269870592e+18
14343.0	1.540390510605107e+18
14344.0	1.5400400832167933e+18
14345.0	1.5396913587159037e+18
14346.0	1.53933947338752e+18
14347.0	1.5389797379997693e+18
14348.0	1.5386373552865277e+18
14349.0	1.5382866242306043e+18
14350.0	1.5379239679295485e+18
14351.0	1.5375715692183547e+18
14352.0	1.5372322668019707e+18
14353.0	1.536883144681062e+18
14354.0	1.5365313415610363e+18
14355.0	1.5361783657136123e+18
14356.0	1.5358294700851197e+18
14357.0	1.5354817085964285e+18
14358.0	1.5351315295109115e+18
14359.0	1.5347785284976637e+18
14360.0	1.5344303526117376e+18
14361.0	1.5340812908888064e+18
14362.0	1.5337317325602816e+18
14363.0	1.5333819443838973e+18
14364.0	1.532990385972838e+18
14365.0	1.5326784706838525e+18
14366.0	1.5323266356871163e+18
14367.0	1.5319841556660221e+18
14368.0	1.531634812085862e+18
14369.0	1.5312857654624253e+18
14370.0	1.5309367406493693e+18
14371.0	1.530587839987712e+18
14372.0	1.5302374109216765e+18
14373.0	1.5298899346456576e+18
14374.0	1.5295414752247805e+18
14375.0	1.5291926332833792e+18
14376.0	1.5288444221652992e+18
14377.0	1.5284958989910013e+18
14378.0	1.5281472147554301e+18
14379.0	1.5277995170201597e+18
14380.0	1.5274513545560067e+18
14381.0	1.5271009875656701e+18
14382.0	1.5267550833147904e+18
14383.0	1.5264021443772413e+18
14384.0	1.5260558072741885e+18
14385.0	1.5257121746583547e+18
14386.0	1.525361804312576e+18
14387.0	1.525017092921753e+18
14388.0	1.5246693196890112e+18
14389.0	1.5243224289378301e+18
14390.0	1.5239748536762368e+18
14391.0	1.5236280266784765e+18
14392.0	1.5232781411942397e+18
14393.0	1.5229343005409275e+18
14394.0	1.5225803683921915e+18
14395.0	1.5222294158770173e+18
14396.0	1.5218936584863741e+18
14397.0	1.5215476149846016e+18
14398.0	1.5211995347288064e+18
14399.0	1.5208546807316477e+18
14400.0	1.5204997536940032e+18
14401.0	1.5201612330958843e+18
14402.0	1.5198143624773624e+18
14403.0	1.518182783254525e+18
14404.0	1.5155605211709432e+18
14405.0	1.5185268923432945e+18
14406.0	1.518429836148736e+18
14407.0	1.5160923320745994e+18
14408.0	1.5177279462178813e+18
14409.0	1.5173895950696448e+18
14410.0	1.5170445883998205e+18
14411.0	1.5167018047111165e+18
14412.0	1.5163569121263616e+18
14413.0	1.5160123601190907e+18
14414.0	1.5156670581702653e+18
14415.0	1.5153223937556477e+18
14416.0	1.5149757462740992e+18
14417.0	1.5146219936415744e+18
14418.0	1.514274757279744e+18
14419.0	1.5139436589219837e+18
14420.0	1.5135985767546875e+18
14421.0	1.5132550464798715e+18
14422.0	1.512910190804992e+18
14423.0	1.512565304931123e+18
14424.0	1.5041977523371968e+18
14425.0	1.5118778450837501e+18
14426.0	1.511534705718067e+18
14427.0	1.5111910462586875e+18
14428.0	1.5108416926121981e+18
14429.0	1.5105034404495352e+18
14430.0	1.5101603681927165e+18
14431.0	1.5097503984648187e+18
14432.0	1.509467608422809e+18
14433.0	1.507643418371685e+18
14434.0	1.5087843680452603e+18
14435.0	1.508433143739187e+18
14436.0	1.5081012115537915e+18
14437.0	1.5077583355903997e+18
14438.0	1.5073712986390525e+18
14439.0	1.507054912222003e+18
14440.0	1.5067150242807805e+18
14441.0	1.5063712524140541e+18
14442.0	1.5060277003288573e+18
14443.0	1.5056781805879293e+18
14444.0	1.5053447669743613e+18
14445.0	1.5050034412257277e+18
14446.0	1.5030702177255432e+18
14447.0	1.5043174980386813e+18
14448.0	1.5039776520404987e+18
14449.0	1.5036358800179195e+18
14450.0	1.5032929872773115e+18
14451.0	1.5029523913375741e+18
14452.0	1.5026103710121981e+18
14453.0	1.502242651347353e+18
14454.0	1.5019279946612736e+18
14455.0	1.5015852764037115e+18
14456.0	1.501239618777907e+18
14457.0	1.5008956791390203e+18
14458.0	1.5005591919394813e+18
14459.0	1.5002189248331768e+18
14460.0	1.4998812481290235e+18
14461.0	1.4995344160980992e+18
14462.0	1.4991240420392957e+18
14463.0	1.4988581718196227e+18
14464.0	1.4985193794306043e+18
14465.0	1.4981750388162557e+18
14466.0	1.49783813554176e+18
14467.0	1.4974782357372925e+18
14468.0	1.4971564588007421e+18
14469.0	1.4968112105390077e+18
14470.0	1.4964726563864573e+18
14471.0	1.4961351021559805e+18
14472.0	1.4957968399269885e+18
14473.0	1.4954589937729536e+18
14474.0	1.4951198842945536e+18
14475.0	1.4947789746208765e+18
14476.0	1.4943439011446781e+18
14477.0	1.494101604591206e+18
14478.0	1.4937617351049213e+18
14479.0	1.4934216760360957e+18
14480.0	1.4930782346805243e+18
14481.0	1.4927426702278653e+18
14482.0	1.4924031815843837e+18
14483.0	1.492062867501875e+18
14484.0	1.4917255011762168e+18
14485.0	1.491379444252672e+18
14486.0	1.490992187519795e+18
14487.0	1.490710399077581e+18
14488.0	1.4903565508149245e+18
14489.0	1.490027349960294e+18
14490.0	1.4896932736466941e+18
14491.0	1.4893577746251773e+18
14492.0	1.4890191600746493e+18
14493.0	1.4886799465775101e+18
14494.0	1.488339766712729e+18
14495.0	1.4880065661698045e+18
14496.0	1.4876428713590781e+18
14497.0	1.4873312144392192e+18
14498.0	1.4869934270054397e+18
14499.0	1.4866564465557504e+18
14500.0	1.486319065130598e+18
14501.0	1.4859397809307648e+18
14502.0	1.4855571144441853e+18
14503.0	1.4853002753998845e+18
14504.0	1.4849697894105085e+18
14505.0	1.4845962061086715e+18
14506.0	1.484205741572096e+18
14507.0	1.4839135160238077e+18
14508.0	1.4836237248495613e+18
14509.0	1.483287170541158e+18
14510.0	1.4829500994945021e+18
14511.0	1.4826143102271485e+18
14512.0	1.4822691307519997e+18
14513.0	1.481935166845747e+18
14514.0	1.4815848904523773e+18
14515.0	1.481261939110707e+18
14516.0	1.4804870229917699e+18
14517.0	1.4805911088398336e+18
14518.0	1.4802553128615936e+18
14519.0	1.4799196511010816e+18
14520.0	1.4795838702223352e+18
14521.0	1.4792471548526587e+18
14522.0	1.4789119108448253e+18
14523.0	1.478478605687193e+18
14524.0	1.478143398589235e+18
14525.0	1.4779060714471421e+18
14526.0	1.4775715270492157e+18
14527.0	1.477231615619891e+18
14528.0	1.4768682915856381e+18
14529.0	1.4765651306479613e+18
14530.0	1.476228455543603e+18
14531.0	1.4758971441151997e+18
14532.0	1.4754097341136899e+18
14533.0	1.4752282281246715e+18
14534.0	1.4748939504844797e+18
14535.0	1.474557159617331e+18
14536.0	1.4742244187701248e+18
14537.0	1.473888485218713e+18
14538.0	1.473556667118387e+18
14539.0	1.4732227971645435e+18
14540.0	1.4728887997038587e+18
14541.0	1.4725504804323328e+18
14542.0	1.472220613522227e+18
14543.0	1.471826315391795e+18
14544.0	1.471553568191283e+18
14545.0	1.4712176363175936e+18
14546.0	1.4610763670880182e+18
14547.0	1.4619192695193513e+18
14548.0	1.4702170397999104e+18
14549.0	1.4698634331291648e+18
14550.0	1.4695516000485373e+18
14551.0	1.4692202248667136e+18
14552.0	1.4688863280693248e+18
14553.0	1.4685519598321664e+18
14554.0	1.468221369824051e+18
14555.0	1.4678883135651835e+18
14556.0	1.467553259139891e+18
14557.0	1.4672231808368637e+18
14558.0	1.466890545686118e+18
14559.0	1.466214631918795e+18
14560.0	1.466205830591283e+18
14561.0	1.4658920849080315e+18
14562.0	1.4655551044583421e+18
14563.0	1.4652289570570237e+18
14564.0	1.4648899918626813e+18
14565.0	1.464564893037363e+18
14566.0	1.4642329407193088e+18
14567.0	1.463900881027072e+18
14568.0	1.4635482222690301e+18
14569.0	1.4632374662856701e+18
14570.0	1.462802958201651e+18
14571.0	1.4625708101861373e+18
14572.0	1.4622253152993275e+18
14573.0	1.461897760289587e+18
14574.0	1.4615576961875965e+18
14575.0	1.4612442122289147e+18
14576.0	1.4609126038437885e+18
14577.0	1.460582300726067e+18
14578.0	1.460251913722265e+18
14579.0	1.459921508263526e+18
14580.0	1.459590688407552e+18
14581.0	1.4592563537248253e+18
14582.0	1.4589288943452157e+18
14583.0	1.4585983496355835e+18
14584.0	1.4582639394553853e+18
14585.0	1.457937129354035e+18
14586.0	1.4576059521433597e+18
14587.0	1.4572742447726587e+18
14588.0	1.4569464599150592e+18
14589.0	1.4566288621830141e+18
14590.0	1.456312594884198e+18
14591.0	1.4559953863835648e+18
14592.0	1.4556789731229693e+18
14593.0	1.4553412343431163e+18
14594.0	1.4550478931099648e+18
14595.0	1.4547305940123645e+18
14596.0	1.4543758431354877e+18
14597.0	1.4540595842252795e+18
14598.0	1.4537810606292987e+18
14599.0	1.453468266214195e+18
14600.0	1.4531512758173693e+18
14601.0	1.4528366812069885e+18
14602.0	1.4525147700527101e+18
14603.0	1.4522052287397885e+18
14604.0	1.4518788531683325e+18
14605.0	1.451563535459942e+18
14606.0	1.451240671359795e+18
14607.0	1.4509432717180925e+18
14608.0	1.4506275580674048e+18
14609.0	1.450304578204467e+18
14610.0	1.449977221165875e+18
14611.0	1.4496815126675453e+18
14612.0	1.4493678441594875e+18
14613.0	1.4490529492369403e+18
14614.0	1.448737215453593e+18
14615.0	1.4484191781584893e+18
14616.0	1.4481081101189115e+18
14617.0	1.4477931967414272e+18
14618.0	1.4474696766521341e+18
14619.0	1.447146430031462e+18
14620.0	1.4467513114951675e+18
14621.0	1.4465342747181053e+18
14622.0	1.446219052639846e+18
14623.0	1.4459050854973437e+18
14624.0	1.4455793390714877e+18
14625.0	1.445275381216051e+18
14626.0	1.444958895813427e+18
14627.0	1.4446415228960765e+18
14628.0	1.4443328103776253e+18
14629.0	1.4440184707809277e+18
14630.0	1.4437033644654587e+18
14631.0	1.4433891272097792e+18
14632.0	1.4424098864103427e+18
14633.0	1.4426986239754235e+18
14634.0	1.4424448736165885e+18
14635.0	1.4419485884678126e+18
14636.0	1.4410920511930363e+18
14637.0	1.441505178392985e+18
14638.0	1.441189281870643e+18
14639.0	1.4408739591290875e+18
14640.0	1.440562379384422e+18
14641.0	1.437733586416433e+18
14642.0	1.4399344149004288e+18
14643.0	1.4396212178321403e+18
14644.0	1.4393047945052157e+18
14645.0	1.4389887838978045e+18
14646.0	1.4386691896770557e+18
14647.0	1.4383560026750973e+18
