# Flux units: erg / (cm m2 s)
# Wavelength units: Angstrom
wave	flux
14000.0	1.5719299268214781e+18
14001.0	1.5715455893241856e+18
14002.0	1.5712446413012987e+18
14003.0	1.570901287187251e+18
14004.0	1.570558142788403e+18
14005.0	1.5702148138401787e+18
14006.0	1.5698685421682685e+18
14007.0	1.569524798822809e+18
14008.0	1.5691466286301184e+18
14009.0	1.5688423587184637e+18
14010.0	1.568494442879385e+18
14011.0	1.5679094029025277e+18
14012.0	1.5678139136999421e+18
14013.0	1.567471353148211e+18
14014.0	1.5671266266578944e+18
14015.0	1.5667854250606587e+18
14016.0	1.5664440305254395e+18
14017.0	1.5661017585418235e+18
14018.0	1.5657592600657912e+18
14019.0	1.5654174913986557e+18
14020.0	1.5650751690833915e+18
14021.0	1.564733054805606e+18
14022.0	1.5643896654594048e+18
14023.0	1.5640345689718781e+18
14024.0	1.563699170613657e+18
14025.0	1.563366381112524e+18
14026.0	1.563024510104371e+18
14027.0	1.5626839108091901e+18
14028.0	1.5623402530275325e+18
14029.0	1.5619998265376768e+18
14030.0	1.5610941068541955e+18
14031.0	1.5613115026636797e+18
14032.0	1.560978151125811e+18
14033.0	1.5606153153085435e+18
14034.0	1.5602963804323837e+18
14035.0	1.559955982463795e+18
14036.0	1.559615401623552e+18
14037.0	1.559273346066022e+18
14038.0	1.5589344832126973e+18
14039.0	1.5585925350293501e+18
14040.0	1.558245365776384e+18
14041.0	1.5579086940274685e+18
14042.0	1.5575664220438525e+18
14043.0	1.5572131358179325e+18
14044.0	1.556885542220595e+18
14045.0	1.5565492194377728e+18
14046.0	1.5562089640755197e+18
14047.0	1.5558660931452925e+18
14048.0	1.555530206570086e+18
14049.0	1.5551921439899648e+18
14050.0	1.5548527677538304e+18
14051.0	1.5545092223795197e+18
14052.0	1.5541727637012477e+18
14053.0	1.5538350450540544e+18
14054.0	1.5534961251581947e+18
14055.0	1.5531566331592701e+18
14056.0	1.5528183189209088e+18
14057.0	1.5524789191966715e+18
14058.0	1.5521374726520832e+18
14059.0	1.5517988765564923e+18
14060.0	1.551460364346982e+18
14061.0	1.5511190922854397e+18
14062.0	1.550783594941645e+18
14063.0	1.550439294592614e+18
14064.0	1.5500094103093243e+18
14065.0	1.5497657212469243e+18
14066.0	1.549430282623385e+18
14067.0	1.549081799714406e+18
14068.0	1.5487553872330755e+18
14069.0	1.5484160260964347e+18
14070.0	1.5480798392090621e+18
14071.0	1.547741303511449e+18
14072.0	1.5474049555628032e+18
14073.0	1.5470675623935995e+18
14074.0	1.5467303051198464e+18
14075.0	1.5463860567801856e+18
14076.0	1.5460420819091453e+18
14077.0	1.5455826613370877e+18
14078.0	1.545369458153881e+18
14079.0	1.5450227284639741e+18
14080.0	1.5446809363087357e+18
14081.0	1.5443441638965243e+18
14082.0	1.5440022224240635e+18
14083.0	1.5436705116979197e+18
14084.0	1.5433346418999293e+18
14085.0	1.5428316123103232e+18
14086.0	1.5426523225915387e+18
14087.0	1.5423258581008381e+18
14088.0	1.5419842253291515e+18
14089.0	1.5416428559597565e+18
14090.0	1.5413148144107515e+18
14091.0	1.5409820030992381e+18
14092.0	1.5406462524194816e+18
14093.0	1.5403105336164347e+18
14094.0	1.539974977552384e+18
14095.0	1.5396395758387197e+18
14096.0	1.5392782449377275e+18
14097.0	1.5389573035065341e+18
14098.0	1.5386218262953981e+18
14099.0	1.5382984018362368e+18
14100.0	1.5379553195130877e+18
14101.0	1.5376250600161277e+18
14102.0	1.5372893496016893e+18
14103.0	1.5369494515941373e+18
14104.0	1.536619520930611e+18
14105.0	1.5362852164468733e+18
14106.0	1.5359513834029053e+18
14107.0	1.5356145321377787e+18
14108.0	1.5352768805994493e+18
14109.0	1.5349462905913341e+18
14110.0	1.5346077901258747e+18
14111.0	1.5342658218098685e+18
14112.0	1.5339422144790525e+18
14113.0	1.533605284361011e+18
14114.0	1.5332727079305213e+18
14115.0	1.5329423762915325e+18
14116.0	1.5325692174532603e+18
14117.0	1.5313539396796419e+18
14118.0	1.5319429457903613e+18
14119.0	1.5315950484062203e+18
14120.0	1.5312630189129725e+18
14121.0	1.530936596365312e+18
14122.0	1.5305862545407997e+18
14123.0	1.530256011821056e+18
14124.0	1.529915781624627e+18
14125.0	1.5294283011588093e+18
14126.0	1.5292694494445565e+18
14127.0	1.5289421427376123e+18
14128.0	1.528608920384307e+18
14129.0	1.528272627800473e+18
14130.0	1.5279361607335936e+18
14131.0	1.527611934323507e+18
14132.0	1.5272775610531835e+18
14133.0	1.5267375494463475e+18
14134.0	1.5266149851725821e+18
14135.0	1.5262760283668477e+18
14136.0	1.5258961854857213e+18
14137.0	1.5256184755847168e+18
14138.0	1.5252747154620413e+18
14139.0	1.524955324245606e+18
14140.0	1.5246135220240381e+18
14141.0	1.5242915756376064e+18
14142.0	1.523880991863603e+18
14143.0	1.5236190257020925e+18
14144.0	1.5232980507164667e+18
14145.0	1.5229661957062656e+18
14146.0	1.5226336545079293e+18
14147.0	1.5223034990297085e+18
14148.0	1.5219696324313088e+18
14149.0	1.521636908361318e+18
14150.0	1.5213117944365053e+18
14151.0	1.5209723779350525e+18
14152.0	1.5206476381421565e+18
14153.0	1.520316571661107e+18
14154.0	1.5199766384214013e+18
14155.0	1.5192932353048576e+18
14156.0	1.5193144333172736e+18
14157.0	1.5189949145939965e+18
14158.0	1.5186621250928637e+18
14159.0	1.5183343754674176e+18
14160.0	1.5180045253345277e+18
14161.0	1.5176492661080064e+18
14162.0	1.5173043399688187e+18
14163.0	1.517014810519142e+18
14164.0	1.5166536138358781e+18
14165.0	1.5162495312330747e+18
14166.0	1.516026140924313e+18
14167.0	1.5156920377671675e+18
14168.0	1.51536168599552e+18
14169.0	1.5150388235730941e+18
14170.0	1.5147055559213053e+18
14171.0	1.5143784790622205e+18
14172.0	1.5140516203069437e+18
14173.0	1.513671787492147e+18
14174.0	1.5133915610087421e+18
14175.0	1.5130650109542397e+18
14176.0	1.5127343739699197e+18
14177.0	1.5124074212622336e+18
14178.0	1.5120784099901435e+18
14179.0	1.5117401762824192e+18
14180.0	1.5114227882655741e+18
14181.0	1.5110945571340285e+18
14182.0	1.5107660827328507e+18
14183.0	1.5104383431737341e+18
14184.0	1.5101051644411901e+18
14185.0	1.5097791781011456e+18
14186.0	1.5092829969711104e+18
14187.0	1.5091142534103037e+18
14188.0	1.5087944377303037e+18
14189.0	1.5084657955569667e+18
14190.0	1.5081395424591867e+18
14191.0	1.5078114069577725e+18
14192.0	1.5074582247505915e+18
14193.0	1.5070840324358141e+18
14194.0	1.5067827891339264e+18
14195.0	1.506457634943795e+18
14196.0	1.5061305396297725e+18
14197.0	1.5058029946863613e+18
14198.0	1.5054746763132925e+18
14199.0	1.5051475793215483e+18
14200.0	1.5047172454088701e+18
14201.0	1.504495955607552e+18
14202.0	1.5041696152682493e+18
14203.0	1.5038319939289085e+18
14204.0	1.5035166913200128e+18
14205.0	1.5031905573404672e+18
14206.0	1.5028171434885115e+18
14207.0	1.5025393312464893e+18
14208.0	1.5022135344889856e+18
14209.0	1.5018319484551163e+18
14210.0	1.5015304115519488e+18
14211.0	1.5012333625540603e+18
14212.0	1.5009100421136381e+18
14213.0	1.500582102905651e+18
14214.0	1.500259030768025e+18
14215.0	1.4999284978024443e+18
14216.0	1.4996081637064696e+18
14217.0	1.4992834524348413e+18
14218.0	1.4989539428794365e+18
14219.0	1.4986332447178747e+18
14220.0	1.4983050286858237e+18
14221.0	1.497977307581644e+18
14222.0	1.497631745585971e+18
14223.0	1.4973297003331584e+18
14224.0	1.4970059537514493e+18
14225.0	1.4963671746740227e+18
14226.0	1.4963568097099773e+18
14227.0	1.4960324927029243e+18
14228.0	1.49484760685609e+18
14229.0	1.495298216034303e+18
14230.0	1.495059739652915e+18
14231.0	1.4947151004041213e+18
14232.0	1.4944116408319997e+18
14233.0	1.4940843878121472e+18
14234.0	1.4937638540673021e+18
14235.0	1.493439052198707e+18
14236.0	1.4931162266861563e+18
14237.0	1.4927921915363325e+18
14238.0	1.492469000280473e+18
14239.0	1.4921412288446464e+18
14240.0	1.4912032096649219e+18
14241.0	1.491496782423654e+18
14242.0	1.491175364519526e+18
14243.0	1.4907933137567744e+18
14244.0	1.4905299617972221e+18
14245.0	1.4901990379225085e+18
14246.0	1.4898706994167803e+18
14247.0	1.4895594518609915e+18
14248.0	1.489232230717849e+18
14249.0	1.4889142252994557e+18
14250.0	1.488592540637593e+18
14251.0	1.4882710455582715e+18
14252.0	1.4879486377983997e+18
14253.0	1.4876261008539648e+18
14254.0	1.487303151190016e+18
14255.0	1.486969140307558e+18
14256.0	1.4863649558495235e+18
14257.0	1.486333589166489e+18
14258.0	1.4860160870645757e+18
14259.0	1.48568698519552e+18
14260.0	1.4853614669398013e+18
14261.0	1.4850401748647936e+18
14262.0	1.4847337809575936e+18
14263.0	1.4839760648404995e+18
14264.0	1.4840307535314941e+18
14265.0	1.4837647004401664e+18
14266.0	1.4834474013425664e+18
14267.0	1.4831269682610168e+18
14268.0	1.482804917855846e+18
14269.0	1.482481441387315e+18
14270.0	1.4821639392854013e+18
14271.0	1.4818408285601787e+18
14272.0	1.481522178896691e+18
14273.0	1.4812013951713277e+18
14274.0	1.480248979462554e+18
14275.0	1.480504053543731e+18
14276.0	1.4802274610053115e+18
14277.0	1.4799098783727616e+18
14278.0	1.4795992683511803e+18
14279.0	1.479278979553689e+18
14280.0	1.4789557648097275e+18
14281.0	1.4786388482326525e+18
14282.0	1.478319000675942e+18
14283.0	1.477999104465305e+18
14284.0	1.477679290463027e+18
14285.0	1.4773595184037885e+18
14286.0	1.4770383907454976e+18
14287.0	1.4767203484172285e+18
14288.0	1.476400807883571e+18
14289.0	1.4756871017594862e+18
14290.0	1.4757599048105981e+18
14291.0	1.475442454718054e+18
14292.0	1.475122820231987e+18
14293.0	1.4748037091950587e+18
14294.0	1.4744318707236864e+18
14295.0	1.4741607760789501e+18
14296.0	1.4735290836975613e+18
14297.0	1.4735291172519936e+18
14298.0	1.4730735755722747e+18
14299.0	1.4728830216306685e+18
14300.0	1.4725695611600893e+18
14301.0	1.4722524315123707e+18
14302.0	1.4719345787666424e+18
14303.0	1.4716045809942523e+18
14304.0	1.4712931254009856e+18
14305.0	1.4709803846729725e+18
14306.0	1.4706343881474045e+18
14307.0	1.4703374280687613e+18
14308.0	1.4700275327565821e+18
14309.0	1.4697064118091776e+18
14310.0	1.4692748581928957e+18
14311.0	1.4688983707549693e+18
14312.0	1.4687279159181307e+18
14313.0	1.4683897711296512e+18
14314.0	1.4681144201052157e+18
14315.0	1.4678000553426941e+18
14316.0	1.4674644002930688e+18
14317.0	1.4671472270245885e+18
14318.0	1.4668501310504957e+18
14319.0	1.4665332882931707e+18
14320.0	1.4662161368350715e+18
14321.0	1.465898367975424e+18
14322.0	1.4655643772256253e+18
14323.0	1.4652611122692093e+18
14324.0	1.4649483044323325e+18
14325.0	1.4646292739260413e+18
14326.0	1.4643163520040957e+18
14327.0	1.4639974355828736e+18
14328.0	1.4636810625875965e+18
14329.0	1.463367377302323e+18
14330.0	1.4630512039559165e+18
14331.0	1.4627328831258621e+18
14332.0	1.462419070333747e+18
14333.0	1.4620428144214013e+18
14334.0	1.4617146252328957e+18
14335.0	1.4613889677262845e+18
14336.0	1.4610466806431741e+18
14337.0	1.4607663719514107e+18
14338.0	1.4604510022336507e+18
14339.0	1.460131223463526e+18
14340.0	1.4598212828528637e+18
14341.0	1.45950282612736e+18
14342.0	1.459189858906931e+18
14343.0	1.4588708418224125e+18
14344.0	1.4585567941492736e+18
14345.0	1.4582458989150208e+18
14346.0	1.4579298279096315e+18
14347.0	1.4575972028252157e+18
14348.0	1.4573012779007995e+18
14349.0	1.4569868309299197e+18
14350.0	1.4566478388920315e+18
14351.0	1.4563299324592125e+18
14352.0	1.4560394802626557e+18
14353.0	1.4557283098820603e+18
14354.0	1.4554113966604285e+18
14355.0	1.4550914484404221e+18
14356.0	1.4547807344001021e+18
14357.0	1.4544723708477437e+18
14358.0	1.4541584070606845e+18
14359.0	1.4538389739012093e+18
14360.0	1.4535282867044347e+18
14361.0	1.453216478789632e+18
14362.0	1.4529033790291968e+18
14363.0	1.4525896870330363e+18
14364.0	1.4521920569475067e+18
14365.0	1.451951654541721e+18
14366.0	1.4516313942654973e+18
14367.0	1.4513333285683197e+18
14368.0	1.4510199251402747e+18
14369.0	1.4507070300618747e+18
14370.0	1.4503940460642301e+18
14371.0	1.4500811946065915e+18
14372.0	1.4497654339796987e+18
14373.0	1.4494548189249536e+18
14374.0	1.4491426821767165e+18
14375.0	1.4488286915461115e+18
14376.0	1.4485172929953787e+18
14377.0	1.448204778759782e+18
14378.0	1.4478915498147835e+18
14379.0	1.4475802418610173e+18
14380.0	1.4472679037861888e+18
14381.0	1.446951039218483e+18
14382.0	1.4466430565089277e+18
14383.0	1.4463242373955581e+18
14384.0	1.4460121409126397e+18
14385.0	1.4457077434941437e+18
14386.0	1.4453893236785147e+18
14387.0	1.445084058877952e+18
14388.0	1.4447708618096637e+18
14389.0	1.4444608524124157e+18
14390.0	1.4441484421955581e+18
14391.0	1.4438377969418237e+18
14392.0	1.443522938929152e+18
14393.0	1.4432153437732864e+18
14394.0	1.4428897533755392e+18
14395.0	1.4425813730459648e+18
14396.0	1.4422815641960448e+18
14397.0	1.4419710296719357e+18
14398.0	1.441658585900646e+18
14399.0	1.4413491771277307e+18
14400.0	1.441026910296473e+18
14401.0	1.4407255478763515e+18
14402.0	1.4404162229895163e+18
14403.0	1.4382982303317975e+18
14404.0	1.4343859328778225e+18
14405.0	1.4389383616528353e+18
14406.0	1.4391754253926397e+18
14407.0	1.4360134738247695e+18
14408.0	1.438538674680627e+18
14409.0	1.4382372686397437e+18
14410.0	1.4379286081306621e+18
14411.0	1.4376240077078523e+18
14412.0	1.4373139412680704e+18
14413.0	1.437005483763302e+18
14414.0	1.4366949542723584e+18
14415.0	1.4363858021908477e+18
14416.0	1.436072700752691e+18
14417.0	1.4357496269373437e+18
14418.0	1.4354353443831803e+18
14419.0	1.435147814777651e+18
14420.0	1.4348371561021435e+18
14421.0	1.4345297220075515e+18
14422.0	1.434219430753075e+18
14423.0	1.433908918039347e+18
14424.0	1.4222978883518374e+18
14425.0	1.433292397294387e+18
14426.0	1.4329851091615741e+18
14427.0	1.432676302690713e+18
14428.0	1.4323576479940608e+18
14429.0	1.4320562100764667e+18
14430.0	1.4317479824195581e+18
14431.0	1.4313013108539392e+18
14432.0	1.4311231250759677e+18
14433.0	1.428687120288971e+18
14434.0	1.4305088239566848e+18
14435.0	1.4301848089395197e+18
14436.0	1.429898383274803e+18
14437.0	1.4295904894844925e+18
14438.0	1.4292180386447357e+18
14439.0	1.4289621626126336e+18
14440.0	1.4286665983983613e+18
14441.0	1.4283560538079232e+18
14442.0	1.4280452424597501e+18
14443.0	1.4277223263502336e+18
14444.0	1.4274346306502653e+18
14445.0	1.427129085670195e+18
14446.0	1.4244360874885128e+18
14447.0	1.4265112663687163e+18
14448.0	1.4262074796408832e+18
14449.0	1.425900392834662e+18
14450.0	1.4255909773508603e+18
14451.0	1.4252850481725437e+18
14452.0	1.4249786559430653e+18
14453.0	1.4246365718642688e+18
14454.0	1.4243653883002877e+18
14455.0	1.4240556641157115e+18
14456.0	1.4237438947885053e+18
14457.0	1.423433241146163e+18
14458.0	1.4231358498930685e+18
14459.0	1.422829177484083e+18
14460.0	1.4225254729646077e+18
14461.0	1.4222078601330685e+18
14462.0	1.4217652184547325e+18
14463.0	1.4216048148479997e+18
14464.0	1.4213018317488125e+18
14465.0	1.4209866415472637e+18
14466.0	1.4206890456121341e+18
14467.0	1.420353898912153e+18
14468.0	1.4200756152303613e+18
14469.0	1.4197568363823101e+18
14470.0	1.4194545008836603e+18
14471.0	1.419155436942131e+18
14472.0	1.4188526736244736e+18
14473.0	1.4185501888086013e+18
14474.0	1.4182459239301117e+18
14475.0	1.4179384327929853e+18
14476.0	1.41747229294592e+18
14477.0	1.4172792190664701e+18
14478.0	1.4169732462673917e+18
14479.0	1.4166660957077501e+18
14480.0	1.4163581499080701e+18
14481.0	1.4160604516319232e+18
14482.0	1.415754498965504e+18
14483.0	1.4154467108716541e+18
14484.0	1.415144939087462e+18
14485.0	1.4148246049914877e+18
14486.0	1.4144181870002173e+18
14487.0	1.414232874260889e+18
14488.0	1.4139044401250301e+18
14489.0	1.413611320351129e+18
14490.0	1.4133161956999165e+18
14491.0	1.4130164925464573e+18
14492.0	1.412711685763891e+18
14493.0	1.4124039094140928e+18
14494.0	1.4120961934622717e+18
14495.0	1.4118015318622203e+18
14496.0	1.411443549693542e+18
14497.0	1.4111933124837376e+18
14498.0	1.4108900861149181e+18
14499.0	1.410587144958771e+18
14500.0	1.4102835964674045e+18
14501.0	1.4099220659175421e+18
14502.0	1.4095245046185981e+18
14503.0	1.409360888175001e+18
14504.0	1.409068218030489e+18
14505.0	1.408717097743155e+18
14506.0	1.4083397664112637e+18
14507.0	1.4080605314613248e+18
14508.0	1.4078557084975101e+18
14509.0	1.4075526717112317e+18
14510.0	1.4072490124902397e+18
14511.0	1.4069477020794877e+18
14512.0	1.406638790751027e+18
14513.0	1.4063425780973565e+18
14514.0	1.4060182443130875e+18
14515.0	1.4057363644350461e+18
14516.0	1.4044517934039045e+18
14517.0	1.4051329987051517e+18
14518.0	1.4048308083294205e+18
14519.0	1.404528732877619e+18
14520.0	1.4042262413508605e+18
14521.0	1.4039225150210045e+18
14522.0	1.403621018383155e+18
14523.0	1.4031816801386493e+18
14524.0	1.402883541460582e+18
14525.0	1.402715038652825e+18
14526.0	1.4024146224676861e+18
14527.0	1.4021075725713405e+18
14528.0	1.4017458348228608e+18
14529.0	1.401506925589299e+18
14530.0	1.4012015769026557e+18
14531.0	1.4009073271832573e+18
14532.0	1.4004026441990141e+18
14533.0	1.4003054529478653e+18
14534.0	1.400004664308531e+18
14535.0	1.3996989700112381e+18
14536.0	1.3994010150436864e+18
14537.0	1.3990956420300797e+18
14538.0	1.3988005794545661e+18
14539.0	1.3984999350992893e+18
14540.0	1.398199171625779e+18
14541.0	1.3978897519476736e+18
14542.0	1.3975970574761981e+18
14543.0	1.3972123668185085e+18
14544.0	1.396996673057587e+18
14545.0	1.396692330165043e+18
14546.0	1.381792202778204e+18
14547.0	1.383217605954752e+18
14548.0	1.3957900246450173e+18
14549.0	1.3954469297389565e+18
14550.0	1.3951917768048637e+18
14551.0	1.3948951900192765e+18
14552.0	1.3945943921524733e+18
14553.0	1.3942910298882048e+18
14554.0	1.3939954564464637e+18
14555.0	1.3936953263128573e+18
14556.0	1.3933923868344317e+18
14557.0	1.3930962882658301e+18
14558.0	1.3927965616242688e+18
14559.0	1.3917531051917284e+18
14560.0	1.3921758339923965e+18
14561.0	1.3918953365569533e+18
14562.0	1.3915866852753405e+18
14563.0	1.3912989098835965e+18
14564.0	1.3909869056753664e+18
14565.0	1.390701219885875e+18
14566.0	1.390402101418393e+18
14567.0	1.3901020325216256e+18
14568.0	1.3897716086079485e+18
14569.0	1.3895050010296317e+18
14570.0	1.3889869088555008e+18
14571.0	1.3889059587883005e+18
14572.0	1.3885799414104061e+18
14573.0	1.3882878836342781e+18
14574.0	1.3879744181305341e+18
14575.0	1.387709624169267e+18
14576.0	1.387409509135155e+18
14577.0	1.3871122932039677e+18
14578.0	1.3868156233711613e+18
14579.0	1.386518836097843e+18
14580.0	1.3862206277943293e+18
14581.0	1.3859179156471803e+18
14582.0	1.3856223052955645e+18
14583.0	1.3853260028837885e+18
14584.0	1.3850196005879805e+18
14585.0	1.3847299268542461e+18
14586.0	1.3844305483399165e+18
14587.0	1.3841313745076221e+18
14588.0	1.3838363027046397e+18
14589.0	1.3835495532396544e+18
14590.0	1.3832635184840701e+18
14591.0	1.3829744697016317e+18
14592.0	1.3826882151645181e+18
14593.0	1.3823581276340221e+18
14594.0	1.382118721794867e+18
14595.0	1.3818299599028221e+18
14596.0	1.3814675384827901e+18
14597.0	1.381172721693491e+18
14598.0	1.3809663434817536e+18
14599.0	1.380687395422208e+18
14600.0	1.380399325590323e+18
14601.0	1.380115811611443e+18
14602.0	1.3798191434563584e+18
14603.0	1.3795445205630973e+18
14604.0	1.3792367056257021e+18
14605.0	1.3789521757863933e+18
14606.0	1.3786518711697403e+18
14607.0	1.3784019678265344e+18
14608.0	1.3781162350608381e+18
14609.0	1.3778215910768637e+18
14610.0	1.3775063387996157e+18
14611.0	1.3772590803845117e+18
14612.0	1.3769766082707453e+18
14613.0	1.3766917395316733e+18
14614.0	1.3764049942609917e+18
14615.0	1.3761166794817533e+18
14616.0	1.3758365427564541e+18
14617.0	1.3755514265534461e+18
14618.0	1.3752534590029821e+18
14619.0	1.37494787040215e+18
14620.0	1.3744977813176317e+18
14621.0	1.3744118668722173e+18
14622.0	1.3741258430218237e+18
14623.0	1.3738422376071165e+18
14624.0	1.373534160106291e+18
14625.0	1.3732713936715773e+18
14626.0	1.372984161022771e+18
14627.0	1.3726951902543872e+18
14628.0	1.3724186874740733e+18
14629.0	1.3721340536160253e+18
14630.0	1.3718476698943485e+18
14631.0	1.3715640065982461e+18
14632.0	1.3703085742358533e+18
14633.0	1.370907189497036e+18
14634.0	1.3707069551017981e+18
14635.0	1.3701221105795046e+18
14636.0	1.3689080516706301e+18
14637.0	1.3698583115071485e+18
14638.0	1.3695696561504253e+18
14639.0	1.369282268312371e+18
14640.0	1.3690035886882813e+18
14641.0	1.3650836248854492e+18
14642.0	1.368434452673331e+18
14643.0	1.3681514654990333e+18
14644.0	1.3678619402436608e+18
14645.0	1.3675730961432573e+18
14646.0	1.3672804738138107e+18
