# Flux units: erg / (cm m2 s)
# Wavelength units: Angstrom
wave	flux
14000.0	1.73929603792896e+18
14001.0	1.7388694822453248e+18
14002.0	1.738448823753113e+18
14003.0	1.7380258231615485e+18
14004.0	1.7376029567877117e+18
14005.0	1.7371800333713403e+18
14006.0	1.7367567878324224e+18
14007.0	1.7363342217707517e+18
14008.0	1.7359061242609656e+18
14009.0	1.735489492300595e+18
14010.0	1.73506426872791e+18
14011.0	1.7346107101151232e+18
14012.0	1.7342200408965115e+18
14013.0	1.733798184511078e+18
14014.0	1.733376360002355e+18
14015.0	1.732954555626291e+18
14016.0	1.7325331304153085e+18
14017.0	1.7321117052043261e+18
14018.0	1.7316900501454848e+18
14019.0	1.731269238980608e+18
14020.0	1.730848130859008e+18
14021.0	1.7304271871541243e+18
14022.0	1.7300063910887421e+18
14023.0	1.729584960844595e+18
14024.0	1.729164491934924e+18
14025.0	1.7287448534974461e+18
14026.0	1.7283244600852477e+18
14027.0	1.7279043971842043e+18
14028.0	1.727484394681139e+18
14029.0	1.727064145552998e+18
14030.0	1.726610040002969e+18
14031.0	1.7262238402347005e+18
14032.0	1.7258047487344635e+18
14033.0	1.725380468041318e+18
14034.0	1.7249640676065277e+18
14035.0	1.7245449375186936e+18
14036.0	1.7241259080941565e+18
14037.0	1.7237067662622715e+18
14038.0	1.723288251898265e+18
14039.0	1.7228696133828605e+18
14040.0	1.7224503473995776e+18
14041.0	1.7220324504371197e+18
14042.0	1.7216138840637435e+18
14043.0	1.7211941013422075e+18
14044.0	1.7207777378172928e+18
14045.0	1.720360411280179e+18
14046.0	1.719942648535449e+18
14047.0	1.7195248807575547e+18
14048.0	1.7191074250358781e+18
14049.0	1.718690120309145e+18
14050.0	1.7182728743026688e+18
14051.0	1.7178552340316157e+18
14052.0	1.7174387279003648e+18
14053.0	1.7170217385852925e+18
14054.0	1.7166051066249213e+18
14055.0	1.7161880669782008e+18
14056.0	1.71577198027735e+18
14057.0	1.7153542007554043e+18
14058.0	1.7149365973942267e+18
14059.0	1.7145204771389435e+18
14060.0	1.7141044609024e+18
14061.0	1.7136881795858424e+18
14062.0	1.7132728294047741e+18
14063.0	1.7128562830082043e+18
14064.0	1.7124370522570747e+18
14065.0	1.7120258561146877e+18
14066.0	1.7116109522075643e+18
14067.0	1.7111948202082304e+18
14068.0	1.7107809296449533e+18
14069.0	1.7103659183636477e+18
14070.0	1.7099512795365376e+18
14071.0	1.709536514880307e+18
14072.0	1.709122151199539e+18
14073.0	1.7087077774524413e+18
14074.0	1.7082935261790203e+18
14075.0	1.7078760704573437e+18
14076.0	1.7074600223440893e+18
14077.0	1.7070390517956603e+18
14078.0	1.7066330180026365e+18
14079.0	1.7062196424998912e+18
14080.0	1.7058065152999424e+18
14081.0	1.7053931079204867e+18
14082.0	1.7049779221561341e+18
14083.0	1.7045666186395648e+18
14084.0	1.7041532213264381e+18
14085.0	1.7037199245574141e+18
14086.0	1.703324745623142e+18
14087.0	1.7029127290748925e+18
14088.0	1.7025001085468672e+18
14089.0	1.7020864125992957e+18
14090.0	1.7016754093948925e+18
14091.0	1.7012634096238587e+18
14092.0	1.7008513913978875e+18
14093.0	1.7004394671243261e+18
14094.0	1.7000277139783677e+18
14095.0	1.6996160799506427e+18
14096.0	1.6992027229028347e+18
14097.0	1.698792293479219e+18
14098.0	1.6983804799352832e+18
14099.0	1.6979706242924541e+18
14100.0	1.6975590473072637e+18
14101.0	1.6971487940444157e+18
14102.0	1.6967379250577403e+18
14103.0	1.696326608119398e+18
14104.0	1.695916796097331e+18
14105.0	1.695505527812915e+18
14106.0	1.695096088245043e+18
14107.0	1.694683383830937e+18
14108.0	1.6942751723552765e+18
14109.0	1.6938656791003133e+18
14110.0	1.6934541860012032e+18
14111.0	1.693042510030438e+18
14112.0	1.6926368436584448e+18
14113.0	1.692227493009817e+18
14114.0	1.6918171843821565e+18
14115.0	1.6914089410297853e+18
14116.0	1.690992137941811e+18
14117.0	1.6905337021923328e+18
14118.0	1.690179256660787e+18
14119.0	1.6897699110453243e+18
14120.0	1.6893613136936957e+18
14121.0	1.688952800228147e+18
14122.0	1.6885443958145021e+18
14123.0	1.6881345686929403e+18
14124.0	1.6877267850362875e+18
14125.0	1.6872952716853243e+18
14126.0	1.6869133316521981e+18
14127.0	1.686505623493017e+18
14128.0	1.6860979488882685e+18
14129.0	1.6856898884075515e+18
14130.0	1.685282289300275e+18
14131.0	1.6848759669391357e+18
14132.0	1.6844688594042877e+18
14133.0	1.6840317256859643e+18
14134.0	1.6836549563908093e+18
14135.0	1.6832473790939133e+18
14136.0	1.6828369345708032e+18
14137.0	1.682435085015449e+18
14138.0	1.682027928826675e+18
14139.0	1.681622493980262e+18
14140.0	1.6812129856258043e+18
14141.0	1.6808103123091453e+18
14142.0	1.6803978746527741e+18
14143.0	1.6799892353581056e+18
14144.0	1.679593068245811e+18
14145.0	1.679187537769267e+18
14146.0	1.6787820307808256e+18
14147.0	1.678376756995686e+18
14148.0	1.677971583873843e+18
14149.0	1.677566657377075e+18
14150.0	1.6771616268615677e+18
14151.0	1.676756795994931e+18
14152.0	1.6763506934153213e+18
14153.0	1.6759450354319357e+18
14154.0	1.6755391090130944e+18
14155.0	1.6750984906670077e+18
14156.0	1.6747307609358333e+18
14157.0	1.6743279282356221e+18
14158.0	1.6739234530459643e+18
14159.0	1.673520033143193e+18
14160.0	1.67311641191383e+18
14161.0	1.6727092775354365e+18
14162.0	1.6723034719125504e+18
14163.0	1.671905986111078e+18
14164.0	1.6715008616431613e+18
14165.0	1.671065142244147e+18
14166.0	1.670696462922547e+18
14167.0	1.6702930195316733e+18
14168.0	1.6698906431717376e+18
14169.0	1.669488469816115e+18
14170.0	1.6690855783956475e+18
14171.0	1.6686831651258363e+18
14172.0	1.6682813004709885e+18
14173.0	1.6678638330052603e+18
14174.0	1.6674768279306237e+18
14175.0	1.667075209900851e+18
14176.0	1.6666728117305344e+18
14177.0	1.666271497368371e+18
14178.0	1.6658698088742907e+18
14179.0	1.6654654209261565e+18
14180.0	1.6650674536185853e+18
14181.0	1.6646662634078205e+18
14182.0	1.6642651403059197e+18
14183.0	1.6638642353078272e+18
14184.0	1.6634631189168125e+18
14185.0	1.663062685358489e+18
14186.0	1.662650573180108e+18
14187.0	1.6622602613161984e+18
14188.0	1.661861198456422e+18
14189.0	1.6614605367279613e+18
14190.0	1.6610608061349885e+18
14191.0	1.660660783618457e+18
14192.0	1.6602595866968061e+18
14193.0	1.6598568932474877e+18
14194.0	1.659458863864217e+18
14195.0	1.6590594855927803e+18
14196.0	1.6586600603451392e+18
14197.0	1.6582607793815552e+18
14198.0	1.6578613205794813e+18
14199.0	1.6574618550665213e+18
14200.0	1.6570574000095224e+18
14201.0	1.6566647443685376e+18
14202.0	1.656266132815872e+18
14203.0	1.65586386550784e+18
14204.0	1.6554688879001597e+18
14205.0	1.655070590081433e+18
14206.0	1.654665880010752e+18
14207.0	1.6542744256184315e+18
14208.0	1.6538764633440253e+18
14209.0	1.653470887568998e+18
14210.0	1.653076258927411e+18
14211.0	1.6526831788228605e+18
14212.0	1.6522856544337915e+18
14213.0	1.6518881032011768e+18
14214.0	1.6514910032756733e+18
14215.0	1.6510927775989757e+18
14216.0	1.6506968487231485e+18
14217.0	1.6502999115366395e+18
14218.0	1.649902445867827e+18
14219.0	1.6495064582717437e+18
14220.0	1.64910990360576e+18
14221.0	1.6487134210818048e+18
14222.0	1.6483159638015995e+18
14223.0	1.6479206758154237e+18
14224.0	1.6475248123707392e+18
14225.0	1.6471117187252221e+18
14226.0	1.6467329881735163e+18
14227.0	1.6463372673351677e+18
14228.0	1.6459014724386813e+18
14229.0	1.645541089450393e+18
14230.0	1.6451507524206587e+18
14231.0	1.6447538034900987e+18
14232.0	1.644360332476416e+18
14233.0	1.64396512837632e+18
14234.0	1.6435701776121853e+18
14235.0	1.64317525704704e+18
14236.0	1.6427804237234176e+18
14237.0	1.6423860534509563e+18
14238.0	1.641991651301785e+18
14239.0	1.6415968716652544e+18
14240.0	1.6411272773894141e+18
14241.0	1.640807095966105e+18
14242.0	1.6404125075898365e+18
14243.0	1.6400100322443261e+18
14244.0	1.639624891118387e+18
14245.0	1.6392302960312315e+18
14246.0	1.6388356757782523e+18
14247.0	1.638444211319603e+18
14248.0	1.6380502990651392e+18
14249.0	1.6376577541537784e+18
14250.0	1.6372646824378365e+18
14251.0	1.6368718841905144e+18
14252.0	1.6364790708436992e+18
14253.0	1.6360863296389115e+18
14254.0	1.635693618633113e+18
14255.0	1.6352996828905472e+18
14256.0	1.634897908832665e+18
14257.0	1.6345165996228603e+18
14258.0	1.6341245932601344e+18
14259.0	1.6337317060935677e+18
14260.0	1.6333403959853053e+18
14261.0	1.632947690012672e+18
14262.0	1.6325588612546557e+18
14263.0	1.6321507370205181e+18
14264.0	1.6317733234802685e+18
14265.0	1.6313837884014592e+18
14266.0	1.6309933876183037e+18
14267.0	1.6306021563629563e+18
14268.0	1.630211322727628e+18
14269.0	1.6298203649409021e+18
14270.0	1.629429774575206e+18
14271.0	1.6290386020401147e+18
14272.0	1.6286485737111547e+18
14273.0	1.6282582400368637e+18
14274.0	1.6278438948110333e+18
14275.0	1.6274757355831293e+18
14276.0	1.6270847291424765e+18
14277.0	1.626695890318131e+18
14278.0	1.6263080581267453e+18
14279.0	1.6259183468871677e+18
14280.0	1.625528333657702e+18
14281.0	1.625139313639424e+18
14282.0	1.624749984920371e+18
14283.0	1.6243607501537277e+18
14284.0	1.6239716328275965e+18
14285.0	1.623582626231091e+18
14286.0	1.6231936129236987e+18
14287.0	1.622804972070502e+18
14288.0	1.6224162607529981e+18
14289.0	1.6219793484939261e+18
14290.0	1.6216385864597504e+18
14291.0	1.6212509639835648e+18
14292.0	1.6208628147027965e+18
14293.0	1.6204746150903803e+18
14294.0	1.620078998270771e+18
14295.0	1.6196980732592125e+18
14296.0	1.619270665293005e+18
14297.0	1.618921018045235e+18
14298.0	1.6185229400080381e+18
14299.0	1.6181457177280507e+18
14300.0	1.6177588200275968e+18
14301.0	1.6173706439032832e+18
14302.0	1.616984289784627e+18
14303.0	1.6165954325053435e+18
14304.0	1.616210105152307e+18
14305.0	1.6158236151382013e+18
14306.0	1.6154293975384061e+18
14307.0	1.6150491553595387e+18
14308.0	1.6146645460713472e+18
14309.0	1.6142779872706557e+18
14310.0	1.6138572750913533e+18
14311.0	1.6134947278422008e+18
14312.0	1.6131179535138813e+18
14313.0	1.612731034003046e+18
14314.0	1.6123484128149501e+18
14315.0	1.6119630737178621e+18
14316.0	1.6115747499540472e+18
14317.0	1.611184347493171e+18
14318.0	1.6108070128058365e+18
14319.0	1.6104219169783805e+18
14320.0	1.6100368580607997e+18
14321.0	1.6096519887257597e+18
14322.0	1.609264651462246e+18
14323.0	1.6088817651941376e+18
14324.0	1.6084976961323005e+18
14325.0	1.6081135196962813e+18
14326.0	1.6077291603886077e+18
14327.0	1.607344331318886e+18
14328.0	1.6069599971770365e+18
14329.0	1.6065763475456e+18
14330.0	1.606192466388582e+18
14331.0	1.605808608719667e+18
14332.0	1.605425022841651e+18
14333.0	1.6050414789066747e+18
14334.0	1.604658033957273e+18
14335.0	1.6042723895148541e+18
14336.0	1.6038883640737792e+18
14337.0	1.6035083584536576e+18
14338.0	1.603125292669337e+18
14339.0	1.6027424198230016e+18
14340.0	1.602359763402752e+18
14341.0	1.6019769459212285e+18
14342.0	1.6015945596141563e+18
14343.0	1.601210569405235e+18
14344.0	1.6008290370584576e+18
14345.0	1.6004476825501688e+18
14346.0	1.6000654673707003e+18
14347.0	1.5996824166858747e+18
14348.0	1.5993016946786304e+18
14349.0	1.5989199811379197e+18
14350.0	1.598537005950566e+18
14351.0	1.5981554752815104e+18
14352.0	1.5977753354436603e+18
14353.0	1.5973940883095547e+18
14354.0	1.5970126666924032e+18
14355.0	1.5966314581458944e+18
14356.0	1.5962506069540864e+18
14357.0	1.595869965477478e+18
14358.0	1.595489214948966e+18
14359.0	1.5951076322705403e+18
14360.0	1.5947262425300987e+18
14361.0	1.5943451514241021e+18
14362.0	1.5939648723353597e+18
14363.0	1.5935846217678843e+18
14364.0	1.5931994437320696e+18
14365.0	1.5928240115810301e+18
14366.0	1.592443950596096e+18
14367.0	1.592064948253491e+18
14368.0	1.591685291599462e+18
14369.0	1.5913057809072125e+18
14370.0	1.5909262333050875e+18
14371.0	1.5905456169943037e+18
14372.0	1.5901663025954813e+18
14373.0	1.589787310319206e+18
14374.0	1.589408341531033e+18
14375.0	1.589029468372992e+18
14376.0	1.5886507076222976e+18
14377.0	1.5882720173359104e+18
14378.0	1.5878933572485115e+18
14379.0	1.5875150847148032e+18
14380.0	1.5871367568162813e+18
14381.0	1.5867583752306685e+18
14382.0	1.58638027046912e+18
14383.0	1.585999942726451e+18
14384.0	1.585623201952563e+18
14385.0	1.5852468151779325e+18
14386.0	1.5848682574315515e+18
14387.0	1.5844915971883005e+18
14388.0	1.5841140058095613e+18
14389.0	1.5837367533305853e+18
14390.0	1.583359463941734e+18
14391.0	1.582982345680486e+18
14392.0	1.5826033735368704e+18
14393.0	1.5822285856309243e+18
14394.0	1.5818496436862976e+18
14395.0	1.5814704081403901e+18
14396.0	1.5810983582760957e+18
14397.0	1.5807221023637501e+18
14398.0	1.5803441804738557e+18
14399.0	1.579969447932723e+18
14400.0	1.5795895295541248e+18
14401.0	1.5792170183163901e+18
14402.0	1.5788414100045821e+18
14403.0	1.5779362473246705e+18
14404.0	1.576708844657049e+18
14405.0	1.5776469460451323e+18
14406.0	1.577338862672281e+18
14407.0	1.5761629660577795e+18
14408.0	1.5765858559197181e+18
14409.0	1.5762118649315328e+18
14410.0	1.575837217954201e+18
14411.0	1.575462872966758e+18
14412.0	1.575088125326131e+18
14413.0	1.5747134582161405e+18
14414.0	1.5743388397600763e+18
14415.0	1.5739644024979453e+18
14416.0	1.5735897974636541e+18
14417.0	1.5732135012859901e+18
14418.0	1.5728376195055613e+18
14419.0	1.5724674604335104e+18
14420.0	1.572093299995443e+18
14421.0	1.5717196713951232e+18
14422.0	1.571345948842393e+18
14423.0	1.5709720048304125e+18
14424.0	1.5673076494630884e+18
14425.0	1.5702250596859904e+18
14426.0	1.5698519411130365e+18
14427.0	1.569478867838566e+18
14428.0	1.5691031974510587e+18
14429.0	1.5687326357258237e+18
14430.0	1.5683598963179515e+18
14431.0	1.5679792565190653e+18
14432.0	1.5676117667020797e+18
14433.0	1.5666450299617272e+18
14434.0	1.5668687994355712e+18
14435.0	1.5664954275266557e+18
14436.0	1.5661248288915453e+18
14437.0	1.5657518999011325e+18
14438.0	1.565360549527552e+18
14439.0	1.5650024163639293e+18
14440.0	1.5646344601403387e+18
14441.0	1.5642623431671803e+18
14442.0	1.5638905785155581e+18
14443.0	1.5635170505785344e+18
14444.0	1.5631480122245115e+18
14445.0	1.5627769102729213e+18
14446.0	1.5617820616294403e+18
14447.0	1.562033894352486e+18
14448.0	1.561663747024486e+18
14449.0	1.5612928916979707e+18
14450.0	1.560922110191206e+18
14451.0	1.560551446124953e+18
14452.0	1.5601805874429947e+18
14453.0	1.5597984695713787e+18
14454.0	1.5594399907971072e+18
14455.0	1.559069603554918e+18
14456.0	1.5586972064022523e+18
14457.0	1.5583256934088701e+18
14458.0	1.5579566231781376e+18
14459.0	1.5575864204853248e+18
14460.0	1.557220141983334e+18
14461.0	1.5568493537656832e+18
14462.0	1.5564713060466685e+18
14463.0	1.556111473351065e+18
14464.0	1.5557425155276797e+18
14465.0	1.5553721937166333e+18
14466.0	1.5550040445550587e+18
14467.0	1.5546266427588605e+18
14468.0	1.554265628947251e+18
14469.0	1.5538964127547387e+18
14470.0	1.553527255282483e+18
14471.0	1.5531589584814075e+18
14472.0	1.5527912874704893e+18
14473.0	1.5524234621091835e+18
14474.0	1.552055225706086e+18
14475.0	1.551686652080947e+18
14476.0	1.5512803045539837e+18
14477.0	1.5509510399459325e+18
14478.0	1.5505831021772797e+18
14479.0	1.550214890940006e+18
14480.0	1.5498475420516347e+18
14481.0	1.5494804330774525e+18
14482.0	1.5491128090427392e+18
14483.0	1.5487450910556157e+18
14484.0	1.5483782253510653e+18
14485.0	1.5480089319833597e+18
14486.0	1.5476278274555904e+18
14487.0	1.5472774369771515e+18
14488.0	1.5469085160636413e+18
14489.0	1.5465432794267643e+18
14490.0	1.5461762946039803e+18
14491.0	1.545810900261273e+18
14492.0	1.5454444355321853e+18
14493.0	1.5450779489927165e+18
14494.0	1.544710871895244e+18
14495.0	1.5443460681105403e+18
14496.0	1.543972496552755e+18
14497.0	1.5436141855506432e+18
14498.0	1.543248256014745e+18
14499.0	1.5428827895300093e+18
14500.0	1.5425171938607101e+18
14501.0	1.5421340878110715e+18
14502.0	1.5417565417308152e+18
14503.0	1.5414197508636667e+18
14504.0	1.541055691987353e+18
14505.0	1.5406740992425984e+18
14506.0	1.540286407979827e+18
14507.0	1.5399475266715648e+18
14508.0	1.539596386251571e+18
14509.0	1.5392317250732032e+18
14510.0	1.5388671729467392e+18
14511.0	1.5385027181281277e+18
14512.0	1.53813742780416e+18
14513.0	1.5377741071253501e+18
14514.0	1.5374024062271485e+18
14515.0	1.5370451857440765e+18
14516.0	1.5365647802302467e+18
14517.0	1.5363180846907392e+18
14518.0	1.535954295927603e+18
14519.0	1.535590691713843e+18
14520.0	1.535227121054515e+18
14521.0	1.5348630772776957e+18
14522.0	1.5345003102470141e+18
14523.0	1.5340970748936192e+18
14524.0	1.5337311722012667e+18
14525.0	1.533410537793126e+18
14526.0	1.5330478731034621e+18
14527.0	1.532680079618867e+18
14528.0	1.5323106855878653e+18
14529.0	1.531956708140646e+18
14530.0	1.5315937850818557e+18
14531.0	1.531232147157811e+18
14532.0	1.5307954412584957e+18
14533.0	1.5305075274547197e+18
14534.0	1.5301454382235643e+18
14535.0	1.5297825554300925e+18
14536.0	1.5294213201592315e+18
14537.0	1.529058717545267e+18
14538.0	1.5286974420090877e+18
14539.0	1.5283360188334077e+18
14540.0	1.5279744094306301e+18
14541.0	1.5276120484085757e+18
14542.0	1.5272515144253437e+18
14543.0	1.526864146962841e+18
14544.0	1.5265289952296957e+18
14545.0	1.5261671425572864e+18
14546.0	1.5220987784069092e+18
14547.0	1.5221843606634463e+18
14548.0	1.5250844349890557e+18
14549.0	1.5247181061554173e+18
14550.0	1.5243637713534973e+18
14551.0	1.5240032759578627e+18
14552.0	1.5236419584786432e+18
14553.0	1.5232812550455293e+18
14554.0	1.522922236044902e+18
14555.0	1.522561970497126e+18
14556.0	1.5222008979652605e+18
14557.0	1.5218420450590715e+18
14558.0	1.521482156998656e+18
14559.0	1.5210309169971195e+18
14560.0	1.5207577268781053e+18
14561.0	1.5204027713191936e+18
14562.0	1.5200420158767101e+18
14563.0	1.5196842367123453e+18
14564.0	1.5193240516952056e+18
14565.0	1.5189658547781632e+18
14566.0	1.5186068089339896e+18
14567.0	1.5182477530234875e+18
14568.0	1.517885115177369e+18
14569.0	1.5175299717136381e+18
14570.0	1.5171458489647104e+18
14571.0	1.516812354820505e+18
14572.0	1.5164509064790013e+18
14573.0	1.5160928756563963e+18
14574.0	1.5157345126449147e+18
14575.0	1.5153785521307643e+18
14576.0	1.5150204827205632e+18
14577.0	1.514662460286566e+18
14578.0	1.5143043086680064e+18
14579.0	1.513946353342873e+18
14580.0	1.513588631221043e+18
14581.0	1.5132281677021184e+18
14582.0	1.5128731785887741e+18
14583.0	1.5125156108173307e+18
14584.0	1.512157470942822e+18
14585.0	1.5118006984114173e+18
14586.0	1.5114431675498493e+18
14587.0	1.5110852726226941e+18
14588.0	1.5107302063341565e+18
14589.0	1.5103867431682043e+18
14590.0	1.5100452966236157e+18
14591.0	1.5097037980696573e+18
14592.0	1.5093625192972288e+18
14593.0	1.5090147913629693e+18
14594.0	1.508680292263526e+18
14595.0	1.5083388222308347e+18
14596.0	1.507991357698867e+18
14597.0	1.507652800190873e+18
14598.0	1.5073160244232192e+18
14599.0	1.50697555263488e+18
14600.0	1.506634676515635e+18
14601.0	1.5062941594288125e+18
14602.0	1.5059513673515003e+18
14603.0	1.505612749445529e+18
14604.0	1.505269950657331e+18
14605.0	1.5049308478898173e+18
14606.0	1.5045870743453693e+18
14607.0	1.5042515585466365e+18
14608.0	1.5039109290524672e+18
14609.0	1.5035662763819005e+18
14610.0	1.5032287305400315e+18
14611.0	1.5028911830204413e+18
14612.0	1.5025515299602432e+18
14613.0	1.5022117460377597e+18
14614.0	1.501871790987673e+18
14615.0	1.5015311765929981e+18
14616.0	1.5011926392176637e+18
14617.0	1.5008530448777213e+18
14618.0	1.5005113517080576e+18
14619.0	1.500171953661542e+18
14620.0	1.4998229842132992e+18
14621.0	1.4994954023600125e+18
14622.0	1.4991561435643901e+18
14623.0	1.4988169485221885e+18
14624.0	1.4984744936669181e+18
14625.0	1.4981387312431101e+18
14626.0	1.4977985564114941e+18
14627.0	1.4974583815798781e+18
14628.0	1.497121869214515e+18
14629.0	1.4967830852141053e+18
14630.0	1.4964442290716667e+18
14631.0	1.4961049702760448e+18
14632.0	1.4955039449677821e+18
14633.0	1.495403726268006e+18
14634.0	1.4950890511269888e+18
14635.0	1.4947184088711163e+18
14636.0	1.494289128567603e+18
14637.0	1.4940743885914107e+18
14638.0	1.493735878059622e+18
14639.0	1.493396001862451e+18
14640.0	1.4930569376825341e+18
14641.0	1.4917128276672497e+18
14642.0	1.4923805306650621e+18
14643.0	1.4920427163877368e+18
14644.0	1.4917042494767101e+18
14645.0	1.4913653044150267e+18
14646.0	1.4910270740627453e+18
14647.0	1.4906895433203707e+18
14648.0	1.4903529151922173e+18
