# Flux units: erg / (cm m2 s)
# Wavelength units: Angstrom
wave	flux
14000.0	1.7612834133245947e+18
14001.0	1.760827682062336e+18
14002.0	1.7606523970650107e+18
14003.0	1.7603275398316027e+18
14004.0	1.760000248224153e+18
14005.0	1.759672876086067e+18
14006.0	1.759336409019187e+18
14007.0	1.7590085285314557e+18
14008.0	1.7585789177167872e+18
14009.0	1.7583625067298813e+18
14010.0	1.7580221389602813e+18
14011.0	1.7569601294434304e+18
14012.0	1.7573824673349627e+18
14013.0	1.7570563669098493e+18
14014.0	1.7567233291059197e+18
14015.0	1.7564003391766525e+18
14016.0	1.7560764550217725e+18
14017.0	1.7557500123414525e+18
14018.0	1.7554234538983421e+18
14019.0	1.7550972125446141e+18
14020.0	1.7547700887093243e+18
14021.0	1.7544430688927741e+18
14022.0	1.7541145575817213e+18
14023.0	1.7537751545020413e+18
14024.0	1.7534472270381053e+18
14025.0	1.753139658725785e+18
14026.0	1.7528123738292221e+18
14027.0	1.7524888151523325e+18
14028.0	1.752156247110451e+18
14029.0	1.7518334467637248e+18
14030.0	1.7505351284817925e+18
14031.0	1.7511489464172544e+18
14032.0	1.7508581066670077e+18
14033.0	1.750482845643571e+18
14034.0	1.7502085062852605e+18
14035.0	1.749885073437491e+18
14036.0	1.74956011889623e+18
14037.0	1.7492351257673725e+18
14038.0	1.748910174581555e+18
14039.0	1.7485807187132413e+18
14040.0	1.7482525815341056e+18
14041.0	1.747932158518886e+18
14042.0	1.7475972903206907e+18
14043.0	1.7472386035089403e+18
14044.0	1.7469469433528315e+18
14045.0	1.7466325769125888e+18
14046.0	1.7463084109004797e+18
14047.0	1.7459777336508408e+18
14048.0	1.745661290191257e+18
14049.0	1.7453402011205627e+18
14050.0	1.7450161441603581e+18
14051.0	1.744682052747264e+18
14052.0	1.7443641077268477e+18
14053.0	1.744043917914931e+18
14054.0	1.7437204666122235e+18
14055.0	1.7433967217082363e+18
14056.0	1.7430730120364027e+18
14057.0	1.7427494567149565e+18
14058.0	1.7424259198484475e+18
14059.0	1.7421024719011837e+18
14060.0	1.7417790759632893e+18
14061.0	1.7414476034736125e+18
14062.0	1.7411324736700413e+18
14063.0	1.7407915606409213e+18
14064.0	1.740297288758067e+18
14065.0	1.740152952691097e+18
14066.0	1.73984023880663e+18
14067.0	1.7395096152440827e+18
14068.0	1.739194572682035e+18
14069.0	1.738869074558976e+18
14070.0	1.7385485139705853e+18
14071.0	1.7382230175252477e+18
14072.0	1.7379039232655357e+18
14073.0	1.7375814718849024e+18
14074.0	1.7372591480111104e+18
14075.0	1.7369171394297853e+18
14076.0	1.736605021136486e+18
14077.0	1.7360742218989565e+18
14078.0	1.735954308425318e+18
14079.0	1.7356369271193597e+18
14080.0	1.7353263791734781e+18
14081.0	1.7350045250617341e+18
14082.0	1.7346793272508413e+18
14083.0	1.7343592330690552e+18
14084.0	1.7340388587077632e+18
14085.0	1.7333541285134333e+18
14086.0	1.7333781115437053e+18
14087.0	1.7330746117062656e+18
14088.0	1.7327386949320696e+18
14089.0	1.732424952604262e+18
14090.0	1.7321058013020157e+18
14091.0	1.7317896497659896e+18
14092.0	1.7314686194155515e+18
14093.0	1.7311475924205565e+18
14094.0	1.7308266073686008e+18
14095.0	1.7305055333974016e+18
14096.0	1.7301393354260477e+18
14097.0	1.7298437577900032e+18
14098.0	1.7295236870963195e+18
14099.0	1.729222764239257e+18
14100.0	1.728887815510425e+18
14101.0	1.7285820289384448e+18
14102.0	1.7282613928525821e+18
14103.0	1.7279227732688893e+18
14104.0	1.72761796313088e+18
14105.0	1.7273005851803648e+18
14106.0	1.726980697358336e+18
14107.0	1.726659710628659e+18
14108.0	1.7263281525751805e+18
14109.0	1.7260151165681661e+18
14110.0	1.725696173303398e+18
14111.0	1.7253700930109437e+18
14112.0	1.7250528610222075e+18
14113.0	1.724741687286169e+18
14114.0	1.7244076646596605e+18
14115.0	1.7241005761757181e+18
14116.0	1.7237497142575104e+18
14117.0	1.7217692377284605e+18
14118.0	1.7231428051795965e+18
14119.0	1.7227944279670784e+18
14120.0	1.7224838749880315e+18
14121.0	1.7221719194337277e+18
14122.0	1.7218317580238843e+18
14123.0	1.7215292983738363e+18
14124.0	1.721205555147571e+18
14125.0	1.720375784243199e+18
14126.0	1.7205888045547515e+18
14127.0	1.7202746411188221e+18
14128.0	1.7199546325008381e+18
14129.0	1.719624339449446e+18
14130.0	1.7192964740612093e+18
14131.0	1.7190010843299837e+18
14132.0	1.7186762824613885e+18
14133.0	1.7177375385059315e+18
14134.0	1.7180455514144765e+18
14135.0	1.7177101597671421e+18
14136.0	1.7173768250064893e+18
14137.0	1.71708903367639e+18
14138.0	1.7167552861962237e+18
14139.0	1.7164562021220352e+18
14140.0	1.7161322324033533e+18
14141.0	1.715812327804108e+18
14142.0	1.7153755950612475e+18
14143.0	1.7151810011660285e+18
14144.0	1.7148689399152637e+18
14145.0	1.714549932897075e+18
14146.0	1.7142300786294784e+18
14147.0	1.7139150847213565e+18
14148.0	1.7135958277226493e+18
14149.0	1.7132796174663672e+18
14150.0	1.7129662559813627e+18
14151.0	1.712641017905152e+18
14152.0	1.712332533556838e+18
14153.0	1.712015554904064e+18
14154.0	1.71167095759831e+18
14155.0	1.711272976868966e+18
14156.0	1.7110493349019643e+18
14157.0	1.7107491837968381e+18
14158.0	1.7104279990960125e+18
14159.0	1.7101160586412027e+18
14160.0	1.7097920050364413e+18
14161.0	1.7094155511529472e+18
14162.0	1.7090452998062075e+18
14163.0	1.7088489828909053e+18
14164.0	1.7084741496864765e+18
14165.0	1.7081439220662272e+18
14166.0	1.7079016791998461e+18
14167.0	1.7075718290669563e+18
14168.0	1.707267648074547e+18
14169.0	1.706956330054451e+18
14170.0	1.7066355396182013e+18
14171.0	1.706321629518233e+18
14172.0	1.7060096420872187e+18
14173.0	1.7056456905850875e+18
14174.0	1.705373134644838e+18
14175.0	1.705063657085337e+18
14176.0	1.7047484853387267e+18
14177.0	1.7044333823787005e+18
14178.0	1.704117259363942e+18
14179.0	1.7037935949905915e+18
14180.0	1.703488405687501e+18
14181.0	1.7031735443193856e+18
14182.0	1.7028577786593277e+18
14183.0	1.70254398432215e+18
14184.0	1.702223351591731e+18
14185.0	1.7019141793775613e+18
14186.0	1.7012848173514752e+18
14187.0	1.7012566651830272e+18
14188.0	1.700966654227251e+18
14189.0	1.7006537054617597e+18
14190.0	1.7003401124511741e+18
14191.0	1.7000248836620285e+18
14192.0	1.6997046317744128e+18
14193.0	1.6993501610770427e+18
14194.0	1.6990827725193213e+18
14195.0	1.6987725785726976e+18
14196.0	1.6984584268808187e+18
14197.0	1.698144666098073e+18
14198.0	1.6978250416783357e+18
14199.0	1.6975146715709435e+18
14200.0	1.6970139622703104e+18
14201.0	1.6968805649481725e+18
14202.0	1.696575181029376e+18
14203.0	1.6962522582089725e+18
14204.0	1.695946886034227e+18
14205.0	1.6956337678188541e+18
14206.0	1.6951781808406525e+18
14207.0	1.6950103331831803e+18
14208.0	1.6946977702936576e+18
14209.0	1.694230700988825e+18
14210.0	1.6939629701758968e+18
14211.0	1.6937534915346432e+18
14212.0	1.6934453913845752e+18
14213.0	1.6931014383239165e+18
14214.0	1.6927829346222077e+18
14215.0	1.692455580939059e+18
14216.0	1.6921589731819512e+18
14217.0	1.6918463582830595e+18
14218.0	1.6915207779516413e+18
14219.0	1.6912213029683195e+18
14220.0	1.6909071932194813e+18
14221.0	1.690594038094233e+18
14222.0	1.6902630001344507e+18
14223.0	1.6899718231621635e+18
14224.0	1.6896599313612797e+18
14225.0	1.6887529902964739e+18
14226.0	1.6890332268462077e+18
14227.0	1.6887239137034237e+18
14228.0	1.6868522961403907e+18
14229.0	1.6877863441530862e+18
14230.0	1.6877888791904253e+18
14231.0	1.687435725504512e+18
14232.0	1.6871294758813693e+18
14233.0	1.6868131532177405e+18
14234.0	1.68650643383255e+18
14235.0	1.686191906331033e+18
14236.0	1.6858833766842365e+18
14237.0	1.6855704530845693e+18
14238.0	1.685260118209331e+18
14239.0	1.684941966829158e+18
14240.0	1.682686140953395e+18
14241.0	1.684229852862873e+18
14242.0	1.6836510959534077e+18
14243.0	1.6831625719447547e+18
14244.0	1.6830318572994557e+18
14245.0	1.6827040942522365e+18
14246.0	1.6823891305431037e+18
14247.0	1.68209469711319e+18
14248.0	1.6817689389432832e+18
14249.0	1.6814764768362496e+18
14250.0	1.6811657644736512e+18
14251.0	1.6808252809412603e+18
14252.0	1.6805122097020923e+18
14253.0	1.6802008665161725e+18
14254.0	1.6798885301190656e+18
14255.0	1.6795402183376893e+18
14256.0	1.6786686553882624e+18
14257.0	1.6789277157359613e+18
14258.0	1.6786504504311805e+18
14259.0	1.678318889022259e+18
14260.0	1.6780068596482048e+18
14261.0	1.6776988165406715e+18
14262.0	1.6774317215842304e+18
14263.0	1.6762430088544259e+18
14264.0	1.6766374076481528e+18
14265.0	1.6764985426313213e+18
14266.0	1.6761928768552957e+18
14267.0	1.6758851307044861e+18
14268.0	1.6755757655523325e+18
14269.0	1.675256065635123e+18
14270.0	1.674957011759923e+18
14271.0	1.6746465879654397e+18
14272.0	1.6743380566409213e+18
14273.0	1.6740233781444605e+18
14274.0	1.6723483408990213e+18
14275.0	1.673251694995046e+18
14276.0	1.673049136955392e+18
14277.0	1.6727410686820352e+18
14278.0	1.6724487475036157e+18
14279.0	1.6721387028742141e+18
14280.0	1.671822928825548e+18
14281.0	1.6715225411616763e+18
14282.0	1.6712142212300795e+18
14283.0	1.670905572465049e+18
14284.0	1.6705969538990075e+18
14285.0	1.6702880987742205e+18
14286.0	1.6699775944491003e+18
14287.0	1.6696713800581115e+18
14288.0	1.6693623487725565e+18
14289.0	1.6678033091985388e+18
14290.0	1.6687445177270272e+18
14291.0	1.6684372614709248e+18
14292.0	1.668130387735347e+18
14293.0	1.667819566320844e+18
14294.0	1.6673528577261565e+18
14295.0	1.6671912142831616e+18
14296.0	1.6658885557354506e+18
14297.0	1.6665881119555581e+18
14298.0	1.6659784195375104e+18
14299.0	1.6659296766918653e+18
14300.0	1.665623469011763e+18
14301.0	1.6653208483004416e+18
14302.0	1.66501494596567e+18
14303.0	1.6646703805366267e+18
14304.0	1.664381314138112e+18
14305.0	1.664092589994803e+18
14306.0	1.663763035140915e+18
14307.0	1.663465991176192e+18
14308.0	1.663168943856025e+18
14309.0	1.6628551780401147e+18
14310.0	1.6624490486169595e+18
14311.0	1.6620316734259197e+18
14312.0	1.6618720700923904e+18
14313.0	1.6614812263907323e+18
14314.0	1.6613206600450048e+18
14315.0	1.6608173016219648e+18
14316.0	1.6604306606129152e+18
14317.0	1.6601614802485248e+18
14318.0	1.6598789519310843e+18
14319.0	1.659573272733286e+18
14320.0	1.659266145661747e+18
14321.0	1.6589572267835392e+18
14322.0	1.6586078077059072e+18
14323.0	1.6583254907813885e+18
14324.0	1.6580415481446397e+18
14325.0	1.6577248177946621e+18
14326.0	1.6574261145632765e+18
14327.0	1.657081482025369e+18
14328.0	1.656774707275366e+18
14329.0	1.6564764855500797e+18
14330.0	1.6561703483342848e+18
14331.0	1.655863877251891e+18
14332.0	1.655558152755609e+18
14333.0	1.655252226932736e+18
14334.0	1.6549463195648e+18
14335.0	1.6546239537479683e+18
14336.0	1.6542710533980157e+18
14337.0	1.6540256195051515e+18
14338.0	1.6537194739007485e+18
14339.0	1.6534048339918843e+18
14340.0	1.6531113988063232e+18
14341.0	1.6528020856635387e+18
14342.0	1.652498295580262e+18
14343.0	1.6521909889925115e+18
14344.0	1.6518843048394747e+18
14345.0	1.65158466879488e+18
14346.0	1.6512748322029565e+18
14347.0	1.6509399723933693e+18
14348.0	1.650667788907315e+18
14349.0	1.6503640978096125e+18
14350.0	1.6500120195432443e+18
14351.0	1.649697393056153e+18
14352.0	1.6494383712960512e+18
14353.0	1.6491419967422461e+18
14354.0	1.6488327154761725e+18
14355.0	1.648517386023731e+18
14356.0	1.6482172550512637e+18
14357.0	1.6479260411691005e+18
14358.0	1.6476202948624381e+18
14359.0	1.6472670690344957e+18
14360.0	1.6469742327955453e+18
14361.0	1.646672617039462e+18
14362.0	1.646369917475225e+18
14363.0	1.6460650637164541e+18
14364.0	1.6456129227784192e+18
14365.0	1.6454270127702013e+18
14366.0	1.6451244608454653e+18
14367.0	1.644848626637209e+18
14368.0	1.6445438836080637e+18
14369.0	1.6442404223582203e+18
14370.0	1.643936504768102e+18
14371.0	1.6436327180402685e+18
14372.0	1.6433223613546493e+18
14373.0	1.643023225271091e+18
14374.0	1.6427202857926656e+18
14375.0	1.642414371713843e+18
14376.0	1.642113593140838e+18
14377.0	1.6418091521015803e+18
14378.0	1.641503046762496e+18
14379.0	1.641202721174323e+18
14380.0	1.640897827150233e+18
14381.0	1.640582566484377e+18
14382.0	1.6402904751538168e+18
14383.0	1.639983277617971e+18
14384.0	1.6396647974043648e+18
14385.0	1.6393823563284475e+18
14386.0	1.6390591852052475e+18
14387.0	1.638775552946995e+18
14388.0	1.6384701858054141e+18
14389.0	1.6381691371192315e+18
14390.0	1.6378638739963904e+18
14391.0	1.6375633269489661e+18
14392.0	1.6372585923084285e+18
14393.0	1.6369577717923837e+18
14394.0	1.6366116376936443e+18
14395.0	1.636327040745472e+18
14396.0	1.6360163753590781e+18
14397.0	1.6357137412259837e+18
14398.0	1.635410244743987e+18
14399.0	1.63510797467648e+18
14400.0	1.6347814883753981e+18
14401.0	1.6344948060192765e+18
14402.0	1.6341977167560704e+18
14403.0	1.6325366633201644e+18
14404.0	1.6280015821864934e+18
14405.0	1.6311912329379794e+18
14406.0	1.632987401682944e+18
14407.0	1.6307599628566536e+18
14408.0	1.6323646448467963e+18
14409.0	1.632058509308723e+18
14410.0	1.6317692583608315e+18
14411.0	1.6314779270381565e+18
14412.0	1.6311727041806333e+18
14413.0	1.6307725189251072e+18
14414.0	1.6301225410559997e+18
14415.0	1.629822114804531e+18
14416.0	1.6295188532035581e+18
14417.0	1.6292086592569344e+18
14418.0	1.6288918785753085e+18
14419.0	1.6286142945034237e+18
14420.0	1.6283081354772477e+18
14421.0	1.6280121182781435e+18
14422.0	1.6277055448547325e+18
14423.0	1.6273912723668987e+18
14424.0	1.6193239698636756e+18
14425.0	1.6267939346907133e+18
14426.0	1.626505277656268e+18
14427.0	1.6262037290090493e+18
14428.0	1.6258791351779325e+18
14429.0	1.625596977636966e+18
14430.0	1.6253017808437243e+18
14431.0	1.624735137084211e+18
14432.0	1.6246932292763648e+18
14433.0	1.6229403843362803e+18
14434.0	1.6240770809855997e+18
14435.0	1.6237529418170363e+18
14436.0	1.6234832598138875e+18
14437.0	1.6231639273177085e+18
14438.0	1.6228034688319485e+18
14439.0	1.622549736928051e+18
14440.0	1.6222603484069888e+18
14441.0	1.6219480505974781e+18
14442.0	1.621640057821593e+18
14443.0	1.6212889073352701e+18
14444.0	1.6210517714534397e+18
14445.0	1.620756621636403e+18
14446.0	1.6181276084011018e+18
14447.0	1.620140444824371e+18
14448.0	1.619856111278489e+18
14449.0	1.6195559618510848e+18
14450.0	1.619249218977792e+18
14451.0	1.6189501852352507e+18
14452.0	1.618652909744947e+18
14453.0	1.618330392933171e+18
14454.0	1.6180533457321981e+18
14455.0	1.6177424639197181e+18
14456.0	1.617445225339289e+18
14457.0	1.6171446329933821e+18
14458.0	1.6168493321814013e+18
14459.0	1.6165461980872701e+18
14460.0	1.6162432820969467e+18
14461.0	1.615898282138009e+18
14462.0	1.6154508186877955e+18
14463.0	1.615330984067072e+18
14464.0	1.6150473048326141e+18
14465.0	1.614719281738547e+18
14466.0	1.6144486165905403e+18
14467.0	1.6141145385992192e+18
14468.0	1.613847123197952e+18
14469.0	1.6135092904656893e+18
14470.0	1.6132162629664765e+18
14471.0	1.6129404690235387e+18
14472.0	1.6126475036000253e+18
14473.0	1.6123530936582141e+18
14474.0	1.6120560513712128e+18
14475.0	1.6117532897312763e+18
14476.0	1.611364529759846e+18
14477.0	1.6111577186959357e+18
14478.0	1.6108562170249216e+18
14479.0	1.6105579885887488e+18
14480.0	1.6102391929634813e+18
14481.0	1.6099622833356797e+18
14482.0	1.609658454664806e+18
14483.0	1.609350856153497e+18
14484.0	1.609051543909171e+18
14485.0	1.6087190698196992e+18
14486.0	1.6080615556251648e+18
14487.0	1.608134543225651e+18
14488.0	1.607820423410483e+18
14489.0	1.6075129238847488e+18
14490.0	1.6072301288095741e+18
14491.0	1.6069382086066168e+18
14492.0	1.6066409398271997e+18
14493.0	1.6063342120534013e+18
14494.0	1.606017055562137e+18
14495.0	1.6057438167891965e+18
14496.0	1.605276536091443e+18
14497.0	1.6051448315903997e+18
14498.0	1.6048474990575608e+18
14499.0	1.6045489854087163e+18
14500.0	1.604249753695027e+18
14501.0	1.6039048091009021e+18
14502.0	1.6033404990521341e+18
14503.0	1.6033279966707707e+18
14504.0	1.6030474497425403e+18
14505.0	1.602717066094182e+18
14506.0	1.602375943349862e+18
14507.0	1.6018497914011648e+18
14508.0	1.6018605137199101e+18
14509.0	1.601562241662976e+18
14510.0	1.6012594649235453e+18
14511.0	1.600964791579443e+18
14512.0	1.600647061307392e+18
14513.0	1.6003678984994813e+18
14514.0	1.6000267589779453e+18
14515.0	1.5997692052242424e+18
14516.0	1.5962598478446612e+18
14517.0	1.599170194859622e+18
14518.0	1.598875516482355e+18
14519.0	1.598577460851507e+18
14520.0	1.598277923792486e+18
14521.0	1.597979826218598e+18
14522.0	1.5976807941537787e+18
14523.0	1.5972744348827643e+18
14524.0	1.5969917119496192e+18
14525.0	1.5967805908189181e+18
14526.0	1.5964863754928128e+18
14527.0	1.596159582168678e+18
14528.0	1.5957204049854464e+18
14529.0	1.5955803051655165e+18
14530.0	1.5952739028697085e+18
14531.0	1.594994969909657e+18
14532.0	1.5945710113390592e+18
14533.0	1.5944003585310715e+18
14534.0	1.5941042087919616e+18
14535.0	1.5937930350559232e+18
14536.0	1.5935032858247165e+18
14537.0	1.5931944407662587e+18
14538.0	1.5929117899751421e+18
14539.0	1.592613819908096e+18
14540.0	1.5923157340782592e+18
14541.0	1.5919907292053501e+18
14542.0	1.591302232526029e+18
14543.0	1.5907833702776824e+18
14544.0	1.590554176729907e+18
14545.0	1.5902465748631547e+18
14546.0	1.5795356730130378e+18
14547.0	1.5799650573352886e+18
14548.0	1.5890096611917821e+18
14549.0	1.5885789179150333e+18
14550.0	1.5884225743945725e+18
14551.0	1.588135405499187e+18
14552.0	1.5878354724978685e+18
14553.0	1.5875281910759421e+18
14554.0	1.587241540596531e+18
14555.0	1.5869431175446525e+18
14556.0	1.586643053681049e+18
14557.0	1.5863470767472637e+18
14558.0	1.5860473836601341e+18
14559.0	1.5833904648814554e+18
14560.0	1.5854442276454397e+18
14561.0	1.5851455294472192e+18
14562.0	1.5848237877428221e+18
14563.0	1.5845568471367677e+18
14564.0	1.5842375582613501e+18
14565.0	1.583962895102771e+18
14566.0	1.5836648696709112e+18
14567.0	1.5833653879767037e+18
14568.0	1.5830451159564288e+18
14569.0	1.5827691139760128e+18
14570.0	1.581808257649868e+18
14571.0	1.582169190930841e+18
14572.0	1.5818207583535101e+18
14573.0	1.581515147942297e+18
14574.0	1.5812254490427387e+18
14575.0	1.5809745038344187e+18
14576.0	1.5806722438332416e+18
14577.0	1.5803762803212285e+18
14578.0	1.5800820431847421e+18
14579.0	1.5797882036682747e+18
14580.0	1.5794901883027453e+18
14581.0	1.579185623112089e+18
14582.0	1.578889418008166e+18
14583.0	1.5785948906258424e+18
14584.0	1.5782757242241021e+18
14585.0	1.5779982324269053e+18
14586.0	1.5776957241229307e+18
14587.0	1.577399589483315e+18
14588.0	1.5771029683044347e+18
14589.0	1.5768105565290493e+18
14590.0	1.5765181078437885e+18
14591.0	1.5762225570512893e+18
14592.0	1.5759252798832637e+18
14593.0	1.5754918287638523e+18
14594.0	1.575346410566451e+18
14595.0	1.5750436606705664e+18
14596.0	1.574613006313062e+18
14597.0	1.5742954689789944e+18
14598.0	1.5741581407551485e+18
14599.0	1.5738821186420733e+18
14600.0	1.5735853347241981e+18
14601.0	1.573294617447629e+18
14602.0	1.5729908206534653e+18
14603.0	1.572708283947417e+18
14604.0	1.5723534609285115e+18
14605.0	1.572089864021606e+18
14606.0	1.5717365006204923e+18
14607.0	1.5714968246681595e+18
14608.0	1.5712095752421379e+18
14609.0	1.5709106069307387e+18
14610.0	1.5705715544948733e+18
14611.0	1.5703212350767101e+18
14612.0	1.5700390775357437e+18
14613.0	1.5697471925649405e+18
14614.0	1.569449140289536e+18
14615.0	1.5691586679603197e+18
14616.0	1.5688667477573632e+18
14617.0	1.568572596184678e+18
14618.0	1.5682713277169664e+18
14619.0	1.5678835190136824e+18
14620.0	1.5673332514947072e+18
14621.0	1.5673971693322237e+18
14622.0	1.5670996925153277e+18
14623.0	1.5668094164795392e+18
14624.0	1.5664417303691264e+18
14625.0	1.5662170868023293e+18
14626.0	1.5659218094784507e+18
14627.0	1.5656244786233344e+18
14628.0	1.5653373533487104e+18
14629.0	1.5650424937775104e+18
14630.0	1.564744022071705e+18
14631.0	1.5644520095940605e+18
14632.0	1.5635157453111296e+18
14633.0	1.5637744466264056e+18
14634.0	1.5635606528851965e+18
14635.0	1.5631112214675448e+18
14636.0	1.562594676152729e+18
14637.0	1.5626812600090621e+18
14638.0	1.5623775001247744e+18
14639.0	1.5620702405132285e+18
14640.0	1.561788188668723e+18
14641.0	1.5590085864980462e+18
14642.0	1.5611944463499264e+18
14643.0	1.5609046367207427e+18
14644.0	1.5604724606697472e+18
14645.0	1.559970330338918e+18
14646.0	1.5596877818888187e+18
14647.0	1.5593747391709181e+18
