# Flux units: erg / (cm m2 s)
# Wavelength units: Angstrom
wave	flux
14000.0	1.7510968162516982e+18
14001.0	1.7516256743653379e+18
14002.0	1.7515595956223997e+18
14003.0	1.7512709268439035e+18
14004.0	1.7509647845949437e+18
14005.0	1.7506627192094717e+18
14006.0	1.7503437205798912e+18
14007.0	1.7500304111042557e+18
14008.0	1.7496058015776765e+18
14009.0	1.749403208305868e+18
14010.0	1.7490844613345272e+18
14011.0	1.7481335052435456e+18
14012.0	1.7484650549084157e+18
14013.0	1.748184153980928e+18
14014.0	1.7478714585513981e+18
14015.0	1.7475670628106235e+18
14016.0	1.747259143854489e+18
14017.0	1.746950082369945e+18
14018.0	1.7465939121405947e+18
14019.0	1.7463305366929405e+18
14020.0	1.746019795809075e+18
14021.0	1.7457083687370752e+18
14022.0	1.7453934973026304e+18
14023.0	1.7450714368311293e+18
14024.0	1.7447628753076221e+18
14025.0	1.744466710469017e+18
14026.0	1.7441568084459517e+18
14027.0	1.7438446448541693e+18
14028.0	1.7435165026418688e+18
14029.0	1.743149531240857e+18
14030.0	1.7403615975047176e+18
14031.0	1.7420869479432184e+18
14032.0	1.7422565488197632e+18
14033.0	1.7419323156987904e+18
14034.0	1.741679478020505e+18
14035.0	1.7413760452919293e+18
14036.0	1.7410401419395072e+18
14037.0	1.7407585967669248e+18
14038.0	1.740459943867187e+18
14039.0	1.740147909459968e+18
14040.0	1.739842366157619e+18
14041.0	1.7395353280053243e+18
14042.0	1.739217527268966e+18
14043.0	1.7388811793203197e+18
14044.0	1.738574934730342e+18
14045.0	1.7382726126534653e+18
14046.0	1.7379915691196416e+18
14047.0	1.7376743975288827e+18
14048.0	1.7373771958583293e+18
14049.0	1.73707468252119e+18
14050.0	1.73676753363927e+18
14051.0	1.7364511119900672e+18
14052.0	1.7361476943609853e+18
14053.0	1.7358459762638843e+18
14054.0	1.7355390018650107e+18
14055.0	1.7352318999592957e+18
14056.0	1.7349248064421885e+18
14057.0	1.7346178035220472e+18
14058.0	1.7343106613510144e+18
14059.0	1.733956712425062e+18
14060.0	1.733696346809958e+18
14061.0	1.7333819753365504e+18
14062.0	1.7330789133844475e+18
14063.0	1.7327368444051453e+18
14064.0	1.731861781728461e+18
14065.0	1.7321450163666941e+18
14066.0	1.7318527354535933e+18
14067.0	1.7315406440038395e+18
14068.0	1.7312438433087485e+18
14069.0	1.7309349059756027e+18
14070.0	1.7306299498758141e+18
14071.0	1.7303225896009725e+18
14072.0	1.73001960146862e+18
14073.0	1.7297132092391421e+18
14074.0	1.7294059194286077e+18
14075.0	1.729077574211993e+18
14076.0	1.7287673785876475e+18
14077.0	1.7278945758019581e+18
14078.0	1.72809245467607e+18
14079.0	1.7278579846938621e+18
14080.0	1.727549280564019e+18
14081.0	1.7272626921603072e+18
14082.0	1.7269601788231675e+18
14083.0	1.7266488507367421e+18
14084.0	1.7263182909276152e+18
14085.0	1.725607849649766e+18
14086.0	1.725644818245222e+18
14087.0	1.7253945474809856e+18
14088.0	1.7251113212313597e+18
14089.0	1.7248198221365243e+18
14090.0	1.7245182885887997e+18
14091.0	1.7242172650684408e+18
14092.0	1.723913570615296e+18
14093.0	1.723608388023091e+18
14094.0	1.7233013532262397e+18
14095.0	1.7229874750029821e+18
14096.0	1.722625956197171e+18
14097.0	1.72232717411287e+18
14098.0	1.7220482461859837e+18
14099.0	1.7217736048377853e+18
14100.0	1.7214644745666552e+18
14101.0	1.721175060879769e+18
14102.0	1.720869613207552e+18
14103.0	1.7205515507466237e+18
14104.0	1.7202615163027453e+18
14105.0	1.7199611336720381e+18
14106.0	1.7196572328591357e+18
14107.0	1.7193174741024765e+18
14108.0	1.7190294093037565e+18
14109.0	1.718739955351552e+18
14110.0	1.7184373900050432e+18
14111.0	1.7181280600850427e+18
14112.0	1.7178156918112253e+18
14113.0	1.717516644646912e+18
14114.0	1.717186274420326e+18
14115.0	1.716851933026713e+18
14116.0	1.71617815667671e+18
14117.0	1.711458073182208e+18
14118.0	1.7157777247961085e+18
14119.0	1.7155932223963133e+18
14120.0	1.7153279360237565e+18
14121.0	1.715054115081421e+18
14122.0	1.714754237444915e+18
14123.0	1.7144572488450048e+18
14124.0	1.714132163441459e+18
14125.0	1.7134477218152443e+18
14126.0	1.7135607851515904e+18
14127.0	1.7132813388087293e+18
14128.0	1.712985663864832e+18
14129.0	1.7126740388216824e+18
14130.0	1.712354249985228e+18
14131.0	1.7120697838993405e+18
14132.0	1.711743455304089e+18
14133.0	1.7109693897900027e+18
14134.0	1.711109756367667e+18
14135.0	1.7108538635583485e+18
14136.0	1.7105587825278976e+18
14137.0	1.7102516101578747e+18
14138.0	1.7099397888212987e+18
14139.0	1.709659122774835e+18
14140.0	1.7093464676106235e+18
14141.0	1.708961777791795e+18
14142.0	1.7085711253503997e+18
14143.0	1.7084317771497467e+18
14144.0	1.7081576089190397e+18
14145.0	1.7078616135303163e+18
14146.0	1.7075505756897275e+18
14147.0	1.7072622508441597e+18
14148.0	1.706961752450662e+18
14149.0	1.7066638243266557e+18
14150.0	1.7063654297960443e+18
14151.0	1.7060608495058941e+18
14152.0	1.7057647383543805e+18
14153.0	1.705466429387571e+18
14154.0	1.7051384113266685e+18
14155.0	1.7047933711024125e+18
14156.0	1.7045579481743357e+18
14157.0	1.7042636808388603e+18
14158.0	1.7039610752270333e+18
14159.0	1.703662747805286e+18
14160.0	1.703342606647296e+18
14161.0	1.7030065858543613e+18
14162.0	1.7026601162113021e+18
14163.0	1.7024057836830715e+18
14164.0	1.7020688518873085e+18
14165.0	1.701829009840537e+18
14166.0	1.701558030958592e+18
14167.0	1.701248721171251e+18
14168.0	1.7009629749837821e+18
14169.0	1.700663176200192e+18
14170.0	1.7003660013731835e+18
14171.0	1.70006460539863e+18
14172.0	1.6997707340054525e+18
14173.0	1.6994568826257403e+18
14174.0	1.6991634742837243e+18
14175.0	1.6988726580215803e+18
14176.0	1.6985758237720576e+18
14177.0	1.6982770148442107e+18
14178.0	1.6979776539459584e+18
14179.0	1.6976754090442747e+18
14180.0	1.6973798632849405e+18
14181.0	1.6970804654768128e+18
14182.0	1.6967796348944381e+18
14183.0	1.6964782422753275e+18
14184.0	1.696165944465817e+18
14185.0	1.6958217951117312e+18
14186.0	1.6948523354292224e+18
14187.0	1.695133207835443e+18
14188.0	1.6949558273638395e+18
14189.0	1.6946728812937216e+18
14190.0	1.6943835716255741e+18
14191.0	1.6940829725687805e+18
14192.0	1.6937643396825085e+18
14193.0	1.6933810541166587e+18
14194.0	1.6931899196833787e+18
14195.0	1.6929043496566784e+18
14196.0	1.6926087535656957e+18
14197.0	1.6923110502563837e+18
14198.0	1.692006619283456e+18
14199.0	1.6916964387586048e+18
14200.0	1.690929458262835e+18
14201.0	1.6909837174571003e+18
14202.0	1.6908109809188856e+18
14203.0	1.6905216695730176e+18
14204.0	1.690226467746611e+18
14205.0	1.6899246137540605e+18
14206.0	1.6895207458996221e+18
14207.0	1.689328616577433e+18
14208.0	1.6890382063239165e+18
14209.0	1.688619384936857e+18
14210.0	1.6883447855316987e+18
14211.0	1.6881424875388925e+18
14212.0	1.6878569779101693e+18
14213.0	1.687561667031859e+18
14214.0	1.6872644821385213e+18
14215.0	1.6869521306419197e+18
14216.0	1.68667186724864e+18
14217.0	1.6863775781027837e+18
14218.0	1.686067738155417e+18
14219.0	1.6857822956355581e+18
14220.0	1.6854791766409213e+18
14221.0	1.6851877882757115e+18
14222.0	1.6848719773171707e+18
14223.0	1.6845834662445053e+18
14224.0	1.684252668198912e+18
14225.0	1.6822580015005704e+18
14226.0	1.6835019548917752e+18
14227.0	1.6833140467171328e+18
14228.0	1.6782859134042122e+18
14229.0	1.68135399644856e+18
14230.0	1.6824790966861821e+18
14231.0	1.682207275587993e+18
14232.0	1.6819322919845885e+18
14233.0	1.6816402811846653e+18
14234.0	1.6813479415513085e+18
14235.0	1.681051268363059e+18
14236.0	1.680758296228659e+18
14237.0	1.680457856555417e+18
14238.0	1.680157433659392e+18
14239.0	1.6798171296432128e+18
14240.0	1.6777884521725952e+18
14241.0	1.6791768842371072e+18
14242.0	1.6789518849933307e+18
14243.0	1.678552894275584e+18
14244.0	1.678393963708416e+18
14245.0	1.6780816826761213e+18
14246.0	1.6777867476074493e+18
14247.0	1.677493626155827e+18
14248.0	1.6771861568290816e+18
14249.0	1.6769049572671485e+18
14250.0	1.676612708230758e+18
14251.0	1.6763184358621184e+18
14252.0	1.6760193568210941e+18
14253.0	1.6757105352507387e+18
14254.0	1.675398566274662e+18
14255.0	1.6749882073153533e+18
14256.0	1.6732198400950275e+18
14257.0	1.673913083048755e+18
14258.0	1.674180372620902e+18
14259.0	1.6739050937384957e+18
14260.0	1.673571800920883e+18
14261.0	1.673290562771353e+18
14262.0	1.6729204808744957e+18
14263.0	1.6703778753347584e+18
14264.0	1.6711723553652728e+18
14265.0	1.67206091531223e+18
14266.0	1.6718675780304893e+18
14267.0	1.6715982517043197e+18
14268.0	1.6713079421140987e+18
14269.0	1.6710104334204923e+18
14270.0	1.6707204174315515e+18
14271.0	1.670408082712166e+18
14272.0	1.670063634723635e+18
14273.0	1.6694914913927165e+18
14274.0	1.665506382499021e+18
14275.0	1.6682085980831736e+18
14276.0	1.6688250567524347e+18
14277.0	1.668636489233203e+18
14278.0	1.6683781435949056e+18
14279.0	1.668096606810931e+18
14280.0	1.6678076914073597e+18
14281.0	1.66752499531776e+18
14282.0	1.6672355094888443e+18
14283.0	1.6669265570562048e+18
14284.0	1.6666330161741821e+18
14285.0	1.6663401447030784e+18
14286.0	1.6660460854050813e+18
14287.0	1.6657508147920893e+18
14288.0	1.6654242764816384e+18
14289.0	1.6640227632218097e+18
14290.0	1.6648438166847488e+18
14291.0	1.6645826256306176e+18
14292.0	1.6642905242337277e+18
14293.0	1.6639954448809981e+18
14294.0	1.663583809175552e+18
14295.0	1.6633661952622595e+18
14296.0	1.662228575866061e+18
14297.0	1.662721220358963e+18
14298.0	1.6620224879001597e+18
14299.0	1.6621808195207163e+18
14300.0	1.6619463596048384e+18
14301.0	1.6616652825165821e+18
14302.0	1.661374905817497e+18
14303.0	1.6610455657119741e+18
14304.0	1.6607735516758016e+18
14305.0	1.6604926004166653e+18
14306.0	1.6601613175095296e+18
14307.0	1.6598611630489597e+18
14308.0	1.6595705128812534e+18
14309.0	1.659254784131072e+18
14310.0	1.658904846637465e+18
14311.0	1.6585318757040125e+18
14312.0	1.658304156873523e+18
14313.0	1.6579436631556096e+18
14314.0	1.6578205586554875e+18
14315.0	1.6575448670535675e+18
14316.0	1.6572220079865853e+18
14317.0	1.6569520877469693e+18
14318.0	1.656698446440038e+18
14319.0	1.65641981043671e+18
14320.0	1.656133535766937e+18
14321.0	1.655841880643993e+18
14322.0	1.655523180648857e+18
14323.0	1.6552453868617725e+18
14324.0	1.6549777835556861e+18
14325.0	1.6546795215650813e+18
14326.0	1.6544033165803515e+18
14327.0	1.6541065511174141e+18
14328.0	1.653818620536422e+18
14329.0	1.653538446062387e+18
14330.0	1.653249632999833e+18
14331.0	1.6529457355423744e+18
14332.0	1.6526507501420541e+18
14333.0	1.652361255924531e+18
14334.0	1.652070427918336e+18
14335.0	1.6517540515676157e+18
14336.0	1.6513217027112957e+18
14337.0	1.651194742806937e+18
14338.0	1.6509121775796221e+18
14339.0	1.6506143786401792e+18
14340.0	1.6503350950363128e+18
14341.0	1.6500424869675005e+18
14342.0	1.649748640740147e+18
14343.0	1.6494710063366144e+18
14344.0	1.6491572556201981e+18
14345.0	1.6488796178612221e+18
14346.0	1.6485935428403195e+18
14347.0	1.6482806460841984e+18
14348.0	1.6480125646274557e+18
14349.0	1.6477271741169661e+18
14350.0	1.6472919379017723e+18
14351.0	1.647000245868953e+18
14352.0	1.6468531096846339e+18
14353.0	1.6465792753205243e+18
14354.0	1.6462791812579325e+18
14355.0	1.645958092187238e+18
14356.0	1.6456685040173053e+18
14357.0	1.6454212716068861e+18
14358.0	1.6451502725922813e+18
14359.0	1.6448279789174781e+18
14360.0	1.644541085168435e+18
14361.0	1.6442577314119677e+18
14362.0	1.6439735387947005e+18
14363.0	1.6436680256913403e+18
14364.0	1.6429949036527613e+18
14365.0	1.6428949651324925e+18
14366.0	1.6427264480641021e+18
14367.0	1.6425379157770237e+18
14368.0	1.6422523742715896e+18
14369.0	1.6419701462663163e+18
14370.0	1.6416840410464253e+18
14371.0	1.6413995363729405e+18
14372.0	1.641103473875353e+18
14373.0	1.6408180430995453e+18
14374.0	1.640534263201792e+18
14375.0	1.6402409521676285e+18
14376.0	1.6399658679009277e+18
14377.0	1.6396784792240128e+18
14378.0	1.639389921175142e+18
14379.0	1.6391041028456443e+18
14380.0	1.638816566529228e+18
14381.0	1.6385200007151616e+18
14382.0	1.6382445104398333e+18
14383.0	1.637958799484518e+18
14384.0	1.6376535330062333e+18
14385.0	1.6373874396495867e+18
14386.0	1.6370811413725181e+18
14387.0	1.6368144574578685e+18
14388.0	1.6365252736188413e+18
14389.0	1.6362413678919677e+18
14390.0	1.6359543701241853e+18
14391.0	1.6356539975598077e+18
14392.0	1.635361255273267e+18
14393.0	1.6350762539941885e+18
14394.0	1.6347469172441085e+18
14395.0	1.6344930729328635e+18
14396.0	1.634214015821414e+18
14397.0	1.6339326786863096e+18
14398.0	1.6336458654679037e+18
14399.0	1.633353641597337e+18
14400.0	1.633050613199667e+18
14401.0	1.6327699773521915e+18
14402.0	1.6324707640934395e+18
14403.0	1.631919726500249e+18
14404.0	1.6289998030503923e+18
14405.0	1.6294349184696294e+18
14406.0	1.631279390497177e+18
14407.0	1.6307799445209088e+18
14408.0	1.630747822863155e+18
14409.0	1.6304764648161277e+18
14410.0	1.6301868397363197e+18
14411.0	1.629928138421043e+18
14412.0	1.6296473431900157e+18
14413.0	1.629367447217766e+18
14414.0	1.6290805635350525e+18
14415.0	1.6287958608904192e+18
14416.0	1.6285060831379453e+18
14417.0	1.628207522512896e+18
14418.0	1.6279152566992893e+18
14419.0	1.6276484905762808e+18
14420.0	1.6273617092345853e+18
14421.0	1.6270778521616384e+18
14422.0	1.6267733893119995e+18
14423.0	1.6264110467448824e+18
14424.0	1.625078486165094e+18
14425.0	1.6258571301814272e+18
14426.0	1.6256472488869885e+18
14427.0	1.625373307148697e+18
14428.0	1.6250449350885379e+18
14429.0	1.6247760248373243e+18
14430.0	1.624435801351782e+18
14431.0	1.6234479135752192e+18
14432.0	1.623893788223078e+18
14433.0	1.623418216225177e+18
14434.0	1.6233294899183613e+18
14435.0	1.6230270587895803e+18
14436.0	1.622790733247283e+18
14437.0	1.6225168015753208e+18
14438.0	1.6221567490981885e+18
14439.0	1.6219238863732733e+18
14440.0	1.6216717600489472e+18
14441.0	1.6213774675476477e+18
14442.0	1.621086419759923e+18
14443.0	1.6207606297133053e+18
14444.0	1.620523955204915e+18
14445.0	1.6202319913811965e+18
14446.0	1.6189477844156419e+18
14447.0	1.6196015925231608e+18
14448.0	1.6193983113854976e+18
14449.0	1.6191200277037056e+18
14450.0	1.6188327816331261e+18
14451.0	1.6185523353681912e+18
14452.0	1.6182719813779453e+18
14453.0	1.6179863425646587e+18
14454.0	1.6176973415972861e+18
14455.0	1.6174082416443387e+18
14456.0	1.6171203144187904e+18
14457.0	1.6168374723674107e+18
14458.0	1.616548280139776e+18
14459.0	1.6162494393352192e+18
14460.0	1.6159406244757501e+18
14461.0	1.6155871251791867e+18
14462.0	1.6152394794532861e+18
14463.0	1.6150560256294907e+18
14464.0	1.6148215321591805e+18
14465.0	1.6145322443014141e+18
14466.0	1.6142894645641216e+18
14467.0	1.6139955461947392e+18
14468.0	1.613729300165427e+18
14469.0	1.6133617986043904e+18
14470.0	1.613112636814131e+18
14471.0	1.6128668640215035e+18
14472.0	1.6125950227906552e+18
14473.0	1.6123205374705661e+18
14474.0	1.612045156247142e+18
14475.0	1.6117625943752701e+18
14476.0	1.6114704929783803e+18
14477.0	1.6111978917396475e+18
14478.0	1.6109184353304568e+18
14479.0	1.6106360462639101e+18
14480.0	1.6103372423692288e+18
14481.0	1.6100780528369661e+18
14482.0	1.609790890652467e+18
14483.0	1.6095047468449787e+18
14484.0	1.6092108217647104e+18
14485.0	1.6088888250466304e+18
14486.0	1.608364775283097e+18
14487.0	1.608374893622067e+18
14488.0	1.6080883538722813e+18
14489.0	1.6077588845821944e+18
14490.0	1.6075257584549885e+18
14491.0	1.6072670017748987e+18
14492.0	1.6069882885963776e+18
14493.0	1.6066879747522557e+18
14494.0	1.6063990929031165e+18
14495.0	1.6061288002093056e+18
14496.0	1.6057331833896957e+18
14497.0	1.6055747896934395e+18
14498.0	1.605302067658752e+18
14499.0	1.6050239249055741e+18
14500.0	1.6047420190228475e+18
14501.0	1.6044330061922304e+18
14502.0	1.6039318405513213e+18
14503.0	1.6038751050399741e+18
14504.0	1.603609919330713e+18
14505.0	1.603331685980569e+18
14506.0	1.603026911074713e+18
14507.0	1.6025282116845565e+18
14508.0	1.602485436494643e+18
14509.0	1.6022177845346301e+18
14510.0	1.6019356370599933e+18
14511.0	1.6016573265346557e+18
14512.0	1.601365095953203e+18
14513.0	1.601089478171033e+18
14514.0	1.6007773582000125e+18
14515.0	1.6004692731494395e+18
14516.0	1.597286794657793e+18
14517.0	1.599794772023705e+18
14518.0	1.599669620703232e+18
14519.0	1.5993679076392957e+18
14520.0	1.5991152159227904e+18
14521.0	1.5988374556901376e+18
14522.0	1.5985518789525501e+18
14523.0	1.5982326169206781e+18
14524.0	1.597974118609715e+18
14525.0	1.597713273166233e+18
14526.0	1.5974335365775357e+18
14527.0	1.597111541537177e+18
14528.0	1.5967419981889533e+18
14529.0	1.5965909948563456e+18
14530.0	1.5963082736009213e+18
14531.0	1.5960454954221565e+18
14532.0	1.5957562193084413e+18
14533.0	1.5954864869736448e+18
14534.0	1.5952106091446272e+18
14535.0	1.5949213229645816e+18
14536.0	1.5946495085772797e+18
14537.0	1.594359818066329e+18
14538.0	1.594096627168051e+18
14539.0	1.5938185464905723e+18
14540.0	1.5935387394375675e+18
14541.0	1.5932293726076923e+18
14542.0	1.5929767748435965e+18
14543.0	1.5926785027866621e+18
14544.0	1.5924123641315323e+18
14545.0	1.5921012860256253e+18
14546.0	1.5901551457468406e+18
14547.0	1.58985127848837e+18
14548.0	1.5912466865192957e+18
14549.0	1.5908927292047357e+18
14550.0	1.5907273746415613e+18
14551.0	1.5904714365337597e+18
14552.0	1.5901900004130816e+18
14553.0	1.5899070845419515e+18
14554.0	1.58963941244928e+18
14555.0	1.5893601036795901e+18
14556.0	1.5890773102821376e+18
14557.0	1.5887913946447872e+18
14558.0	1.5884485740462077e+18
14559.0	1.5860310141304812e+18
14560.0	1.5878836851834875e+18
14561.0	1.5876674201583613e+18
14562.0	1.5873670341722112e+18
14563.0	1.5871100978200576e+18
14564.0	1.5867884500680701e+18
14565.0	1.5865741731430397e+18
14566.0	1.5863011843506176e+18
14567.0	1.5860192130367485e+18
14568.0	1.585732169970483e+18
14569.0	1.5854397128966144e+18
14570.0	1.5845823535382523e+18
14571.0	1.5848895779176443e+18
14572.0	1.584585022793318e+18
14573.0	1.584283209066086e+18
14574.0	1.5840154799308797e+18
14575.0	1.5837457408851965e+18
14576.0	1.5834607899377664e+18
14577.0	1.5832171142971392e+18
14578.0	1.5829445717786621e+18
14579.0	1.5826761229008893e+18
14580.0	1.5823971513532413e+18
14581.0	1.582114136496537e+18
14582.0	1.5818270867193853e+18
14583.0	1.5815662077214715e+18
14584.0	1.5812563191201792e+18
14585.0	1.5810053235802107e+18
14586.0	1.5807353764970493e+18
14587.0	1.5804614716686333e+18
14588.0	1.5801852431958016e+18
14589.0	1.5799088620503035e+18
14590.0	1.5796319188680704e+18
14591.0	1.5793473168867325e+18
14592.0	1.5790560778387453e+18
14593.0	1.5786806893084667e+18
14594.0	1.5785098267852795e+18
14595.0	1.5782237131767805e+18
14596.0	1.5774853579669496e+18
14597.0	1.577119752231321e+18
14598.0	1.5773336550244347e+18
14599.0	1.5771315969458176e+18
14600.0	1.5768564908687357e+18
14601.0	1.5765798614204413e+18
14602.0	1.5762913117601792e+18
14603.0	1.5760198916374523e+18
14604.0	1.5756852264435712e+18
14605.0	1.5753893837275139e+18
14606.0	1.575082605622067e+18
14607.0	1.5749133520338944e+18
14608.0	1.5746130063130621e+18
14609.0	1.5743065872400381e+18
14610.0	1.5740024381243387e+18
14611.0	1.5737289023946747e+18
14612.0	1.5735437070958587e+18
14613.0	1.5732765131538432e+18
14614.0	1.5729654266593275e+18
14615.0	1.5727031366975485e+18
14616.0	1.5724533189181435e+18
14617.0	1.5720909260193787e+18
14618.0	1.5717939609075712e+18
14619.0	1.5710086815023096e+18
14620.0	1.5703244932120576e+18
14621.0	1.571021152006963e+18
14622.0	1.5707902018846715e+18
14623.0	1.5705272894881792e+18
14624.0	1.5702047257001981e+18
14625.0	1.5699773810016256e+18
14626.0	1.569680038402457e+18
14627.0	1.5694068197621757e+18
14628.0	1.5691653922684925e+18
14629.0	1.5688889960235005e+18
14630.0	1.568582649092505e+18
14631.0	1.5683101518725115e+18
14632.0	1.5679140971675643e+18
14633.0	1.5677485278560256e+18
14634.0	1.5675040905297915e+18
14635.0	1.5671635046563832e+18
14636.0	1.5667057735499768e+18
14637.0	1.5666894728069115e+18
14638.0	1.5663842902147072e+18
14639.0	1.5661016260018176e+18
14640.0	1.5658217434513405e+18
14641.0	1.5652175321497595e+18
14642.0	1.5652679292289021e+18
14643.0	1.5650085635358715e+18
14644.0	1.564718035841843e+18
14645.0	1.5644097410760701e+18
14646.0	1.5641316419436541e+18
14647.0	1.5638616982159357e+18
