# Flux units: erg / (cm m2 s)
# Wavelength units: Angstrom
wave	flux
14000.0	2.383830957057638e+18
14001.0	2.383259595544985e+18
14002.0	2.3827083650138107e+18
14003.0	2.3821460212547584e+18
14004.0	2.3815837563486203e+18
14005.0	2.38102153003008e+18
14006.0	2.380457716586905e+18
14007.0	2.379896087537254e+18
14008.0	2.3793084638691323e+18
14009.0	2.3787739300233216e+18
14010.0	2.378208557976781e+18
14011.0	2.377508124308275e+18
14012.0	2.377090010919731e+18
14013.0	2.3765291720769536e+18
14014.0	2.375968318134681e+18
14015.0	2.375407009529856e+18
14016.0	2.3748471806754816e+18
14017.0	2.374286830049689e+18
14018.0	2.3737263636611067e+18
14019.0	2.373166593526988e+18
14020.0	2.3726064945594363e+18
14021.0	2.3719751326892027e+18
14022.0	2.3714135489380347e+18
14023.0	2.370847069595238e+18
14024.0	2.3702892204523515e+18
14025.0	2.3697364279623675e+18
14026.0	2.3691770386710523e+18
14027.0	2.3686186744676347e+18
14028.0	2.368059874056601e+18
14029.0	2.3675008639303675e+18
14030.0	2.366535368704e+18
14031.0	2.3663756160532475e+18
14032.0	2.3658256052256763e+18
14033.0	2.3652524451954683e+18
14034.0	2.3647090546573307e+18
14035.0	2.364152507426406e+18
14036.0	2.363595117979238e+18
14037.0	2.3630378023518203e+18
14038.0	2.3624656724426747e+18
14039.0	2.3618523527905275e+18
14040.0	2.3612922454343675e+18
14041.0	2.3607372148637686e+18
14042.0	2.360178790262374e+18
14043.0	2.359615053994393e+18
14044.0	2.359066011212185e+18
14045.0	2.358511356451225e+18
14046.0	2.357954193496473e+18
14047.0	2.3573965423247355e+18
14048.0	2.3568434109349883e+18
14049.0	2.3562884407623675e+18
14050.0	2.355732953851494e+18
14051.0	2.3551751634288635e+18
14052.0	2.3546223541616635e+18
14053.0	2.3540671927287803e+18
14054.0	2.3535124154941435e+18
14055.0	2.352957658392166e+18
14056.0	2.3524030539628544e+18
14057.0	2.351848617305702e+18
14058.0	2.3512518064340987e+18
14059.0	2.350670346715136e+18
14060.0	2.3501161784934395e+18
14061.0	2.3495606311845883e+18
14062.0	2.3490083168452603e+18
14063.0	2.348450152290713e+18
14064.0	2.3478492276457467e+18
14065.0	2.347345636019405e+18
14066.0	2.3467943400570875e+18
14067.0	2.3462305870118907e+18
14068.0	2.3456884312768507e+18
14069.0	2.3451345080025083e+18
14070.0	2.3445827288563707e+18
14071.0	2.34402990784512e+18
14072.0	2.3434782394286075e+18
14073.0	2.342926077761945e+18
14074.0	2.342374062057062e+18
14075.0	2.341816766562304e+18
14076.0	2.3412586171072507e+18
14077.0	2.3406235877376e+18
14078.0	2.3401601003683835e+18
14079.0	2.339614413029376e+18
14080.0	2.3390618386431995e+18
14081.0	2.3384460024086523e+18
14082.0	2.337890711791206e+18
14083.0	2.3373438047485947e+18
14084.0	2.3367934550212603e+18
14085.0	2.3361210661470203e+18
14086.0	2.3356847159246843e+18
14087.0	2.3351424544931835e+18
14088.0	2.334588158764646e+18
14089.0	2.3340324235509755e+18
14090.0	2.3334910982881275e+18
14091.0	2.3329431292477435e+18
14092.0	2.3323937240776704e+18
14093.0	2.3318444145377275e+18
14094.0	2.331295220760576e+18
14095.0	2.3307460622155766e+18
14096.0	2.3301767106134016e+18
14097.0	2.3296373298298875e+18
14098.0	2.329090209716633e+18
14099.0	2.3285515788746747e+18
14100.0	2.328000739252633e+18
14101.0	2.3274554948321275e+18
14102.0	2.3269074251284475e+18
14103.0	2.3263566391934976e+18
14104.0	2.325812139681382e+18
14105.0	2.325252569196134e+18
14106.0	2.32465036780503e+18
14107.0	2.3241010616205307e+18
14108.0	2.323552265463398e+18
14109.0	2.323007279412018e+18
14110.0	2.32245654716416e+18
14111.0	2.321905006254489e+18
14112.0	2.321367942404505e+18
14113.0	2.3208162555330555e+18
14114.0	2.320271276192563e+18
14115.0	2.3197286926385147e+18
14116.0	2.3191517761896443e+18
14117.0	2.317981414378701e+18
14118.0	2.3180908605472763e+18
14119.0	2.317533774767718e+18
14120.0	2.3169893809520635e+18
14121.0	2.3164476480028667e+18
14122.0	2.3159007879364603e+18
14123.0	2.315344972192153e+18
14124.0	2.314799065071616e+18
14125.0	2.3141513252831227e+18
14126.0	2.3137258433413115e+18
14127.0	2.3131868786327547e+18
14128.0	2.3126423891869696e+18
14129.0	2.3120953194053627e+18
14130.0	2.3115482697564155e+18
14131.0	2.311011006257561e+18
14132.0	2.310467239909785e+18
14133.0	2.3097276129869814e+18
14134.0	2.3093147978432507e+18
14135.0	2.308763639454105e+18
14136.0	2.3081883420065787e+18
14137.0	2.307683450145997e+18
14138.0	2.307133078608281e+18
14139.0	2.306599350068838e+18
14140.0	2.306048423205273e+18
14141.0	2.3055090055118843e+18
14142.0	2.3049095052525568e+18
14143.0	2.3044207497183227e+18
14144.0	2.3038878667505661e+18
14145.0	2.3033460734033915e+18
14146.0	2.3028038337822715e+18
14147.0	2.3022617250234365e+18
14148.0	2.301717646619443e+18
14149.0	2.301174675511705e+18
14150.0	2.3006386971475965e+18
14151.0	2.3000897416069117e+18
14152.0	2.2995568301178875e+18
14153.0	2.2990160249487355e+18
14154.0	2.2984679485341693e+18
14155.0	2.2978842842890237e+18
14156.0	2.2973905845092347e+18
14157.0	2.2968541665820672e+18
14158.0	2.2963124990640123e+18
14159.0	2.295774383282585e+18
14160.0	2.2952338046058493e+18
14161.0	2.2946779452407805e+18
14162.0	2.2941266325012477e+18
14163.0	2.293615350199091e+18
14164.0	2.2930398380031995e+18
14165.0	2.2923885330563067e+18
14166.0	2.291933494693068e+18
14167.0	2.2913918036869115e+18
14168.0	2.2908532718305277e+18
14169.0	2.290315716408115e+18
14170.0	2.2897572062429181e+18
14171.0	2.2892211741917184e+18
14172.0	2.2886836506460155e+18
14173.0	2.2881056302563323e+18
14174.0	2.2876057564610557e+18
14175.0	2.2870700029116413e+18
14176.0	2.2865313552924667e+18
14177.0	2.2859945598779384e+18
14178.0	2.2854564893949947e+18
14179.0	2.2849121660436477e+18
14180.0	2.2843833817497595e+18
14181.0	2.2838465108377595e+18
14182.0	2.2833095476510715e+18
14183.0	2.2827731146244093e+18
14184.0	2.2822352035250168e+18
14185.0	2.2817000136900603e+18
14186.0	2.281029654858956e+18
14187.0	2.2806208595361784e+18
14188.0	2.2800917984182272e+18
14189.0	2.2795542413180923e+18
14190.0	2.2790196302970877e+18
14191.0	2.278483604956774e+18
14192.0	2.277947500763545e+18
14193.0	2.2773923963731968e+18
14194.0	2.2768781512146944e+18
14195.0	2.2763447028547581e+18
14196.0	2.2758098619858944e+18
14197.0	2.275275242576281e+18
14198.0	2.274739470571929e+18
14199.0	2.2742048595509243e+18
14200.0	2.273596982427648e+18
14201.0	2.273077093413683e+18
14202.0	2.2725417240625147e+18
14203.0	2.271998452642611e+18
14204.0	2.2714730724458493e+18
14205.0	2.2709394932236283e+18
14206.0	2.2703745322188795e+18
14207.0	2.2698732222939133e+18
14208.0	2.2693400524357627e+18
14209.0	2.268770729354854e+18
14210.0	2.2682504880193533e+18
14211.0	2.2677408498843645e+18
14212.0	2.2672080138928123e+18
14213.0	2.2666736595632123e+18
14214.0	2.2661430415196155e+18
14215.0	2.2656078751727608e+18
14216.0	2.265078800633036e+18
14217.0	2.264546753170636e+18
14218.0	2.264011306644275e+18
14219.0	2.2634830474772477e+18
14220.0	2.2629514580328445e+18
14221.0	2.2624173587169275e+18
14222.0	2.2618701144522747e+18
14223.0	2.2613571795943421e+18
14224.0	2.2608261354094587e+18
14225.0	2.260092039934771e+18
14226.0	2.2597638406799355e+18
14227.0	2.2592337662181373e+18
14228.0	2.258265079965286e+18
14229.0	2.2581115147517942e+18
14230.0	2.2576426133749755e+18
14231.0	2.257096525060505e+18
14232.0	2.2565825080721405e+18
14233.0	2.256052633259212e+18
14234.0	2.2555229044080637e+18
14235.0	2.2549926772735995e+18
14236.0	2.254463530591846e+18
14237.0	2.2539341154746365e+18
14238.0	2.2534051483090944e+18
14239.0	2.2528736863715323e+18
14240.0	2.2519995011432445e+18
14241.0	2.2517805114982395e+18
14242.0	2.2512284236513277e+18
14243.0	2.2506589344759805e+18
14244.0	2.250172106643865e+18
14245.0	2.2496394367467517e+18
14246.0	2.2491073372749821e+18
14247.0	2.248587139560243e+18
14248.0	2.248055889015603e+18
14249.0	2.2475307453775872e+18
14250.0	2.2470029056409595e+18
14251.0	2.2464759718739965e+18
14252.0	2.245948464326246e+18
14253.0	2.2454209014136827e+18
14254.0	2.2448931690512384e+18
14255.0	2.2443589623611387e+18
14256.0	2.2436267174133755e+18
14257.0	2.243307742271897e+18
14258.0	2.2427861335932923e+18
14259.0	2.2422551917494267e+18
14260.0	2.2417273939558392e+18
14261.0	2.2412005558190075e+18
14262.0	2.2406903069933565e+18
14263.0	2.2398509562986493e+18
14264.0	2.2395877150687227e+18
14265.0	2.2391111951581181e+18
14266.0	2.2385872292806653e+18
14267.0	2.2380616427241467e+18
14268.0	2.237536373257011e+18
14269.0	2.2370105081987072e+18
14270.0	2.2364859970617344e+18
14271.0	2.2359595951325181e+18
14272.0	2.235435776894566e+18
14273.0	2.2349103295889405e+18
14274.0	2.2339245070876672e+18
14275.0	2.2338191713370104e+18
14276.0	2.2333272365203448e+18
14277.0	2.23280685425623e+18
14278.0	2.2322894566588413e+18
14279.0	2.2317653632745467e+18
14280.0	2.2312396039127032e+18
14281.0	2.2307179549687808e+18
14282.0	2.2301944403984381e+18
14283.0	2.229670964415692e+18
14284.0	2.2291475857407995e+18
14285.0	2.228624185255526e+18
14286.0	2.2281005918322685e+18
14287.0	2.227578176169574e+18
14288.0	2.2270552689344512e+18
14289.0	2.226309624024268e+18
14290.0	2.2259604146618365e+18
14291.0	2.2254282027827192e+18
14292.0	2.2249059733471227e+18
14293.0	2.224383007391744e+18
14294.0	2.2238243881746427e+18
14295.0	2.2233351779778557e+18
14296.0	2.222635818051174e+18
14297.0	2.222295012396236e+18
14298.0	2.2216754616860667e+18
14299.0	2.2212456126349312e+18
14300.0	2.2207278123843584e+18
14301.0	2.2202080844316667e+18
14302.0	2.2196867156672504e+18
14303.0	2.2191558426099712e+18
14304.0	2.2186415118876667e+18
14305.0	2.218122163100057e+18
14306.0	2.217579188636876e+18
14307.0	2.2170725469126648e+18
14308.0	2.2165575987888123e+18
14309.0	2.216032064241664e+18
14310.0	2.2154132836057083e+18
14311.0	2.214941681097113e+18
14312.0	2.2144478320001021e+18
14313.0	2.2139410761908221e+18
14314.0	2.213434419367116e+18
14315.0	2.2129194326556664e+18
14316.0	2.2123868500000765e+18
14317.0	2.2118632834203643e+18
14318.0	2.2113630271045627e+18
14319.0	2.2108443796045824e+18
14320.0	2.2103253697167357e+18
14321.0	2.209806697050931e+18
14322.0	2.2092760253202427e+18
14323.0	2.2087649510555645e+18
14324.0	2.2082508384370683e+18
14325.0	2.2077292549242875e+18
14326.0	2.2072140853411837e+18
14327.0	2.2066937970294781e+18
14328.0	2.2061761108639736e+18
14329.0	2.2056597668757496e+18
14330.0	2.205141876028211e+18
14331.0	2.2046239801475072e+18
14332.0	2.204106429877452e+18
14333.0	2.2035889064509432e+18
14334.0	2.2030714702659584e+18
14335.0	2.2025499823833083e+18
14336.0	2.2020029579001853e+18
14337.0	2.201486711219814e+18
14338.0	2.2009693891198973e+18
14339.0	2.200449498428211e+18
14340.0	2.1999361558839293e+18
14341.0	2.1994177969520632e+18
14342.0	2.1989031340408827e+18
14343.0	2.1983829497479165e+18
14344.0	2.1978681106759677e+18
14345.0	2.1973341355114496e+18
14346.0	2.1967794304188416e+18
14347.0	2.1962548102299645e+18
14348.0	2.1957480426766333e+18
14349.0	2.1952330257661947e+18
14350.0	2.194699844163993e+18
14351.0	2.1941816412602363e+18
14352.0	2.193684545771929e+18
14353.0	2.1931709834461176e+18
14354.0	2.192653248626688e+18
14355.0	2.192133866284646e+18
14356.0	2.1916207082897403e+18
14357.0	2.1911103705448445e+18
14358.0	2.1905955029516285e+18
14359.0	2.1900758286860285e+18
14360.0	2.1895643802894336e+18
14361.0	2.1890509505036283e+18
14362.0	2.1885370677329917e+18
14363.0	2.18802259272663e+18
14364.0	2.1874452635582456e+18
14365.0	2.1869848447418365e+18
14366.0	2.1864710794117115e+18
14367.0	2.1859453703815165e+18
14368.0	2.1854283150393344e+18
14369.0	2.1849147913011195e+18
14370.0	2.1844012826623995e+18
14371.0	2.1838879266963453e+18
14372.0	2.183374520398643e+18
14373.0	2.182861238252339e+18
14374.0	2.182348172532121e+18
14375.0	2.1818351319777275e+18
14376.0	2.1813221937643517e+18
14377.0	2.1808092085747712e+18
14378.0	2.180295933139353e+18
14379.0	2.179783998203494e+18
14380.0	2.1792713183592445e+18
14381.0	2.1787554105786365e+18
14382.0	2.1782461918740477e+18
14383.0	2.1777285442961405e+18
14384.0	2.1772160003473403e+18
14385.0	2.1767103182798843e+18
14386.0	2.1761939021496315e+18
14387.0	2.1756864853180416e+18
14388.0	2.175174167861657e+18
14389.0	2.1746631237959675e+18
14390.0	2.1741511150403581e+18
14391.0	2.173640134728089e+18
14392.0	2.1731273928081405e+18
14393.0	2.1726176976306173e+18
14394.0	2.1720955923464187e+18
14395.0	2.171582628967219e+18
14396.0	2.1710839446765565e+18
14397.0	2.170573682429132e+18
14398.0	2.1700615327449083e+18
14399.0	2.1695513057296381e+18
14400.0	2.169032517301043e+18
14401.0	2.168528823333683e+18
14402.0	2.1680197992447995e+18
14403.0	2.1662394816135142e+18
14404.0	2.1636138489872374e+18
14405.0	2.16615577840517e+18
14406.0	2.165978899572326e+18
14407.0	2.163606047581799e+18
14408.0	2.1649443140927483e+18
14409.0	2.1644270070923261e+18
14410.0	2.1638806117548027e+18
14411.0	2.1633754212597755e+18
14412.0	2.1628651439128573e+18
14413.0	2.1623563765153787e+18
14414.0	2.161846100846182e+18
14415.0	2.1613369593167864e+18
14416.0	2.1608248532533245e+18
14417.0	2.16030470251479e+18
14418.0	2.1597934135017467e+18
14419.0	2.1592996600348664e+18
14420.0	2.1587897584975867e+18
14421.0	2.158281777951539e+18
14422.0	2.1577724166406136e+18
14423.0	2.1572564014858237e+18
14424.0	2.1491677080321997e+18
14425.0	2.1562414369603576e+18
14426.0	2.1557381691342845e+18
14427.0	2.155230332872294e+18
14428.0	2.1547145693757437e+18
14429.0	2.1542130346360827e+18
14430.0	2.1537057671217147e+18
14431.0	2.153102022226739e+18
14432.0	2.1526826690019328e+18
14433.0	2.1507909322014705e+18
14434.0	2.151669833505177e+18
14435.0	2.151149848861081e+18
14436.0	2.150658214356582e+18
14437.0	2.1501507992027133e+18
14438.0	2.1495933980114944e+18
14439.0	2.149124018484019e+18
14440.0	2.1486282987274237e+18
14441.0	2.148120064845414e+18
14442.0	2.1476117068120061e+18
14443.0	2.1470948628627456e+18
14444.0	2.14659863978967e+18
14445.0	2.1460924963487744e+18
14446.0	2.1440559704965128e+18
14447.0	2.1450741847687165e+18
14448.0	2.1445723245510653e+18
14449.0	2.1440656945709048e+18
14450.0	2.1435572392296445e+18
14451.0	2.1430520755781627e+18
14452.0	2.1425439037718525e+18
14453.0	2.142010099734937e+18
14454.0	2.1415324423290875e+18
14455.0	2.1410247386071035e+18
14456.0	2.1405128506474493e+18
14457.0	2.140002783015731e+18
14458.0	2.1395004245147643e+18
14459.0	2.138994192154624e+18
14460.0	2.1384879061073917e+18
14461.0	2.137962881587609e+18
14462.0	2.1374224320954365e+18
14463.0	2.136962919248691e+18
14464.0	2.1364665485361152e+18
14465.0	2.1359585512128504e+18
14466.0	2.135458752915046e+18
14467.0	2.1349301179383805e+18
14468.0	2.1344458150772736e+18
14469.0	2.1339317611790333e+18
14470.0	2.1334297818431483e+18
14471.0	2.1329285407047675e+18
14472.0	2.1324245883682816e+18
14473.0	2.1319225738002424e+18
14474.0	2.1314176282525696e+18
14475.0	2.130911045248614e+18
14476.0	2.130317215688294e+18
14477.0	2.1299018889953275e+18
14478.0	2.129396977002086e+18
14479.0	2.128891486194892e+18
14480.0	2.1283825392812027e+18
14481.0	2.1278828617793533e+18
14482.0	2.1273771579015165e+18
14483.0	2.126870323239321e+18
14484.0	2.1263667383238653e+18
14485.0	2.1258524478668795e+18
14486.0	2.1252786083594237e+18
14487.0	2.124816927896371e+18
14488.0	2.1242736178888701e+18
14489.0	2.1237839563849725e+18
14490.0	2.1232880772448248e+18
14491.0	2.1227849000157181e+18
14492.0	2.122280724542259e+18
14493.0	2.1217761816477693e+18
14494.0	2.1212658673909755e+18
14495.0	2.120767830700851e+18
14496.0	2.120226433295974e+18
14497.0	2.119759053612646e+18
14498.0	2.1192546063482875e+18
14499.0	2.1187506925993981e+18
14500.0	2.1182462671454205e+18
14501.0	2.1176962345074688e+18
14502.0	2.117133964568166e+18
14503.0	2.116722505023488e+18
14504.0	2.1162276878811133e+18
14505.0	2.1156812019466235e+18
14506.0	2.115124520497971e+18
14507.0	2.1146502755778555e+18
14508.0	2.1142127173959677e+18
14509.0	2.113708691239731e+18
14510.0	2.1132046281736187e+18
14511.0	2.1127005617520635e+18
14512.0	2.1121919185059835e+18
14513.0	2.1116925094395896e+18
14514.0	2.111175710788812e+18
14515.0	2.1106837944270843e+18
14516.0	2.1096351496404992e+18
14517.0	2.1096761950994427e+18
14518.0	2.1091724306677755e+18
14519.0	2.1086685387292667e+18
14520.0	2.108164574648729e+18
14521.0	2.1076602347585533e+18
14522.0	2.1071545677905917e+18
14523.0	2.1065184059588605e+18
14524.0	2.106014327793254e+18
14525.0	2.1056153723076605e+18
14526.0	2.1051131983560701e+18
14527.0	2.1046022549536763e+18
14528.0	2.1040685599686653e+18
14529.0	2.1035987106791421e+18
14530.0	2.103093484951961e+18
14531.0	2.102593626256179e+18
14532.0	2.1019494432374784e+18
14533.0	2.101586105781452e+18
14534.0	2.1010829520404475e+18
14535.0	2.1005758355210237e+18
14536.0	2.1000751614525435e+18
14537.0	2.0995677345546237e+18
14538.0	2.0990670957182973e+18
14539.0	2.0985632071352317e+18
14540.0	2.0980590417281021e+18
14541.0	2.0975484959457277e+18
14542.0	2.09705052971991e+18
14543.0	2.0964797252108283e+18
14544.0	2.0960417291436024e+18
14545.0	2.0955364295966717e+18
14546.0	2.087347873120251e+18
14547.0	2.0876846304329661e+18
14548.0	2.0940204789465083e+18
14549.0	2.093487443306086e+18
14550.0	2.093013965104742e+18
14551.0	2.0925114841300987e+18
14552.0	2.0920059228585981e+18
14553.0	2.0914998834364408e+18
14554.0	2.0909974460825597e+18
14555.0	2.090492289141964e+18
14556.0	2.089985045115699e+18
14557.0	2.0894827101028347e+18
14558.0	2.0889770498457597e+18
14559.0	2.088056490714725e+18
14560.0	2.0879513848119293e+18
14561.0	2.087460396230246e+18
14562.0	2.0869484881379325e+18
14563.0	2.0864513859387387e+18
14564.0	2.085936944486809e+18
14565.0	2.0854417129471997e+18
14566.0	2.084936292604313e+18
14567.0	2.0844295753826301e+18
14568.0	2.0839033210929147e+18
14569.0	2.0834186290003965e+18
14570.0	2.0827894431350776e+18
14571.0	2.0824066558525437e+18
14572.0	2.0818829768654845e+18
14573.0	2.0813796402528248e+18
14574.0	2.0808641670021115e+18
14575.0	2.08037935579136e+18
14576.0	2.0798736905011197e+18
14577.0	2.0793557979758587e+18
14578.0	2.078816578253619e+18
14579.0	2.078296583543193e+18
14580.0	2.0777589928886267e+18
14581.0	2.0772481400831997e+18
14582.0	2.076744637376102e+18
14583.0	2.076237737282764e+18
14584.0	2.0757244970795003e+18
14585.0	2.0752228197335037e+18
14586.0	2.0747143325155325e+18
14587.0	2.0742056137719803e+18
14588.0	2.0737004366987256e+18
14589.0	2.0732075036377088e+18
14590.0	2.0727158506782715e+18
14591.0	2.072222759911424e+18
14592.0	2.0717312545914877e+18
14593.0	2.0712077215662075e+18
14594.0	2.0707474017353725e+18
14595.0	2.070253123141632e+18
14596.0	2.0697091252682747e+18
14597.0	2.069213544762572e+18
14598.0	2.0687718140870653e+18
14599.0	2.068283006543462e+18
14600.0	2.0677879545200637e+18
14601.0	2.0672950063595517e+18
14602.0	2.0667941460639736e+18
14603.0	2.066277743355494e+18
14604.0	2.065769480952217e+18
14605.0	2.065278945355366e+18
14606.0	2.0647765851766781e+18
14607.0	2.0643001189531643e+18
14608.0	2.0638050300198912e+18
14609.0	2.0633000945385467e+18
14610.0	2.0628010143055864e+18
14611.0	2.062315245115801e+18
14612.0	2.061824754817433e+18
14613.0	2.0613301507457021e+18
14614.0	2.0608336693035003e+18
14615.0	2.0603365905924093e+18
14616.0	2.059842506614374e+18
14617.0	2.0593459983286272e+18
14618.0	2.0588372611301373e+18
14619.0	2.0583194139033597e+18
14620.0	2.0577105184030715e+18
14621.0	2.0573574804799488e+18
14622.0	2.0568595327090683e+18
14623.0	2.0563612493938683e+18
14624.0	2.0558463297912827e+18
14625.0	2.055363543590502e+18
14626.0	2.054861517278412e+18
14627.0	2.0543584474234877e+18
14628.0	2.0538641755406333e+18
14629.0	2.053363477984051e+18
14630.0	2.052861317454233e+18
14631.0	2.0523604957462525e+18
14632.0	2.0512593919606787e+18
14633.0	2.0512848060874747e+18
14634.0	2.050852750832435e+18
14635.0	2.0503021108592635e+18
14636.0	2.0496844190646272e+18
14637.0	2.0493479754858496e+18
14638.0	2.0488417850687488e+18
14639.0	2.0483357087367165e+18
14640.0	2.0478342813712381e+18
14641.0	2.0450158080688108e+18
14642.0	2.0468244590624763e+18
14643.0	2.0463206644318203e+18
14644.0	2.0458111403819003e+18
14645.0	2.0453024317046781e+18
14646.0	2.0447892435107837e+18
14647.0	2.044281046538649e+18
14648.0	2.0437853452369915e+18
