# Flux units: erg / (cm m2 s)
# Wavelength units: Angstrom
wave	flux
14000.0	2.3596116884848635e+18
14001.0	2.359059612382003e+18
14002.0	2.3585447447887867e+18
14003.0	2.358009108679885e+18
14004.0	2.357439584272384e+18
14005.0	2.3568209462427643e+18
14006.0	2.3562821308514304e+18
14007.0	2.355744902584729e+18
14008.0	2.3551685028741115e+18
14009.0	2.3546774790602747e+18
14010.0	2.3541361454088187e+18
14011.0	2.3533660091187195e+18
14012.0	2.353072273620992e+18
14013.0	2.352537696154419e+18
14014.0	2.352000179319603e+18
14015.0	2.3514672510533627e+18
14016.0	2.3509338580582395e+18
14017.0	2.350399555738009e+18
14018.0	2.3498651443658747e+18
14019.0	2.3493313101299707e+18
14020.0	2.3487970413641723e+18
14021.0	2.3482629420482555e+18
14022.0	2.347670179518873e+18
14023.0	2.347075188975206e+18
14024.0	2.3465393548951547e+18
14025.0	2.3460135619788795e+18
14026.0	2.3454794962173947e+18
14027.0	2.344947215551693e+18
14028.0	2.3444141681672187e+18
14029.0	2.343880889257165e+18
14030.0	2.343090403881779e+18
14031.0	2.342802161244569e+18
14032.0	2.3422821363351547e+18
14033.0	2.3417295971811323e+18
14034.0	2.341217935713894e+18
14035.0	2.340686587861401e+18
14036.0	2.340154775280025e+18
14037.0	2.339623029807513e+18
14038.0	2.3390914034532347e+18
14039.0	2.338559909638963e+18
14040.0	2.3380242684968955e+18
14041.0	2.3374954691035136e+18
14042.0	2.3367528961015803e+18
14043.0	2.33619506373591e+18
14044.0	2.33567590285312e+18
14045.0	2.3351477930033147e+18
14046.0	2.3346157824507904e+18
14047.0	2.3340841309306875e+18
14048.0	2.333556682103193e+18
14049.0	2.333027077403442e+18
14050.0	2.3324969274441723e+18
14051.0	2.3319629455687675e+18
14052.0	2.3314369278377984e+18
14053.0	2.33090713691095e+18
14054.0	2.330377609386393e+18
14055.0	2.3298481170939904e+18
14056.0	2.329318757341593e+18
14057.0	2.328789541873254e+18
14058.0	2.328260443845427e+18
14059.0	2.3277314968125435e+18
14060.0	2.3272026789642235e+18
14061.0	2.3266713864765435e+18
14062.0	2.3261453955891195e+18
14063.0	2.325609764513382e+18
14064.0	2.3250077543825403e+18
14065.0	2.324444875430297e+18
14066.0	2.323919954929254e+18
14067.0	2.3233866508533755e+18
14068.0	2.32286388790231e+18
14069.0	2.3223351656841216e+18
14070.0	2.3218080809222144e+18
14071.0	2.3212795835187195e+18
14072.0	2.320753218499379e+18
14073.0	2.3202259038896123e+18
14074.0	2.319698743630233e+18
14075.0	2.319163191407411e+18
14076.0	2.318638910118297e+18
14077.0	2.318058307715072e+18
14078.0	2.3175867421163515e+18
14079.0	2.317061767928217e+18
14080.0	2.316538498305229e+18
14081.0	2.3160122725367803e+18
14082.0	2.315481854142054e+18
14083.0	2.3149595173322747e+18
14084.0	2.3144341522350075e+18
14085.0	2.313773532577792e+18
14086.0	2.3133777244979195e+18
14087.0	2.3128576727449595e+18
14088.0	2.312326709090713e+18
14089.0	2.3117418654072827e+18
14090.0	2.3111710726422523e+18
14091.0	2.310646840007065e+18
14092.0	2.310121867496653e+18
14093.0	2.3095969704837115e+18
14094.0	2.3090344354643963e+18
14095.0	2.3084506286129147e+18
14096.0	2.307913079901389e+18
14097.0	2.3073940465254395e+18
14098.0	2.3068716577062907e+18
14099.0	2.306353568887603e+18
14100.0	2.3058251134271485e+18
14101.0	2.3053060901175288e+18
14102.0	2.3047822970454008e+18
14103.0	2.30425356140544e+18
14104.0	2.3037355262738427e+18
14105.0	2.3032116744814587e+18
14106.0	2.3026890608476157e+18
14107.0	2.3021644909903867e+18
14108.0	2.3016374297165821e+18
14109.0	2.301118163137331e+18
14110.0	2.3005924775952376e+18
14111.0	2.300064740199628e+18
14112.0	2.2995489985134587e+18
14113.0	2.2990306882355192e+18
14114.0	2.298502137144934e+18
14115.0	2.2979857931567096e+18
14116.0	2.2974228336738301e+18
14117.0	2.296405624356864e+18
14118.0	2.2963115461181432e+18
14119.0	2.29578281886679e+18
14120.0	2.2952623023849467e+18
14121.0	2.2947390445060088e+18
14122.0	2.294220918777446e+18
14123.0	2.293694344042905e+18
14124.0	2.2931731883491328e+18
14125.0	2.292457940398899e+18
14126.0	2.2921422183596024e+18
14127.0	2.2916220021899264e+18
14128.0	2.2911010193014781e+18
14129.0	2.2905755149533181e+18
14130.0	2.2900505558646781e+18
14131.0	2.28954086572032e+18
14132.0	2.2890178444001277e+18
14133.0	2.2882612120911864e+18
14134.0	2.2879806097981432e+18
14135.0	2.2874529277673464e+18
14136.0	2.286923757597491e+18
14137.0	2.2864211541491712e+18
14138.0	2.285898047265177e+18
14139.0	2.2853839732342776e+18
14140.0	2.2848567727095805e+18
14141.0	2.2843413967667195e+18
14142.0	2.2837895404453883e+18
14143.0	2.2833013016494075e+18
14144.0	2.2827907927769083e+18
14145.0	2.2822725898731515e+18
14146.0	2.2817536521273344e+18
14147.0	2.2812356404838395e+18
14148.0	2.2806496341393403e+18
14149.0	2.280091878948864e+18
14150.0	2.2795763234897915e+18
14151.0	2.2790539061493757e+18
14152.0	2.2785408773390333e+18
14153.0	2.2780232297611261e+18
14154.0	2.2774935193649152e+18
14155.0	2.276969736359116e+18
14156.0	2.2764684767657981e+18
14157.0	2.2759542198632443e+18
14158.0	2.275435381103001e+18
14159.0	2.2749204749221883e+18
14160.0	2.2744009315188733e+18
14161.0	2.2738603847188475e+18
14162.0	2.2733230104903677e+18
14163.0	2.272853288707686e+18
14164.0	2.2723187431178232e+18
14165.0	2.2717356509757437e+18
14166.0	2.2713034715693048e+18
14167.0	2.270783371162419e+18
14168.0	2.2702726760628221e+18
14169.0	2.2697592345329661e+18
14170.0	2.269241754727219e+18
14171.0	2.268727413938585e+18
14172.0	2.2682132543438845e+18
14173.0	2.2676552491728893e+18
14174.0	2.2671803700740093e+18
14175.0	2.2666684972138493e+18
14176.0	2.266153814170009e+18
14177.0	2.265639189846425e+18
14178.0	2.265123446482534e+18
14179.0	2.264601821026713e+18
14180.0	2.264096300020531e+18
14181.0	2.2635822209564672e+18
14182.0	2.2630679204331517e+18
14183.0	2.2625543983726587e+18
14184.0	2.2619921737318395e+18
14185.0	2.261423998212505e+18
14186.0	2.260818236696166e+18
14187.0	2.260385397945139e+18
14188.0	2.259882979046195e+18
14189.0	2.259368504039833e+18
14190.0	2.2588561312186365e+18
14191.0	2.2583427735748603e+18
14192.0	2.2578269161259003e+18
14193.0	2.2573036767019003e+18
14194.0	2.2568040428208128e+18
14195.0	2.256292587713331e+18
14196.0	2.2557799816888317e+18
14197.0	2.2552676055121915e+18
14198.0	2.2547533116997627e+18
14199.0	2.2542414069628923e+18
14200.0	2.2536830578589693e+18
14201.0	2.2532168894906365e+18
14202.0	2.2527073637629947e+18
14203.0	2.2521859195011072e+18
14204.0	2.2516827389165565e+18
14205.0	2.2511713978941437e+18
14206.0	2.2506052826169336e+18
14207.0	2.2501499590410232e+18
14208.0	2.249639091136102e+18
14209.0	2.2490704542433275e+18
14210.0	2.2485760129105915e+18
14211.0	2.2481063011942395e+18
14212.0	2.247595585961984e+18
14213.0	2.2470846392041467e+18
14214.0	2.2465748869840893e+18
14215.0	2.2460601603194875e+18
14216.0	2.2455549463363581e+18
14217.0	2.2450448988372987e+18
14218.0	2.244529167217459e+18
14219.0	2.2440251293171712e+18
14220.0	2.2435155146702843e+18
14221.0	2.2430044185952253e+18
14222.0	2.2424844473729024e+18
14223.0	2.2419868519235584e+18
14224.0	2.241464842269491e+18
14225.0	2.2407350501507067e+18
14226.0	2.2403593797631995e+18
14227.0	2.2398510317961208e+18
14228.0	2.2390564896899067e+18
14229.0	2.238778669059276e+18
14230.0	2.23832446116823e+18
14231.0	2.237807986317721e+18
14232.0	2.23730725856215e+18
14233.0	2.2367961087999995e+18
14234.0	2.2362905978601467e+18
14235.0	2.235781359022899e+18
14236.0	2.2352740998971387e+18
14237.0	2.2347657586409464e+18
14238.0	2.2342582747004923e+18
14239.0	2.2337479637991421e+18
14240.0	2.2326495628230656e+18
14241.0	2.2327349605302267e+18
14242.0	2.232227879242956e+18
14243.0	2.231651855341977e+18
14244.0	2.231213802232217e+18
14245.0	2.2307002097074173e+18
14246.0	2.2301884794535933e+18
14247.0	2.229693063364607e+18
14248.0	2.2291806905434104e+18
14249.0	2.2286788789796861e+18
14250.0	2.228172304364339e+18
14251.0	2.2276670853480443e+18
14252.0	2.227160800978534e+18
14253.0	2.226654311926988e+18
14254.0	2.226143450732953e+18
14255.0	2.2254932782481405e+18
14256.0	2.2248546166112253e+18
14257.0	2.2244876988973053e+18
14258.0	2.223989576643379e+18
14259.0	2.2234769924292605e+18
14260.0	2.222975009737932e+18
14261.0	2.2224637693788157e+18
14262.0	2.221984086962995e+18
14263.0	2.2212652268781568e+18
14264.0	2.220929679202713e+18
14265.0	2.2204675323330552e+18
14266.0	2.2199656654045181e+18
14267.0	2.2194611728416765e+18
14268.0	2.2189569034158075e+18
14269.0	2.2184515652812795e+18
14270.0	2.217948398118502e+18
14271.0	2.2174429358325755e+18
14272.0	2.216940032072089e+18
14273.0	2.2163955426263037e+18
14274.0	2.2155112038268928e+18
14275.0	2.2153011446939643e+18
14276.0	2.2148160583368701e+18
14277.0	2.2143158204760061e+18
14278.0	2.2138214663847933e+18
14279.0	2.2133175845126136e+18
14280.0	2.2128114679152632e+18
14281.0	2.2123113642721275e+18
14282.0	2.2118082910617595e+18
14283.0	2.2113051675197432e+18
14284.0	2.2108021362524155e+18
14285.0	2.2102991385395195e+18
14286.0	2.20979603177472e+18
14287.0	2.2092936665628672e+18
14288.0	2.2087908215226365e+18
14289.0	2.207907732625816e+18
14290.0	2.2077841600413693e+18
14291.0	2.207283435641241e+18
14292.0	2.2067817532620792e+18
14293.0	2.2062786850848765e+18
14294.0	2.2057164201787384e+18
14295.0	2.205269102690304e+18
14296.0	2.2044648331542523e+18
14297.0	2.204271576403148e+18
14298.0	2.2036790890201083e+18
14299.0	2.203262139970355e+18
14300.0	2.2027641116688381e+18
14301.0	2.202266264561254e+18
14302.0	2.2017644915851261e+18
14303.0	2.2012474798637053e+18
14304.0	2.2007578401701883e+18
14305.0	2.200260660795801e+18
14306.0	2.19974013592535e+18
14307.0	2.1992520867119101e+18
14308.0	2.1987577141657595e+18
14309.0	2.19825371653079e+18
14310.0	2.1976609875558395e+18
14311.0	2.1972271136505853e+18
14312.0	2.1967349053652984e+18
14313.0	2.1962323606372347e+18
14314.0	2.1957553256660987e+18
14315.0	2.1952582721208317e+18
14316.0	2.1947360980500477e+18
14317.0	2.1942491292893181e+18
14318.0	2.1937608888156155e+18
14319.0	2.1932620820512763e+18
14320.0	2.1927627082170365e+18
14321.0	2.1922638410547192e+18
14322.0	2.1917463914479616e+18
14323.0	2.1912572903030776e+18
14324.0	2.1907671221272568e+18
14325.0	2.1902632335441915e+18
14326.0	2.1897697183137787e+18
14327.0	2.1892678312525824e+18
14328.0	2.1887689590571003e+18
14329.0	2.188181778307481e+18
14330.0	2.1876832617889787e+18
14331.0	2.1871846529957883e+18
14332.0	2.1866864367894523e+18
14333.0	2.186188197095014e+18
14334.0	2.1856900245094395e+18
14335.0	2.1851861610921981e+18
14336.0	2.1846758803898365e+18
14337.0	2.1841957231788027e+18
14338.0	2.1836971731058683e+18
14339.0	2.183194475705139e+18
14340.0	2.1827023697608696e+18
14341.0	2.1822037827780605e+18
14342.0	2.1817072560373755e+18
14343.0	2.1812061239508987e+18
14344.0	2.1807100418064381e+18
14345.0	2.1802149813944315e+18
14346.0	2.1797162585161725e+18
14347.0	2.1792129202257917e+18
14348.0	2.1787229802201083e+18
14349.0	2.1782266598391805e+18
14350.0	2.1777181608771581e+18
14351.0	2.1772179481821181e+18
14352.0	2.1767336352546808e+18
14353.0	2.176239937152614e+18
14354.0	2.17574154478551e+18
14355.0	2.175242523272806e+18
14356.0	2.1747472481124352e+18
14357.0	2.1742543804825592e+18
14358.0	2.1737581624426493e+18
14359.0	2.1732541614522358e+18
14360.0	2.172764959644057e+18
14361.0	2.1722697952133115e+18
14362.0	2.1717744093233147e+18
14363.0	2.1712784798515195e+18
14364.0	2.1707433705471995e+18
14365.0	2.1702792942977021e+18
14366.0	2.1697856867926016e+18
14367.0	2.1692965118279677e+18
14368.0	2.1688009581658104e+18
14369.0	2.1683059245973496e+18
14370.0	2.1678107551334392e+18
14371.0	2.1673156779442173e+18
14372.0	2.1668181999353853e+18
14373.0	2.166325521888051e+18
14374.0	2.165830760110489e+18
14375.0	2.1653359731671032e+18
14376.0	2.164841253332582e+18
14377.0	2.1643463271383037e+18
14378.0	2.163850870784e+18
14379.0	2.163357551847014e+18
14380.0	2.1628626541740027e+18
14381.0	2.162363114245324e+18
14382.0	2.161873778219417e+18
14383.0	2.1613745352474621e+18
14384.0	2.1608763374960632e+18
14385.0	2.160392334947123e+18
14386.0	2.1598910350884861e+18
14387.0	2.1594044454928381e+18
14388.0	2.158909772634521e+18
14389.0	2.1584169066823677e+18
14390.0	2.1579225895010301e+18
14391.0	2.1574297940131832e+18
14392.0	2.1569289605611515e+18
14393.0	2.1563548693954557e+18
14394.0	2.1558435032072187e+18
14395.0	2.155360040884633e+18
14396.0	2.154874258273075e+18
14397.0	2.154381162473062e+18
14398.0	2.1538868218036221e+18
14399.0	2.1533418508517373e+18
14400.0	2.152751203929292e+18
14401.0	2.1522632503459837e+18
14402.0	2.1517714782683133e+18
14403.0	2.1499159685103596e+18
14404.0	2.1470807783899128e+18
14405.0	2.1496790742204396e+18
14406.0	2.14979949101056e+18
14407.0	2.147384367146599e+18
14408.0	2.1487985539153917e+18
14409.0	2.1483156267859965e+18
14410.0	2.1478280221687803e+18
14411.0	2.1473385435365373e+18
14412.0	2.1468452128555003e+18
14413.0	2.1463543601692672e+18
14414.0	2.1458608835264512e+18
14415.0	2.1453691835908093e+18
14416.0	2.1448758025781243e+18
14417.0	2.144377119965184e+18
14418.0	2.143880323111321e+18
14419.0	2.1434002078433275e+18
14420.0	2.1429065936273405e+18
14421.0	2.142416271101132e+18
14422.0	2.1419233179074555e+18
14423.0	2.1414200769249277e+18
14424.0	2.1330866072453071e+18
14425.0	2.140436482437939e+18
14426.0	2.1399567530459133e+18
14427.0	2.1394664842067968e+18
14428.0	2.138964263279001e+18
14429.0	2.1384817287364605e+18
14430.0	2.1379925923594237e+18
14431.0	2.1374379644420093e+18
14432.0	2.137002018550579e+18
14433.0	2.1350748902129656e+18
14434.0	2.136019836705177e+18
14435.0	2.1355242696212477e+18
14436.0	2.1350454109667325e+18
14437.0	2.134554497882521e+18
14438.0	2.1340180765999101e+18
14439.0	2.1335592331640827e+18
14440.0	2.1330817015873533e+18
14441.0	2.1324586427613181e+18
14442.0	2.1319359469191163e+18
14443.0	2.1314288153001981e+18
14444.0	2.1309569527447547e+18
14445.0	2.13046776603607e+18
14446.0	2.128287340324455e+18
14447.0	2.129477568036864e+18
14448.0	2.1289979711848445e+18
14449.0	2.1285080999657467e+18
14450.0	2.128015242402201e+18
14451.0	2.127527156278886e+18
14452.0	2.1270349530267645e+18
14453.0	2.1265195804393464e+18
14454.0	2.1260573983375355e+18
14455.0	2.125565391378841e+18
14456.0	2.1250708409942016e+18
14457.0	2.1245779632979963e+18
14458.0	2.1240946318376955e+18
14459.0	2.1236030728306683e+18
14460.0	2.1231138911551488e+18
14461.0	2.1226100361265147e+18
14462.0	2.1221083956903933e+18
14463.0	2.1216402727763963e+18
14464.0	2.12115712418775e+18
14465.0	2.120660817228595e+18
14466.0	2.1201802825302008e+18
14467.0	2.1196641415462904e+18
14468.0	2.1191981208174587e+18
14469.0	2.1186996445642747e+18
14470.0	2.1181652147372027e+18
14471.0	2.1176433996988416e+18
14472.0	2.1171552749879293e+18
14473.0	2.1166701919862781e+18
14474.0	2.116180616046182e+18
14475.0	2.1156885671444477e+18
14476.0	2.1151087264268288e+18
14477.0	2.1147111819051003e+18
14478.0	2.1142215573110781e+18
14479.0	2.113731679381094e+18
14480.0	2.113234548660633e+18
14481.0	2.1127533613285373e+18
14482.0	2.1122621311549435e+18
14483.0	2.111769449752166e+18
14484.0	2.1112799325323261e+18
14485.0	2.1107771093024765e+18
14486.0	2.1101701532483581e+18
14487.0	2.1098156422856701e+18
14488.0	2.1093170938904573e+18
14489.0	2.1088322474475515e+18
14490.0	2.1083468087689216e+18
14491.0	2.10785875787776e+18
14492.0	2.1073702422577147e+18
14493.0	2.10688063611863e+18
14494.0	2.106381525686681e+18
14495.0	2.105901959033651e+18
14496.0	2.1053508442652672e+18
14497.0	2.1049230537785336e+18
14498.0	2.104434078462771e+18
14499.0	2.1039450930806776e+18
14500.0	2.103455545661849e+18
14501.0	2.1029185136885757e+18
14502.0	2.1023466689921024e+18
14503.0	2.1019782430064635e+18
14504.0	2.1014956631654397e+18
14505.0	2.1009622080946168e+18
14506.0	2.100424399336243e+18
14507.0	2.099919348092108e+18
14508.0	2.0995418473103357e+18
14509.0	2.099052831729254e+18
14510.0	2.0985635225468928e+18
14511.0	2.098074089213132e+18
14512.0	2.0975770994212861e+18
14513.0	2.0970951319486461e+18
14514.0	2.0965876849180672e+18
14515.0	2.0961156696899581e+18
14516.0	2.0946877407035392e+18
14517.0	2.0951360497254397e+18
14518.0	2.0946477404651517e+18
14519.0	2.0941584094724093e+18
14520.0	2.0936689157406717e+18
14521.0	2.0931789958676472e+18
14522.0	2.0926893897285624e+18
14523.0	2.0920940250529787e+18
14524.0	2.091601977828966e+18
14525.0	2.0912180748615675e+18
14526.0	2.0907312285745147e+18
14527.0	2.0902297575882747e+18
14528.0	2.089696921596723e+18
14529.0	2.0892564156579837e+18
14530.0	2.0887647224332283e+18
14531.0	2.088280810481254e+18
14532.0	2.0876511313657848e+18
14533.0	2.0873005596934144e+18
14534.0	2.0868120507842555e+18
14535.0	2.0863164434350075e+18
14536.0	2.085831659067801e+18
14537.0	2.0853356826198008e+18
14538.0	2.084851203597926e+18
14539.0	2.0843610874314747e+18
14540.0	2.0838707112181755e+18
14541.0	2.0833697552924667e+18
14542.0	2.0828895309725693e+18
14543.0	2.082328869968281e+18
14544.0	2.0819075420651517e+18
14545.0	2.081412718211891e+18
14546.0	2.0727707608285138e+18
14547.0	2.0730766296088517e+18
14548.0	2.0799370664345597e+18
14549.0	2.0793992660647933e+18
14550.0	2.078960479790694e+18
14551.0	2.0784711202766843e+18
14552.0	2.077954135398809e+18
14553.0	2.0774611117408248e+18
14554.0	2.07697316151296e+18
14555.0	2.0764814196342781e+18
14556.0	2.075987721532211e+18
14557.0	2.075498756282777e+18
14558.0	2.0750063466708987e+18
14559.0	2.0738221218463729e+18
14560.0	2.073999998923571e+18
14561.0	2.0734511037808635e+18
14562.0	2.0729500824240125e+18
14563.0	2.0724692541243387e+18
14564.0	2.07197202106286e+18
14565.0	2.0714857938550781e+18
14566.0	2.0709934312194043e+18
14567.0	2.0705000418181115e+18
14568.0	2.0699967723143165e+18
14569.0	2.0695147880644603e+18
14570.0	2.0688256706281467e+18
14571.0	2.0685280075841533e+18
14572.0	2.0680165172445181e+18
14573.0	2.067521322614784e+18
14574.0	2.0670361876037627e+18
14575.0	2.066554069136179e+18
14576.0	2.0660628993605627e+18
14577.0	2.0655668222492664e+18
14578.0	2.0650757699141627e+18
14579.0	2.0645827479339003e+18
14580.0	2.064088903870054e+18
14581.0	2.0635913470083064e+18
14582.0	2.0631002946732027e+18
14583.0	2.0626061972733947e+18
14584.0	2.0621054275747837e+18
14585.0	2.0616169991962621e+18
14586.0	2.06112077947863e+18
14587.0	2.0606257006116861e+18
14588.0	2.0601329822990333e+18
14589.0	2.0596504645337083e+18
14590.0	2.059168725231206e+18
14591.0	2.0586860883476477e+18
14592.0	2.058203832306892e+18
14593.0	2.0576685887848443e+18
14594.0	2.05723966415831e+18
14595.0	2.056754193602969e+18
14596.0	2.0562361886703616e+18
14597.0	2.055753781634662e+18
14598.0	2.0553042461982715e+18
14599.0	2.0548246392799224e+18
14600.0	2.054340420304896e+18
14601.0	2.0538569848258552e+18
14602.0	2.0533580824313853e+18
14603.0	2.0527112419016701e+18
14604.0	2.0522071033380856e+18
14605.0	2.0517363480788987e+18
14606.0	2.0512310854418427e+18
14607.0	2.0507693227704315e+18
14608.0	2.0502862060584955e+18
14609.0	2.0497927260602363e+18
14610.0	2.049308755388006e+18
14611.0	2.048826489280921e+18
14612.0	2.0483439010512893e+18
14613.0	2.0478582996336637e+18
14614.0	2.0473704702017533e+18
14615.0	2.0468789850144758e+18
14616.0	2.0462138019545083e+18
14617.0	2.0457264288628733e+18
14618.0	2.0452334857355261e+18
14619.0	2.044725364260864e+18
14620.0	2.0441722395820027e+18
14621.0	2.0437752805851136e+18
14622.0	2.0432869830688765e+18
14623.0	2.0427982241792e+18
14624.0	2.0422820529963005e+18
14625.0	2.0418199363256317e+18
14626.0	2.041327753206169e+18
14627.0	2.040834546676531e+18
14628.0	2.0403509048377344e+18
14629.0	2.039860635998617e+18
14630.0	2.039369332005273e+18
14631.0	2.0388785615273984e+18
14632.0	2.0377769980461056e+18
14633.0	2.0378134784245752e+18
14634.0	2.0374029466599421e+18
14635.0	2.0368897584660472e+18
14636.0	2.0363596454166525e+18
14637.0	2.035929350091571e+18
14638.0	2.035434581603123e+18
14639.0	2.034937744483942e+18
14640.0	2.034445697259929e+18
14641.0	2.031554050129918e+18
14642.0	2.033456420329881e+18
14643.0	2.0329655877763064e+18
14644.0	2.032464955650867e+18
14645.0	2.0319642765492221e+18
14646.0	2.0314710448537597e+18
14647.0	2.0309731004383227e+18
14648.0	2.0304842710843387e+18
14649.0	2.0299895713824765e+18
