# Flux units: erg / (cm m2 s)
# Wavelength units: Angstrom
wave	flux
14000.0	1.798431858858393e+18
14001.0	1.7980176260399104e+18
14002.0	1.7978730920017915e+18
14003.0	1.7975532629000187e+18
14004.0	1.7972321117536246e+18
14005.0	1.7969106401624061e+18
14006.0	1.7965790535876603e+18
14007.0	1.7962558438768637e+18
14008.0	1.7958183075053565e+18
14009.0	1.7956210678431741e+18
14010.0	1.7952853909831675e+18
14011.0	1.7941517427539965e+18
14012.0	1.794657763721216e+18
14013.0	1.794340107268915e+18
14014.0	1.794012332477644e+18
14015.0	1.7936957329899517e+18
14016.0	1.793377836623462e+18
14017.0	1.7930572022153213e+18
14018.0	1.7927312997613565e+18
14019.0	1.7924158612570112e+18
14020.0	1.792094337656422e+18
14021.0	1.7917728929087485e+18
14022.0	1.7914478528036861e+18
14023.0	1.7911145750855677e+18
14024.0	1.790791611999846e+18
14025.0	1.7904916085342205e+18
14026.0	1.7901705614065661e+18
14027.0	1.7898526935613435e+18
14028.0	1.7895244540411904e+18
14029.0	1.7892049638391805e+18
14030.0	1.7872462255489037e+18
14031.0	1.7885049579896822e+18
14032.0	1.7882489326403581e+18
14033.0	1.7878719972507648e+18
14034.0	1.7876101032312827e+18
14035.0	1.787275728283238e+18
14036.0	1.7869483863441405e+18
14037.0	1.7866339611836408e+18
14038.0	1.7863148115591163e+18
14039.0	1.7859905415282685e+18
14040.0	1.7856706151186427e+18
14041.0	1.785355114538598e+18
14042.0	1.785024826520371e+18
14043.0	1.7846673979998203e+18
14044.0	1.7843815142391805e+18
14045.0	1.7840740583342077e+18
14046.0	1.7837578044571648e+18
14047.0	1.783430189049446e+18
14048.0	1.7831229445373947e+18
14049.0	1.7828075546869755e+18
14050.0	1.7824892707667963e+18
14051.0	1.7821599424053248e+18
14052.0	1.781847814045696e+18
14053.0	1.7815343367979005e+18
14054.0	1.781216423654195e+18
14055.0	1.7808983695818747e+18
14056.0	1.7805803373199355e+18
14057.0	1.780262462763827e+18
14058.0	1.7799445731082237e+18
14059.0	1.779622160315187e+18
14060.0	1.77930906894336e+18
14061.0	1.7789823712493563e+18
14062.0	1.7786735631007744e+18
14063.0	1.7783356582264827e+18
14064.0	1.7777156914413565e+18
14065.0	1.7777097992830976e+18
14066.0	1.777404153639731e+18
14067.0	1.7770788937531387e+18
14068.0	1.776769832268595e+18
14069.0	1.7764489411690493e+18
14070.0	1.7761345646624763e+18
14071.0	1.7758149352095744e+18
14072.0	1.7755018975248381e+18
14073.0	1.7751850581229563e+18
14074.0	1.7748682707304448e+18
14075.0	1.7745289632808955e+18
14076.0	1.7742241548206077e+18
14077.0	1.7735549066412035e+18
14078.0	1.7735738816724987e+18
14079.0	1.773272410200473e+18
14080.0	1.77296924255191e+18
14081.0	1.7726531480584187e+18
14082.0	1.7723350604316672e+18
14083.0	1.7720186538819581e+18
14084.0	1.7717021835788288e+18
14085.0	1.770939246392115e+18
14086.0	1.7710381715685376e+18
14087.0	1.7707530159390717e+18
14088.0	1.7704233906208765e+18
14089.0	1.7701180301901821e+18
14090.0	1.7698037526691837e+18
14091.0	1.769494474758553e+18
14092.0	1.769179267779788e+18
14093.0	1.7688638225645565e+18
14094.0	1.7685482464870397e+18
14095.0	1.7682318147715064e+18
14096.0	1.7678493479337981e+18
14097.0	1.7675716598431741e+18
14098.0	1.7672558891499515e+18
14099.0	1.766971782096486e+18
14100.0	1.7666416148742141e+18
14101.0	1.7663432018886653e+18
14102.0	1.7660281928810493e+18
14103.0	1.765693260929433e+18
14104.0	1.765395554264678e+18
14105.0	1.7650844493152253e+18
14106.0	1.7647699604013056e+18
14107.0	1.7644510859231224e+18
14108.0	1.7641268662239227e+18
14109.0	1.7638202760232957e+18
14110.0	1.7635088556621821e+18
14111.0	1.7631861241020413e+18
14112.0	1.762873802804428e+18
14113.0	1.7625671689830395e+18
14114.0	1.7622383154167803e+18
14115.0	1.7619361409794048e+18
14116.0	1.761576511288115e+18
14117.0	1.7584285233971203e+18
14118.0	1.7609864767340541e+18
14119.0	1.760634452154777e+18
14120.0	1.76033423729623e+18
14121.0	1.7600368242327547e+18
14122.0	1.759698754941747e+18
14123.0	1.7594047325536253e+18
14124.0	1.7590849286176763e+18
14125.0	1.7582102283288568e+18
14126.0	1.7584856665948157e+18
14127.0	1.7581798095585275e+18
14128.0	1.757865792084377e+18
14129.0	1.7575400607580157e+18
14130.0	1.7572157420732408e+18
14131.0	1.7569289976414203e+18
14132.0	1.7566059338924032e+18
14133.0	1.755608612287282e+18
14134.0	1.7559831250468861e+18
14135.0	1.7556563619217405e+18
14136.0	1.7553356654379005e+18
14137.0	1.7550455991173115e+18
14138.0	1.754711710708531e+18
14139.0	1.7544279643652096e+18
14140.0	1.7541116047917056e+18
14141.0	1.7537751662460925e+18
14142.0	1.7532963612786688e+18
14143.0	1.7531749865095163e+18
14144.0	1.7528690288099325e+18
14145.0	1.7525557109456893e+18
14146.0	1.7522396751724544e+18
14147.0	1.7519313317527547e+18
14148.0	1.7516175827140605e+18
14149.0	1.7513080430788603e+18
14150.0	1.7510006274392067e+18
14151.0	1.750680378907033e+18
14152.0	1.7503780215980035e+18
14153.0	1.750066566004736e+18
14154.0	1.749723797415526e+18
14155.0	1.7493512979218432e+18
14156.0	1.7491217235312637e+18
14157.0	1.7488220858089472e+18
14158.0	1.7485060986896381e+18
14159.0	1.7482002483642363e+18
14160.0	1.7478804159070203e+18
14161.0	1.7475018581606395e+18
14162.0	1.747131950746828e+18
14163.0	1.746948389548851e+18
14164.0	1.746554316233113e+18
14165.0	1.7462866038751227e+18
14166.0	1.7460235639717885e+18
14167.0	1.7456974736130043e+18
14168.0	1.745398882788966e+18
14169.0	1.7450953443639293e+18
14170.0	1.7447800920866816e+18
14171.0	1.7444713577578493e+18
14172.0	1.7441652440301563e+18
14173.0	1.743817215783731e+18
14174.0	1.7435388700262397e+18
14175.0	1.7432358332399613e+18
14176.0	1.7429262499839997e+18
14177.0	1.742616644917657e+18
14178.0	1.7423063519854587e+18
14179.0	1.7419900209332221e+18
14180.0	1.7416880679550976e+18
14181.0	1.7413786541490176e+18
14182.0	1.7410681968001024e+18
14183.0	1.7407597694943224e+18
14184.0	1.740443524005888e+18
14185.0	1.7401375059083261e+18
14186.0	1.739313857010073e+18
14187.0	1.7394822398607357e+18
14188.0	1.7392083383877632e+18
14189.0	1.7389006492794875e+18
14190.0	1.7385924467884027e+18
14191.0	1.7382816991936507e+18
14192.0	1.7379673075875835e+18
14193.0	1.7375857383309307e+18
14194.0	1.7373568417398781e+18
14195.0	1.7370539844698107e+18
14196.0	1.7367454447566848e+18
14197.0	1.736437143280025e+18
14198.0	1.736122015154176e+18
14199.0	1.7358177452425216e+18
14200.0	1.7351864286707712e+18
14201.0	1.735185361639833e+18
14202.0	1.7348930220064763e+18
14203.0	1.73457995244503e+18
14204.0	1.734277031421542e+18
14205.0	1.7339689228828662e+18
14206.0	1.7335034692239357e+18
14207.0	1.7333559035428861e+18
14208.0	1.7330495767445504e+18
14209.0	1.732568594094489e+18
14210.0	1.732314415916646e+18
14211.0	1.7321183020056579e+18
14212.0	1.731819353826918e+18
14213.0	1.7315118710783997e+18
14214.0	1.7312049470111741e+18
14215.0	1.7308819554041853e+18
14216.0	1.730592424276787e+18
14217.0	1.730285451555635e+18
14218.0	1.7299635387236347e+18
14219.0	1.7296714322935803e+18
14220.0	1.7293613205553147e+18
14221.0	1.729055176628633e+18
14222.0	1.7287275712872448e+18
14223.0	1.7284436588494848e+18
14224.0	1.728135395960422e+18
14225.0	1.726812406782362e+18
14226.0	1.7274997005352957e+18
14227.0	1.7271584653836285e+18
14228.0	1.7241121943977994e+18
14229.0	1.7260778516119524e+18
14230.0	1.7262411291557885e+18
14231.0	1.7259229156999168e+18
14232.0	1.725630763971379e+18
14233.0	1.725321180715417e+18
14234.0	1.725018781463347e+18
14235.0	1.724709429732966e+18
14236.0	1.7244066915811325e+18
14237.0	1.7240988615442427e+18
14238.0	1.7237935380234235e+18
14239.0	1.7234736736894976e+18
14240.0	1.7210044919578624e+18
14241.0	1.722858912874496e+18
14242.0	1.72256473949143e+18
14243.0	1.7220661491531776e+18
14244.0	1.721951931544371e+18
14245.0	1.7215853107871744e+18
14246.0	1.7212777693183995e+18
14247.0	1.720982500383129e+18
14248.0	1.72066028388352e+18
14249.0	1.7203718466306043e+18
14250.0	1.720069526231449e+18
14251.0	1.7197674054811643e+18
14252.0	1.719461941031731e+18
14253.0	1.719155443105792e+18
14254.0	1.7188471919607805e+18
14255.0	1.7184958804131837e+18
14256.0	1.7171836034875395e+18
14257.0	1.7178517057830907e+18
14258.0	1.71762854699991e+18
14259.0	1.717301059099033e+18
14260.0	1.7169824094355453e+18
14261.0	1.7166899590725632e+18
14262.0	1.716430194081792e+18
14263.0	1.7145871615393802e+18
14264.0	1.7154653665886203e+18
14265.0	1.715457573571788e+18
14266.0	1.7151627039342587e+18
14267.0	1.714860687202713e+18
14268.0	1.714556684048793e+18
14269.0	1.7142406868631552e+18
14270.0	1.7139477415723003e+18
14271.0	1.7136421194170365e+18
14272.0	1.7133357892632576e+18
14273.0	1.7130151699546112e+18
14274.0	1.710359447391438e+18
14275.0	1.7121725779017728e+18
14276.0	1.712100617066905e+18
14277.0	1.7118040931958781e+18
14278.0	1.7115152046358523e+18
14279.0	1.7112108189614075e+18
14280.0	1.7108994623537152e+18
14281.0	1.7106054735200253e+18
14282.0	1.7103024317005821e+18
14283.0	1.7099989452849147e+18
14284.0	1.709695385049497e+18
14285.0	1.7093912627773437e+18
14286.0	1.7090855298924541e+18
14287.0	1.7087628100763643e+18
14288.0	1.708421806450278e+18
14289.0	1.706722490895562e+18
14290.0	1.7078147799318528e+18
14291.0	1.707514482864947e+18
14292.0	1.7072100133044221e+18
14293.0	1.7069061628231675e+18
14294.0	1.7064270407663616e+18
14295.0	1.706282562093056e+18
14296.0	1.7048723196477448e+18
14297.0	1.7056856757239803e+18
14298.0	1.7049674229743613e+18
14299.0	1.7050672356655104e+18
14300.0	1.704777858888499e+18
14301.0	1.704481086714675e+18
14302.0	1.7041799491092475e+18
14303.0	1.7038349407617021e+18
14304.0	1.7035533049921533e+18
14305.0	1.703270890759782e+18
14306.0	1.7029460704362493e+18
14307.0	1.7026473974038525e+18
14308.0	1.702354784301875e+18
14309.0	1.702038110994432e+18
14310.0	1.7016425176629243e+18
14311.0	1.7011898767638523e+18
14312.0	1.7010461648093181e+18
14313.0	1.7006070631235581e+18
14314.0	1.7004771521069053e+18
14315.0	1.7001898372497403e+18
14316.0	1.6998241274953728e+18
14317.0	1.699557589542502e+18
14318.0	1.6992907277893627e+18
14319.0	1.6989915011088381e+18
14320.0	1.698689784689459e+18
14321.0	1.6983853621051387e+18
14322.0	1.6980358121652221e+18
14323.0	1.6977618586828795e+18
14324.0	1.6974854976700416e+18
14325.0	1.6971723006017533e+18
14326.0	1.6968832006488061e+18
14327.0	1.6965735066632187e+18
14328.0	1.6962719462719485e+18
14329.0	1.6959796620034043e+18
14330.0	1.695678576407347e+18
14331.0	1.6953771250679805e+18
14332.0	1.6950763817271296e+18
14333.0	1.6947754454482941e+18
14334.0	1.6944744236056576e+18
14335.0	1.6941560893538304e+18
14336.0	1.6937682689064957e+18
14337.0	1.693567787886182e+18
14338.0	1.6932671737298941e+18
14339.0	1.6929558758424576e+18
14340.0	1.6926388183367675e+18
14341.0	1.692277420326912e+18
14342.0	1.691979978742169e+18
14343.0	1.6916795239694333e+18
14344.0	1.6913732139483133e+18
14345.0	1.691078983522713e+18
14346.0	1.690772572838297e+18
14347.0	1.6904347669495803e+18
14348.0	1.69017489794007e+18
14349.0	1.6898782717280253e+18
14350.0	1.6894951170244603e+18
14351.0	1.6891844247945208e+18
14352.0	1.6889655945330688e+18
14353.0	1.6886760281735165e+18
14354.0	1.6883669213904893e+18
14355.0	1.6880471812079613e+18
14356.0	1.6877546788356093e+18
14357.0	1.68747909293015e+18
14358.0	1.687179384743526e+18
14359.0	1.6868605840850941e+18
14360.0	1.686571952216473e+18
14361.0	1.686276591006515e+18
14362.0	1.6859801107562493e+18
14363.0	1.6856791677665277e+18
14364.0	1.6851176695791616e+18
14365.0	1.6850243110830075e+18
14366.0	1.6847326542823421e+18
14367.0	1.684482710673817e+18
14368.0	1.684182878335795e+18
14369.0	1.6838842891894781e+18
14370.0	1.683585221892505e+18
14371.0	1.6832863223676928e+18
14372.0	1.6829655671635963e+18
14373.0	1.6826320361095165e+18
14374.0	1.6823348025622525e+18
14375.0	1.6820326918782976e+18
14376.0	1.6817369447923707e+18
14377.0	1.6814368339525624e+18
14378.0	1.6811349094957053e+18
14379.0	1.6808393536700413e+18
14380.0	1.6805392042426365e+18
14381.0	1.6802257404166141e+18
14382.0	1.6799401821339648e+18
14383.0	1.6796394085941243e+18
14384.0	1.6793209317359613e+18
14385.0	1.6790456394317821e+18
14386.0	1.6787238960496637e+18
14387.0	1.678447628989235e+18
14388.0	1.6781466641891328e+18
14389.0	1.6778500765646843e+18
14390.0	1.677548957414195e+18
14391.0	1.6772534032662525e+18
14392.0	1.6769534987862013e+18
14393.0	1.676656560517939e+18
14394.0	1.676308215182131e+18
14395.0	1.6760444505030656e+18
14396.0	1.6757611705663485e+18
14397.0	1.6754630847365115e+18
14398.0	1.675164260709171e+18
14399.0	1.6748659752304635e+18
14400.0	1.6745408176848896e+18
14401.0	1.674259926823731e+18
14402.0	1.673962466784051e+18
14403.0	1.6728566569893875e+18
14404.0	1.668517818951267e+18
14405.0	1.6707832179064773e+18
14406.0	1.6727679860473853e+18
14407.0	1.6713018435960835e+18
14408.0	1.672159808611942e+18
14409.0	1.671773529990758e+18
14410.0	1.671409351996211e+18
14411.0	1.6711304777564157e+18
14412.0	1.670829668984422e+18
14413.0	1.6705374249811963e+18
14414.0	1.6702363410628603e+18
14415.0	1.6699400990490621e+18
14416.0	1.6696410166525947e+18
14417.0	1.6693322303143933e+18
14418.0	1.669015419433779e+18
14419.0	1.6687474638061563e+18
14420.0	1.6684450511323133e+18
14421.0	1.668153073886822e+18
14422.0	1.6678473175138304e+18
14423.0	1.667514779670937e+18
14424.0	1.6626204480110564e+18
14425.0	1.6669326018871293e+18
14426.0	1.6666646613590008e+18
14427.0	1.6663692548505597e+18
14428.0	1.6660444966027261e+18
14429.0	1.665772193998438e+18
14430.0	1.6654771045793787e+18
14431.0	1.6647226533085187e+18
14432.0	1.664877981807411e+18
14433.0	1.6637172652179446e+18
14434.0	1.6642666116677632e+18
14435.0	1.6639312049209341e+18
14436.0	1.6636967802372093e+18
14437.0	1.6634020985044992e+18
14438.0	1.6630399404867584e+18
14439.0	1.662797714397593e+18
14440.0	1.6625114044956672e+18
14441.0	1.662202542659993e+18
14442.0	1.661896242705203e+18
14443.0	1.6615435067719675e+18
14444.0	1.661317568004096e+18
14445.0	1.661025099186176e+18
14446.0	1.6588718592753674e+18
14447.0	1.6604109725499392e+18
14448.0	1.6601389182484477e+18
14449.0	1.6598436140810237e+18
14450.0	1.6595110007406592e+18
14451.0	1.659195156227686e+18
14452.0	1.6589019676671997e+18
14453.0	1.6585936276029437e+18
14454.0	1.6583082119266304e+18
14455.0	1.6580006687801341e+18
14456.0	1.6577082536493053e+18
14457.0	1.657413519907225e+18
14458.0	1.6571171084435453e+18
14459.0	1.6568143266709504e+18
14460.0	1.6565068724436992e+18
14461.0	1.6561360305389565e+18
14462.0	1.6556790443409403e+18
14463.0	1.6555920007888893e+18
14464.0	1.6553301420015608e+18
14465.0	1.6550077073981435e+18
14466.0	1.6547468904759293e+18
14467.0	1.6544219560673275e+18
14468.0	1.654155134579507e+18
14469.0	1.6538064956424192e+18
14470.0	1.6535247072002043e+18
14471.0	1.6532609458765821e+18
14472.0	1.652972558955315e+18
14473.0	1.6526817124941821e+18
14474.0	1.6523902066884605e+18
14475.0	1.6520920923373563e+18
14476.0	1.651744028858777e+18
14477.0	1.6515016299642875e+18
14478.0	1.6512049014112253e+18
14479.0	1.6509075252576253e+18
14480.0	1.650592098497331e+18
14481.0	1.6503225356124157e+18
14482.0	1.650021730195865e+18
14483.0	1.649716787517849e+18
14484.0	1.6494205404708861e+18
14485.0	1.64908356337664e+18
14486.0	1.6484228229234685e+18
14487.0	1.6485472628899837e+18
14488.0	1.648235468396953e+18
14489.0	1.6479164395683835e+18
14490.0	1.6476512135938048e+18
14491.0	1.64736728605655e+18
14492.0	1.6470741344059392e+18
14493.0	1.6467648279740413e+18
14494.0	1.6464535804182525e+18
14495.0	1.646186371376742e+18
14496.0	1.6457043065962493e+18
14497.0	1.6455966002249728e+18
14498.0	1.6453039418245115e+18
14499.0	1.645002690134016e+18
14500.0	1.644620483343155e+18
14501.0	1.644292379718451e+18
14502.0	1.64370084528128e+18
14503.0	1.6436955050934267e+18
14504.0	1.643392651178803e+18
14505.0	1.6430817962098685e+18
14506.0	1.642760745726771e+18
14507.0	1.6421680805052413e+18
14508.0	1.6422197056765947e+18
14509.0	1.641926035610009e+18
14510.0	1.641626094220083e+18
14511.0	1.6413353618440187e+18
14512.0	1.641019077767987e+18
14513.0	1.64074443809751e+18
14514.0	1.6404042112565243e+18
14515.0	1.6401473369800696e+18
14516.0	1.6362485871280154e+18
14517.0	1.6395443537707005e+18
14518.0	1.639268541372825e+18
14519.0	1.6389727036899325e+18
14520.0	1.6386793473572861e+18
14521.0	1.6383854541537275e+18
14522.0	1.6380885225963515e+18
14523.0	1.637708699847884e+18
14524.0	1.637442794396057e+18
14525.0	1.6371983419703293e+18
14526.0	1.6369081665978365e+18
14527.0	1.6365869114327037e+18
14528.0	1.6361225818472448e+18
14529.0	1.6360114948669435e+18
14530.0	1.635706756870963e+18
14531.0	1.6354343838023677e+18
14532.0	1.6350693652692992e+18
14533.0	1.6348470856122365e+18
14534.0	1.6345546939695104e+18
14535.0	1.634245078836838e+18
14536.0	1.6339599064301565e+18
14537.0	1.6336506503299067e+18
14538.0	1.633376024081203e+18
14539.0	1.6330816493715453e+18
14540.0	1.6327869491838976e+18
14541.0	1.6324613067767805e+18
14542.0	1.6321942537633787e+18
14543.0	1.63185277534208e+18
14544.0	1.6316049339187197e+18
14545.0	1.6312943373189115e+18
14546.0	1.6248644575428572e+18
14547.0	1.6250035121422285e+18
14548.0	1.6303995496693757e+18
14549.0	1.629960290277785e+18
14550.0	1.629826174890803e+18
14551.0	1.6295457118486523e+18
14552.0	1.6292499597295613e+18
14553.0	1.6289440422952952e+18
14554.0	1.6286627118710781e+18
14555.0	1.6283677684137984e+18
14556.0	1.6280336702898176e+18
14557.0	1.6277289859809275e+18
14558.0	1.6274264843878397e+18
14559.0	1.6244667569930191e+18
14560.0	1.626830686860083e+18
14561.0	1.6265386861264896e+18
14562.0	1.626214186247782e+18
14563.0	1.6259547551236093e+18
14564.0	1.625626138116096e+18
14565.0	1.625371194897203e+18
14566.0	1.6250768554196992e+18
14567.0	1.6247792091529213e+18
14568.0	1.6244648343240701e+18
14569.0	1.6241874951995392e+18
14570.0	1.6231473782718456e+18
14571.0	1.6235950665367547e+18
14572.0	1.6232469594374141e+18
14573.0	1.6229390790688763e+18
14574.0	1.6226406375620603e+18
14575.0	1.622406877256089e+18
14576.0	1.6221092662214653e+18
14577.0	1.6218240803930107e+18
14578.0	1.6215332641308672e+18
14579.0	1.6212446154850301e+18
14580.0	1.6209499756953597e+18
14581.0	1.6206465228341243e+18
14582.0	1.6203519249874941e+18
14583.0	1.620064381960192e+18
14584.0	1.619739002955366e+18
14585.0	1.6194737232936957e+18
14586.0	1.619174937853952e+18
14587.0	1.6188832474988541e+18
14588.0	1.6185892905418747e+18
14589.0	1.6182978853994496e+18
14590.0	1.6180063829491707e+18
14591.0	1.6177101140918267e+18
14592.0	1.617409429471232e+18
14593.0	1.61696339543982e+18
14594.0	1.6168373163393024e+18
14595.0	1.616534365116825e+18
14596.0	1.6160016532766715e+18
14597.0	1.615655955385548e+18
14598.0	1.6156398375141376e+18
14599.0	1.615377483798937e+18
14600.0	1.6150800606691323e+18
14601.0	1.6147898567753725e+18
14602.0	1.6144835903750144e+18
14603.0	1.6142042329513981e+18
14604.0	1.6138388839071747e+18
14605.0	1.6135699250020355e+18
14606.0	1.613215960976588e+18
14607.0	1.6130265160089597e+18
14608.0	1.6127375183970301e+18
14609.0	1.6124361056452605e+18
14610.0	1.6120881881284605e+18
14611.0	1.6118399658622979e+18
14612.0	1.6115752700477435e+18
14613.0	1.6112869754011648e+18
14614.0	1.610986383055257e+18
14615.0	1.610700026177126e+18
14616.0	1.6104119563452413e+18
14617.0	1.610110107385856e+18
14618.0	1.6098077651763197e+18
14619.0	1.609342657128038e+18
14620.0	1.608596411593523e+18
14621.0	1.608907952750592e+18
14622.0	1.608605249830912e+18
14623.0	1.6083167152701437e+18
14624.0	1.607941455924428e+18
14625.0	1.607725806623129e+18
14626.0	1.6074304806453243e+18
14627.0	1.6071356512731133e+18
14628.0	1.606851743868518e+18
14629.0	1.606557969783193e+18
14630.0	1.6062559933169661e+18
14631.0	1.6059673127944187e+18
14632.0	1.605284765315891e+18
14633.0	1.605327928059494e+18
14634.0	1.6050803231948797e+18
14635.0	1.604679835949465e+18
14636.0	1.6041700250091515e+18
14637.0	1.6042083223601147e+18
14638.0	1.6038970412498944e+18
14639.0	1.6035913100427261e+18
14640.0	1.603314598386073e+18
14641.0	1.601557500421733e+18
14642.0	1.602722859266867e+18
14643.0	1.602438161655398e+18
14644.0	1.6021263570960381e+18
14645.0	1.601814498849587e+18
14646.0	1.6015329385775104e+18
14647.0	1.6012113126359035e+18
14648.0	1.6009511466696701e+18
