# Flux units: erg / (cm m2 s)
# Wavelength units: Angstrom
wave	flux
14000.0	1.786890800227942e+18
14001.0	1.786470069593702e+18
14002.0	1.7861648400252923e+18
14003.0	1.7857924663607293e+18
14004.0	1.7854191665938432e+18
14005.0	1.7850457460310013e+18
14006.0	1.784667351023616e+18
14007.0	1.7842934019784696e+18
14008.0	1.7838605498056704e+18
14009.0	1.7835524228120576e+18
14010.0	1.7831713300283387e+18
14011.0	1.7823927245996024e+18
14012.0	1.782434137479577e+18
14013.0	1.7820615473889277e+18
14014.0	1.781685190813286e+18
14015.0	1.7813148354478075e+18
14016.0	1.780943986832179e+18
14017.0	1.780571673565593e+18
14018.0	1.7801991656833021e+18
14019.0	1.779827270169395e+18
14020.0	1.779407843124838e+18
14021.0	1.7790329730105344e+18
14022.0	1.778656158416896e+18
14023.0	1.7782627528343547e+18
14024.0	1.7778986067165181e+18
14025.0	1.777545860716953e+18
14026.0	1.7771742537711616e+18
14027.0	1.7768041869737981e+18
14028.0	1.7764328887287803e+18
14029.0	1.776061258294886e+18
14030.0	1.7742207154913288e+18
14031.0	1.7752849245011963e+18
14032.0	1.7749469508403195e+18
14033.0	1.774534877249536e+18
14034.0	1.7742050136948733e+18
14035.0	1.7738362404208637e+18
14036.0	1.7734620061630461e+18
14037.0	1.7730941724131325e+18
14038.0	1.7727249679646715e+18
14039.0	1.7723519668322296e+18
14040.0	1.771977591645798e+18
14041.0	1.7716112946888704e+18
14042.0	1.7712363172003837e+18
14043.0	1.7708473575800832e+18
14044.0	1.7704965812256763e+18
14045.0	1.770123885438566e+18
14046.0	1.769749488441753e+18
14047.0	1.769372697336217e+18
14048.0	1.7690094521548797e+18
14049.0	1.7686437541445627e+18
14050.0	1.7682744507105275e+18
14051.0	1.7678993692033021e+18
14052.0	1.7675360367804408e+18
14053.0	1.7671669111848957e+18
14054.0	1.7667980221480957e+18
14055.0	1.7664291431776256e+18
14056.0	1.7660603329937405e+18
14057.0	1.7656916352172027e+18
14058.0	1.76532302635991e+18
14059.0	1.7649544997109757e+18
14060.0	1.7645860686921725e+18
14061.0	1.7642132353318907e+18
14062.0	1.7638494616682493e+18
14063.0	1.7634605054033915e+18
14064.0	1.7628418791178237e+18
14065.0	1.7627268494917624e+18
14066.0	1.7623645455122427e+18
14067.0	1.761973074342707e+18
14068.0	1.7616290273296381e+18
14069.0	1.7612575915114496e+18
14070.0	1.7608929672429565e+18
14071.0	1.7605243818737661e+18
14072.0	1.7601588667351037e+18
14073.0	1.759791564822937e+18
14074.0	1.7594243853844475e+18
14075.0	1.7590447522185216e+18
14076.0	1.7586616109367296e+18
14077.0	1.7579784578007037e+18
14078.0	1.7579316963442688e+18
14079.0	1.7575829684879357e+18
14080.0	1.7572229294325757e+18
14081.0	1.7568563506184187e+18
14082.0	1.7564820710621181e+18
14083.0	1.7561100195201021e+18
14084.0	1.7557445446467581e+18
14085.0	1.755039891508428e+18
14086.0	1.75498574472151e+18
14087.0	1.7546460044197888e+18
14088.0	1.7542683761311736e+18
14089.0	1.7538926386348027e+18
14090.0	1.7535412213907453e+18
14091.0	1.753182462436966e+18
14092.0	1.7528168499904507e+18
14093.0	1.752451297941913e+18
14094.0	1.7520858163576827e+18
14095.0	1.7517204002045947e+18
14096.0	1.7512858602438656e+18
14097.0	1.7509688732024827e+18
14098.0	1.7505937984061435e+18
14099.0	1.750259774101913e+18
14100.0	1.7498868904099837e+18
14101.0	1.7495301111676923e+18
14102.0	1.7491651916201981e+18
14103.0	1.748790724159078e+18
14104.0	1.748434263683891e+18
14105.0	1.7480634788216827e+18
14106.0	1.747694821310464e+18
14107.0	1.7473285511970813e+18
14108.0	1.7469575381647357e+18
14109.0	1.7465985527185403e+18
14110.0	1.7462303632916472e+18
14111.0	1.745860148854784e+18
14112.0	1.7455036330147837e+18
14113.0	1.7451331467870205e+18
14114.0	1.7447730557222912e+18
14115.0	1.744415206093619e+18
14116.0	1.7439834813497341e+18
14117.0	1.7412253154279424e+18
14118.0	1.7433276163555325e+18
14119.0	1.742923493487411e+18
14120.0	1.7425672561491965e+18
14121.0	1.7422264286838784e+18
14122.0	1.7418142443634688e+18
14123.0	1.7414643605569533e+18
14124.0	1.741091176552857e+18
14125.0	1.7404813062963195e+18
14126.0	1.7404128351223803e+18
14127.0	1.7400617668444157e+18
14128.0	1.739698404222566e+18
14129.0	1.7393291041439744e+18
14130.0	1.738952799577702e+18
14131.0	1.7386002666487805e+18
14132.0	1.7382346072260603e+18
14133.0	1.7375187603292152e+18
14134.0	1.7375137254866941e+18
14135.0	1.737133602426061e+18
14136.0	1.736683509986099e+18
14137.0	1.736424125838131e+18
14138.0	1.736035488340377e+18
14139.0	1.7357046953279485e+18
14140.0	1.735332779681382e+18
14141.0	1.734974304262553e+18
14142.0	1.7344167051001856e+18
14143.0	1.7342503405486075e+18
14144.0	1.7338982740262907e+18
14145.0	1.7335362955247613e+18
14146.0	1.7331716762894333e+18
14147.0	1.7328124156968957e+18
14148.0	1.7324446893211643e+18
14149.0	1.7320828802695165e+18
14150.0	1.731733263220736e+18
14151.0	1.7313548631801853e+18
14152.0	1.7310123428937725e+18
14153.0	1.7306518827302907e+18
14154.0	1.7302753600602112e+18
14155.0	1.7295377984126976e+18
14156.0	1.7295193938067446e+18
14157.0	1.7292078509719547e+18
14158.0	1.7288353347010557e+18
14159.0	1.728479186282086e+18
14160.0	1.7281156592435197e+18
14161.0	1.7277208494079997e+18
14162.0	1.7273306298187776e+18
14163.0	1.7270396709502976e+18
14164.0	1.7265982439423997e+18
14165.0	1.7261995669585915e+18
14166.0	1.7257422183727104e+18
14167.0	1.7253756848570365e+18
14168.0	1.7250146475573243e+18
14169.0	1.7246668307038203e+18
14170.0	1.724299777094451e+18
14171.0	1.7239459841966077e+18
14172.0	1.7235903139282941e+18
14173.0	1.7231751852064763e+18
14174.0	1.722867573273395e+18
14175.0	1.7225141427634176e+18
14176.0	1.722153852049817e+18
14177.0	1.7217969033576448e+18
14178.0	1.72143806555095e+18
14179.0	1.7210698106929147e+18
14180.0	1.720723419902771e+18
14181.0	1.7203654243123197e+18
14182.0	1.7200069841256443e+18
14183.0	1.719649694855987e+18
14184.0	1.7192885770256381e+18
14185.0	1.7189341264609277e+18
14186.0	1.7181291774476288e+18
14187.0	1.7182031146385405e+18
14188.0	1.717859186743705e+18
14189.0	1.7174923797594107e+18
14190.0	1.717131597473382e+18
14191.0	1.7167725147193336e+18
14192.0	1.7164154099990528e+18
14193.0	1.7159887133868027e+18
14194.0	1.7157023179210747e+18
14195.0	1.715350222877491e+18
14196.0	1.714993287607091e+18
14197.0	1.7146366123835387e+18
14198.0	1.7142767780102141e+18
14199.0	1.713921238604185e+18
14200.0	1.7132903615954941e+18
14201.0	1.7131977916284923e+18
14202.0	1.7128539593637885e+18
14203.0	1.7124854260039677e+18
14204.0	1.712140429400473e+18
14205.0	1.7117845645164544e+18
14206.0	1.711347813318656e+18
14207.0	1.7110744252284925e+18
14208.0	1.710718956286771e+18
14209.0	1.7102756988846077e+18
14210.0	1.7099465013854205e+18
14211.0	1.7096489926918136e+18
14212.0	1.7092961930051581e+18
14213.0	1.708935868737126e+18
14214.0	1.7085856527417336e+18
14215.0	1.7082222817312768e+18
14216.0	1.7078761593765885e+18
14217.0	1.7075211417419776e+18
14218.0	1.7071586532130816e+18
14219.0	1.7068113447092221e+18
14220.0	1.706454120870707e+18
14221.0	1.706095153879449e+18
14222.0	1.7057010587533307e+18
14223.0	1.7053910392897533e+18
14224.0	1.7050381456506877e+18
14225.0	1.7038375798177797e+18
14226.0	1.7043154502942715e+18
14227.0	1.7039633451843581e+18
14228.0	1.701510902081127e+18
14229.0	1.7028391240728556e+18
14230.0	1.7029013373452288e+18
14231.0	1.702504963873177e+18
14232.0	1.7021936592748541e+18
14233.0	1.7018359086317563e+18
14234.0	1.701486496265011e+18
14235.0	1.701131297436467e+18
14236.0	1.7007793483546621e+18
14237.0	1.7004252719218685e+18
14238.0	1.7000726098083837e+18
14239.0	1.6997109869838333e+18
14240.0	1.6983156645167104e+18
14241.0	1.6990067918635005e+18
14242.0	1.698657664709427e+18
14243.0	1.6982055841693696e+18
14244.0	1.697954872164352e+18
14245.0	1.6975886507048952e+18
14246.0	1.6972310510567424e+18
14247.0	1.6968939196121085e+18
14248.0	1.6965337731825656e+18
14249.0	1.696190835143475e+18
14250.0	1.6958383743565821e+18
14251.0	1.6954878328831995e+18
14252.0	1.6951356354985984e+18
14253.0	1.6947830690152448e+18
14254.0	1.6944299874713597e+18
14255.0	1.6940576809156605e+18
14256.0	1.6928940367020035e+18
14257.0	1.6933456390914048e+18
14258.0	1.6930244913004541e+18
14259.0	1.692660413969203e+18
14260.0	1.6922942512300032e+18
14261.0	1.691957295946137e+18
14262.0	1.6916320595476477e+18
14263.0	1.690066582555853e+18
14264.0	1.6907120255434744e+18
14265.0	1.6905723870969853e+18
14266.0	1.690216748705382e+18
14267.0	1.6898655713755128e+18
14268.0	1.689514806765158e+18
14269.0	1.6891602203049984e+18
14270.0	1.6888133194874877e+18
14271.0	1.6884609677524987e+18
14272.0	1.688111847309312e+18
14273.0	1.6877603763781632e+18
14274.0	1.6855872437223432e+18
14275.0	1.686896497393664e+18
14276.0	1.686694947664691e+18
14277.0	1.6863464513339387e+18
14278.0	1.6860103550435323e+18
14279.0	1.6856597363949565e+18
14280.0	1.6853058126348288e+18
14281.0	1.6849607489224696e+18
14282.0	1.6846112107266048e+18
14283.0	1.6842615433461757e+18
14284.0	1.6839119262973947e+18
14285.0	1.6835621230215163e+18
14286.0	1.6832091337523195e+18
14287.0	1.6828636036333568e+18
14288.0	1.6825143154180093e+18
14289.0	1.6814937473023985e+18
14290.0	1.68181376263127e+18
14291.0	1.6814663886962685e+18
14292.0	1.6811181104693248e+18
14293.0	1.680767750189875e+18
14294.0	1.680328618305126e+18
14295.0	1.680062930957107e+18
14296.0	1.6791800802967552e+18
14297.0	1.6793742950268925e+18
14298.0	1.6787090364694525e+18
14299.0	1.6786630333431803e+18
14300.0	1.6783238936657915e+18
14301.0	1.6779782796607485e+18
14302.0	1.6776315533262848e+18
14303.0	1.6772617499312125e+18
14304.0	1.676925378494464e+18
14305.0	1.676587094455091e+18
14306.0	1.6762032485302267e+18
14307.0	1.6758752069812221e+18
14308.0	1.675542377214771e+18
14309.0	1.675188302459699e+18
14310.0	1.6746953509437437e+18
14311.0	1.674096030200627e+18
14312.0	1.674082212485529e+18
14313.0	1.673730661023744e+18
14314.0	1.6734467284533243e+18
14315.0	1.6730994283380733e+18
14316.0	1.6727208521367547e+18
14317.0	1.6723676900622333e+18
14318.0	1.6720620108644347e+18
14319.0	1.6717157190598656e+18
14320.0	1.671368658858803e+18
14321.0	1.6710206322900987e+18
14322.0	1.6706493994762235e+18
14323.0	1.6703171032252413e+18
14324.0	1.669981743454617e+18
14325.0	1.6696305443143683e+18
14326.0	1.6692904768569336e+18
14327.0	1.6689399806820347e+18
14328.0	1.6685937626972157e+18
14329.0	1.6682520980488187e+18
14330.0	1.6679060713242616e+18
14331.0	1.6675555902488576e+18
14332.0	1.6672143165095928e+18
14333.0	1.6668685917749248e+18
14334.0	1.6665229224050685e+18
14335.0	1.6661654938845181e+18
14336.0	1.665740188103475e+18
14337.0	1.665485929394995e+18
14338.0	1.6651395486711805e+18
14339.0	1.6647859050905597e+18
14340.0	1.6644500638138363e+18
14341.0	1.6640985895272448e+18
14342.0	1.6637589347893248e+18
14343.0	1.6634098948767744e+18
14344.0	1.6630652556279803e+18
14345.0	1.6627257233637368e+18
14346.0	1.6623774686248957e+18
14347.0	1.661989112984371e+18
14348.0	1.6616905624256507e+18
14349.0	1.6613472234110976e+18
14350.0	1.6609358712406008e+18
14351.0	1.6605830463881213e+18
14352.0	1.6603082355900416e+18
14353.0	1.6599687352025085e+18
14354.0	1.6595271169343488e+18
14355.0	1.6591305622683648e+18
14356.0	1.6587931506442235e+18
14357.0	1.658467545146982e+18
14358.0	1.6581235115556861e+18
14359.0	1.657770242106982e+18
14360.0	1.6574298776928253e+18
14361.0	1.6570901273247741e+18
14362.0	1.6567488384860152e+18
14363.0	1.6564051387613184e+18
14364.0	1.655847427191603e+18
14365.0	1.655678396740403e+18
14366.0	1.6553361599889405e+18
14367.0	1.6550325376778235e+18
14368.0	1.6546890778673147e+18
14369.0	1.6543463881310205e+18
14370.0	1.6539985209458685e+18
14371.0	1.6536496806821885e+18
14372.0	1.653302330235289e+18
14373.0	1.6529623265312768e+18
14374.0	1.652621025948467e+18
14375.0	1.6522774856073208e+18
14376.0	1.651936179991347e+18
14377.0	1.6515932755066875e+18
14378.0	1.6512494851850235e+18
14379.0	1.6509089496432637e+18
14380.0	1.650565917651763e+18
14381.0	1.6502169398149115e+18
14382.0	1.6498812948316157e+18
14383.0	1.6495326441504765e+18
14384.0	1.649185676224102e+18
14385.0	1.648856458592256e+18
14386.0	1.6485050379927547e+18
14387.0	1.6481726914101248e+18
14388.0	1.647829686262169e+18
14389.0	1.647489336947507e+18
14390.0	1.647146590168678e+18
14391.0	1.6468061586456576e+18
14392.0	1.6464624505323515e+18
14393.0	1.646123931611955e+18
14394.0	1.645758146360115e+18
14395.0	1.645423539886489e+18
14396.0	1.6450998369255421e+18
14397.0	1.6447595194875904e+18
14398.0	1.6444172491816957e+18
14399.0	1.6440772219895803e+18
14400.0	1.6437190435274747e+18
14401.0	1.6433916848111613e+18
14402.0	1.6430546020204541e+18
14403.0	1.6406606090600415e+18
14404.0	1.6365053573857262e+18
14405.0	1.6409127890714596e+18
14406.0	1.6416466161106941e+18
14407.0	1.6383569194647565e+18
14408.0	1.640882009590988e+18
14409.0	1.6405683847036925e+18
14410.0	1.640224819196723e+18
14411.0	1.6398999200202752e+18
14412.0	1.6395594029334525e+18
14413.0	1.6392221003612157e+18
14414.0	1.6388805548310525e+18
14415.0	1.6385416013807616e+18
14416.0	1.6381928584249341e+18
14417.0	1.6378324150386685e+18
14418.0	1.637482178910617e+18
14419.0	1.6371828347895805e+18
14420.0	1.6368409872695293e+18
14421.0	1.6365047366287357e+18
14422.0	1.6361628656205821e+18
14423.0	1.6358177633206272e+18
14424.0	1.6237127285079997e+18
14425.0	1.635143577606553e+18
14426.0	1.63480937210839e+18
14427.0	1.6344701233790976e+18
14428.0	1.6341170368020477e+18
14429.0	1.6337896831188992e+18
14430.0	1.6334543887794168e+18
14431.0	1.6327389059481597e+18
14432.0	1.6327686855065603e+18
14433.0	1.6302384716185587e+18
14434.0	1.6320847992061947e+18
14435.0	1.631695302714982e+18
14436.0	1.6314123784552443e+18
14437.0	1.631074262188032e+18
14438.0	1.630647491756032e+18
14439.0	1.630381232304947e+18
14440.0	1.630059198676992e+18
14441.0	1.6297156398809085e+18
14442.0	1.6293740993839104e+18
14443.0	1.6290087033634808e+18
14444.0	1.6287045827690493e+18
14445.0	1.6283700819918843e+18
14446.0	1.6253914634518536e+18
14447.0	1.627684212624588e+18
14448.0	1.6273575132528637e+18
14449.0	1.6270200764628992e+18
14450.0	1.6266789990170621e+18
14451.0	1.626344161017856e+18
14452.0	1.6260060212625405e+18
14453.0	1.625633280176947e+18
14454.0	1.6253323287986176e+18
14455.0	1.6249899645403133e+18
14456.0	1.624647429154406e+18
14457.0	1.6243092021575675e+18
14458.0	1.6239791607644157e+18
14459.0	1.623642262523084e+18
14460.0	1.6233041965875197e+18
14461.0	1.622924120503091e+18
14462.0	1.622273911108403e+18
14463.0	1.6222826218389501e+18
14464.0	1.621960730817331e+18
14465.0	1.6216105752199165e+18
14466.0	1.621289214358323e+18
14467.0	1.620919181115392e+18
14468.0	1.620613923025715e+18
14469.0	1.6202401753071613e+18
14470.0	1.6199261930651643e+18
14471.0	1.6196014331396093e+18
14472.0	1.6192692962721792e+18
14473.0	1.6189368943247357e+18
14474.0	1.6186025999073277e+18
14475.0	1.6182626582790144e+18
14476.0	1.617788522410803e+18
14477.0	1.617594242249523e+18
14478.0	1.617258082205696e+18
14479.0	1.6169209021071357e+18
14480.0	1.616576855094067e+18
14481.0	1.616253942339993e+18
14482.0	1.6159159921672187e+18
14483.0	1.6155758123024381e+18
14484.0	1.6152411471085565e+18
14485.0	1.6148867955294203e+18
14486.0	1.6143703559110653e+18
14487.0	1.614238044074803e+18
14488.0	1.6138579109478397e+18
14489.0	1.6135349914828797e+18
14490.0	1.6132278006579197e+18
14491.0	1.6129015291052024e+18
14492.0	1.6125664176373757e+18
14493.0	1.6122248200978432e+18
14494.0	1.6118817730068477e+18
14495.0	1.6115636686028797e+18
14496.0	1.6111356600123392e+18
14497.0	1.610893871808512e+18
14498.0	1.6105597082533888e+18
14499.0	1.6102258315886587e+18
14500.0	1.6098912217595904e+18
14501.0	1.6094939960049661e+18
14502.0	1.6089982879924221e+18
14503.0	1.6088628019068925e+18
14504.0	1.6085501719085053e+18
14505.0	1.6081613750271997e+18
14506.0	1.6077604431855613e+18
14507.0	1.607381682434867e+18
14508.0	1.6072183327490043e+18
14509.0	1.6068844695060475e+18
14510.0	1.6065484000591867e+18
14511.0	1.606216654100889e+18
14512.0	1.605866179736371e+18
14513.0	1.605538701901824e+18
14514.0	1.6051760690888701e+18
14515.0	1.6048700962897915e+18
14516.0	1.6028421150736397e+18
14517.0	1.6042038898196477e+18
14518.0	1.603870679210393e+18
14519.0	1.603537279018598e+18
14520.0	1.6032032698138621e+18
14521.0	1.6028689082875904e+18
14522.0	1.602532835485286e+18
14523.0	1.6020330237657085e+18
14524.0	1.6017284619304957e+18
14525.0	1.601533602955264e+18
14526.0	1.6012026690142203e+18
14527.0	1.6008528590274557e+18
14528.0	1.6004370860605435e+18
14529.0	1.6001972926676992e+18
14530.0	1.599859684750131e+18
14531.0	1.5995375773024253e+18
14532.0	1.599004632258969e+18
14533.0	1.5988722667356157e+18
14534.0	1.5985411918659581e+18
14535.0	1.5982007418879997e+18
14536.0	1.5978730493050875e+18
14537.0	1.5975344313991165e+18
14538.0	1.5972105589882875e+18
14539.0	1.5968781754957821e+18
14540.0	1.5965456544301053e+18
14541.0	1.596197894619136e+18
14542.0	1.595879379173376e+18
14543.0	1.5954555128774653e+18
14544.0	1.5952156976742397e+18
14545.0	1.5948769925267453e+18
14546.0	1.579558874225042e+18
14547.0	1.5807013674024863e+18
14548.0	1.593877458006835e+18
14549.0	1.5934711020912637e+18
14550.0	1.5932169490792443e+18
14551.0	1.592890915762995e+18
14552.0	1.592557527315251e+18
14553.0	1.5922209595850747e+18
14554.0	1.5918950973964285e+18
14555.0	1.591562680349491e+18
14556.0	1.5912277181988864e+18
14557.0	1.5908993830486013e+18
14558.0	1.5905671404847101e+18
14559.0	1.5889602086698985e+18
14560.0	1.5898724614012923e+18
14561.0	1.589567335851622e+18
14562.0	1.5892166953926653e+18
14563.0	1.5889076943060984e+18
14564.0	1.5885415164674048e+18
14565.0	1.588246135124787e+18
14566.0	1.587914607270297e+18
14567.0	1.587581517456998e+18
14568.0	1.5871903214338043e+18
14569.0	1.586919434826547e+18
14570.0	1.586202514187878e+18
14571.0	1.586254474903552e+18
14572.0	1.5858710635085821e+18
14573.0	1.585554445565952e+18
14574.0	1.5851696785719293e+18
14575.0	1.5849222096027643e+18
14576.0	1.5845877004369915e+18
14577.0	1.584264415228723e+18
14578.0	1.583934667436851e+18
14579.0	1.5836066493759485e+18
14580.0	1.5832756667809792e+18
14581.0	1.5829375404474365e+18
14582.0	1.582607698703155e+18
14583.0	1.582281740884377e+18
14584.0	1.5819306239524864e+18
14585.0	1.581619763950387e+18
14586.0	1.581286432545177e+18
14587.0	1.580955008709427e+18
14588.0	1.5806265343082493e+18
14589.0	1.5803059988856824e+18
14590.0	1.579985871149465e+18
14591.0	1.5796608562102272e+18
14592.0	1.5793404180955128e+18
14593.0	1.5789424105226237e+18
14594.0	1.5787039895060475e+18
14595.0	1.5783795298926584e+18
14596.0	1.5778572048269304e+18
14597.0	1.577505158437273e+18
14598.0	1.577401198418329e+18
14599.0	1.5771017804775421e+18
14600.0	1.5767747589832704e+18
14601.0	1.576459005067264e+18
14602.0	1.5761179225882624e+18
14603.0	1.575808231958118e+18
14604.0	1.5754405928239101e+18
14605.0	1.5751141031673853e+18
14606.0	1.5747913044983805e+18
14607.0	1.5745198659207163e+18
14608.0	1.5742044509044733e+18
14609.0	1.5738726596476928e+18
14610.0	1.5734661946802168e+18
14611.0	1.573234013110272e+18
14612.0	1.572924278859366e+18
14613.0	1.572605072192307e+18
14614.0	1.572282245002035e+18
14615.0	1.571958704780083e+18
14616.0	1.5716438199238656e+18
14617.0	1.5713230127103997e+18
14618.0	1.5709777812258813e+18
14619.0	1.5705430533603323e+18
14620.0	1.5698529544568835e+18
14621.0	1.570040179798835e+18
14622.0	1.5697173492531197e+18
14623.0	1.569398642547097e+18
14624.0	1.569036877116211e+18
14625.0	1.5687547447410685e+18
14626.0	1.5684324443553792e+18
14627.0	1.5681063590297597e+18
14628.0	1.5677941635612672e+18
14629.0	1.567473079523737e+18
14630.0	1.567146846558617e+18
14631.0	1.5668300256116733e+18
14632.0	1.5655426645295107e+18
14633.0	1.5660489925197816e+18
14634.0	1.5658579503611901e+18
14635.0	1.5649897428549617e+18
14636.0	1.5639036915875835e+18
14637.0	1.564903271405977e+18
14638.0	1.564570114483814e+18
14639.0	1.5642429638049787e+18
14640.0	1.563935806534451e+18
14641.0	1.5598493431234534e+18
14642.0	1.5632910648344568e+18
14643.0	1.562970781070131e+18
14644.0	1.562639380722483e+18
14645.0	1.5623096715182077e+18
14646.0	1.5619716324261885e+18
14647.0	1.5616336990306304e+18
14648.0	1.5613536789069821e+18
