# Flux units: erg / (cm m2 s)
# Wavelength units: Angstrom
wave	flux
14000.0	1.7447082453368827e+18
14001.0	1.744278679820697e+18
14002.0	1.7440422150275064e+18
14003.0	1.7437100060180477e+18
14004.0	1.74337016505303e+18
14005.0	1.7430302368464893e+18
14006.0	1.742682992096051e+18
14007.0	1.7423428222976e+18
14008.0	1.7419208618934272e+18
14009.0	1.7416673044725757e+18
14010.0	1.7413195815714816e+18
14011.0	1.7403829649670136e+18
14012.0	1.7406414263681021e+18
14013.0	1.7399442340577277e+18
14014.0	1.7395997474815997e+18
14015.0	1.7392636411248637e+18
14016.0	1.738926548267827e+18
14017.0	1.7385876636041208e+18
14018.0	1.7382485356707835e+18
14019.0	1.7379098322010112e+18
14020.0	1.7375703905337344e+18
14021.0	1.737230950544179e+18
14022.0	1.736892342704537e+18
14023.0	1.736543314536038e+18
14024.0	1.7362030558183421e+18
14025.0	1.7358778982727677e+18
14026.0	1.7355380220755963e+18
14027.0	1.735201511387955e+18
14028.0	1.7348634051870712e+18
14029.0	1.7345250422947837e+18
14030.0	1.7338726250184704e+18
14031.0	1.7338185654730747e+18
14032.0	1.7335068800319485e+18
14033.0	1.7331360045727741e+18
14034.0	1.7328353367293947e+18
14035.0	1.732498305948057e+18
14036.0	1.7321607869497344e+18
14037.0	1.731823321638502e+18
14038.0	1.7314859251138557e+18
14039.0	1.7311486074421243e+18
14040.0	1.7308038524305405e+18
14041.0	1.7304700411969533e+18
14042.0	1.7301240111169533e+18
14043.0	1.7297620644921341e+18
14044.0	1.7294515853328381e+18
14045.0	1.7291222703931384e+18
14046.0	1.7287859408994304e+18
14047.0	1.7284469773828093e+18
14048.0	1.7281141962702848e+18
14049.0	1.727779631739699e+18
14050.0	1.7274431663505403e+18
14051.0	1.7270987703713784e+18
14052.0	1.726770103032217e+18
14053.0	1.7264341661253627e+18
14054.0	1.7260980614463488e+18
14055.0	1.7257619718668288e+18
14056.0	1.725425922552627e+18
14057.0	1.725090032621977e+18
14058.0	1.72475416617943e+18
14059.0	1.7244183953670141e+18
14060.0	1.7240827067629565e+18
14061.0	1.723740491821875e+18
14062.0	1.7234114671280128e+18
14063.0	1.7230614021275648e+18
14064.0	1.7226797724729336e+18
14065.0	1.7223970260516861e+18
14066.0	1.7220700565667837e+18
14067.0	1.721731374907392e+18
14068.0	1.721399830275686e+18
14069.0	1.7210635796348928e+18
14070.0	1.720729602306867e+18
14071.0	1.7203921235738621e+18
14072.0	1.720060132668211e+18
14073.0	1.7197254171426813e+18
14074.0	1.7193908761001981e+18
14075.0	1.7190408429764603e+18
14076.0	1.7187171718922235e+18
14077.0	1.71831373856768e+18
14078.0	1.7180473516097533e+18
14079.0	1.7177129615622144e+18
14080.0	1.717384718686617e+18
14081.0	1.7170506205626363e+18
14082.0	1.7167122979356667e+18
14083.0	1.7163812700422141e+18
14084.0	1.7160486667681787e+18
14085.0	1.715467344622387e+18
14086.0	1.715375019602739e+18
14087.0	1.715047640753766e+18
14088.0	1.7147033555042304e+18
14089.0	1.7143774832492541e+18
14090.0	1.7140460258590715e+18
14091.0	1.7137139124797435e+18
14092.0	1.713380669993779e+18
14093.0	1.7130474912612352e+18
14094.0	1.7127143846707197e+18
14095.0	1.7123813284118525e+18
14096.0	1.7120306225217533e+18
14097.0	1.7117040372350976e+18
14098.0	1.7113758832787453e+18
14099.0	1.7110499573366784e+18
14100.0	1.7107055747792893e+18
14101.0	1.7103848262860797e+18
14102.0	1.7100521173155837e+18
14103.0	1.7097050520813565e+18
14104.0	1.709387575145267e+18
14105.0	1.7090548342980605e+18
14106.0	1.7087229910319104e+18
14107.0	1.7083895488970752e+18
14108.0	1.7080484966170621e+18
14109.0	1.707722396191948e+18
14110.0	1.7073892426252285e+18
14111.0	1.7070510072397821e+18
14112.0	1.706724557848576e+18
14113.0	1.7063995697528827e+18
14114.0	1.7060562777145341e+18
14115.0	1.7057352272314365e+18
14116.0	1.705383897228902e+18
14117.0	1.7045128191410176e+18
14118.0	1.7047422593138685e+18
14119.0	1.70439811834839e+18
14120.0	1.70407285007319e+18
14121.0	1.7037380422729725e+18
14122.0	1.703404348479897e+18
14123.0	1.703078342007193e+18
14124.0	1.702746374589645e+18
14125.0	1.7019874773565435e+18
14126.0	1.702094807918182e+18
14127.0	1.7017644125257723e+18
14128.0	1.7014326279798781e+18
14129.0	1.701092045461913e+18
14130.0	1.7007545767952381e+18
14131.0	1.7004428074680315e+18
14132.0	1.700107701033369e+18
14133.0	1.69926927140782e+18
14134.0	1.6994519299915776e+18
14135.0	1.6991085171572733e+18
14136.0	1.6987773399465981e+18
14137.0	1.698461094458163e+18
14138.0	1.698126545027072e+18
14139.0	1.6978024863891453e+18
14140.0	1.6974648583389181e+18
14141.0	1.697139751124992e+18
14142.0	1.6967702547529723e+18
14143.0	1.696478198654566e+18
14144.0	1.6961555459473403e+18
14145.0	1.6958261840314368e+18
14146.0	1.6954956091228157e+18
14147.0	1.69516695856087e+18
14148.0	1.694838212368793e+18
14149.0	1.694510118810419e+18
14150.0	1.6941811310264312e+18
14151.0	1.6938500427350013e+18
14152.0	1.693523685618483e+18
14153.0	1.6931948924502013e+18
14154.0	1.6928434047418365e+18
14155.0	1.6924880515629053e+18
14156.0	1.6921966615199741e+18
14157.0	1.6918810770538493e+18
14158.0	1.6915489099874304e+18
14159.0	1.6912242222039037e+18
14160.0	1.690885208355635e+18
14161.0	1.690517401449267e+18
14162.0	1.6901403972730875e+18
14163.0	1.6899109940101115e+18
14164.0	1.6895579393097725e+18
14165.0	1.689166213126553e+18
14166.0	1.688925585906073e+18
14167.0	1.688588491371315e+18
14168.0	1.688271578149683e+18
14169.0	1.6879464910684157e+18
14170.0	1.6876155386724347e+18
14171.0	1.6872889668075515e+18
14172.0	1.686964456862515e+18
14173.0	1.6865864728969213e+18
14174.0	1.6862791293992957e+18
14175.0	1.6859571544915963e+18
14176.0	1.6856300910542843e+18
14177.0	1.6853031299579896e+18
14178.0	1.68497459012567e+18
14179.0	1.684639096137318e+18
14180.0	1.6843226946207744e+18
14181.0	1.6839959851827197e+18
14182.0	1.6836686281441275e+18
14183.0	1.6833428531970048e+18
14184.0	1.6830115535126528e+18
14185.0	1.6826899040829437e+18
14186.0	1.6822463446908925e+18
14187.0	1.6820147285131261e+18
14188.0	1.6817101381566461e+18
14189.0	1.681383356576563e+18
14190.0	1.6810580245479421e+18
14191.0	1.6807318989570043e+18
14192.0	1.6803745190903803e+18
14193.0	1.680039149253427e+18
14194.0	1.6797281936211965e+18
14195.0	1.6794041702154237e+18
14196.0	1.6790782560174077e+18
14197.0	1.6787526052216824e+18
14198.0	1.6784227483779072e+18
14199.0	1.6780986679295995e+18
14200.0	1.6777173369094141e+18
14201.0	1.6774445880311805e+18
14202.0	1.677125567591219e+18
14203.0	1.676789008249651e+18
14204.0	1.6764726453207037e+18
14205.0	1.676147783054131e+18
14206.0	1.6757065825386493e+18
14207.0	1.6755003100233723e+18
14208.0	1.6751313136123904e+18
14209.0	1.6745662334894075e+18
14210.0	1.67426896470999e+18
14211.0	1.6740297870409725e+18
14212.0	1.6736876274647035e+18
14213.0	1.6733633993768952e+18
14214.0	1.673038768635904e+18
14215.0	1.6727032880693243e+18
14216.0	1.6723912654061565e+18
14217.0	1.6720667101626365e+18
14218.0	1.6717324929204221e+18
14219.0	1.6714187489148925e+18
14220.0	1.671094911736217e+18
14221.0	1.6707694538784763e+18
14222.0	1.670434360865587e+18
14223.0	1.6701228431966205e+18
14224.0	1.669799643552153e+18
14225.0	1.6692840847376381e+18
14226.0	1.6691494844891133e+18
14227.0	1.6688289910095872e+18
14228.0	1.6680418392670205e+18
14229.0	1.6680418610774013e+18
14230.0	1.667858969290342e+18
14231.0	1.6675298573549565e+18
14232.0	1.667212291499622e+18
14233.0	1.6668849663377403e+18
14234.0	1.6665580371181565e+18
14235.0	1.6662166895591421e+18
14236.0	1.6658960484401147e+18
14237.0	1.6655720015462397e+18
14238.0	1.6652500618706941e+18
14239.0	1.6649225521594365e+18
14240.0	1.6630377745481723e+18
14241.0	1.6642815316459523e+18
14242.0	1.6639593117908987e+18
14243.0	1.6634906889158653e+18
14244.0	1.6633147009531896e+18
14245.0	1.6629752727076861e+18
14246.0	1.662649647077785e+18
14247.0	1.662344038344294e+18
14248.0	1.6620099267985405e+18
14249.0	1.6617021772922877e+18
14250.0	1.6613800899772413e+18
14251.0	1.6610605125337085e+18
14252.0	1.6607386047348733e+18
14253.0	1.660415946994483e+18
14254.0	1.6600929973305344e+18
14255.0	1.6597410583150587e+18
14256.0	1.6592667144093693e+18
14257.0	1.6591096159141885e+18
14258.0	1.6588091024211963e+18
14259.0	1.658464882602803e+18
14260.0	1.6581320914239485e+18
14261.0	1.6578040247091197e+18
14262.0	1.6575167283068925e+18
14263.0	1.6569267071746048e+18
14264.0	1.656798572865126e+18
14265.0	1.656551246502297e+18
14266.0	1.656233898750771e+18
14267.0	1.6559131167031293e+18
14268.0	1.6555923413663741e+18
14269.0	1.655269141721907e+18
14270.0	1.6549508225695741e+18
14271.0	1.6546289114152957e+18
14272.0	1.654309610795827e+18
14273.0	1.6539876409212928e+18
14274.0	1.6532359880900605e+18
14275.0	1.653309395120947e+18
14276.0	1.653011227082752e+18
14277.0	1.652691706681753e+18
14278.0	1.6523871985336315e+18
14279.0	1.6520657118429184e+18
14280.0	1.6517412253859835e+18
14281.0	1.6511364906352637e+18
14282.0	1.65064588960727e+18
14283.0	1.6503260017852413e+18
14284.0	1.6500061122854907e+18
14285.0	1.6496862563401725e+18
14286.0	1.6493657444057088e+18
14287.0	1.649034484986675e+18
14288.0	1.648702564545331e+18
14289.0	1.6473809980751862e+18
14290.0	1.6480616849604605e+18
14291.0	1.6477433238650875e+18
14292.0	1.6474249225043968e+18
14293.0	1.6471034022592507e+18
14294.0	1.6466557525819392e+18
14295.0	1.646454585373491e+18
14296.0	1.6453474417901573e+18
14297.0	1.6458187523751933e+18
14298.0	1.645339059893043e+18
14299.0	1.645178317386547e+18
14300.0	1.644865781340569e+18
14301.0	1.6445491231326205e+18
14302.0	1.6442323592282107e+18
14303.0	1.6438832572399613e+18
14304.0	1.6435801483116541e+18
14305.0	1.6432767357157376e+18
14306.0	1.6429392284614656e+18
14307.0	1.6426321601101821e+18
14308.0	1.6423228838772733e+18
14309.0	1.6420022796681213e+18
14310.0	1.6415864295260157e+18
14311.0	1.6412844295716867e+18
14312.0	1.641001293919027e+18
14313.0	1.6406283464736765e+18
14314.0	1.640412193855897e+18
14315.0	1.6400966546882557e+18
14316.0	1.6397299215237115e+18
14317.0	1.639451548922675e+18
14318.0	1.6391440057761792e+18
14319.0	1.6388136691040253e+18
14320.0	1.6384848105046013e+18
14321.0	1.638167764742963e+18
14322.0	1.6378151194066941e+18
14323.0	1.6375121748951037e+18
14324.0	1.637215573848883e+18
14325.0	1.636889689849856e+18
14326.0	1.6365810259853312e+18
14327.0	1.6362578347294715e+18
14328.0	1.635940393025536e+18
14329.0	1.6356297360277507e+18
14330.0	1.6353127456309248e+18
14331.0	1.634995501898137e+18
14332.0	1.6346789007327232e+18
14333.0	1.6343621267619837e+18
14334.0	1.6340454031228923e+18
14335.0	1.6337145060917248e+18
14336.0	1.6333881137430525e+18
14337.0	1.6330950174572544e+18
14338.0	1.6327770372046848e+18
14339.0	1.6324527436857344e+18
14340.0	1.6321455595716605e+18
14341.0	1.6318285339426808e+18
14342.0	1.6315136289538048e+18
14343.0	1.631193918970265e+18
14344.0	1.6308790844456957e+18
14345.0	1.6305654142599163e+18
14346.0	1.6302468065394685e+18
14347.0	1.629917583874457e+18
14348.0	1.6296172213764096e+18
14349.0	1.6293019238006784e+18
14350.0	1.6289707566563325e+18
14351.0	1.6286484495597565e+18
14352.0	1.628346605633536e+18
14353.0	1.6280370341216256e+18
14354.0	1.6277210168033277e+18
14355.0	1.6274029140770813e+18
14356.0	1.6270662859489275e+18
14357.0	1.626754191143731e+18
14358.0	1.6264381117497341e+18
14359.0	1.6261107446448125e+18
14360.0	1.6258067716898813e+18
14361.0	1.6254926367752192e+18
14362.0	1.6251781998706685e+18
14363.0	1.624862952626585e+18
14364.0	1.6245033783001088e+18
14365.0	1.6242204775284733e+18
14366.0	1.6239094598205437e+18
14367.0	1.623603841020723e+18
14368.0	1.6232886340419581e+18
14369.0	1.6229744823500797e+18
14370.0	1.6226599414267904e+18
14371.0	1.6223454810341379e+18
14372.0	1.622026031097446e+18
14373.0	1.621716310268313e+18
14374.0	1.6214014522556413e+18
14375.0	1.6210859902631933e+18
14376.0	1.620773734396723e+18
14377.0	1.620458960270131e+18
14378.0	1.620142838933094e+18
14379.0	1.6198313380413437e+18
14380.0	1.6195152938795005e+18
14381.0	1.619193656193843e+18
14382.0	1.6188878729773053e+18
14383.0	1.6185694145740797e+18
14384.0	1.6182444650659837e+18
14385.0	1.617947936161792e+18
14386.0	1.6176212804108285e+18
14387.0	1.6173206863871997e+18
14388.0	1.6170052831150077e+18
14389.0	1.616693278906777e+18
14390.0	1.6163784796143608e+18
14391.0	1.6160664938610685e+18
14392.0	1.6157515670618112e+18
14393.0	1.6154404654678008e+18
14394.0	1.6150924640649216e+18
14395.0	1.6148028356296704e+18
14396.0	1.6144978929516541e+18
14397.0	1.6141648635363328e+18
14398.0	1.613850869550284e+18
14399.0	1.6135386522714112e+18
14400.0	1.6132080874291197e+18
14401.0	1.6129055673810941e+18
14402.0	1.612598210461696e+18
14403.0	1.6104302435106793e+18
14404.0	1.6064270236123126e+18
14405.0	1.60986081473331e+18
14406.0	1.6113477978423293e+18
14407.0	1.608644439729767e+18
14408.0	1.610685190085017e+18
14409.0	1.6103915955159035e+18
14410.0	1.610094917294489e+18
14411.0	1.6097856746160123e+18
14412.0	1.6094708669349885e+18
14413.0	1.6091624211742715e+18
14414.0	1.6088477460332544e+18
14415.0	1.608536771946086e+18
14416.0	1.6082243382411261e+18
14417.0	1.607907267313664e+18
14418.0	1.60758579068928e+18
14419.0	1.6072880924131325e+18
14420.0	1.6069724626485248e+18
14421.0	1.6066653674536957e+18
14422.0	1.6063495464288253e+18
14423.0	1.6060328311783421e+18
14424.0	1.5959637333376988e+18
14425.0	1.605405806218444e+18
14426.0	1.6051075056402432e+18
14427.0	1.604796588595609e+18
14428.0	1.604466493515366e+18
14429.0	1.6041669749112832e+18
14430.0	1.6038625405829115e+18
14431.0	1.6034649088196605e+18
14432.0	1.6032318850334715e+18
14433.0	1.6011050306502648e+18
14434.0	1.6025994947198968e+18
14435.0	1.602285695349555e+18
14436.0	1.6019958941089787e+18
14437.0	1.601684961964851e+18
14438.0	1.6013255000457213e+18
14439.0	1.6010482531958781e+18
14440.0	1.600751393780531e+18
14441.0	1.600430802993152e+18
14442.0	1.6001160758427643e+18
14443.0	1.5997651518488576e+18
14444.0	1.5995027561906176e+18
14445.0	1.599198092014387e+18
14446.0	1.596368711843841e+18
14447.0	1.5985250052079608e+18
14448.0	1.5982444868009981e+18
14449.0	1.5979341938688e+18
14450.0	1.5976190019895293e+18
14451.0	1.597311265905049e+18
14452.0	1.5970001643110397e+18
14453.0	1.5966632023162877e+18
14454.0	1.596381900413337e+18
14455.0	1.596066331046707e+18
14456.0	1.5957548905529341e+18
14457.0	1.595379663083929e+18
14458.0	1.5945719726735357e+18
14459.0	1.5942601362374656e+18
14460.0	1.593950933824307e+18
14461.0	1.5936192113541115e+18
14462.0	1.593261007726182e+18
14463.0	1.593016364040192e+18
14464.0	1.5927117602619387e+18
14465.0	1.592379274428416e+18
14466.0	1.5920938872733693e+18
14467.0	1.5917470988632064e+18
14468.0	1.5914705130356733e+18
14469.0	1.591137399734272e+18
14470.0	1.590826143789875e+18
14471.0	1.5905328243671037e+18
14472.0	1.5902284756025341e+18
14473.0	1.589926541079347e+18
14474.0	1.589616117284864e+18
14475.0	1.5892999909146621e+18
14476.0	1.5888840149434365e+18
14477.0	1.5886884261593085e+18
14478.0	1.5883792388456448e+18
14479.0	1.5880681741615104e+18
14480.0	1.5877438688985088e+18
14481.0	1.5874520527142907e+18
14482.0	1.5871383909171197e+18
14483.0	1.5868240009887741e+18
14484.0	1.586510850896691e+18
14485.0	1.5861812977205243e+18
14486.0	1.5856041262579712e+18
14487.0	1.5855963751841787e+18
14488.0	1.5852825808470013e+18
14489.0	1.5849718986833915e+18
14490.0	1.5846676321271805e+18
14491.0	1.584360196354867e+18
14492.0	1.584053077671936e+18
14493.0	1.5837401440059387e+18
14494.0	1.5834154209902592e+18
14495.0	1.583126388146176e+18
14496.0	1.5826826660151293e+18
14497.0	1.5825078893674496e+18
14498.0	1.5822006985424893e+18
14499.0	1.581892531283558e+18
14500.0	1.5815837214572541e+18
14501.0	1.5812203689017344e+18
14502.0	1.580688282851737e+18
14503.0	1.580618632239513e+18
14504.0	1.580320388703846e+18
14505.0	1.5799661679869947e+18
14506.0	1.5796119657250816e+18
14507.0	1.5791529763274747e+18
14508.0	1.5790936487362557e+18
14509.0	1.5787854563115003e+18
14510.0	1.5784740829265915e+18
14511.0	1.5781682778996733e+18
14512.0	1.577844873573171e+18
14513.0	1.5775521262534653e+18
14514.0	1.5772077520846848e+18
14515.0	1.5769345451884541e+18
14516.0	1.5740689396531208e+18
14517.0	1.5763145901473787e+18
14518.0	1.576011758043136e+18
14519.0	1.5757039414280192e+18
14520.0	1.575395987239731e+18
14521.0	1.5750866539642877e+18
14522.0	1.574779820494028e+18
14523.0	1.574357063172096e+18
14524.0	1.5740483875635197e+18
14525.0	1.573850691561062e+18
14526.0	1.5735485892657147e+18
14527.0	1.573202357859123e+18
14528.0	1.572808764371763e+18
14529.0	1.572612650460774e+18
14530.0	1.5723003610398723e+18
14531.0	1.5720068000251904e+18
14532.0	1.5715409219026941e+18
14533.0	1.5713908731936763e+18
14534.0	1.5710869975465981e+18
14535.0	1.570768678394265e+18
14536.0	1.5704714314252285e+18
14537.0	1.5701518422376448e+18
14538.0	1.5698567259750395e+18
14539.0	1.569549270070067e+18
14540.0	1.5692417168572413e+18
14541.0	1.5689143178756093e+18
14542.0	1.5686264426594301e+18
14543.0	1.5682382245920763e+18
14544.0	1.5680108815712253e+18
14545.0	1.5676973288259581e+18
14546.0	1.554525734515503e+18
14547.0	1.5551987709902794e+18
14548.0	1.566766965089894e+18
14549.0	1.5663518380457981e+18
14550.0	1.566161349535334e+18
14551.0	1.5658599938260987e+18
14552.0	1.565550101869363e+18
14553.0	1.5652372185350141e+18
14554.0	1.564938147882598e+18
14555.0	1.5646302759026688e+18
14556.0	1.56432074801152e+18
14557.0	1.5640161777876987e+18
14558.0	1.5637082789642237e+18
14559.0	1.561518707992165e+18
14560.0	1.5630897332092923e+18
14561.0	1.5627800912330747e+18
14562.0	1.5624566416080893e+18
14563.0	1.5621706269851648e+18
14564.0	1.56185785270272e+18
14565.0	1.5615581982031872e+18
14566.0	1.5612498430394363e+18
14567.0	1.5609212193210365e+18
14568.0	1.5606013650534397e+18
14569.0	1.5597089513799675e+18
14570.0	1.5588442335346685e+18
14571.0	1.559001397460992e+18
14572.0	1.5586560250478587e+18
14573.0	1.5583414136602621e+18
14574.0	1.5580630913908733e+18
14575.0	1.5577714631114747e+18
14576.0	1.5574642605424637e+18
14577.0	1.557151603700531e+18
14578.0	1.556848582013747e+18
14579.0	1.5565428558397435e+18
14580.0	1.556235436844646e+18
14581.0	1.5559236608065533e+18
14582.0	1.5556195368566781e+18
14583.0	1.5553122302689275e+18
14584.0	1.5549928273084413e+18
14585.0	1.554696471209574e+18
14586.0	1.5543853461274621e+18
14587.0	1.5540788767227901e+18
14588.0	1.553773090150809e+18
14589.0	1.553473138694553e+18
14590.0	1.553173096641331e+18
14591.0	1.552871987557171e+18
14592.0	1.5525672076181501e+18
14593.0	1.552153172770816e+18
14594.0	1.5519712037306368e+18
14595.0	1.551665771157913e+18
14596.0	1.5513175717838843e+18
14597.0	1.5510159879045115e+18
14598.0	1.5507637491728384e+18
14599.0	1.5504697200738304e+18
14600.0	1.5501680321757181e+18
14601.0	1.5498682686242813e+18
14602.0	1.5495629887242235e+18
14603.0	1.5492666930233341e+18
14604.0	1.548921552135782e+18
14605.0	1.5486539404410875e+18
14606.0	1.5482997063024637e+18
14607.0	1.5480450231304192e+18
14608.0	1.5477596225535995e+18
14609.0	1.5474533494423547e+18
14610.0	1.5471408335290368e+18
14611.0	1.5468548692377597e+18
14612.0	1.5465589694791675e+18
14613.0	1.546258529805926e+18
14614.0	1.5459540216578043e+18
14615.0	1.5456549778489341e+18
14616.0	1.5453552126197757e+18
14617.0	1.5450536874606592e+18
14618.0	1.5447488940998653e+18
14619.0	1.5444112408838141e+18
14620.0	1.5440423132594176e+18
14621.0	1.543848462594867e+18
14622.0	1.5435440098115581e+18
14623.0	1.5432453485232125e+18
14624.0	1.5428846585118712e+18
14625.0	1.5426417546231803e+18
14626.0	1.542336758258073e+18
14627.0	1.5420304029384701e+18
14628.0	1.541736236266291e+18
14629.0	1.5414342883213307e+18
14630.0	1.5411309495451643e+18
14631.0	1.5408293304336381e+18
14632.0	1.5397674568122368e+18
14633.0	1.5400852743258107e+18
14634.0	1.539919730180096e+18
14635.0	1.5395262524555264e+18
14636.0	1.5391432470691837e+18
14637.0	1.539015438237696e+18
14638.0	1.5387101247832064e+18
14639.0	1.538398362166886e+18
14640.0	1.5381016201920507e+18
14641.0	1.53469646442332e+18
14642.0	1.5374942245748733e+18
14643.0	1.5371968249331707e+18
14644.0	1.5368834835808253e+18
14645.0	1.536085310885069e+18
14646.0	1.5354343330938877e+18
14647.0	1.535126444336742e+18
14648.0	1.534833124913971e+18
