# Flux units: erg / (cm m2 s)
# Wavelength units: Angstrom
wave	flux
14000.0	2.2222864325279736e+18
14001.0	2.2217639967326205e+18
14002.0	2.221292513342259e+18
14003.0	2.220795008489881e+18
14004.0	2.2202973610311675e+18
14005.0	2.2197997035061243e+18
14006.0	2.21929897239511e+18
14007.0	2.218800214284697e+18
14008.0	2.2182595919871995e+18
14009.0	2.2178098267029501e+18
14010.0	2.2173064397586427e+18
14011.0	2.2165517552844795e+18
14012.0	2.2163194361413627e+18
14013.0	2.2158230452961275e+18
14014.0	2.2153236915945472e+18
14015.0	2.2148290590015485e+18
14016.0	2.2143339885232128e+18
14017.0	2.2138313095774203e+18
14018.0	2.213268340028211e+18
14019.0	2.2127727695888376e+18
14020.0	2.212276729387417e+18
14021.0	2.211780836825497e+18
14022.0	2.2112489420357627e+18
14023.0	2.210717095899955e+18
14024.0	2.2102188394283005e+18
14025.0	2.2097311542804477e+18
14026.0	2.2092352231309304e+18
14027.0	2.2087412851146747e+18
14028.0	2.2082465216593917e+18
14029.0	2.207751575332454e+18
14030.0	2.2070849309769728e+18
14031.0	2.2067513361694717e+18
14032.0	2.206267583601049e+18
14033.0	2.2057528921686016e+18
14034.0	2.205279950838169e+18
14035.0	2.204786516138393e+18
14036.0	2.2042928113254395e+18
14037.0	2.20379921556439e+18
14038.0	2.203305735566131e+18
14039.0	2.2028123696529405e+18
14040.0	2.2022648485642237e+18
14041.0	2.2017559301718016e+18
14042.0	2.2012594202083328e+18
14043.0	2.2007542431350776e+18
14044.0	2.200274200009113e+18
14045.0	2.199784746542694e+18
14046.0	2.1992908739575803e+18
14047.0	2.198797531532492e+18
14048.0	2.198307969014169e+18
14049.0	2.1978164150403072e+18
14050.0	2.1973242990297083e+18
14051.0	2.1968281061556221e+18
14052.0	2.1963404075859963e+18
14053.0	2.1958486287974392e+18
14054.0	2.1953571352215552e+18
14055.0	2.1948656517119992e+18
14056.0	2.1943743024201723e+18
14057.0	2.1938830974124024e+18
14058.0	2.193392001456537e+18
14059.0	2.1928923591868408e+18
14060.0	2.192343222452223e+18
14061.0	2.19184948576256e+18
14062.0	2.19136159425495e+18
14063.0	2.1908633377832952e+18
14064.0	2.190355902496767e+18
14065.0	2.189886418950553e+18
14066.0	2.1893998528430075e+18
14067.0	2.18890982391808e+18
14068.0	2.1884198453247995e+18
14069.0	2.1879292979838973e+18
14070.0	2.1874401498628093e+18
14071.0	2.1869494313943037e+18
14072.0	2.1864611808542715e+18
14073.0	2.1859718381174776e+18
14074.0	2.1854826564419584e+18
14075.0	2.1849848210784253e+18
14076.0	2.1845007363211261e+18
14077.0	2.1839757923319803e+18
14078.0	2.1835239668056061e+18
14079.0	2.1830353052237821e+18
14080.0	2.1825500460613627e+18
14081.0	2.1820617166684157e+18
14082.0	2.1815299309305853e+18
14083.0	2.181018599974502e+18
14084.0	2.180531090987417e+18
14085.0	2.1799140115611645e+18
14086.0	2.179551851865702e+18
14087.0	2.1790676127580155e+18
14088.0	2.1785744599154683e+18
14089.0	2.1780923531919355e+18
14090.0	2.177604515371417e+18
14091.0	2.1771179643633661e+18
14092.0	2.176630874806681e+18
14093.0	2.1761438892687355e+18
14094.0	2.1756570144604152e+18
14095.0	2.175170218505011e+18
14096.0	2.174674127971942e+18
14097.0	2.1741899643617275e+18
14098.0	2.173706575858892e+18
14099.0	2.1732245144338427e+18
14100.0	2.1727333329141757e+18
14101.0	2.1722525599793147e+18
14102.0	2.171766544164454e+18
14103.0	2.1712750153564157e+18
14104.0	2.1707953648173053e+18
14105.0	2.1703092567277565e+18
14106.0	2.1698244488724477e+18
14107.0	2.169291411554304e+18
14108.0	2.1687831021748221e+18
14109.0	2.168301507156377e+18
14110.0	2.1678132633272317e+18
14111.0	2.16732252808151e+18
14112.0	2.1668450971680763e+18
14113.0	2.1663644483846144e+18
14114.0	2.1658732651872256e+18
14115.0	2.165394814219059e+18
14116.0	2.1648947625852925e+18
14117.0	2.1641398650404861e+18
14118.0	2.1639426790653947e+18
14119.0	2.1634514052710395e+18
14120.0	2.1629707782979581e+18
14121.0	2.16248334984151e+18
14122.0	2.162003065123635e+18
14123.0	2.161517121450803e+18
14124.0	2.1610337228816381e+18
14125.0	2.160339823938764e+18
14126.0	2.1600749133758461e+18
14127.0	2.159592239582412e+18
14128.0	2.159108856112742e+18
14129.0	2.1586208471646203e+18
14130.0	2.158133470717542e+18
14131.0	2.1576618027778043e+18
14132.0	2.1571765637480443e+18
14133.0	2.1564420387766264e+18
14134.0	2.1561951603654648e+18
14135.0	2.155662193511628e+18
14136.0	2.1551746945908733e+18
14137.0	2.1547049728081917e+18
14138.0	2.154220299170611e+18
14139.0	2.153742108249292e+18
14140.0	2.1532518394101755e+18
14141.0	2.152777087818137e+18
14142.0	2.152270820225843e+18
14143.0	2.151808997156454e+18
14144.0	2.1513361413898237e+18
14145.0	2.1508552812134395e+18
14146.0	2.150373684517273e+18
14147.0	2.1498932840366075e+18
14148.0	2.149412875167334e+18
14149.0	2.1489329696145403e+18
14150.0	2.1484525976551421e+18
14151.0	2.147971292882534e+18
14152.0	2.1474924140953592e+18
14153.0	2.1470123860688893e+18
14154.0	2.146519874115993e+18
14155.0	2.1460352675872763e+18
14156.0	2.1455708339830784e+18
14157.0	2.145093819144601e+18
14158.0	2.144612413708697e+18
14159.0	2.144135227742617e+18
14160.0	2.1436533290565627e+18
14161.0	2.1431484824944637e+18
14162.0	2.142647638976102e+18
14163.0	2.1422186187194365e+18
14164.0	2.1417257527672827e+18
14165.0	2.1411690260201467e+18
14166.0	2.1406546483216376e+18
14167.0	2.1401414232178683e+18
14168.0	2.139668782199603e+18
14169.0	2.1391922706776061e+18
14170.0	2.138712366802534e+18
14171.0	2.138235049974169e+18
14172.0	2.1377584226893821e+18
14173.0	2.1372343410491387e+18
14174.0	2.136800514120089e+18
14175.0	2.1363257004523517e+18
14176.0	2.1358483383255037e+18
14177.0	2.1353710785396733e+18
14178.0	2.1348926326046717e+18
14179.0	2.134407626778214e+18
14180.0	2.1339401799860221e+18
14181.0	2.133463425194393e+18
14182.0	2.1329864220999675e+18
14183.0	2.1325102511554555e+18
14184.0	2.1320313690128384e+18
14185.0	2.1315574093053947e+18
14186.0	2.131016607491686e+18
14187.0	2.1305935934783483e+18
14188.0	2.1301288125857787e+18
14189.0	2.1296520259174395e+18
14190.0	2.1291771854061568e+18
14191.0	2.1287015127449595e+18
14192.0	2.1282226306023424e+18
14193.0	2.1277419583307773e+18
14194.0	2.127275128940134e+18
14195.0	2.1268009561620475e+18
14196.0	2.1263257985613821e+18
14197.0	2.1258509010075645e+18
14198.0	2.1253739448893435e+18
14199.0	2.124899600983654e+18
14200.0	2.1243947577769981e+18
14201.0	2.123951151408742e+18
14202.0	2.1234491787837437e+18
14203.0	2.1229315580493821e+18
14204.0	2.1224664332238843e+18
14205.0	2.1219924131184637e+18
14206.0	2.1214601995616256e+18
14207.0	2.1210456999854077e+18
14208.0	2.1205720842108925e+18
14209.0	2.1200369564516347e+18
14210.0	2.1195811916349437e+18
14211.0	2.1191510808592376e+18
14212.0	2.1186776278237181e+18
14213.0	2.118204280484659e+18
14214.0	2.1177314012299261e+18
14215.0	2.1172534586114048e+18
14216.0	2.1167859782647805e+18
14217.0	2.1163131996733435e+18
14218.0	2.115834532279091e+18
14219.0	2.11536793609175e+18
14220.0	2.114895576930713e+18
14221.0	2.1144230181208061e+18
14222.0	2.1139430840467453e+18
14223.0	2.11347872761774e+18
14224.0	2.1130068180860925e+18
14225.0	2.1124435482247168e+18
14226.0	2.1120628346060795e+18
14227.0	2.1115915676418043e+18
14228.0	2.110918229177139e+18
14229.0	2.1106106273103864e+18
14230.0	2.1101773557071867e+18
14231.0	2.1097009683365888e+18
14232.0	2.1092350314938365e+18
14233.0	2.1087611204403197e+18
14234.0	2.1082932760281088e+18
14235.0	2.1078213950177275e+18
14236.0	2.1073516614909947e+18
14237.0	2.1068807317487616e+18
14238.0	2.1064107146870781e+18
14239.0	2.1059380032045048e+18
14240.0	2.1048157584490496e+18
14241.0	2.1049999152381947e+18
14242.0	2.1045235731660797e+18
14243.0	2.1039272018575355e+18
14244.0	2.1035308065751035e+18
14245.0	2.1030537615376381e+18
14246.0	2.1025787213774843e+18
14247.0	2.1021192135639037e+18
14248.0	2.1016458779688955e+18
14249.0	2.1011819275485184e+18
14250.0	2.1007125496987645e+18
14251.0	2.1002446281113597e+18
14252.0	2.099775552251494e+18
14253.0	2.0993062649987072e+18
14254.0	2.0988366707228667e+18
14255.0	2.0983549314203643e+18
14256.0	2.0978025231286267e+18
14257.0	2.0974281731080187e+18
14258.0	2.0969635666984955e+18
14259.0	2.0964877094879227e+18
14260.0	2.0960244184121344e+18
14261.0	2.0955486434099197e+18
14262.0	2.0951056125001725e+18
14263.0	2.0944934236323837e+18
14264.0	2.094140491405721e+18
14265.0	2.0937000978743293e+18
14266.0	2.0932351341101053e+18
14267.0	2.0927676688629757e+18
14268.0	2.0923004351414267e+18
14269.0	2.0918320756686845e+18
14270.0	2.091366120370995e+18
14271.0	2.0908976501686267e+18
14272.0	2.0904320857800701e+18
14273.0	2.0899645903339515e+18
14274.0	2.089281235871334e+18
14275.0	2.089011911222886e+18
14276.0	2.0885524487077883e+18
14277.0	2.088089211319091e+18
14278.0	2.087632911309209e+18
14279.0	2.087166308410982e+18
14280.0	2.086697272816435e+18
14281.0	2.0862347618811901e+18
14282.0	2.0857690297204733e+18
14283.0	2.0853032556167165e+18
14284.0	2.0848375754653693e+18
14285.0	2.084371957389721e+18
14286.0	2.0839061866414075e+18
14287.0	2.0834411691900928e+18
14288.0	2.082975728952934e+18
14289.0	2.082090787851468e+18
14290.0	2.0820436069646333e+18
14291.0	2.081562374334054e+18
14292.0	2.0810581250408445e+18
14293.0	2.0805922234302456e+18
14294.0	2.0800158572740605e+18
14295.0	2.0795985710022653e+18
14296.0	2.0788001114161152e+18
14297.0	2.0786758459326461e+18
14298.0	2.0781333395537915e+18
14299.0	2.0777408080642045e+18
14300.0	2.077279558775603e+18
14301.0	2.076816480770457e+18
14302.0	2.0763544161091576e+18
14303.0	2.0758741011922944e+18
14304.0	2.0754219501879293e+18
14305.0	2.0749625765920763e+18
14306.0	2.0744787132940288e+18
14307.0	2.0740294647480317e+18
14308.0	2.073572354398617e+18
14309.0	2.0731065668730877e+18
14310.0	2.07254565421056e+18
14311.0	2.0721538911174653e+18
14312.0	2.0716998895861752e+18
14313.0	2.0712281276940288e+18
14314.0	2.0707932723216381e+18
14315.0	2.0703323116011515e+18
14316.0	2.069845453570048e+18
14317.0	2.069398552156569e+18
14318.0	2.06894567302103e+18
14319.0	2.068483777809612e+18
14320.0	2.0680214245801984e+18
14321.0	2.0675596619087867e+18
14322.0	2.0670780635348984e+18
14323.0	2.0666269258743803e+18
14324.0	2.0661741792788477e+18
14325.0	2.0657073062674424e+18
14326.0	2.0652509626368e+18
14327.0	2.0647861079244792e+18
14328.0	2.0643251170050045e+18
14329.0	2.0638668423168e+18
14330.0	2.0634056500707328e+18
14331.0	2.0629443705831421e+18
14332.0	2.0624835155591165e+18
14333.0	2.0620226404024315e+18
14334.0	2.0615618306768893e+18
14335.0	2.061094511391539e+18
14336.0	2.060627000845926e+18
14337.0	2.060179683357491e+18
14338.0	2.0597185347321853e+18
14339.0	2.0592532203241464e+18
14340.0	2.0587988513718267e+18
14341.0	2.0583380013809661e+18
14342.0	2.0578786730835963e+18
14343.0	2.0574147411181565e+18
14344.0	2.0569564899180536e+18
14345.0	2.0564991430098944e+18
14346.0	2.0560380463939581e+18
14347.0	2.0555252088438781e+18
14348.0	2.0550638286929915e+18
14349.0	2.054604661456896e+18
14350.0	2.054137464645222e+18
14351.0	2.0536746634641408e+18
14352.0	2.053222514137497e+18
14353.0	2.0527668315291643e+18
14354.0	2.0523070116593661e+18
14355.0	2.0518464368148477e+18
14356.0	2.0513883064107003e+18
14357.0	2.0509317077663744e+18
14358.0	2.0504729264062461e+18
14359.0	2.050006239621939e+18
14360.0	2.0495549039902717e+18
14361.0	2.0490970168557563e+18
14362.0	2.048638883096166e+18
14363.0	2.0481803986927608e+18
14364.0	2.04769602872279e+18
14365.0	2.0472591466627064e+18
14366.0	2.046801913839616e+18
14367.0	2.046348217653657e+18
14368.0	2.0458900973158397e+18
14369.0	2.0454325708914683e+18
14370.0	2.04497489011671e+18
14371.0	2.044517313360691e+18
14372.0	2.044057230088601e+18
14373.0	2.0436022303129597e+18
14374.0	2.0431450142670845e+18
14375.0	2.0426877462118397e+18
14376.0	2.0422305670758392e+18
14377.0	2.041773193324134e+18
14378.0	2.041315220625817e+18
14379.0	2.0408595346620416e+18
14380.0	2.0404021793652733e+18
14381.0	2.039939985519411e+18
14382.0	2.0394884368171005e+18
14383.0	2.0390262110945277e+18
14384.0	2.0385658946191355e+18
14385.0	2.038119744824934e+18
14386.0	2.0376558128594936e+18
14387.0	2.0372070525304824e+18
14388.0	2.0366671382315003e+18
14389.0	2.0362057815687165e+18
14390.0	2.0357490151522301e+18
14391.0	2.0352939113578486e+18
14392.0	2.0348366936342528e+18
14393.0	2.034382650159923e+18
14394.0	2.033908453893734e+18
14395.0	2.0334645086257147e+18
14396.0	2.0330158825144312e+18
14397.0	2.0325606294028283e+18
14398.0	2.032104190142054e+18
14399.0	2.0316498933317627e+18
14400.0	2.031186058674176e+18
14401.0	2.0307365802803197e+18
14402.0	2.030283489751859e+18
14403.0	2.028302879005079e+18
14404.0	2.025195919795813e+18
14405.0	2.0282416253894638e+18
14406.0	2.028464336220979e+18
14407.0	2.0258610072256517e+18
14408.0	2.0275418577764347e+18
14409.0	2.027093582308966e+18
14410.0	2.0266456927174653e+18
14411.0	2.0261490166595581e+18
14412.0	2.0256845427900408e+18
14413.0	2.025231911957299e+18
14414.0	2.0247764675854333e+18
14415.0	2.024322947560243e+18
14416.0	2.0238682883620856e+18
14417.0	2.0234087537049597e+18
14418.0	2.0229488784703488e+18
14419.0	2.0225063676542973e+18
14420.0	2.0220506917568507e+18
14421.0	2.0215988024770552e+18
14422.0	2.0211445023113216e+18
14423.0	2.020683318453862e+18
14424.0	2.0114895601139658e+18
14425.0	2.0197758270963707e+18
14426.0	2.0193304893194235e+18
14427.0	2.0188778987519997e+18
14428.0	2.0184131514138624e+18
14429.0	2.0179691692359677e+18
14430.0	2.0175184359063547e+18
14431.0	2.0170226876284925e+18
14432.0	2.0166042856718333e+18
14433.0	2.0145440133480433e+18
14434.0	2.01569884784558e+18
14435.0	2.0152435175587837e+18
14436.0	2.0148007064305661e+18
14437.0	2.0143479883563003e+18
14438.0	2.0138473444868093e+18
14439.0	2.0134291019137021e+18
14440.0	2.0129897888350205e+18
14441.0	2.0125348930781181e+18
14442.0	2.0120805929123835e+18
14443.0	2.011610070856499e+18
14444.0	2.0111784316764152e+18
14445.0	2.0107279047065597e+18
14446.0	2.0083853657899013e+18
14447.0	2.0098146721857533e+18
14448.0	2.0093723006205947e+18
14449.0	2.008920538847641e+18
14450.0	2.0084657756307453e+18
14451.0	2.0080160355123197e+18
14452.0	2.0075625926623227e+18
14453.0	2.0070820562862075e+18
14454.0	2.0066613055193083e+18
14455.0	2.0062074650492925e+18
14456.0	2.0057511633616893e+18
14457.0	2.0052964555096061e+18
14458.0	2.0048530236243965e+18
14459.0	2.0043998458544125e+18
14460.0	2.0039500654706688e+18
14461.0	2.0034863985852416e+18
14462.0	2.0030230974431227e+18
14463.0	2.0025931359846397e+18
14464.0	2.002146596959027e+18
14465.0	2.001686926406451e+18
14466.0	2.001245648715776e+18
14467.0	2.0007655015710715e+18
14468.0	2.000340541400678e+18
14469.0	1.9998812751790075e+18
14470.0	1.9994281896837117e+18
14471.0	1.9989848081301501e+18
14472.0	1.9985359521710077e+18
14473.0	1.998090057390489e+18
14474.0	1.9976393844588536e+18
14475.0	1.997186253665075e+18
14476.0	1.9966339594584061e+18
14477.0	1.9962870267641848e+18
14478.0	1.9958362347143163e+18
14479.0	1.9953853856219133e+18
14480.0	1.9949269179957243e+18
14481.0	1.9944851688652792e+18
14482.0	1.9940329138421752e+18
14483.0	1.993578987808358e+18
14484.0	1.9931288467144696e+18
14485.0	1.9926639836135421e+18
14486.0	1.9920874329079805e+18
14487.0	1.9917822670929915e+18
14488.0	1.9913164762120187e+18
14489.0	1.9908279001939965e+18
14490.0	1.9903794015895547e+18
14491.0	1.989930548985856e+18
14492.0	1.98948123836416e+18
14493.0	1.9890284833800184e+18
14494.0	1.988570482160435e+18
14495.0	1.9881307597176832e+18
14496.0	1.9876144291512315e+18
14497.0	1.9872302879473661e+18
14498.0	1.986780562928435e+18
14499.0	1.986331057691033e+18
14500.0	1.9858809333743616e+18
14501.0	1.985379274483302e+18
14502.0	1.9848402929975293e+18
14503.0	1.984522024176844e+18
14504.0	1.9840787885850624e+18
14505.0	1.983582003475251e+18
14506.0	1.983077891755212e+18
14507.0	1.9826129615454205e+18
14508.0	1.982283009071513e+18
14509.0	1.9818334266589181e+18
14510.0	1.981383758682521e+18
14511.0	1.9809339631992827e+18
14512.0	1.98047609955287e+18
14513.0	1.9800343554555901e+18
14514.0	1.9795647678906365e+18
14515.0	1.9791343131820027e+18
14516.0	1.9776423405289477e+18
14517.0	1.97823436989399e+18
14518.0	1.977785339451801e+18
14519.0	1.9773356932857853e+18
14520.0	1.9768859380678653e+18
14521.0	1.9764356359127037e+18
14522.0	1.9759861021540347e+18
14523.0	1.9754238036934648e+18
14524.0	1.974969149528473e+18
14525.0	1.9746341135581181e+18
14526.0	1.974187247376793e+18
14527.0	1.9737251105734653e+18
14528.0	1.9732277902704637e+18
14529.0	1.972832218749337e+18
14530.0	1.9723804150333437e+18
14531.0	1.971937206285107e+18
14532.0	1.9713323473829888e+18
14533.0	1.9710371992436733e+18
14534.0	1.9705885446111232e+18
14535.0	1.9701328334815227e+18
14536.0	1.969688472138547e+18
14537.0	1.9692324019765243e+18
14538.0	1.9687886228029437e+18
14539.0	1.968338844096921e+18
14540.0	1.9678888657420283e+18
14541.0	1.9674279603863547e+18
14542.0	1.9669886858952707e+18
14543.0	1.966462549046067e+18
14544.0	1.9660881386274808e+18
14545.0	1.9656338804047864e+18
14546.0	1.955629764077153e+18
14547.0	1.9561280557809597e+18
14548.0	1.9642805479538683e+18
14549.0	1.9637792497729533e+18
14550.0	1.9633849818415101e+18
14551.0	1.9629383018872827e+18
14552.0	1.9624870954401787e+18
14553.0	1.9620344411193341e+18
14554.0	1.9615876756013053e+18
14555.0	1.961136846641561e+18
14556.0	1.9606839893164027e+18
14557.0	1.9602364738568187e+18
14558.0	1.9597855861768187e+18
14559.0	1.9585673673572337e+18
14560.0	1.9588807338754045e+18
14561.0	1.958431206827622e+18
14562.0	1.957971511109222e+18
14563.0	1.9575326342381563e+18
14564.0	1.9570780807364603e+18
14565.0	1.956631456147046e+18
14566.0	1.9561805282017275e+18
14567.0	1.9557290851958781e+18
14568.0	1.9552691545964544e+18
14569.0	1.9548269541588987e+18
14570.0	1.9541596471033848e+18
14571.0	1.953923059836518e+18
14572.0	1.9534530612297725e+18
14573.0	1.952998672144793e+18
14574.0	1.9525601341734907e+18
14575.0	1.9521172844576768e+18
14576.0	1.9516665528057853e+18
14577.0	1.9512121771425787e+18
14578.0	1.9507631584444416e+18
14579.0	1.9502762970578941e+18
14580.0	1.9498136737153024e+18
14581.0	1.9493582209548288e+18
14582.0	1.948909203934412e+18
14583.0	1.9484571317829632e+18
14584.0	1.9479990617767933e+18
14585.0	1.9475523298131965e+18
14586.0	1.947098180642406e+18
14587.0	1.946645296473702e+18
14588.0	1.9461950396170237e+18
14589.0	1.9457546225975293e+18
14590.0	1.9453148095578112e+18
14591.0	1.9448743388512253e+18
14592.0	1.944431749182259e+18
14593.0	1.9439367659454461e+18
14594.0	1.943553938397593e+18
14595.0	1.94311055516631e+18
14596.0	1.9426438163726333e+18
14597.0	1.9422064125411325e+18
14598.0	1.9417881565462528e+18
14599.0	1.941349689039257e+18
14600.0	1.9409077855584253e+18
14601.0	1.940466571621171e+18
14602.0	1.9400225173012475e+18
14603.0	1.939582779759001e+18
14604.0	1.9391198946918397e+18
14605.0	1.9386942550441981e+18
14606.0	1.93822771422167e+18
14607.0	1.937810937977241e+18
14608.0	1.9373713749180416e+18
14609.0	1.9369201986699261e+18
14610.0	1.9364800618299387e+18
14611.0	1.9360411111391227e+18
14612.0	1.9356009742991355e+18
14613.0	1.9351579601666045e+18
14614.0	1.9347126928539643e+18
14615.0	1.934269787773337e+18
14616.0	1.9338263022010365e+18
14617.0	1.9333817814745083e+18
14618.0	1.9329333902442493e+18
14619.0	1.932475967838617e+18
14620.0	1.9319864170643453e+18
14621.0	1.931602629859737e+18
14622.0	1.9311574028124155e+18
14623.0	1.930711919073689e+18
14624.0	1.9302369560887293e+18
14625.0	1.9298185574875133e+18
14626.0	1.9293712869752832e+18
14627.0	1.9289211056160765e+18
14628.0	1.9284816012771328e+18
14629.0	1.9280348877684733e+18
14630.0	1.9275873353990144e+18
14631.0	1.9271397830295547e+18
14632.0	1.925997979395687e+18
14633.0	1.9261557808562168e+18
14634.0	1.9257941144109053e+18
14635.0	1.9253250519728125e+18
14636.0	1.9248397374455803e+18
14637.0	1.9244498936659965e+18
14638.0	1.923999099938406e+18
14639.0	1.9235452863119355e+18
14640.0	1.9230972423700477e+18
14641.0	1.9198959700410348e+18
14642.0	1.922065973746073e+18
14643.0	1.92161860592599e+18
14644.0	1.9211618982297597e+18
14645.0	1.9207047878803453e+18
14646.0	1.9202582169780221e+18
14647.0	1.919805232146022e+18
14648.0	1.919359335687782e+18
