# Flux units: erg / (cm m2 s)
# Wavelength units: Angstrom
wave	flux
14000.0	1.7951757434879997e+18
14001.0	1.7947448173395965e+18
14002.0	1.7943586226044925e+18
14003.0	1.793949830637158e+18
14004.0	1.7935412282523643e+18
14005.0	1.7931325050716155e+18
14006.0	1.7927217451368448e+18
14007.0	1.7923125605826552e+18
14008.0	1.7918778595606525e+18
14009.0	1.7914986189815805e+18
14010.0	1.7910865235804155e+18
14011.0	1.7905098453680128e+18
14012.0	1.7902743234543616e+18
14013.0	1.7898665314091005e+18
14014.0	1.7894571035852795e+18
14015.0	1.7890504440020995e+18
14016.0	1.7886436367794176e+18
14017.0	1.7882362255769597e+18
14018.0	1.7878285761380347e+18
14019.0	1.7874217303277565e+18
14020.0	1.7870144046891005e+18
14021.0	1.7866072837324797e+18
14022.0	1.786200557040435e+18
14023.0	1.7857899313233917e+18
14024.0	1.7853831123566587e+18
14025.0	1.7849808601481213e+18
14026.0	1.784573880120115e+18
14027.0	1.7841681667719163e+18
14028.0	1.7837619903725563e+18
14029.0	1.7833555203719163e+18
14030.0	1.782882006938419e+18
14031.0	1.782537968313958e+18
14032.0	1.7821319865303037e+18
14033.0	1.7817140123926525e+18
14034.0	1.7813208265916413e+18
14035.0	1.780915463887257e+18
14036.0	1.7805101313818621e+18
14037.0	1.7801049146392576e+18
14038.0	1.779699805270835e+18
14039.0	1.779293568473497e+18
14040.0	1.7788861874700288e+18
14041.0	1.7784839302283261e+18
14042.0	1.7780776548433915e+18
14043.0	1.7776639186305021e+18
14044.0	1.7772682598678525e+18
14045.0	1.7768665378193405e+18
14046.0	1.7764613613420541e+18
14047.0	1.7760567234134016e+18
14048.0	1.7756545450246141e+18
14049.0	1.7752490850123776e+18
14050.0	1.7748409221906427e+18
14051.0	1.7744346602274813e+18
14052.0	1.7740323979526144e+18
14053.0	1.7736300333367293e+18
14054.0	1.773226801338777e+18
14055.0	1.7728230324699133e+18
14056.0	1.7724203876745216e+18
14057.0	1.7720173217710077e+18
14058.0	1.7716144135733243e+18
14059.0	1.7712116295270397e+18
14060.0	1.770808885746073e+18
14061.0	1.770404316604006e+18
14062.0	1.77000378573783e+18
14063.0	1.769596845975142e+18
14064.0	1.769188644565811e+18
14065.0	1.7687945779609597e+18
14066.0	1.76839481884672e+18
14067.0	1.7679913486123005e+18
14068.0	1.7675911281246203e+18
14069.0	1.7671848191852541e+18
14070.0	1.7667816391966715e+18
14071.0	1.7663793366564861e+18
14072.0	1.7659786933829627e+18
14073.0	1.7655773823762432e+18
14074.0	1.7651762022318075e+18
14075.0	1.7647700560314365e+18
14076.0	1.76437221958615e+18
14077.0	1.7639571562954747e+18
14078.0	1.7635713222705147e+18
14079.0	1.7631688603467776e+18
14080.0	1.7627712621379581e+18
14081.0	1.7623707765702656e+18
14082.0	1.7619655346618363e+18
14083.0	1.7615698389893115e+18
14084.0	1.761170136917606e+18
14085.0	1.7606960027271165e+18
14086.0	1.7603690265313277e+18
14087.0	1.7599704367890432e+18
14088.0	1.7595675571126272e+18
14089.0	1.759170754143846e+18
14090.0	1.7587714295595003e+18
14091.0	1.7583716771561472e+18
14092.0	1.7579670409052157e+18
14093.0	1.7575678304059387e+18
14094.0	1.7571688195555323e+18
14095.0	1.7567698842025981e+18
14096.0	1.7563674877100027e+18
14097.0	1.755968109438566e+18
14098.0	1.755571811463987e+18
14099.0	1.7551751141916672e+18
14100.0	1.7547734189867005e+18
14101.0	1.754378479966617e+18
14102.0	1.7539801553043453e+18
14103.0	1.7535781933416443e+18
14104.0	1.7531842156560381e+18
14105.0	1.7527855202172925e+18
14106.0	1.7523885360545784e+18
14107.0	1.751988386031206e+18
14108.0	1.7515899690942461e+18
14109.0	1.751194504947302e+18
14110.0	1.75079316038615e+18
14111.0	1.7503896750522365e+18
14112.0	1.7500019703676925e+18
14113.0	1.7496072007974907e+18
14114.0	1.749206441761177e+18
14115.0	1.7488131334864893e+18
14116.0	1.7484001589592061e+18
14117.0	1.747903667450675e+18
14118.0	1.7476174330462205e+18
14119.0	1.7472182275801085e+18
14120.0	1.746823409355981e+18
14121.0	1.7464235160240125e+18
14122.0	1.7460298671718397e+18
14123.0	1.745633320894464e+18
14124.0	1.7452373215543296e+18
14125.0	1.744712538626457e+18
14126.0	1.7444496748838907e+18
14127.0	1.7440541587275776e+18
14128.0	1.743658330515046e+18
14129.0	1.743260128326451e+18
14130.0	1.7428618271522813e+18
14131.0	1.7424730940243965e+18
14132.0	1.7420765292920827e+18
14133.0	1.7415280166699e+18
14134.0	1.7412882937413632e+18
14135.0	1.7408900009558013e+18
14136.0	1.7404918457434112e+18
14137.0	1.7401045655224317e+18
14138.0	1.739708769186611e+18
14139.0	1.739315955839795e+18
14140.0	1.7389123782311933e+18
14141.0	1.738527695123251e+18
14142.0	1.738121032184627e+18
14143.0	1.7377294385414141e+18
14144.0	1.7373416013168637e+18
14145.0	1.7369468468461563e+18
14146.0	1.7365527752081403e+18
14147.0	1.7361596179283965e+18
14148.0	1.7357663750848507e+18
14149.0	1.7353733771886584e+18
14150.0	1.734980169577267e+18
14151.0	1.7345865375023104e+18
14152.0	1.73419437007831e+18
14153.0	1.733801528210227e+18
14154.0	1.733401547636736e+18
14155.0	1.7329820098625533e+18
14156.0	1.7326225932419064e+18
14157.0	1.7322314156736507e+18
14158.0	1.7318377886318587e+18
14159.0	1.731446666428416e+18
14160.0	1.7310546348998653e+18
14161.0	1.730644495722086e+18
14162.0	1.7302407419527163e+18
14163.0	1.7298790100762616e+18
14164.0	1.729481150142873e+18
14165.0	1.7289981072506875e+18
14166.0	1.728704178814976e+18
14167.0	1.7283094327328763e+18
14168.0	1.727921439480217e+18
14169.0	1.7275312198909947e+18
14170.0	1.7271391397085181e+18
14171.0	1.726748512432947e+18
14172.0	1.7263585260470267e+18
14173.0	1.7259220818722813e+18
14174.0	1.7255763168722941e+18
14175.0	1.725185780193689e+18
14176.0	1.7247902086725627e+18
14177.0	1.7244000947798016e+18
14178.0	1.7240090212302843e+18
14179.0	1.7236102016401405e+18
14180.0	1.723230036636467e+18
14181.0	1.722840159302451e+18
14182.0	1.7224501662056448e+18
14183.0	1.722060731790131e+18
14184.0	1.7216697052168187e+18
14185.0	1.7212817169973248e+18
14186.0	1.7208663164846077e+18
14187.0	1.7204961775452157e+18
14188.0	1.7201136637313021e+18
14189.0	1.7197237008334843e+18
14190.0	1.7193357528793085e+18
14191.0	1.7189469257990141e+18
14192.0	1.718556030087987e+18
14193.0	1.7181664044122104e+18
14194.0	1.71778084217815e+18
14195.0	1.7173928925462525e+18
14196.0	1.7170044748300288e+18
14197.0	1.716616273539891e+18
14198.0	1.7162266310868987e+18
14199.0	1.71583863783424e+18
14200.0	1.7154397175808e+18
14201.0	1.715064434746982e+18
14202.0	1.7146768793796605e+18
14203.0	1.7142784473432061e+18
14204.0	1.7139008710639616e+18
14205.0	1.7135135656771581e+18
14206.0	1.713091207652966e+18
14207.0	1.7127398793281533e+18
14208.0	1.7123528994193403e+18
14209.0	1.711924817009049e+18
14210.0	1.7115555488071675e+18
14211.0	1.7111908322639872e+18
14212.0	1.7107999667519488e+18
14213.0	1.7104129583218685e+18
14214.0	1.7100265672933376e+18
14215.0	1.709636671504384e+18
14216.0	1.7092542281547776e+18
14217.0	1.7088680183201787e+18
14218.0	1.7084785604165627e+18
14219.0	1.7080960247922685e+18
14220.0	1.70771020251136e+18
14221.0	1.7073243231879165e+18
14222.0	1.706934645502771e+18
14223.0	1.7065532238856195e+18
14224.0	1.7061678411677693e+18
14225.0	1.7057464008572928e+18
14226.0	1.7053972837695488e+18
14227.0	1.7050121862643707e+18
14228.0	1.7045349919096827e+18
14229.0	1.7042319702228987e+18
14230.0	1.7038574071316477e+18
14231.0	1.7034701084557307e+18
14232.0	1.7030880509820925e+18
14233.0	1.7027013697077248e+18
14234.0	1.70231912768471e+18
14235.0	1.7019340419235835e+18
14236.0	1.701550355382272e+18
14237.0	1.7011661051265021e+18
14238.0	1.700782368253542e+18
14239.0	1.70039693017088e+18
14240.0	1.6995883723784195e+18
14241.0	1.69963104019415e+18
14242.0	1.699247509680947e+18
14243.0	1.6988197259051005e+18
14244.0	1.6984806197821437e+18
14245.0	1.698091356494233e+18
14246.0	1.6977042809552893e+18
14247.0	1.6973295064711165e+18
14248.0	1.6969437278109693e+18
14249.0	1.696564529174937e+18
14250.0	1.6961816479399928e+18
14251.0	1.695799697840537e+18
14252.0	1.6954140684976123e+18
14253.0	1.6950287176564733e+18
14254.0	1.694645804544819e+18
14255.0	1.6942552276008957e+18
14256.0	1.693847964037939e+18
14257.0	1.6934939513585661e+18
14258.0	1.6931053927137277e+18
14259.0	1.6927178893557757e+18
14260.0	1.6923398298927104e+18
14261.0	1.691954120019148e+18
14262.0	1.6915853501005821e+18
14263.0	1.6911525784584187e+18
14264.0	1.6908135629324285e+18
14265.0	1.6904392984756221e+18
14266.0	1.6900600176312315e+18
14267.0	1.6896788342505472e+18
14268.0	1.6892979797032957e+18
14269.0	1.688915449112166e+18
14270.0	1.6885363444285435e+18
14271.0	1.688154127571353e+18
14272.0	1.6877750681862141e+18
14273.0	1.6873944954961915e+18
14274.0	1.6869383917797376e+18
14275.0	1.6866273958821885e+18
14276.0	1.6862426708312067e+18
14277.0	1.6858661582274557e+18
14278.0	1.6854936939659261e+18
14279.0	1.685113758810112e+18
14280.0	1.6847317382463485e+18
14281.0	1.6843543616159744e+18
14282.0	1.683974879444992e+18
14283.0	1.683595405662617e+18
14284.0	1.6832160325435387e+18
14285.0	1.68283675337687e+18
14286.0	1.682457350058803e+18
14287.0	1.682078537298739e+18
14288.0	1.6816994946908157e+18
14289.0	1.681048369260133e+18
14290.0	1.6809398106062843e+18
14291.0	1.6805629205151744e+18
14292.0	1.6801846362374141e+18
14293.0	1.6798055332315133e+18
14294.0	1.679388527139225e+18
14295.0	1.6790457954598912e+18
14296.0	1.6784507663286272e+18
14297.0	1.678293260147097e+18
14298.0	1.677871942310297e+18
14299.0	1.677533597872947e+18
14300.0	1.677157206065152e+18
14301.0	1.6767756334530557e+18
14302.0	1.6763976914305024e+18
14303.0	1.676011156117913e+18
14304.0	1.6756388478844925e+18
14305.0	1.6752652209618944e+18
14306.0	1.6748666094092288e+18
14307.0	1.6745072582197243e+18
14308.0	1.6741351613792253e+18
14309.0	1.67375742739415e+18
14310.0	1.6732824828641275e+18
14311.0	1.6729833602023421e+18
14312.0	1.6726189238386685e+18
14313.0	1.672227543266099e+18
14314.0	1.6718747603566587e+18
14315.0	1.6714988668321787e+18
14316.0	1.6711078922682365e+18
14317.0	1.6707383438868472e+18
14318.0	1.6703705738903547e+18
14319.0	1.6699947843846144e+18
14320.0	1.6696188136849405e+18
14321.0	1.6692432422830077e+18
14322.0	1.6688544789561341e+18
14323.0	1.6684883246055421e+18
14324.0	1.668116705915699e+18
14325.0	1.6677385239789563e+18
14326.0	1.6673661419257853e+18
14327.0	1.6669890270199805e+18
14328.0	1.666614125028966e+18
14329.0	1.666241029944115e+18
14330.0	1.665866181640192e+18
14331.0	1.6654912930709496e+18
14332.0	1.6651167719227392e+18
14333.0	1.6647422390304763e+18
14334.0	1.664367784991129e+18
14335.0	1.663986519402086e+18
14336.0	1.663611422795366e+18
14337.0	1.6632440336416763e+18
14338.0	1.6628701282172925e+18
14339.0	1.6624936156135421e+18
14340.0	1.6621231075753981e+18
14341.0	1.6617489941135357e+18
14342.0	1.661375593683353e+18
14343.0	1.6609770123296768e+18
14344.0	1.6605926328893437e+18
14345.0	1.6602227539967997e+18
14346.0	1.65984882172887e+18
14347.0	1.6594724030775293e+18
14348.0	1.6591031835295741e+18
14349.0	1.6587302679609341e+18
14350.0	1.65835451704279e+18
14351.0	1.6579799539515392e+18
14352.0	1.6576091707670525e+18
14353.0	1.6572389026430976e+18
14354.0	1.6568661816901632e+18
14355.0	1.656493383562035e+18
14356.0	1.6561203136430077e+18
14357.0	1.6557444167630843e+18
14358.0	1.6553722947567613e+18
14359.0	1.6549958022856696e+18
14360.0	1.6546279484030976e+18
14361.0	1.654256432054272e+18
14362.0	1.6538847546441723e+18
14363.0	1.6535130168360957e+18
14364.0	1.6531313569824763e+18
14365.0	1.6527690026713085e+18
14366.0	1.652397100446515e+18
14367.0	1.6520274866339837e+18
14368.0	1.651656185033523e+18
14369.0	1.6512852676313085e+18
14370.0	1.6509142965420032e+18
14371.0	1.6505434311491581e+18
14372.0	1.650171054129152e+18
14373.0	1.6498018765242365e+18
14374.0	1.6494313131212797e+18
14375.0	1.649060425918054e+18
14376.0	1.6486904564285435e+18
14377.0	1.648319966845337e+18
14378.0	1.6479491551395835e+18
14379.0	1.64757981144023e+18
14380.0	1.6472097211547643e+18
14381.0	1.646836223416729e+18
14382.0	1.646469554005606e+18
14383.0	1.6460934557990912e+18
14384.0	1.6457246221271035e+18
14385.0	1.6453610682449915e+18
14386.0	1.644987308782387e+18
14387.0	1.644622147642982e+18
14388.0	1.644252293916262e+18
14389.0	1.643883728679731e+18
14390.0	1.6435139991044093e+18
14391.0	1.6431455580192768e+18
14392.0	1.642773746391449e+18
14393.0	1.6424080399925243e+18
14394.0	1.6420284403810304e+18
14395.0	1.6416664836898808e+18
14396.0	1.641302126179123e+18
14397.0	1.6409337840795648e+18
14398.0	1.6405638397558781e+18
14399.0	1.640197182088806e+18
14400.0	1.639823019973017e+18
14401.0	1.639459278186086e+18
14402.0	1.6390928386228221e+18
14403.0	1.637133157453001e+18
14404.0	1.633843566503525e+18
14405.0	1.6376109775978476e+18
14406.0	1.6376219951955965e+18
14407.0	1.634793720643585e+18
14408.0	1.6368825360449528e+18
14409.0	1.6365143499735037e+18
14410.0	1.636151520867123e+18
14411.0	1.6357853514170365e+18
14412.0	1.6354175830982653e+18
14413.0	1.6350516921499643e+18
14414.0	1.6346840949587965e+18
14415.0	1.6343176839167997e+18
14416.0	1.6339510061170685e+18
14417.0	1.6335797699477504e+18
14418.0	1.6332069617532925e+18
14419.0	1.6328514559016957e+18
14420.0	1.632483437602406e+18
14421.0	1.6321137935908856e+18
14422.0	1.631746736626073e+18
14423.0	1.6313797299929085e+18
14424.0	1.6211522787213233e+18
14425.0	1.6306486175072253e+18
14426.0	1.630284177788108e+18
14427.0	1.6299187784122363e+18
14428.0	1.6295450306936832e+18
14429.0	1.6291870703353853e+18
14430.0	1.6288223806357504e+18
14431.0	1.6284408667439101e+18
14432.0	1.6280843358044157e+18
14433.0	1.6258833076715502e+18
14434.0	1.6273573219926013e+18
14435.0	1.6269917649108984e+18
14436.0	1.6266319708028928e+18
14437.0	1.6262672173498365e+18
14438.0	1.6258526976409597e+18
14439.0	1.6255271022100475e+18
14440.0	1.6251732136820733e+18
14441.0	1.6248070391988221e+18
14442.0	1.6244408798150653e+18
14443.0	1.6240656389242877e+18
14444.0	1.6237150437638141e+18
14445.0	1.6233522985435133e+18
14446.0	1.6209750626664456e+18
14447.0	1.622621675952537e+18
14448.0	1.6222609104437243e+18
14449.0	1.6218972558983165e+18
14450.0	1.621531854844723e+18
14451.0	1.6211699216416765e+18
14452.0	1.6208058862534653e+18
14453.0	1.6204097896054781e+18
14454.0	1.6200800082591741e+18
14455.0	1.6197144427888637e+18
14456.0	1.6193469294837757e+18
14457.0	1.6189799312392192e+18
14458.0	1.618626317857587e+18
14459.0	1.6182614100541437e+18
14460.0	1.6179021561724925e+18
14461.0	1.617534758630195e+18
14462.0	1.617159958980198e+18
14463.0	1.6168139121229821e+18
14464.0	1.6164527104065533e+18
14465.0	1.616084116648755e+18
14466.0	1.6157271830560763e+18
14467.0	1.615339506892799e+18
14468.0	1.6150012564078592e+18
14469.0	1.6146368737312765e+18
14470.0	1.614271199209062e+18
14471.0	1.6139135458738168e+18
14472.0	1.6135539379929085e+18
14473.0	1.6131949374472187e+18
14474.0	1.612834044431564e+18
14475.0	1.612470723752755e+18
14476.0	1.6119911067680765e+18
14477.0	1.6117503654625277e+18
14478.0	1.611388836590387e+18
14479.0	1.611026905065062e+18
14480.0	1.6106622539530235e+18
14481.0	1.6103065518079997e+18
14482.0	1.609944816576102e+18
14483.0	1.6095818314416125e+18
14484.0	1.6092230087344125e+18
14485.0	1.6088511182536701e+18
14486.0	1.608415813251891e+18
14487.0	1.6081430694068221e+18
14488.0	1.6077797873156093e+18
14489.0	1.6074212565319677e+18
14490.0	1.6070606856388605e+18
14491.0	1.6067022706180093e+18
14492.0	1.6063426442821632e+18
14493.0	1.6059813754568696e+18
14494.0	1.605617074988646e+18
14495.0	1.6052635119386621e+18
14496.0	1.6048639541510141e+18
14497.0	1.6045442223570941e+18
14498.0	1.6041821029269504e+18
14499.0	1.6038204113158141e+18
14500.0	1.6034610349604856e+18
14501.0	1.6030489362038781e+18
14502.0	1.6026306718203901e+18
14503.0	1.6023781210324992e+18
14504.0	1.6020234808852475e+18
14505.0	1.6016188765110267e+18
14506.0	1.6011933173940221e+18
14507.0	1.6008766541529085e+18
14508.0	1.6005900657491965e+18
14509.0	1.6002315467096061e+18
14510.0	1.5998722475294723e+18
14511.0	1.5995148408193021e+18
14512.0	1.5991517835427837e+18
14513.0	1.5987983530328061e+18
14514.0	1.5984229410144256e+18
14515.0	1.5980810851057661e+18
14516.0	1.5970495061032963e+18
14517.0	1.5973662867849208e+18
14518.0	1.5970084908433403e+18
14519.0	1.5966508341526525e+18
14520.0	1.5962931908837376e+18
14521.0	1.595934291001344e+18
14522.0	1.5955780872175613e+18
14523.0	1.5951059662929915e+18
14524.0	1.5947395770613757e+18
14525.0	1.594504476255846e+18
14526.0	1.5941489687265277e+18
14527.0	1.5937856530808832e+18
14528.0	1.5933930108616704e+18
14529.0	1.5930748678701053e+18
14530.0	1.5927151106719741e+18
14531.0	1.592363569276518e+18
14532.0	1.5918252874006525e+18
14533.0	1.5916506684588024e+18
14534.0	1.5912944009215997e+18
14535.0	1.590934397098393e+18
14536.0	1.5905802904666107e+18
14537.0	1.5902213922619392e+18
14538.0	1.5898687637028864e+18
14539.0	1.589512798155571e+18
14540.0	1.589156696712806e+18
14541.0	1.5887938793504768e+18
14542.0	1.5884440743968765e+18
14543.0	1.5880117892939776e+18
14544.0	1.5877329083432957e+18
14545.0	1.5873745704976381e+18
14546.0	1.5750757554847657e+18
14547.0	1.5761293612941207e+18
14548.0	1.5863064775622653e+18
14549.0	1.585919650326118e+18
14550.0	1.5855979371429885e+18
14551.0	1.5852445334765565e+18
14552.0	1.5848884186120192e+18
14553.0	1.5845311360532477e+18
14554.0	1.5841791265734653e+18
14555.0	1.583823853925171e+18
14556.0	1.5834660764385275e+18
14557.0	1.5831144478015485e+18
14558.0	1.5827595996168192e+18
14559.0	1.5819078002278382e+18
14560.0	1.5820467038322685e+18
14561.0	1.5816936608759805e+18
14562.0	1.5813340597059584e+18
14563.0	1.580986726036275e+18
14564.0	1.5806306732474363e+18
14565.0	1.5802780497215485e+18
14566.0	1.579923793772544e+18
14567.0	1.5795695546007547e+18
14568.0	1.579209835990221e+18
14569.0	1.578861410123776e+18
14570.0	1.5783685089394685e+18
14571.0	1.5781524771176443e+18
14572.0	1.5777874636177403e+18
14573.0	1.5774320903061504e+18
14574.0	1.5770874611236864e+18
14575.0	1.5767380319797243e+18
14576.0	1.5763842592145405e+18
14577.0	1.5760292214472701e+18
14578.0	1.5756771280814077e+18
14579.0	1.5753242981957624e+18
14580.0	1.5749710404911101e+18
14581.0	1.5746145078738944e+18
14582.0	1.574264439518003e+18
14583.0	1.5739113093201915e+18
14584.0	1.5735551726452733e+18
14585.0	1.573205087512166e+18
14586.0	1.5728510479892477e+18
14587.0	1.5724966863437821e+18
14588.0	1.572146643153715e+18
14589.0	1.571801324427673e+18
14590.0	1.5714492696494083e+18
14591.0	1.5711104604831741e+18
14592.0	1.570770507110809e+18
14593.0	1.5703991736336381e+18
14594.0	1.570097992407449e+18
14595.0	1.5697614112555005e+18
14596.0	1.5694069221031933e+18
14597.0	1.569077093780684e+18
14598.0	1.5687487267536893e+18
14599.0	1.5684115147784187e+18
14600.0	1.5680730948435963e+18
14601.0	1.5677351648034816e+18
14602.0	1.5673945655083005e+18
14603.0	1.5670587997290493e+18
14604.0	1.566707952910336e+18
14605.0	1.5663803593129984e+18
14606.0	1.5660230046121981e+18
14607.0	1.565706195409305e+18
14608.0	1.5653679214362621e+18
14609.0	1.5650210222964739e+18
14610.0	1.564688465998643e+18
14611.0	1.5643543477420032e+18
14612.0	1.5640176390832123e+18
14613.0	1.5636799640567805e+18
14614.0	1.5633410391277565e+18
14615.0	1.5630038439297021e+18
14616.0	1.5626667577835515e+18
14617.0	1.5623289938378747e+18
14618.0	1.5619887820963837e+18
14619.0	1.561649597120512e+18
14620.0	1.5612922088652797e+18
14621.0	1.5609786057883643e+18
14622.0	1.5606403016163323e+18
14623.0	1.560303826160844e+18
14624.0	1.5599489679097853e+18
14625.0	1.5596277311995901e+18
14626.0	1.559288349930291e+18
14627.0	1.5589466198507515e+18
14628.0	1.5586163603537915e+18
14629.0	1.5582789084643325e+18
14630.0	1.557941223371571e+18
14631.0	1.5576031289147387e+18
14632.0	1.5564345287114757e+18
14633.0	1.5568561250500603e+18
14634.0	1.5565896793718781e+18
14635.0	1.5562242263089144e+18
14636.0	1.5557987343007741e+18
14637.0	1.555579578561331e+18
14638.0	1.5552417340850176e+18
14639.0	1.554901857887846e+18
14640.0	1.554566041776947e+18
14641.0	1.5510974379327457e+18
14642.0	1.5538908964061181e+18
14643.0	1.5535548890349565e+18
14644.0	1.5532141722992637e+18
14645.0	1.5528731250524152e+18
14646.0	1.5525387568152573e+18
14647.0	1.5522015230296064e+18
14648.0	1.5518672319676416e+18
