# Flux units: erg / (cm m2 s)
# Wavelength units: Angstrom
wave	flux
14000.0	1.9596279189340152e+18
14001.0	1.9592339781582845e+18
14002.0	1.9589303642357755e+18
14003.0	1.9585415153451005e+18
14004.0	1.958151148116377e+18
14005.0	1.957760618148659e+18
14006.0	1.9573633286406141e+18
14007.0	1.9569714816614397e+18
14008.0	1.9564989748609021e+18
14009.0	1.9561975587536893e+18
14010.0	1.9556900379033597e+18
14011.0	1.95460320985088e+18
14012.0	1.9547558137298944e+18
14013.0	1.9543666980814845e+18
14014.0	1.9539717708054525e+18
14015.0	1.9535852371705856e+18
14016.0	1.9531978797744125e+18
14017.0	1.9528084722024445e+18
14018.0	1.952418955578572e+18
14019.0	1.952029819797504e+18
14020.0	1.951639893809561e+18
14021.0	1.9512500198309883e+18
14022.0	1.950849561106841e+18
14023.0	1.950437881780633e+18
14024.0	1.9500550961758205e+18
14025.0	1.9496928274284541e+18
14026.0	1.9493052083077117e+18
14027.0	1.9489184448249848e+18
14028.0	1.9485296445882365e+18
14029.0	1.9481391917957115e+18
14030.0	1.9446421186936855e+18
14031.0	1.9472811110170616e+18
14032.0	1.9469721837502461e+18
14033.0	1.946523146597171e+18
14034.0	1.9461931370807293e+18
14035.0	1.9458124083625981e+18
14036.0	1.9454161976295421e+18
14037.0	1.9450382019198973e+18
14038.0	1.9446508361351165e+18
14039.0	1.94425959481344e+18
14040.0	1.9438693114707965e+18
14041.0	1.9434858698768381e+18
14042.0	1.9430910281646075e+18
14043.0	1.9426786408398845e+18
14044.0	1.94231708680192e+18
14045.0	1.9419371566792701e+18
14046.0	1.9415496264777728e+18
14047.0	1.9411494915538944e+18
14048.0	1.9407750576472061e+18
14049.0	1.940393867555635e+18
14050.0	1.9400076610764797e+18
14051.0	1.939613332747059e+18
14052.0	1.9392314631782397e+18
14053.0	1.938848677573427e+18
14054.0	1.9384629123350528e+18
14055.0	1.9380769810022397e+18
14056.0	1.9376910513471488e+18
14057.0	1.9373052290662397e+18
14058.0	1.9369195208704e+18
14059.0	1.936529521062707e+18
14060.0	1.936148109511885e+18
14061.0	1.9357568145031163e+18
14062.0	1.9353774313177088e+18
14063.0	1.9349772645171197e+18
14064.0	1.9340668337913853e+18
14065.0	1.934214047150899e+18
14066.0	1.933836647032422e+18
14067.0	1.9334158543224824e+18
14068.0	1.9330671818309627e+18
14069.0	1.9326752073449472e+18
14070.0	1.932295572501299e+18
14071.0	1.9319106679341053e+18
14072.0	1.9315288101093373e+18
14073.0	1.9311444172472315e+18
14074.0	1.930760010963353e+18
14075.0	1.930357287315046e+18
14076.0	1.929952734950195e+18
14077.0	1.9288987399094275e+18
14078.0	1.9291698664308733e+18
14079.0	1.9288301294845952e+18
14080.0	1.928456237481984e+18
14081.0	1.9280726935470075e+18
14082.0	1.927685529088819e+18
14083.0	1.927304216523571e+18
14084.0	1.9269210483982333e+18
14085.0	1.925971541858713e+18
14086.0	1.926096399577907e+18
14087.0	1.9257721228361725e+18
14088.0	1.925369941091942e+18
14089.0	1.9249769448734717e+18
14090.0	1.924612023648256e+18
14091.0	1.9242407740571645e+18
14092.0	1.9238584447926272e+18
14093.0	1.923475828637696e+18
14094.0	1.923093098397696e+18
14095.0	1.922709532652339e+18
14096.0	1.922185194320691e+18
14097.0	1.921906063389491e+18
14098.0	1.9214981119606781e+18
14099.0	1.921181767486668e+18
14100.0	1.920789873531289e+18
14101.0	1.9204191708774397e+18
14102.0	1.920037266076467e+18
14103.0	1.9196424864399355e+18
14104.0	1.919271649568358e+18
14105.0	1.918892377112576e+18
14106.0	1.9185112071536635e+18
14107.0	1.9181287688372221e+18
14108.0	1.9177328114401275e+18
14109.0	1.9173621104639997e+18
14110.0	1.9169794389442555e+18
14111.0	1.9165943145955325e+18
14112.0	1.916214986774937e+18
14113.0	1.9158250221993981e+18
14114.0	1.9154486203252733e+18
14115.0	1.9150743072145403e+18
14116.0	1.914603372439142e+18
14117.0	1.9089982656348168e+18
14118.0	1.913930570845388e+18
14119.0	1.9134659594027003e+18
14120.0	1.9131016488681464e+18
14121.0	1.9127714715795453e+18
14122.0	1.91232179521454e+18
14123.0	1.911960504578867e+18
14124.0	1.9115694947827707e+18
14125.0	1.910851067550105e+18
14126.0	1.9108827412561915e+18
14127.0	1.9105205043855355e+18
14128.0	1.910140419912499e+18
14129.0	1.9097515089461245e+18
14130.0	1.90936419181527e+18
14131.0	1.909001480149401e+18
14132.0	1.908618734809907e+18
14133.0	1.9077489166909427e+18
14134.0	1.9078658538864635e+18
14135.0	1.907456139172249e+18
14136.0	1.9069794313568253e+18
14137.0	1.9067165357375483e+18
14138.0	1.9062878359257083e+18
14139.0	1.90597234205655e+18
14140.0	1.9055861842313216e+18
14141.0	1.9051755232821243e+18
14142.0	1.9044183205478403e+18
14143.0	1.9044514605826043e+18
14144.0	1.9040822108356605e+18
14145.0	1.9037038175059965e+18
14146.0	1.9033182837932027e+18
14147.0	1.902943244229017e+18
14148.0	1.9025555680657405e+18
14149.0	1.9021792836321277e+18
14150.0	1.9018173319741435e+18
14151.0	1.9014151133200381e+18
14152.0	1.9010626592440315e+18
14153.0	1.9006852658364413e+18
14154.0	1.9002848607993853e+18
14155.0	1.8996663133667328e+18
14156.0	1.8995131390623736e+18
14157.0	1.8991767021944827e+18
14158.0	1.8987954131173373e+18
14159.0	1.8984236333662203e+18
14160.0	1.8980404920844283e+18
14161.0	1.8976158221598717e+18
14162.0	1.8971957626142715e+18
14163.0	1.8969127813119992e+18
14164.0	1.896366958077542e+18
14165.0	1.8960839448985592e+18
14166.0	1.8957859966418936e+18
14167.0	1.8953989093588987e+18
14168.0	1.8950229269151741e+18
14169.0	1.894656425276211e+18
14170.0	1.8942749281615864e+18
14171.0	1.8939060189921275e+18
14172.0	1.8935340563693568e+18
14173.0	1.8931122117279736e+18
14174.0	1.8927753604628477e+18
14175.0	1.8924069227331581e+18
14176.0	1.8920307825836035e+18
14177.0	1.8916567983063035e+18
14178.0	1.891281317501337e+18
14179.0	1.8908982919823355e+18
14180.0	1.8905325889388541e+18
14181.0	1.890157749023539e+18
14182.0	1.8897822245978107e+18
14183.0	1.8894081631453181e+18
14184.0	1.8890284796477437e+18
14185.0	1.8886562922102781e+18
14186.0	1.887303971425485e+18
14187.0	1.8878811093336061e+18
14188.0	1.8875317623980032e+18
14189.0	1.8871524966531064e+18
14190.0	1.8865590546464765e+18
14191.0	1.8859506104532987e+18
14192.0	1.8855799749083133e+18
14193.0	1.8850477798064125e+18
14194.0	1.8848310500524032e+18
14195.0	1.8844667797831677e+18
14196.0	1.8840929397899267e+18
14197.0	1.8837192189149181e+18
14198.0	1.883341050399948e+18
14199.0	1.8829693444685824e+18
14200.0	1.8819952693739523e+18
14201.0	1.8821916181659643e+18
14202.0	1.881850315905433e+18
14203.0	1.8814686677958653e+18
14204.0	1.8811028171128824e+18
14205.0	1.880729851212595e+18
14206.0	1.8802437666111488e+18
14207.0	1.8799859981090808e+18
14208.0	1.8795747180806141e+18
14209.0	1.879038855479296e+18
14210.0	1.8787020092473341e+18
14211.0	1.8784108943507453e+18
14212.0	1.878041976792678e+18
14213.0	1.8776630986014715e+18
14214.0	1.8772967395688443e+18
14215.0	1.8769110028517373e+18
14216.0	1.8765526801055741e+18
14217.0	1.876180658762547e+18
14218.0	1.8757974856040443e+18
14219.0	1.875436136248115e+18
14220.0	1.875058523058995e+18
14221.0	1.8746828526714875e+18
14222.0	1.8742572046352381e+18
14223.0	1.8739467825184765e+18
14224.0	1.8735749910233088e+18
14225.0	1.871389918022862e+18
14226.0	1.872821610138828e+18
14227.0	1.8724597306228733e+18
14228.0	1.8676704780222474e+18
14229.0	1.870755873475785e+18
14230.0	1.8712671339675643e+18
14231.0	1.8708391236993021e+18
14232.0	1.870525268964147e+18
14233.0	1.8701499290877947e+18
14234.0	1.869783086871347e+18
14235.0	1.8694096931520507e+18
14236.0	1.869040862835507e+18
14237.0	1.8686667057528827e+18
14238.0	1.8682964560838653e+18
14239.0	1.8679143415676923e+18
14240.0	1.8661269825388544e+18
14241.0	1.8671692922486784e+18
14242.0	1.866808560294297e+18
14243.0	1.8663029403025405e+18
14244.0	1.8660753993105403e+18
14245.0	1.8656906239279104e+18
14246.0	1.8653165272432635e+18
14247.0	1.8649604912316416e+18
14248.0	1.8645803077730304e+18
14249.0	1.8642229262286843e+18
14250.0	1.8638527906447355e+18
14251.0	1.863419916661555e+18
14252.0	1.8630363576270843e+18
14253.0	1.8626654653906941e+18
14254.0	1.862293519545139e+18
14255.0	1.861893089342259e+18
14256.0	1.8596452963975178e+18
14257.0	1.8609814137470968e+18
14258.0	1.86049425875927e+18
14259.0	1.8601081713983483e+18
14260.0	1.8596969366683643e+18
14261.0	1.8593685109211133e+18
14262.0	1.8590352617242621e+18
14263.0	1.8559175650967567e+18
14264.0	1.857748576763903e+18
14265.0	1.857923180606259e+18
14266.0	1.8575646884102141e+18
14267.0	1.8571968211058683e+18
14268.0	1.856826516072038e+18
14269.0	1.8564515067068413e+18
14270.0	1.8560913082679293e+18
14271.0	1.855721264958668e+18
14272.0	1.855352245059584e+18
14273.0	1.8549736638251005e+18
14274.0	1.8504116200275983e+18
14275.0	1.8538444850462717e+18
14276.0	1.8538125882032123e+18
14277.0	1.8534222394294272e+18
14278.0	1.8530692065394683e+18
14279.0	1.8527005741940733e+18
14280.0	1.85232727778263e+18
14281.0	1.8519660978765821e+18
14282.0	1.851598589604659e+18
14283.0	1.8512308145750013e+18
14284.0	1.8508629573369853e+18
14285.0	1.850494179029811e+18
14286.0	1.8501216963133437e+18
14287.0	1.849759897328025e+18
14288.0	1.849392191084953e+18
14289.0	1.8481093816614894e+18
14290.0	1.8486563105144827e+18
14291.0	1.848290332324659e+18
14292.0	1.8479241880403965e+18
14293.0	1.8475549282271227e+18
14294.0	1.8470618089390077e+18
14295.0	1.8468097564344317e+18
14296.0	1.8457146270154757e+18
14297.0	1.8460863128141821e+18
14298.0	1.8451053674495992e+18
14299.0	1.845334487177625e+18
14300.0	1.8449830531563517e+18
14301.0	1.8446191083651072e+18
14302.0	1.844254140163686e+18
14303.0	1.8438563339173883e+18
14304.0	1.843434962393497e+18
14305.0	1.8430752454606843e+18
14306.0	1.8426625326579715e+18
14307.0	1.8423073036304381e+18
14308.0	1.8419583325044733e+18
14309.0	1.8415660090523643e+18
14310.0	1.841021371967078e+18
14311.0	1.8403001429393405e+18
14312.0	1.8403379285852152e+18
14313.0	1.8400215002251261e+18
14314.0	1.8397419414749181e+18
14315.0	1.839406645457715e+18
14316.0	1.8390011166588925e+18
14317.0	1.8386125831798781e+18
14318.0	1.8383234949709821e+18
14319.0	1.837961154081587e+18
14320.0	1.8375965163913213e+18
14321.0	1.837230107027046e+18
14322.0	1.836831198517657e+18
14323.0	1.8364858646921213e+18
14324.0	1.836138217288499e+18
14325.0	1.8357656674631677e+18
14326.0	1.8354102387867645e+18
14327.0	1.835039527744307e+18
14328.0	1.8346751115132925e+18
14329.0	1.834316735080038e+18
14330.0	1.8339522584510461e+18
14331.0	1.8335813712478203e+18
14332.0	1.8332235048419325e+18
14333.0	1.8328592429613053e+18
14334.0	1.8324949575925752e+18
14335.0	1.8321181497098237e+18
14336.0	1.8315032429330432e+18
14337.0	1.8313252081500155e+18
14338.0	1.8309608657387515e+18
14339.0	1.8305855728386045e+18
14340.0	1.83023379152896e+18
14341.0	1.8298577319100413e+18
14342.0	1.8295055815016443e+18
14343.0	1.829139610022707e+18
14344.0	1.8287733784969213e+18
14345.0	1.8284145390125053e+18
14346.0	1.8280412627337213e+18
14347.0	1.8276067798155261e+18
14348.0	1.8273178409238525e+18
14349.0	1.8269602261762045e+18
14350.0	1.8264450230386685e+18
14351.0	1.8260661549137917e+18
14352.0	1.8258635767414781e+18
14353.0	1.825507282360729e+18
14354.0	1.8251255872749565e+18
14355.0	1.8243463896104955e+18
14356.0	1.8238840766463992e+18
14357.0	1.8235645579231227e+18
14358.0	1.823201556011417e+18
14359.0	1.822824825303859e+18
14360.0	1.8224620314296312e+18
14361.0	1.82210719163351e+18
14362.0	1.8217502563631104e+18
14363.0	1.8213867142250493e+18
14364.0	1.8205442245132288e+18
14365.0	1.820562843867545e+18
14366.0	1.820214329081856e+18
14367.0	1.8199381895282685e+18
14368.0	1.8195754392748027e+18
14369.0	1.8192136486780925e+18
14370.0	1.8188517976834045e+18
14371.0	1.8184902990102525e+18
14372.0	1.8181024030654456e+18
14373.0	1.817688061195059e+18
14374.0	1.8173287485931515e+18
14375.0	1.8169653792604155e+18
14376.0	1.8166047395807227e+18
14377.0	1.8162420346257403e+18
14378.0	1.8158780546023421e+18
14379.0	1.8155185339629563e+18
14380.0	1.8151554867527675e+18
14381.0	1.8147838512857085e+18
14382.0	1.8144314190200827e+18
14383.0	1.8140655045836797e+18
14384.0	1.8136918256517115e+18
14385.0	1.8133477887049725e+18
14386.0	1.8129723045445627e+18
14387.0	1.812624390383206e+18
14388.0	1.8122611066142715e+18
14389.0	1.8119013376720893e+18
14390.0	1.811538327371776e+18
14391.0	1.8111788436422653e+18
14392.0	1.8108160514457597e+18
14393.0	1.8104565912043517e+18
14394.0	1.8100599392305147e+18
14395.0	1.8097134276444155e+18
14396.0	1.809372546492006e+18
14397.0	1.8090125426687997e+18
14398.0	1.8085234079694845e+18
14399.0	1.8080998000427005e+18
14400.0	1.8077186686713853e+18
14401.0	1.8073724422979581e+18
14402.0	1.807015879481753e+18
14403.0	1.8053078498410473e+18
14404.0	1.8014652617195502e+18
14405.0	1.8043887150956513e+18
14406.0	1.8055733945827328e+18
14407.0	1.8033056182960133e+18
14408.0	1.8048062077272061e+18
14409.0	1.8044777903685624e+18
14410.0	1.8040998298910715e+18
14411.0	1.8037741220528128e+18
14412.0	1.8034132726579197e+18
14413.0	1.8030263648911355e+18
14414.0	1.8026233895845888e+18
14415.0	1.8022643068305405e+18
14416.0	1.8018917301616637e+18
14417.0	1.8015020692537341e+18
14418.0	1.8011167435784187e+18
14419.0	1.8008225701953533e+18
14420.0	1.8004596907573243e+18
14421.0	1.8001036044140541e+18
14422.0	1.799737614480179e+18
14423.0	1.7993449907159037e+18
14424.0	1.7911500471533527e+18
14425.0	1.7986458874806264e+18
14426.0	1.7983047580254205e+18
14427.0	1.797946747335475e+18
14428.0	1.797568172811878e+18
14429.0	1.7972246559588347e+18
14430.0	1.7968684773408765e+18
14431.0	1.795682717401088e+18
14432.0	1.7961438274387968e+18
14433.0	1.7943508346208246e+18
14434.0	1.7954144698499064e+18
14435.0	1.7949612417482744e+18
14436.0	1.794713802978099e+18
14437.0	1.7943569197170688e+18
14438.0	1.7938811145158653e+18
14439.0	1.7936224249446397e+18
14440.0	1.793279913046835e+18
14441.0	1.7929139566673915e+18
14442.0	1.7925504061407224e+18
14443.0	1.792153348158259e+18
14444.0	1.791840409459097e+18
14445.0	1.791485329748787e+18
14446.0	1.7890653203595272e+18
14447.0	1.7907537894440952e+18
14448.0	1.7904104839839741e+18
14449.0	1.7900521897590781e+18
14450.0	1.7896883087212541e+18
14451.0	1.7893333162524672e+18
14452.0	1.788973829167513e+18
14453.0	1.7885925115691005e+18
14454.0	1.7882562709946363e+18
14455.0	1.7878900864450552e+18
14456.0	1.7875261768859643e+18
14457.0	1.7871698070077437e+18
14458.0	1.786810803106611e+18
14459.0	1.7864455245266936e+18
14460.0	1.786067525461606e+18
14461.0	1.7855872289996797e+18
14462.0	1.784824519983104e+18
14463.0	1.7848798042652664e+18
14464.0	1.7845793293598717e+18
14465.0	1.7842143645138941e+18
14466.0	1.783881932367462e+18
14467.0	1.783496133574656e+18
14468.0	1.7831681289355261e+18
14469.0	1.7827330990800896e+18
14470.0	1.7824284063825915e+18
14471.0	1.7820930583560187e+18
14472.0	1.781740374432153e+18
14473.0	1.7813862124355581e+18
14474.0	1.7810322987417597e+18
14475.0	1.7806715583987707e+18
14476.0	1.7802241201143803e+18
14477.0	1.7799566359265275e+18
14478.0	1.779600876738969e+18
14479.0	1.7792409735790587e+18
14480.0	1.7788707843080187e+18
14481.0	1.7785322720985085e+18
14482.0	1.7781713774051325e+18
14483.0	1.7778075064336381e+18
14484.0	1.777450284272844e+18
14485.0	1.7770664584806397e+18
14486.0	1.7764543383994365e+18
14487.0	1.7763824564174843e+18
14488.0	1.7759607610933243e+18
14489.0	1.7753004081938432e+18
14490.0	1.7746736231481341e+18
14491.0	1.7743334768377853e+18
14492.0	1.7739767764484093e+18
14493.0	1.773605749994291e+18
14494.0	1.7732390017302525e+18
14495.0	1.7729047828103163e+18
14496.0	1.7724169282125821e+18
14497.0	1.7721901203849208e+18
14498.0	1.7718340357193725e+18
14499.0	1.7714771625246715e+18
14500.0	1.771119576298291e+18
14501.0	1.7707165221388285e+18
14502.0	1.7701395838795779e+18
14503.0	1.7700132833198077e+18
14504.0	1.7696851729842176e+18
14505.0	1.7692928830865403e+18
14506.0	1.7688926542102528e+18
14507.0	1.7683802444791803e+18
14508.0	1.7682629029527547e+18
14509.0	1.7679062243737597e+18
14510.0	1.7675462423609341e+18
14511.0	1.7671919897673725e+18
14512.0	1.7668197452873725e+18
14513.0	1.7664781209042941e+18
14514.0	1.766087191638835e+18
14515.0	1.7657627706130427e+18
14516.0	1.7630882961555471e+18
14517.0	1.7650469706924027e+18
14518.0	1.7646936492343293e+18
14519.0	1.7642744084168704e+18
14520.0	1.7639104334266365e+18
14521.0	1.7635534226587648e+18
14522.0	1.763190085202739e+18
14523.0	1.7626718806212605e+18
14524.0	1.7623842335752187e+18
14525.0	1.7621205259386875e+18
14526.0	1.761764348998451e+18
14527.0	1.7613885964025853e+18
14528.0	1.7609220153147387e+18
14529.0	1.7606874765459456e+18
14530.0	1.7603240585592832e+18
14531.0	1.7599821305085947e+18
14532.0	1.7594989584318461e+18
14533.0	1.7592693890744317e+18
14534.0	1.7589142992977915e+18
14535.0	1.7585465980878843e+18
14536.0	1.758196356926668e+18
14537.0	1.7578310817021947e+18
14538.0	1.7574862813921275e+18
14539.0	1.7571293947756541e+18
14540.0	1.756772355486515e+18
14541.0	1.756392997466931e+18
14542.0	1.7560558928658427e+18
14543.0	1.7556319208734712e+18
14544.0	1.7553425927503872e+18
14545.0	1.7549742875607037e+18
14546.0	1.7451787741036493e+18
14547.0	1.7456569214042043e+18
14548.0	1.7538989871333376e+18
14549.0	1.753439846740787e+18
14550.0	1.753192701571891e+18
14551.0	1.7528447572115453e+18
14552.0	1.752486345546137e+18
14553.0	1.752123224516198e+18
14554.0	1.751773682964889e+18
14555.0	1.751416090027622e+18
14556.0	1.7510567925252093e+18
14557.0	1.7507014997442557e+18
14558.0	1.7503418012663803e+18
14559.0	1.7482551870357478e+18
14560.0	1.749601001616179e+18
14561.0	1.7492645295161341e+18
14562.0	1.748874380391219e+18
14563.0	1.748549949299097e+18
14564.0	1.7481253129289728e+18
14565.0	1.747843131899904e+18
14566.0	1.74748604563456e+18
14567.0	1.7471226360365056e+18
14568.0	1.7467003551875072e+18
14569.0	1.7464092772007933e+18
14570.0	1.745532159315148e+18
14571.0	1.7456929974517757e+18
14572.0	1.7452692670513147e+18
14573.0	1.7449227252662272e+18
14574.0	1.7444521730113533e+18
14575.0	1.7442396962816e+18
14576.0	1.743879110288998e+18
14577.0	1.743546275489382e+18
14578.0	1.7431903149752317e+18
14579.0	1.7428370019057667e+18
14580.0	1.7424780181372925e+18
14581.0	1.742110620594995e+18
14582.0	1.7417506637479933e+18
14583.0	1.741396976546611e+18
14584.0	1.74094146338816e+18
14585.0	1.740624367294873e+18
14586.0	1.7402636722503677e+18
14587.0	1.7399067738898427e+18
14588.0	1.7395499912921085e+18
14589.0	1.7391989834121208e+18
14590.0	1.738848307721011e+18
14591.0	1.7384343567597565e+18
14592.0	1.7373710788853757e+18
14593.0	1.736912715277926e+18
14594.0	1.7366753998798848e+18
14595.0	1.736317817008947e+18
14596.0	1.735537129527705e+18
14597.0	1.735097573179391e+18
14598.0	1.7352182936371197e+18
14599.0	1.734913597584179e+18
14600.0	1.7345484028903421e+18
14601.0	1.7342015003951096e+18
14602.0	1.7338229678145533e+18
14603.0	1.7334943424184315e+18
14604.0	1.733070383847833e+18
14605.0	1.73269742298071e+18
14606.0	1.7323634607521787e+18
14607.0	1.7320791540498424e+18
14608.0	1.7317324746915835e+18
14609.0	1.731362329041305e+18
14610.0	1.7308813363249147e+18
14611.0	1.7306432525303805e+18
14612.0	1.7303229670883325e+18
14613.0	1.729976537710592e+18
14614.0	1.729622437789696e+18
14615.0	1.7292693461794816e+18
14616.0	1.728921599790284e+18
14617.0	1.7285683185975293e+18
14618.0	1.7281700409114621e+18
14619.0	1.7275023496577014e+18
14620.0	1.7263478406381565e+18
14621.0	1.727124526753382e+18
14622.0	1.7267690762665981e+18
14623.0	1.7264183166894077e+18
14624.0	1.726006756481433e+18
14625.0	1.7257068419350525e+18
14626.0	1.7253532738519035e+18
14627.0	1.7249944712773632e+18
14628.0	1.7246468054188027e+18
14629.0	1.7242913935196157e+18
14630.0	1.72392553948119e+18
14631.0	1.7235807744032768e+18
14632.0	1.7226075163590656e+18
14633.0	1.722764047784345e+18
14634.0	1.7224978386649088e+18
14635.0	1.7217841140858865e+18
14636.0	1.720903689410969e+18
14637.0	1.721447417171148e+18
14638.0	1.7210644604387323e+18
14639.0	1.7207000291082235e+18
14640.0	1.7203721016442877e+18
14641.0	1.7176031848824812e+18
14642.0	1.7196558319615995e+18
14643.0	1.7193013008662525e+18
14644.0	1.7189286973538307e+18
14645.0	1.7185650595856381e+18
14646.0	1.718185402931609e+18
14647.0	1.7177755808432125e+18
14648.0	1.7174907053932541e+18
