# Flux units: erg / (cm m2 s)
# Wavelength units: Angstrom
wave	flux
14000.0	1.8095234189623283e+18
14001.0	1.8091880793243645e+18
14002.0	1.8089725927620603e+18
14003.0	1.8086306730999803e+18
14004.0	1.8082819435659256e+18
14005.0	1.8079414935879677e+18
14006.0	1.8075884355321853e+18
14007.0	1.807242288011673e+18
14008.0	1.80679769849856e+18
14009.0	1.8065612420939776e+18
14010.0	1.8062043353448443e+18
14011.0	1.8051914008625152e+18
14012.0	1.805528835974758e+18
14013.0	1.805185101017907e+18
14014.0	1.804835009173913e+18
14015.0	1.8044943259926525e+18
14016.0	1.8041528022728696e+18
14017.0	1.8038089129656323e+18
14018.0	1.8034594938879992e+18
14019.0	1.8031210336878587e+18
14020.0	1.8027765420785661e+18
14021.0	1.802431916251545e+18
14022.0	1.8020663759470587e+18
14023.0	1.8016897878458363e+18
14024.0	1.8013572466475003e+18
14025.0	1.8010542434156541e+18
14026.0	1.8007138890678272e+18
14027.0	1.8003726975369216e+18
14028.0	1.8000227365552123e+18
14029.0	1.799680420950835e+18
14030.0	1.7937194794614828e+18
14031.0	1.7988570908196854e+18
14032.0	1.7986463354322941e+18
14033.0	1.7982158001930235e+18
14034.0	1.7979605818277888e+18
14035.0	1.797628679841382e+18
14036.0	1.7972718469119995e+18
14037.0	1.796943360766771e+18
14038.0	1.7966028805898237e+18
14039.0	1.7962564042358784e+18
14040.0	1.7959107768090621e+18
14041.0	1.795572883678822e+18
14042.0	1.795221557031731e+18
14043.0	1.7948488729886712e+18
14044.0	1.7945344075628544e+18
14045.0	1.7942014855217147e+18
14046.0	1.7938624901283837e+18
14047.0	1.7934964481851384e+18
14048.0	1.793172991849267e+18
14049.0	1.792841972344422e+18
14050.0	1.7925008479223805e+18
14051.0	1.7921502611505147e+18
14052.0	1.7918144836272125e+18
14053.0	1.7914767918235648e+18
14054.0	1.791136061666099e+18
14055.0	1.790795039585075e+18
14056.0	1.7904540460253181e+18
14057.0	1.7901132034605053e+18
14058.0	1.7897723525070843e+18
14059.0	1.789419804478668e+18
14060.0	1.7890905767804928e+18
14061.0	1.7887430015188987e+18
14062.0	1.788409812720025e+18
14063.0	1.7880521023422461e+18
14064.0	1.7866567530315779e+18
14065.0	1.7873792588054525e+18
14066.0	1.7870480664952832e+18
14067.0	1.7866501847515133e+18
14068.0	1.7863662790246397e+18
14069.0	1.7860156855418877e+18
14070.0	1.7856848757522427e+18
14071.0	1.7853456320561147e+18
14072.0	1.7850090609704955e+18
14073.0	1.784669342479155e+18
14074.0	1.7843296256655355e+18
14075.0	1.7839671790796795e+18
14076.0	1.7835873563312128e+18
14077.0	1.7820212569047048e+18
14078.0	1.7828765174333437e+18
14079.0	1.7826217688301565e+18
14080.0	1.7822938430439424e+18
14081.0	1.7819549332144125e+18
14082.0	1.7816123021983736e+18
14083.0	1.7812740533911547e+18
14084.0	1.7809369722781693e+18
14085.0	1.779724759701913e+18
14086.0	1.7801548620890102e+18
14087.0	1.7799183805186043e+18
14088.0	1.7795547964375035e+18
14089.0	1.779198367839027e+18
14090.0	1.7788840416641021e+18
14091.0	1.7785683531792381e+18
14092.0	1.7782305070252027e+18
14093.0	1.777892337070899e+18
14094.0	1.7775540412874747e+18
14095.0	1.7772149334867965e+18
14096.0	1.7766221424361472e+18
14097.0	1.776486636217958e+18
14098.0	1.7759812074864637e+18
14099.0	1.775597881655296e+18
14100.0	1.775243944473395e+18
14101.0	1.7749240465850365e+18
14102.0	1.774586361492275e+18
14103.0	1.7742324914192384e+18
14104.0	1.7739089260314621e+18
14105.0	1.7735742188945403e+18
14106.0	1.7732372267007997e+18
14107.0	1.7728949647835133e+18
14108.0	1.7725419167940605e+18
14109.0	1.7722194469584893e+18
14110.0	1.7718801546084347e+18
14111.0	1.7715405887897595e+18
14112.0	1.7712040445476861e+18
14113.0	1.7708450138030075e+18
14114.0	1.770525587354419e+18
14115.0	1.7701949486923768e+18
14116.0	1.7697183230853115e+18
14117.0	1.7600062007803917e+18
14118.0	1.769181291112038e+18
14119.0	1.7687005550870525e+18
14120.0	1.7683873445969915e+18
14121.0	1.768150992211148e+18
14122.0	1.7676433975410688e+18
14123.0	1.7673891522543613e+18
14124.0	1.7670248282980352e+18
14125.0	1.7663444870234107e+18
14126.0	1.766480827069235e+18
14127.0	1.7661665243824128e+18
14128.0	1.7658342331645947e+18
14129.0	1.7654879833030653e+18
14130.0	1.7651451996143613e+18
14131.0	1.764826945893171e+18
14132.0	1.7644887625170941e+18
14133.0	1.763582336512818e+18
14134.0	1.7638208967802877e+18
14135.0	1.763446357177139e+18
14136.0	1.7629340279767037e+18
14137.0	1.762799016686387e+18
14138.0	1.7623702866755581e+18
14139.0	1.7621498424459261e+18
14140.0	1.76180736074711e+18
14141.0	1.761426538076569e+18
14142.0	1.7603949372637187e+18
14143.0	1.7608039641120768e+18
14144.0	1.7604784206905341e+18
14145.0	1.7601433494880253e+18
14146.0	1.759790521280102e+18
14147.0	1.7594648302190587e+18
14148.0	1.7591147098537981e+18
14149.0	1.75878494528471e+18
14150.0	1.7584735752552443e+18
14151.0	1.7581031527809021e+18
14152.0	1.757808122082099e+18
14153.0	1.7574743192371197e+18
14154.0	1.757114694578995e+18
14155.0	1.7561563464466432e+18
14156.0	1.756371130043596e+18
14157.0	1.75613964976128e+18
14158.0	1.755800802007449e+18
14159.0	1.7554736983048187e+18
14160.0	1.7551329715027963e+18
14161.0	1.7547449967050747e+18
14162.0	1.7543612212445174e+18
14163.0	1.7541336466980861e+18
14164.0	1.753505943938662e+18
14165.0	1.7533925333139453e+18
14166.0	1.753140829775462e+18
14167.0	1.7527952728129533e+18
14168.0	1.752454718816256e+18
14169.0	1.7521383525318653e+18
14170.0	1.7517967650586624e+18
14171.0	1.7514761725935616e+18
14172.0	1.75114887930839e+18
14173.0	1.750767466079846e+18
14174.0	1.7504734688575485e+18
14175.0	1.7501506886434813e+18
14176.0	1.7498174075699197e+18
14177.0	1.7494875272380413e+18
14178.0	1.7491559238860797e+18
14179.0	1.7488154688749565e+18
14180.0	1.7484936869052416e+18
14181.0	1.7481620650983421e+18
14182.0	1.7478295960420347e+18
14183.0	1.747498875171635e+18
14184.0	1.7471615960875005e+18
14185.0	1.746833128397209e+18
14186.0	1.744778922714727e+18
14187.0	1.7461403300397053e+18
14188.0	1.7458377059729405e+18
14189.0	1.7454953903685627e+18
14190.0	1.7451666508873723e+18
14191.0	1.7448278232662016e+18
14192.0	1.7445089269776384e+18
14193.0	1.7438909113827325e+18
14194.0	1.7438409152790525e+18
14195.0	1.7435271561740288e+18
14196.0	1.7431965527441405e+18
14197.0	1.7428661674180605e+18
14198.0	1.7425304184160253e+18
14199.0	1.7422025144401915e+18
14200.0	1.7407734244704264e+18
14201.0	1.7414812904456182e+18
14202.0	1.7412101890899963e+18
14203.0	1.7408737790656512e+18
14204.0	1.7403041422508027e+18
14205.0	1.7398194887458813e+18
14206.0	1.7393584323952637e+18
14207.0	1.7391624812232696e+18
14208.0	1.7388335706144768e+18
14209.0	1.738362518398566e+18
14210.0	1.738073631516262e+18
14211.0	1.737839834300416e+18
14212.0	1.7375147321196541e+18
14213.0	1.737174201611059e+18
14214.0	1.7368560636526587e+18
14215.0	1.7365081394249725e+18
14216.0	1.7361985813348347e+18
14217.0	1.7358701354549243e+18
14218.0	1.735529014388326e+18
14219.0	1.7352121884082176e+18
14220.0	1.7348725370257403e+18
14221.0	1.7345395092881405e+18
14222.0	1.7341029392842747e+18
14223.0	1.7338515947782141e+18
14224.0	1.7335250245910525e+18
14225.0	1.7297978351943703e+18
14226.0	1.732851248241049e+18
14227.0	1.7325386450862077e+18
14228.0	1.7237445753962522e+18
14229.0	1.7300741827854272e+18
14230.0	1.731554980134912e+18
14231.0	1.7311337629614075e+18
14232.0	1.7308999338688512e+18
14233.0	1.73056738763735e+18
14234.0	1.7302442634903547e+18
14235.0	1.7299136533495805e+18
14236.0	1.729588465605017e+18
14237.0	1.7292557868335104e+18
14238.0	1.7289288207040512e+18
14239.0	1.728583468423577e+18
14240.0	1.726515132969779e+18
14241.0	1.7279223253172221e+18
14242.0	1.7275804375318525e+18
14243.0	1.7270885480136704e+18
14244.0	1.7269272837357565e+18
14245.0	1.726583290409779e+18
14246.0	1.726251702157312e+18
14247.0	1.7259407297478656e+18
14248.0	1.725600145552179e+18
14249.0	1.7252891513323515e+18
14250.0	1.7249618563694587e+18
14251.0	1.7246375225851904e+18
14252.0	1.7243104239157248e+18
14253.0	1.7239825081958397e+18
14254.0	1.723653350961971e+18
14255.0	1.7232895051563003e+18
14256.0	1.7195475484540956e+18
14257.0	1.7225060242685944e+18
14258.0	1.72234801980375e+18
14259.0	1.7220017112219648e+18
14260.0	1.7215869180444672e+18
14261.0	1.721349126173491e+18
14262.0	1.7210597728845821e+18
14263.0	1.7157475862052897e+18
14264.0	1.7194216337702897e+18
14265.0	1.7200392181907453e+18
14266.0	1.7197197917421565e+18
14267.0	1.719396172667289e+18
14268.0	1.7190666580787195e+18
14269.0	1.7187350966697981e+18
14270.0	1.718418649854771e+18
14271.0	1.7180911669870587e+18
14272.0	1.717764521302425e+18
14273.0	1.7174272153747453e+18
14274.0	1.7095677456678948e+18
14275.0	1.7160715525685253e+18
14276.0	1.7164436896743421e+18
14277.0	1.716122392566169e+18
14278.0	1.7158141732978688e+18
14279.0	1.7154882070904827e+18
14280.0	1.7151569409605627e+18
14281.0	1.7148395965644797e+18
14282.0	1.7145149188472827e+18
14283.0	1.7141899122966525e+18
14284.0	1.7138647513956347e+18
14285.0	1.7135380956446715e+18
14286.0	1.7132020228423675e+18
14287.0	1.712889813952102e+18
14288.0	1.712565186566553e+18
14289.0	1.7111104207454188e+18
14290.0	1.7118885077581821e+18
14291.0	1.7115519433834493e+18
14292.0	1.7112284719480827e+18
14293.0	1.7109013816672253e+18
14294.0	1.7104294201262077e+18
14295.0	1.7102400640778237e+18
14296.0	1.709017459693978e+18
14297.0	1.7096034509389821e+18
14298.0	1.7082453319483384e+18
14299.0	1.7089294027980797e+18
14300.0	1.7086268324184061e+18
14301.0	1.708307145922969e+18
14302.0	1.7079843589980157e+18
14303.0	1.707623910578585e+18
14304.0	1.7073170938855421e+18
14305.0	1.707007836107571e+18
14306.0	1.7066139825733627e+18
14307.0	1.7063055049359357e+18
14308.0	1.706010313175859e+18
14309.0	1.7056530943705088e+18
14310.0	1.7050799662170107e+18
14311.0	1.7038012353347581e+18
14312.0	1.7044781137919997e+18
14313.0	1.7042371829039104e+18
14314.0	1.7040343715282941e+18
14315.0	1.7037620756348925e+18
14316.0	1.703394228463206e+18
14317.0	1.7030024687255547e+18
14318.0	1.7027751542259707e+18
14319.0	1.702452905849651e+18
14320.0	1.702130722904473e+18
14321.0	1.701806563603251e+18
14322.0	1.7014449609113595e+18
14323.0	1.7011445564702712e+18
14324.0	1.7008414391533565e+18
14325.0	1.7005113121964024e+18
14326.0	1.7001991100170237e+18
14327.0	1.6998700517687293e+18
14328.0	1.699547560122777e+18
14329.0	1.6992327339868157e+18
14330.0	1.698910587951513e+18
14331.0	1.6985784712167421e+18
14332.0	1.6982665693495293e+18
14333.0	1.697944639740313e+18
14334.0	1.6976226748989437e+18
14335.0	1.6972850451709947e+18
14336.0	1.6966231454121984e+18
14337.0	1.696653953413939e+18
14338.0	1.6963319566958584e+18
14339.0	1.6959964845178875e+18
14340.0	1.6956898876063741e+18
14341.0	1.695345637588992e+18
14342.0	1.695047573569536e+18
14343.0	1.6947244410339325e+18
14344.0	1.6943972517675003e+18
14345.0	1.694082759498137e+18
14346.0	1.6937484936019965e+18
14347.0	1.6932839979220987e+18
14348.0	1.6931125918171133e+18
14349.0	1.6927998695440384e+18
14350.0	1.6921673097805821e+18
14351.0	1.6918166005350395e+18
14352.0	1.691791798776627e+18
14353.0	1.691478851688857e+18
14354.0	1.6911240152481787e+18
14355.0	1.690735500224102e+18
14356.0	1.6904403738951675e+18
14357.0	1.690198474961715e+18
14358.0	1.6898778338426877e+18
14359.0	1.6895424237404157e+18
14360.0	1.6890153909878781e+18
14361.0	1.688469124834918e+18
14362.0	1.6881595046690816e+18
14363.0	1.687838393788006e+18
14364.0	1.6866580294008832e+18
14365.0	1.6870202595606518e+18
14366.0	1.68671708184576e+18
14367.0	1.6865606913490936e+18
14368.0	1.686240405907046e+18
14369.0	1.685921189173657e+18
14370.0	1.685602140212428e+18
14371.0	1.68528363651072e+18
14372.0	1.6849565898506235e+18
14373.0	1.6846368849002493e+18
14374.0	1.6843241156509693e+18
14375.0	1.6840028890071037e+18
14376.0	1.683685849956352e+18
14377.0	1.6833657540968443e+18
14378.0	1.6830441348661243e+18
14379.0	1.6827278038138875e+18
14380.0	1.6824072079933437e+18
14381.0	1.682077252163993e+18
14382.0	1.6817685664890883e+18
14383.0	1.6814453014134781e+18
14384.0	1.6811126629072893e+18
14385.0	1.6808132516773888e+18
14386.0	1.6803891085574141e+18
14387.0	1.6797622614360061e+18
14388.0	1.679441148877209e+18
14389.0	1.6791240393621504e+18
14390.0	1.67880313316311e+18
14391.0	1.6784827218919421e+18
14392.0	1.678165677808025e+18
14393.0	1.6778490078560253e+18
14394.0	1.6774899066470397e+18
14395.0	1.6771839439142907e+18
14396.0	1.6768919314366456e+18
14397.0	1.6765747615236093e+18
14398.0	1.6762553065537533e+18
14399.0	1.675936457241395e+18
14400.0	1.6755916669976568e+18
14401.0	1.6752927137857533e+18
14402.0	1.6749797935415293e+18
14403.0	1.6732125621387244e+18
14404.0	1.668876408455166e+18
14405.0	1.67207940548198e+18
14406.0	1.6737063692926976e+18
14407.0	1.6713251807035397e+18
14408.0	1.6729991794393085e+18
14409.0	1.6727323428519933e+18
14410.0	1.6723700741046272e+18
14411.0	1.672115481529548e+18
14412.0	1.6717974811443195e+18
14413.0	1.6714840290623485e+18
14414.0	1.67116341814231e+18
14415.0	1.6708468807303165e+18
14416.0	1.6705075095273472e+18
14417.0	1.6701455176040443e+18
14418.0	1.6697754222854144e+18
14419.0	1.6695745402896381e+18
14420.0	1.6692534512189437e+18
14421.0	1.6689407289458685e+18
14422.0	1.6686168749899776e+18
14423.0	1.6682619664072704e+18
14424.0	1.6593778684985303e+18
14425.0	1.6676552334901243e+18
14426.0	1.6673541445386237e+18
14427.0	1.6670264871878653e+18
14428.0	1.6666629635047421e+18
14429.0	1.6663630506360824e+18
14430.0	1.666049581776896e+18
14431.0	1.6641988182933507e+18
14432.0	1.6654101081227261e+18
14433.0	1.663539768983551e+18
14434.0	1.6647624622866432e+18
14435.0	1.6642679639113725e+18
14436.0	1.6641484178587648e+18
14437.0	1.6638339121676285e+18
14438.0	1.6633279331434493e+18
14439.0	1.6631777300840443e+18
14440.0	1.6628834308718592e+18
14441.0	1.662556823774822e+18
14442.0	1.6622341777784824e+18
14443.0	1.66187165066199e+18
14444.0	1.661612229604147e+18
14445.0	1.6613008276979707e+18
14446.0	1.6586601173876744e+18
14447.0	1.6606529939570685e+18
14448.0	1.6603525408620541e+18
14449.0	1.6600339985727485e+18
14450.0	1.6597141594046461e+18
14451.0	1.6594016753680381e+18
14452.0	1.6590849668284413e+18
14453.0	1.6587445688598525e+18
14454.0	1.658446003201638e+18
14455.0	1.6581256540061693e+18
14456.0	1.6577988791369725e+18
14457.0	1.6574905273286653e+18
14458.0	1.6571716629168123e+18
14459.0	1.6568476378333181e+18
14460.0	1.6565039230091261e+18
14461.0	1.6559941003247608e+18
14462.0	1.6547291955462144e+18
14463.0	1.6554902033530875e+18
14464.0	1.6552581392236541e+18
14465.0	1.6549343792201728e+18
14466.0	1.654651704940953e+18
14467.0	1.6543059298746365e+18
14468.0	1.6540236918030339e+18
14469.0	1.6535700442710013e+18
14470.0	1.6533626057392125e+18
14471.0	1.6530741315764224e+18
14472.0	1.6527630836695037e+18
14473.0	1.6524524249939965e+18
14474.0	1.6521427444301821e+18
14475.0	1.6518242021408765e+18
14476.0	1.651409717664153e+18
14477.0	1.6511591801421821e+18
14478.0	1.6508453941936123e+18
14479.0	1.6505235719585792e+18
14480.0	1.6501961645883384e+18
14481.0	1.6499040246038528e+18
14482.0	1.6495847525056507e+18
14483.0	1.6492621786513403e+18
14484.0	1.648947473311334e+18
14485.0	1.6486026511908861e+18
14486.0	1.6479861908439037e+18
14487.0	1.648004110588313e+18
14488.0	1.6475890103877632e+18
14489.0	1.647237541134336e+18
14490.0	1.6470381825097728e+18
14491.0	1.64675483378647e+18
14492.0	1.6463543901618176e+18
14493.0	1.645843817535897e+18
14494.0	1.6455226127024125e+18
14495.0	1.6452388143497213e+18
14496.0	1.644770857530163e+18
14497.0	1.64460982477783e+18
14498.0	1.6442968491687933e+18
14499.0	1.6439828518273021e+18
14500.0	1.6436681615867904e+18
14501.0	1.64330564789207e+18
14502.0	1.6427070972231683e+18
14503.0	1.6426774770483197e+18
14504.0	1.6424043406163965e+18
14505.0	1.642054903083827e+18
14506.0	1.6416958656282621e+18
14507.0	1.6411857342431232e+18
14508.0	1.641154845710745e+18
14509.0	1.640840996008755e+18
14510.0	1.6405231600402432e+18
14511.0	1.6402124912984061e+18
14512.0	1.6398807470178304e+18
14513.0	1.639584567079731e+18
14514.0	1.6392307876036605e+18
14515.0	1.6389551161343997e+18
14516.0	1.6357535351046167e+18
14517.0	1.638325532649062e+18
14518.0	1.6380145820499963e+18
14519.0	1.6376982442868739e+18
14520.0	1.637385995131289e+18
14521.0	1.6370720833535995e+18
14522.0	1.6367485699751933e+18
14523.0	1.6362075752235005e+18
14524.0	1.6360275120750584e+18
14525.0	1.6358111849742328e+18
14526.0	1.6354966021079037e+18
14527.0	1.6351599471362043e+18
14528.0	1.634709250716467e+18
14529.0	1.6345497010700285e+18
14530.0	1.6342287093071872e+18
14531.0	1.633932572989849e+18
14532.0	1.6334846632656893e+18
14533.0	1.6332826051870715e+18
14534.0	1.6329610648092672e+18
14535.0	1.6326352009428984e+18
14536.0	1.6323291878785021e+18
14537.0	1.6320055755145216e+18
14538.0	1.6317059713466368e+18
14539.0	1.63139231458263e+18
14540.0	1.631078518567731e+18
14541.0	1.630739697657446e+18
14542.0	1.630448576049971e+18
14543.0	1.630064149633433e+18
14544.0	1.6298222356004861e+18
14545.0	1.6294926086045693e+18
14546.0	1.618384848420858e+18
14547.0	1.6187993530302395e+18
14548.0	1.6280469964324861e+18
14549.0	1.627611421317529e+18
14550.0	1.6274271588319232e+18
14551.0	1.6271232429195261e+18
14552.0	1.626807499069849e+18
14553.0	1.6264856483135485e+18
14554.0	1.6261816334155776e+18
14555.0	1.6258672199991293e+18
14556.0	1.6255510382641147e+18
14557.0	1.6252390525108221e+18
14558.0	1.6249226140844032e+18
14559.0	1.6224455386726367e+18
14560.0	1.6242497621590013e+18
14561.0	1.623973488387686e+18
14562.0	1.623609468098969e+18
14563.0	1.6233443645980667e+18
14564.0	1.6228968021622781e+18
14565.0	1.622727360669286e+18
14566.0	1.6224137273933821e+18
14567.0	1.6220914353963005e+18
14568.0	1.6216625879449597e+18
14569.0	1.621464081602969e+18
14570.0	1.620480827693465e+18
14571.0	1.6208373754101757e+18
14572.0	1.620424207944908e+18
14573.0	1.6201401696780285e+18
14574.0	1.6195797653651456e+18
14575.0	1.6195458804219901e+18
14576.0	1.6192221757833213e+18
14577.0	1.6189514452041725e+18
14578.0	1.6186347467309053e+18
14579.0	1.6183291077984256e+18
14580.0	1.618012837144166e+18
14581.0	1.617683132973056e+18
14582.0	1.6173641930637307e+18
14583.0	1.6170720816005115e+18
14584.0	1.6166876887384067e+18
14585.0	1.6164442077134843e+18
14586.0	1.6161276132589565e+18
14587.0	1.6158151560658941e+18
14588.0	1.6155026133090301e+18
14589.0	1.615195226190643e+18
14590.0	1.6148883004456957e+18
14591.0	1.614563337515827e+18
14592.0	1.614261463390617e+18
14593.0	1.6138279451623421e+18
14594.0	1.6136558260256765e+18
14595.0	1.613338362511359e+18
14596.0	1.612218162898533e+18
14597.0	1.6117418308927475e+18
14598.0	1.6123032502271997e+18
14599.0	1.6120793599574016e+18
14600.0	1.6117459849314301e+18
14601.0	1.6114506421764088e+18
14602.0	1.6110779832991741e+18
14603.0	1.6108315629060093e+18
14604.0	1.6104080220880888e+18
14605.0	1.6100221461200893e+18
14606.0	1.6098075235844096e+18
14607.0	1.609590204950118e+18
14608.0	1.6092869165055997e+18
14609.0	1.6089515919671293e+18
14610.0	1.6083436041142272e+18
14611.0	1.6083058973212667e+18
14612.0	1.6080561449730048e+18
14613.0	1.607756044199526e+18
14614.0	1.6074416140058621e+18
14615.0	1.6071314938789885e+18
14616.0	1.606834104303616e+18
14617.0	1.6065159311130621e+18
14618.0	1.6061539979100157e+18
14619.0	1.6053022287200238e+18
14620.0	1.6035438305214461e+18
14621.0	1.6052865571225597e+18
14622.0	1.6049752407801856e+18
14623.0	1.6046694122651643e+18
14624.0	1.604292230250496e+18
14625.0	1.604046502756352e+18
14626.0	1.6037339683880957e+18
14627.0	1.603419049977446e+18
14628.0	1.6031201101873147e+18
14629.0	1.6028092468297725e+18
14630.0	1.6024753198333947e+18
14631.0	1.602185196470272e+18
14632.0	1.6011904887554048e+18
14633.0	1.6014361877282808e+18
14634.0	1.601227219114393e+18
14635.0	1.599973556748285e+18
14636.0	1.5984058030882803e+18
14637.0	1.6003246283816957e+18
14638.0	1.5999644249096187e+18
14639.0	1.599643265374617e+18
14640.0	1.5993845086945277e+18
14641.0	1.596428225662155e+18
14642.0	1.5987570089394176e+18
14643.0	1.5984434343837693e+18
14644.0	1.5981100258033661e+18
14645.0	1.5977916647079933e+18
14646.0	1.597434746214809e+18
14647.0	1.597022385733632e+18
