# Flux units: erg / (cm m2 s)
# Wavelength units: Angstrom
wave	flux
14000.0	2.232318189318963e+18
14001.0	2.2318446859517947e+18
14002.0	2.2314357614444544e+18
14003.0	2.2309759298306045e+18
14004.0	2.2305156267769853e+18
14005.0	2.2300551962165243e+18
14006.0	2.2295894959325184e+18
14007.0	2.2291268340023293e+18
14008.0	2.2285990395641848e+18
14009.0	2.2282101134983165e+18
14010.0	2.227741398348595e+18
14011.0	2.2268495903326203e+18
14012.0	2.2268317930618877e+18
14013.0	2.2263753370238973e+18
14014.0	2.225911398347571e+18
14015.0	2.225455165446553e+18
14016.0	2.2249977128419323e+18
14017.0	2.224538753643315e+18
14018.0	2.224079670293299e+18
14019.0	2.2236208771891195e+18
14020.0	2.2231614515838973e+18
14021.0	2.2227021954285565e+18
14022.0	2.2222433771585533e+18
14023.0	2.2217750646620157e+18
14024.0	2.2213160282882045e+18
14025.0	2.220869269481062e+18
14026.0	2.220410050235596e+18
14027.0	2.2199534079705083e+18
14028.0	2.2194953580969984e+18
14029.0	2.2190360163778557e+18
14030.0	2.2181657872171008e+18
14031.0	2.2180883637207032e+18
14032.0	2.2176627576274944e+18
14033.0	2.2171721532440573e+18
14034.0	2.216749578793779e+18
14035.0	2.2162934633332733e+18
14036.0	2.2158367338266621e+18
14037.0	2.2153799808319483e+18
14038.0	2.214923281524326e+18
14039.0	2.214463012025139e+18
14040.0	2.2140052809187323e+18
14041.0	2.2135516602302461e+18
14042.0	2.2130888405942267e+18
14043.0	2.2126122451861501e+18
14044.0	2.2121770744020992e+18
14045.0	2.2117268829765627e+18
14046.0	2.2112687072739328e+18
14047.0	2.2108110147551227e+18
14048.0	2.210360927348326e+18
14049.0	2.2099063000268795e+18
14050.0	2.2094509076643837e+18
14051.0	2.208988945344102e+18
14052.0	2.208536400075161e+18
14053.0	2.2080851634290683e+18
14054.0	2.2076303951790075e+18
14055.0	2.2071755346542587e+18
14056.0	2.2067207596933115e+18
14057.0	2.2062661306941432e+18
14058.0	2.2058115939696632e+18
14059.0	2.2053571511975933e+18
14060.0	2.2049028074110973e+18
14061.0	2.204443774392729e+18
14062.0	2.2039942725107704e+18
14063.0	2.2035278575173624e+18
14064.0	2.2030217660858365e+18
14065.0	2.2026264730664955e+18
14066.0	2.2021791589335037e+18
14067.0	2.2017217415610363e+18
14068.0	2.201272194380595e+18
14069.0	2.2008177247649787e+18
14070.0	2.2003653321687037e+18
14071.0	2.199910478354841e+18
14072.0	2.1994595638312957e+18
14073.0	2.1990066343641085e+18
14074.0	2.19855382904832e+18
14075.0	2.1980863721897981e+18
14076.0	2.1976436684357624e+18
14077.0	2.1971028364230653e+18
14078.0	2.1967360277610493e+18
14079.0	2.1962830714503168e+18
14080.0	2.195839335897497e+18
14081.0	2.1953874063523837e+18
14082.0	2.1949332387266555e+18
14083.0	2.1944822419947515e+18
14084.0	2.194029931606835e+18
14085.0	2.193360159978291e+18
14086.0	2.1931173064212475e+18
14087.0	2.192676998453657e+18
14088.0	2.1922165158838264e+18
14089.0	2.19177159753728e+18
14090.0	2.1913232146956283e+18
14091.0	2.1908734057906173e+18
14092.0	2.190422727825817e+18
14093.0	2.1899720028848123e+18
14094.0	2.189521242711654e+18
14095.0	2.18907003626455e+18
14096.0	2.188602644837171e+18
14097.0	2.1881541076451323e+18
14098.0	2.187711848487321e+18
14099.0	2.1872694148464637e+18
14100.0	2.1868113918164992e+18
14101.0	2.1863704731582461e+18
14102.0	2.1859206189547517e+18
14103.0	2.1854610658426875e+18
14104.0	2.1850217779298307e+18
14105.0	2.18457214854103e+18
14106.0	2.1841230308573181e+18
14107.0	2.183673166587494e+18
14108.0	2.183214729160294e+18
14109.0	2.1827719280984061e+18
14110.0	2.1823234462711805e+18
14111.0	2.1818706627657723e+18
14112.0	2.18142218429399e+18
14113.0	2.1809805559595005e+18
14114.0	2.1805206186491901e+18
14115.0	2.1800810841112573e+18
14116.0	2.179610634197401e+18
14117.0	2.178462696813363e+18
14118.0	2.1787331656679421e+18
14119.0	2.1782743406870525e+18
14120.0	2.1778333733748733e+18
14121.0	2.1773836299010043e+18
14122.0	2.1769414982500347e+18
14123.0	2.176490966247014e+18
14124.0	2.176039836975104e+18
14125.0	2.175245273058508e+18
14126.0	2.1751559159283704e+18
14127.0	2.1747120881008637e+18
14128.0	2.174264794100531e+18
14129.0	2.1738092071223296e+18
14130.0	2.1733541503041533e+18
14131.0	2.1729254622363643e+18
14132.0	2.172470328242995e+18
14133.0	2.171611255930879e+18
14134.0	2.1715817867509755e+18
14135.0	2.1711272131166203e+18
14136.0	2.1706831386640381e+18
14137.0	2.1702455653826555e+18
14138.0	2.1697958084870136e+18
14139.0	2.1693562001293304e+18
14140.0	2.1689059231399928e+18
14141.0	2.1684531798999032e+18
14142.0	2.1679725009174525e+18
14143.0	2.1675698343116792e+18
14144.0	2.1671302796410875e+18
14145.0	2.1666856934834173e+18
14146.0	2.1662396611297275e+18
14147.0	2.165795142080921e+18
14148.0	2.1653497892044795e+18
14149.0	2.1649051980136445e+18
14150.0	2.1644625815011325e+18
14151.0	2.1640136483667963e+18
14152.0	2.1635740047769592e+18
14153.0	2.1631297004765181e+18
14154.0	2.1626640354246648e+18
14155.0	2.1622283042815995e+18
14156.0	2.161795530961715e+18
14157.0	2.161353837196083e+18
14158.0	2.160907038123622e+18
14159.0	2.1604665305071616e+18
14160.0	2.160015605917286e+18
14161.0	2.1595337592406016e+18
14162.0	2.1590527715573752e+18
14163.0	2.1586892847841277e+18
14164.0	2.158221019263795e+18
14165.0	2.157756058855014e+18
14166.0	2.157360376604262e+18
14167.0	2.1569093597396987e+18
14168.0	2.1564777927016443e+18
14169.0	2.156036989806182e+18
14170.0	2.1555922291654653e+18
14171.0	2.15515032232919e+18
14172.0	2.154709965707673e+18
14173.0	2.1542360546541565e+18
14174.0	2.1538206457528317e+18
14175.0	2.1533843609616376e+18
14176.0	2.152942787991961e+18
14177.0	2.1525011781124093e+18
14178.0	2.1520586521968637e+18
14179.0	2.1516120041193467e+18
14180.0	2.1511769188990968e+18
14181.0	2.1507357200613373e+18
14182.0	2.1502939910635515e+18
14183.0	2.14985341969367e+18
14184.0	2.149408219489894e+18
14185.0	2.1489694785142776e+18
14186.0	2.1483821920681981e+18
14187.0	2.1480654768177147e+18
14188.0	2.1476485780996093e+18
14189.0	2.147207896000102e+18
14190.0	2.1467679755862016e+18
14191.0	2.1463273505292283e+18
14192.0	2.1458817157955584e+18
14193.0	2.1454264861720573e+18
14194.0	2.145007513790054e+18
14195.0	2.144569628452454e+18
14196.0	2.144050536356249e+18
14197.0	2.1435054395752445e+18
14198.0	2.1430618231406587e+18
14199.0	2.142623723054694e+18
14200.0	2.1421060285005821e+18
14201.0	2.1417396778565627e+18
14202.0	2.1413066126131195e+18
14203.0	2.1408606926667773e+18
14204.0	2.1404256946880502e+18
14205.0	2.1399860812972024e+18
14206.0	2.1394511515090936e+18
14207.0	2.1391089902551037e+18
14208.0	2.138671262623334e+18
14209.0	2.1381280784449533e+18
14210.0	2.137718798260633e+18
14211.0	2.13735124804567e+18
14212.0	2.136916815459123e+18
14213.0	2.1364788177141752e+18
14214.0	2.1359620643618816e+18
14215.0	2.1354029569277947e+18
14216.0	2.134973178340966e+18
14217.0	2.13453473096663e+18
14218.0	2.1340860713009147e+18
14219.0	2.1336579737911293e+18
14220.0	2.1332199039041533e+18
14221.0	2.1327804566077437e+18
14222.0	2.1323302786039805e+18
14223.0	2.1319054660730877e+18
14224.0	2.131467070708121e+18
14225.0	2.1307953227235325e+18
14226.0	2.1305876073676792e+18
14227.0	2.1301540455186427e+18
14228.0	2.1291814686294016e+18
14229.0	2.1291766284025853e+18
14230.0	2.128842989974323e+18
14231.0	2.1284004120494077e+18
14232.0	2.1279696201187325e+18
14233.0	2.127529718159769e+18
14234.0	2.1269831349174267e+18
14235.0	2.1264589526138875e+18
14236.0	2.126023557015142e+18
14237.0	2.1255854233747453e+18
14238.0	2.1251485950017533e+18
14239.0	2.1247046799327227e+18
14240.0	2.1231493363793915e+18
14241.0	2.1238281056288765e+18
14242.0	2.123397649242521e+18
14243.0	2.1228451990077437e+18
14244.0	2.122529270608691e+18
14245.0	2.122083171146137e+18
14246.0	2.121644925098393e+18
14247.0	2.1212177318805501e+18
14248.0	2.120774969406259e+18
14249.0	2.1203485278076925e+18
14250.0	2.1199126926458875e+18
14251.0	2.1194789512806395e+18
14252.0	2.119043248658841e+18
14253.0	2.1186069185691643e+18
14254.0	2.1181698553151483e+18
14255.0	2.1177101126205437e+18
14256.0	2.1170475585503235e+18
14257.0	2.1166865078288381e+18
14258.0	2.1162262718840827e+18
14259.0	2.1157749983281147e+18
14260.0	2.1153466558709755e+18
14261.0	2.1149026552381437e+18
14262.0	2.1145072951099392e+18
14263.0	2.1137033527295995e+18
14264.0	2.113532176472473e+18
14265.0	2.113199329928806e+18
14266.0	2.112771371669913e+18
14267.0	2.1123373249593336e+18
14268.0	2.1119028974059517e+18
14269.0	2.1114606516699133e+18
14270.0	2.1110337168211965e+18
14271.0	2.110598366520934e+18
14272.0	2.1101632745897981e+18
14273.0	2.1097205658025981e+18
14274.0	2.1087054804811773e+18
14275.0	2.1087893413953533e+18
14276.0	2.1084123556741115e+18
14277.0	2.1079838555111421e+18
14278.0	2.1075611384545275e+18
14279.0	2.107126954170777e+18
14280.0	2.1066892013731835e+18
14281.0	2.1062613370667005e+18
14282.0	2.1056913445748733e+18
14283.0	2.1051455683166205e+18
14284.0	2.1047117229326336e+18
14285.0	2.1042778121175037e+18
14286.0	2.1038437805064187e+18
14287.0	2.103410129738137e+18
14288.0	2.102973244322611e+18
14289.0	2.1018185541091313e+18
14290.0	2.1021060484825083e+18
14291.0	2.1016759427399677e+18
14292.0	2.1012439327834104e+18
14293.0	2.1008086160375803e+18
14294.0	2.1002701965885435e+18
14295.0	2.0999293825449981e+18
14296.0	2.098927361641677e+18
14297.0	2.099069897513369e+18
14298.0	2.0984879579660288e+18
14299.0	2.0982012454109181e+18
14300.0	2.0977751427121147e+18
14301.0	2.097345755034419e+18
14302.0	2.096915820419481e+18
14303.0	2.0964551029686267e+18
14304.0	2.096039387044249e+18
14305.0	2.095618832570777e+18
14306.0	2.0951745400143867e+18
14307.0	2.0947474139054077e+18
14308.0	2.094321182022041e+18
14309.0	2.0938848552878075e+18
14310.0	2.0932301982531581e+18
14311.0	2.092786294928179e+18
14312.0	2.0923561858301947e+18
14313.0	2.0918992801628157e+18
14314.0	2.0915203432513533e+18
14315.0	2.09109151425495e+18
14316.0	2.090621393174528e+18
14317.0	2.0902211592650747e+18
14318.0	2.089800074631577e+18
14319.0	2.089370091362713e+18
14320.0	2.0889387541725181e+18
14321.0	2.088505605042995e+18
14322.0	2.0880460099878904e+18
14323.0	2.0876296464629752e+18
14324.0	2.087215504241459e+18
14325.0	2.086775957959475e+18
14326.0	2.0863542391472125e+18
14327.0	2.0859177714843643e+18
14328.0	2.0854880281296893e+18
14329.0	2.0850625579319293e+18
14330.0	2.08463216026583e+18
14331.0	2.0842015914721277e+18
14332.0	2.0837715041845245e+18
14333.0	2.0833413330108416e+18
14334.0	2.082911166870323e+18
14335.0	2.0824721457151997e+18
14336.0	2.0820235162484733e+18
14337.0	2.0816184437899261e+18
14338.0	2.0811889386717181e+18
14339.0	2.0807515549728765e+18
14340.0	2.0803317017870328e+18
14341.0	2.0799011833249787e+18
14342.0	2.0793015119380477e+18
14343.0	2.0788309731049467e+18
14344.0	2.0783990319349755e+18
14345.0	2.07797361877975e+18
14346.0	2.077541295089254e+18
14347.0	2.0771028326154237e+18
14348.0	2.0766829794295805e+18
14349.0	2.0762544926883837e+18
14350.0	2.075804351594496e+18
14351.0	2.0753696438616056e+18
14352.0	2.0749591406182397e+18
14353.0	2.0745361366712315e+18
14354.0	2.0741048967888896e+18
14355.0	2.0736711923335165e+18
14356.0	2.0732436283391997e+18
14357.0	2.0728208408182781e+18
14358.0	2.072391984978329e+18
14359.0	2.0719492040491005e+18
14360.0	2.071532322108211e+18
14361.0	2.071104660806041e+18
14362.0	2.07067683005399e+18
14363.0	2.070247590015795e+18
14364.0	2.0697541318279163e+18
14365.0	2.0693731715842043e+18
14366.0	2.0689517111410683e+18
14367.0	2.0685348761763837e+18
14368.0	2.0681063944683515e+18
14369.0	2.0676787281330173e+18
14370.0	2.0672507732295677e+18
14371.0	2.066822939122073e+18
14372.0	2.0663905902657533e+18
14373.0	2.065966945429094e+18
14374.0	2.0655393629798392e+18
14375.0	2.0651116798672896e+18
14376.0	2.0646839682334715e+18
14377.0	2.0642558489133056e+18
14378.0	2.0637995572920317e+18
14379.0	2.0631919502819328e+18
14380.0	2.0627630424326144e+18
14381.0	2.0623256587337728e+18
14382.0	2.0619065856884733e+18
14383.0	2.0614765889978365e+18
14384.0	2.0610357508702203e+18
14385.0	2.0606245664718843e+18
14386.0	2.060183741766041e+18
14387.0	2.0597690526072827e+18
14388.0	2.0593402487767037e+18
14389.0	2.0589138038226936e+18
14390.0	2.0584852264845307e+18
14391.0	2.0580594995953661e+18
14392.0	2.057631309810892e+18
14393.0	2.0572051819462653e+18
14394.0	2.0567456841990144e+18
14395.0	2.0563413197389821e+18
14396.0	2.0559237633540093e+18
14397.0	2.055496893936435e+18
14398.0	2.0550693785960443e+18
14399.0	2.054642608164044e+18
14400.0	2.0542014596579325e+18
14401.0	2.0537820074475515e+18
14402.0	2.053354024022835e+18
14403.0	2.0520666243530737e+18
14404.0	2.0491728498720753e+18
14405.0	2.0508793880182753e+18
14406.0	2.0516430902460408e+18
14407.0	2.0500611766157315e+18
14408.0	2.0507758457520125e+18
14409.0	2.0503621816811517e+18
14410.0	2.0499470781251581e+18
14411.0	2.0495260824109053e+18
14412.0	2.0490986945773565e+18
14413.0	2.0486756637868027e+18
14414.0	2.0482477676036093e+18
14415.0	2.047822794011443e+18
14416.0	2.047396644336435e+18
14417.0	2.046965369221939e+18
14418.0	2.0465352534130688e+18
14419.0	2.0460670382243835e+18
14420.0	2.0454833739792376e+18
14421.0	2.045059459029401e+18
14422.0	2.0446253670203387e+18
14423.0	2.0441639432486907e+18
14424.0	2.0390013170614244e+18
14425.0	2.0433086978195456e+18
14426.0	2.042925616935731e+18
14427.0	2.042504931599974e+18
14428.0	2.042061040019046e+18
14429.0	2.0416517950668797e+18
14430.0	2.0412284320874493e+18
14431.0	2.0406932321861627e+18
14432.0	2.0403673330876408e+18
14433.0	2.0390656140640248e+18
14434.0	2.0395075343220733e+18
14435.0	2.0390826999808e+18
14436.0	2.038676162871296e+18
14437.0	2.038251487913574e+18
14438.0	2.0377966894645245e+18
14439.0	2.0373916086173696e+18
14440.0	2.0369755823144955e+18
14441.0	2.036546206380851e+18
14442.0	2.0361174998581243e+18
14443.0	2.0356612216586237e+18
14444.0	2.0352708141645821e+18
14445.0	2.034845458051891e+18
14446.0	2.0330399410421765e+18
14447.0	2.0339740746186747e+18
14448.0	2.0335752583839736e+18
14449.0	2.0331519910346747e+18
14450.0	2.0327224590729208e+18
14451.0	2.032301644552601e+18
14452.0	2.03187532374999e+18
14453.0	2.031439678170726e+18
14454.0	2.031028186749337e+18
14455.0	2.030596634810777e+18
14456.0	2.0301757364043768e+18
14457.0	2.0297497394020352e+18
14458.0	2.0293278494621693e+18
14459.0	2.028900954878771e+18
14460.0	2.0284747347394555e+18
14461.0	2.0280306820972536e+18
14462.0	2.0276012843532283e+18
14463.0	2.027195918293401e+18
14464.0	2.0267809120452603e+18
14465.0	2.0263431693139965e+18
14466.0	2.0259339612717056e+18
14467.0	2.025488333248921e+18
14468.0	2.025084472105369e+18
14469.0	2.0244688472637437e+18
14470.0	2.0240156124512256e+18
14471.0	2.023608202926489e+18
14472.0	2.0231866653081597e+18
14473.0	2.02276684735447e+18
14474.0	2.022344665491046e+18
14475.0	2.0219175075053558e+18
14476.0	2.0214413231390715e+18
14477.0	2.0210723569270776e+18
14478.0	2.020646344825241e+18
14479.0	2.0202243340894203e+18
14480.0	2.019785725653811e+18
14481.0	2.0193769957621755e+18
14482.0	2.0189494451896317e+18
14483.0	2.0185201883742205e+18
14484.0	2.0180933843877883e+18
14485.0	2.017646219572019e+18
14486.0	2.017010035929907e+18
14487.0	2.0168305381736445e+18
14488.0	2.0164008183070717e+18
14489.0	2.0159752944222203e+18
14490.0	2.0155590969917437e+18
14491.0	2.0151366215270392e+18
14492.0	2.0147144128200701e+18
14493.0	2.0142862951776253e+18
14494.0	2.0138485742567421e+18
14495.0	2.0134406815481848e+18
14496.0	2.012908068693606e+18
14497.0	2.0125942139584512e+18
14498.0	2.0121724397813755e+18
14499.0	2.0116822716055547e+18
14500.0	2.011215418726809e+18
14501.0	2.010759536469606e+18
14502.0	2.0101871213477888e+18
14503.0	2.009928565994291e+18
14504.0	2.009516229001216e+18
14505.0	2.0090687538069496e+18
14506.0	2.0086191898492925e+18
14507.0	2.00804890878935e+18
14508.0	2.007827514969292e+18
14509.0	2.0074058196451325e+18
14510.0	2.0069803242815488e+18
14511.0	2.0065588168622077e+18
14512.0	2.0061230085439483e+18
14513.0	2.0057115271888896e+18
14514.0	2.0052611461808125e+18
14515.0	2.004859786520166e+18
14516.0	2.0026176105873418e+18
14517.0	2.0040025513132027e+18
14518.0	2.0035954454560765e+18
14519.0	2.003160455865958e+18
14520.0	2.0026974265147387e+18
14521.0	2.0022740283031547e+18
14522.0	2.00184930804695e+18
14523.0	2.001359849547366e+18
14524.0	2.0009404862562301e+18
14525.0	2.0004352856948733e+18
14526.0	1.999957002498867e+18
14527.0	1.999516306977587e+18
14528.0	1.9990101249490944e+18
14529.0	1.9986784779763712e+18
14530.0	1.998249172507033e+18
14531.0	1.9978380568952824e+18
14532.0	1.9973384783790077e+18
14533.0	1.9969913913343997e+18
14534.0	1.9965709761118205e+18
14535.0	1.996137563580006e+18
14536.0	1.995720138057318e+18
14537.0	1.9952902470631421e+18
14538.0	1.994876994034073e+18
14539.0	1.9944536578981888e+18
14540.0	1.9940299962843133e+18
14541.0	1.9935851534352381e+18
14542.0	1.9931793494900733e+18
14543.0	1.9927099850620925e+18
14544.0	1.992330385450598e+18
14545.0	1.9918932232110075e+18
14546.0	1.986124654313469e+18
14547.0	1.9861278654726106e+18
14548.0	1.9906144772292605e+18
14549.0	1.990113187436953e+18
14550.0	1.9897830655131643e+18
14551.0	1.989369886303846e+18
14552.0	1.9889459445104635e+18
14553.0	1.9885181708009472e+18
14554.0	1.98810004399063e+18
14555.0	1.9876760099225597e+18
14556.0	1.9872509994205181e+18
14557.0	1.986827874677555e+18
14558.0	1.9863978427547645e+18
14559.0	1.9846347704238057e+18
14560.0	1.9855478100066301e+18
14561.0	1.9851272488222715e+18
14562.0	1.984687932388147e+18
14563.0	1.9842841366757373e+18
14564.0	1.9838549872345088e+18
14565.0	1.983439264599245e+18
14566.0	1.98301584457728e+18
14567.0	1.982591020302336e+18
14568.0	1.9821590321561597e+18
14569.0	1.9817411318382587e+18
14570.0	1.9809441083817981e+18
14571.0	1.9808921627656187e+18
14572.0	1.9804405134000125e+18
14573.0	1.980007122678579e+18
14574.0	1.9796089590775805e+18
14575.0	1.979195976161689e+18
14576.0	1.9787708767404032e+18
14577.0	1.978347300690329e+18
14578.0	1.97792832159744e+18
14579.0	1.977506025648947e+18
14580.0	1.97708211069911e+18
14581.0	1.9766543940321275e+18
14582.0	1.9762332607447035e+18
14583.0	1.9758095135670272e+18
14584.0	1.9753742085652477e+18
14585.0	1.974960656901734e+18
14586.0	1.9745340005548027e+18
14587.0	1.9741114579812347e+18
14588.0	1.9736880580919296e+18
14589.0	1.973269493396275e+18
14590.0	1.9726831531851773e+18
14591.0	1.9722423301570555e+18
14592.0	1.971817375019827e+18
14593.0	1.9713068342706168e+18
14594.0	1.970983889639833e+18
14595.0	1.970560667589017e+18
14596.0	1.9700865468203003e+18
14597.0	1.9696580751785981e+18
14598.0	1.9692999789248502e+18
14599.0	1.968888168736358e+18
14600.0	1.9684679430963197e+18
14601.0	1.9680485345067005e+18
14602.0	1.9676272183476221e+18
14603.0	1.967208143624601e+18
14604.0	1.9667534525497341e+18
14605.0	1.9663600385785848e+18
14606.0	1.965895670405529e+18
14607.0	1.965523570209587e+18
14608.0	1.9651074214330363e+18
14609.0	1.964684464462233e+18
14610.0	1.9642622775656445e+18
14611.0	1.9638444242239483e+18
14612.0	1.963429206582886e+18
14613.0	1.9630100731396093e+18
14614.0	1.9625873225285627e+18
14615.0	1.9621696252149755e+18
14616.0	1.9617495941906424e+18
14617.0	1.9613287008174077e+18
14618.0	1.960903445368012e+18
14619.0	1.9604321767260152e+18
14620.0	1.9599103029673981e+18
14621.0	1.9596450719596541e+18
14622.0	1.959209136134553e+18
14623.0	1.95877137327063e+18
14624.0	1.958301639743897e+18
14625.0	1.957925133851033e+18
14626.0	1.9575060272513021e+18
14627.0	1.9570816240844797e+18
14628.0	1.956664703555993e+18
14629.0	1.956242806905241e+18
14630.0	1.9558196435746816e+18
14631.0	1.9553972553515005e+18
14632.0	1.9545974334554112e+18
14633.0	1.9544942384775165e+18
14634.0	1.954128186467942e+18
14635.0	1.9536928713998333e+18
14636.0	1.9532408529354747e+18
14637.0	1.9528641557823483e+18
14638.0	1.952437509501747e+18
14639.0	1.9520068182343675e+18
14640.0	1.951581525875097e+18
14641.0	1.9496847072559094e+18
14642.0	1.9507334258622461e+18
14643.0	1.950323521565491e+18
14644.0	1.9498908723970043e+18
14645.0	1.94945935736832e+18
14646.0	1.949044690019942e+18
14647.0	1.9486171058929661e+18
14648.0	1.9482027522785277e+18
14649.0	1.947782518249881e+18
