# Flux units: erg / (cm m2 s)
# Wavelength units: Angstrom
wave	flux
14000.0	1.887932937509273e+18
14001.0	1.8874930238062587e+18
14002.0	1.88726947914711e+18
14003.0	1.886917508254925e+18
14004.0	1.8865645928054781e+18
14005.0	1.8862115280388088e+18
14006.0	1.8858498230059003e+18
14007.0	1.8854952717778944e+18
14008.0	1.8850422131261437e+18
14009.0	1.8847969117732867e+18
14010.0	1.8844308815740928e+18
14011.0	1.8833779804078077e+18
14012.0	1.8837394606260221e+18
14013.0	1.8833893201281021e+18
14014.0	1.8830306702262264e+18
14015.0	1.8826822124830717e+18
14016.0	1.8823326558322683e+18
14017.0	1.8819805993762816e+18
14018.0	1.8816284372238333e+18
14019.0	1.8812765216964603e+18
14020.0	1.8809237152989181e+18
14021.0	1.880571071640371e+18
14022.0	1.8802171931787261e+18
14023.0	1.879853233287987e+18
14024.0	1.8794993548263424e+18
14025.0	1.8791650721529856e+18
14026.0	1.8788123009875963e+18
14027.0	1.8784630245163008e+18
14028.0	1.8781044719222781e+18
14029.0	1.877755158541107e+18
14030.0	1.876461457349018e+18
14031.0	1.8770150014582781e+18
14032.0	1.8767043343941627e+18
14033.0	1.8763045266259968e+18
14034.0	1.8760032447365115e+18
14035.0	1.8756547450503163e+18
14036.0	1.8753044518797302e+18
14037.0	1.874954022813696e+18
14038.0	1.8746036054917115e+18
14039.0	1.8742485022932987e+18
14040.0	1.8738966169649152e+18
14041.0	1.8735500852461565e+18
14042.0	1.8731900294135803e+18
14043.0	1.8728067321036797e+18
14044.0	1.872488461605273e+18
14045.0	1.8721479998832637e+18
14046.0	1.871797455054438e+18
14047.0	1.8714425213059072e+18
14048.0	1.8711011418701821e+18
14049.0	1.8707535078883325e+18
14050.0	1.8704040552562683e+18
14051.0	1.870044734265753e+18
14052.0	1.8697006922858493e+18
14053.0	1.869355751047168e+18
14054.0	1.8690067883098112e+18
14055.0	1.8686576477339645e+18
14056.0	1.8683085692338176e+18
14057.0	1.8679596165627896e+18
14058.0	1.8676084442660861e+18
14059.0	1.8672467878871037e+18
14060.0	1.866898033187225e+18
14061.0	1.8665415710343165e+18
14062.0	1.8662006194176e+18
14063.0	1.8658342150864893e+18
14064.0	1.8653295228747776e+18
14065.0	1.865145495270195e+18
14066.0	1.8648071910981632e+18
14067.0	1.8644529334714363e+18
14068.0	1.8641108829470717e+18
14069.0	1.863760366639513e+18
14070.0	1.8634142358962176e+18
14071.0	1.8630637112000507e+18
14072.0	1.862719207846707e+18
14073.0	1.8623714732015613e+18
14074.0	1.8620238459305984e+18
14075.0	1.8616561598201856e+18
14076.0	1.8613210097647613e+18
14077.0	1.8607716096278525e+18
14078.0	1.8606177759789056e+18
14079.0	1.8602750845648888e+18
14080.0	1.8599395654107133e+18
14081.0	1.859592555541299e+18
14082.0	1.8592431582740477e+18
14083.0	1.8588967171522555e+18
14084.0	1.8585501636231165e+18
14085.0	1.8578500621434877e+18
14086.0	1.857838484186726e+18
14087.0	1.8575111086931965e+18
14088.0	1.8571503767388155e+18
14089.0	1.856812849351885e+18
14090.0	1.85646906909655e+18
14091.0	1.856125879399219e+18
14092.0	1.8557797956321277e+18
14093.0	1.8554336028131325e+18
14094.0	1.8550873881837563e+18
14095.0	1.8547407457353725e+18
14096.0	1.85435362993111e+18
14097.0	1.8540258115190784e+18
14098.0	1.853684928688947e+18
14099.0	1.8533576773468155e+18
14100.0	1.8529986130477053e+18
14101.0	1.8526672177332221e+18
14102.0	1.8523215248752637e+18
14103.0	1.851959039701811e+18
14104.0	1.8516278541025277e+18
14105.0	1.8512856962039803e+18
14106.0	1.8509406442356736e+18
14107.0	1.8505949060792317e+18
14108.0	1.8502375027245046e+18
14109.0	1.849899916617318e+18
14110.0	1.8495570607865853e+18
14111.0	1.8492034809593853e+18
14112.0	1.848861963950489e+18
14113.0	1.8485261797163008e+18
14114.0	1.848166489627033e+18
14115.0	1.8478339282960384e+18
14116.0	1.8474586974715904e+18
14117.0	1.845495295115264e+18
14118.0	1.8467977640804352e+18
14119.0	1.8464276100415488e+18
14120.0	1.8460931344302075e+18
14121.0	1.845754447737651e+18
14122.0	1.8454011061469184e+18
14123.0	1.8450653856661504e+18
14124.0	1.8447174513721336e+18
14125.0	1.8438663398490102e+18
14126.0	1.844047713298022e+18
14127.0	1.8437093923487744e+18
14128.0	1.8433648487301115e+18
14129.0	1.843009693522329e+18
14130.0	1.8426559023022077e+18
14131.0	1.8423364406214656e+18
14132.0	1.8419846341459963e+18
14133.0	1.8410309551128566e+18
14134.0	1.8413042156961787e+18
14135.0	1.840945928182169e+18
14136.0	1.8405987069198333e+18
14137.0	1.840274126510489e+18
14138.0	1.8399184226877437e+18
14139.0	1.839592619219353e+18
14140.0	1.839245456677273e+18
14141.0	1.8388917728313341e+18
14142.0	1.838448137941811e+18
14143.0	1.8382186742808576e+18
14144.0	1.837881655243571e+18
14145.0	1.837538178655846e+18
14146.0	1.8371935981273083e+18
14147.0	1.8368538259488765e+18
14148.0	1.8365105037115387e+18
14149.0	1.836169577260646e+18
14150.0	1.835830813392896e+18
14151.0	1.8354820301717504e+18
14152.0	1.8351476132806653e+18
14153.0	1.8348059066892288e+18
14154.0	1.8344357643943933e+18
14155.0	1.83406864367616e+18
14156.0	1.8337745608900605e+18
14157.0	1.833440514775449e+18
14158.0	1.8330947229319163e+18
14159.0	1.8327582424432637e+18
14160.0	1.832409437411737e+18
14161.0	1.8320076214108155e+18
14162.0	1.831613895383449e+18
14163.0	1.8313905050746877e+18
14164.0	1.8309945661325312e+18
14165.0	1.8306568307081213e+18
14166.0	1.8303702389489661e+18
14167.0	1.8300157565075453e+18
14168.0	1.8296887568236541e+18
14169.0	1.829351632089907e+18
14170.0	1.829007110281625e+18
14171.0	1.8286678615523325e+18
14172.0	1.8283310589411325e+18
14173.0	1.8279511489511421e+18
14174.0	1.8276453204361213e+18
14175.0	1.8273113380749307e+18
14176.0	1.8269716380385275e+18
14177.0	1.8266319749119992e+18
14178.0	1.8262914846687227e+18
14179.0	1.8259449395281917e+18
14180.0	1.8256132606787581e+18
14181.0	1.8252738341109755e+18
14182.0	1.824933516673024e+18
14183.0	1.8245950598283261e+18
14184.0	1.8242497562017787e+18
14185.0	1.8239147789516797e+18
14186.0	1.823265193669427e+18
14187.0	1.8232059667415035e+18
14188.0	1.8228946654986237e+18
14189.0	1.8225578192666621e+18
14190.0	1.822219531871846e+18
14191.0	1.8218797781483517e+18
14192.0	1.8215346238390264e+18
14193.0	1.82115659457495e+18
14194.0	1.820864355604889e+18
14195.0	1.8205296132358141e+18
14196.0	1.820191082571366e+18
14197.0	1.819852858929971e+18
14198.0	1.819508798495129e+18
14199.0	1.819174185310617e+18
14200.0	1.8186523048411133e+18
14201.0	1.8184907066966008e+18
14202.0	1.8181608766963707e+18
14203.0	1.8178160344432637e+18
14204.0	1.817483986495078e+18
14205.0	1.8171461806063608e+18
14206.0	1.8166677598371837e+18
14207.0	1.816473432699699e+18
14208.0	1.8161369622773752e+18
14209.0	1.8156450509488123e+18
14210.0	1.8153553755373563e+18
14211.0	1.815119514723942e+18
14212.0	1.8147874583871485e+18
14213.0	1.8144504829706235e+18
14214.0	1.8141135461416955e+18
14215.0	1.8137630281564155e+18
14216.0	1.8133899884363776e+18
14217.0	1.813022946571059e+18
14218.0	1.81267239838679e+18
14219.0	1.812348972249907e+18
14220.0	1.8120123491549181e+18
14221.0	1.8116734108041208e+18
14222.0	1.8113195726077947e+18
14223.0	1.811001716506624e+18
14224.0	1.8106646186164221e+18
14225.0	1.809758538222797e+18
14226.0	1.8099866362183677e+18
14227.0	1.809654994278809e+18
14228.0	1.807845304775475e+18
14229.0	1.8087255600005102e+18
14230.0	1.808647440249651e+18
14231.0	1.8083020342820861e+18
14232.0	1.8079763784531968e+18
14233.0	1.8076367488811003e+18
14234.0	1.8072580619501565e+18
14235.0	1.8068839065452541e+18
14236.0	1.8065507764666365e+18
14237.0	1.8062132943781888e+18
14238.0	1.805878127545548e+18
14239.0	1.805534026845388e+18
14240.0	1.8033475076489219e+18
14241.0	1.8048602521731072e+18
14242.0	1.80453184152535e+18
14243.0	1.8040225003470843e+18
14244.0	1.803865329709875e+18
14245.0	1.803516380394291e+18
14246.0	1.8031783530463227e+18
14247.0	1.8028548564451325e+18
14248.0	1.8025060665131003e+18
14249.0	1.8021878933225472e+18
14250.0	1.8018527415894013e+18
14251.0	1.8015207204847613e+18
14252.0	1.8011857533009917e+18
14253.0	1.800849962355916e+18
14254.0	1.8004544730431485e+18
14255.0	1.8000577120174077e+18
14256.0	1.7991618120384512e+18
14257.0	1.799385131882905e+18
14258.0	1.799093355964006e+18
14259.0	1.7987372125782013e+18
14260.0	1.7984021245984765e+18
14261.0	1.798066954410393e+18
14262.0	1.7977780675280893e+18
14263.0	1.796564764432794e+18
14264.0	1.7969184818331643e+18
14265.0	1.796771221497446e+18
14266.0	1.796443617833779e+18
14267.0	1.7961113668812797e+18
14268.0	1.7957775472590843e+18
14269.0	1.7954330573275133e+18
14270.0	1.7951095556931584e+18
14271.0	1.7947746673623035e+18
14272.0	1.794440337712742e+18
14273.0	1.794098392884838e+18
14274.0	1.792423857278157e+18
14275.0	1.7933008996663293e+18
14276.0	1.793088669561651e+18
14277.0	1.7926895328821243e+18
14278.0	1.7923579261747195e+18
14279.0	1.7920235545821181e+18
14280.0	1.7916830777606141e+18
14281.0	1.791358148385177e+18
14282.0	1.7910251995004925e+18
14283.0	1.7906919050051584e+18
14284.0	1.7903585987657725e+18
14285.0	1.790025007313715e+18
14286.0	1.7896904897593341e+18
14287.0	1.789358675014451e+18
14288.0	1.7890231608934397e+18
14289.0	1.7874980817600486e+18
14290.0	1.7883566876655613e+18
14291.0	1.78802603893719e+18
14292.0	1.7876946788548603e+18
14293.0	1.787359015416627e+18
14294.0	1.7868695569170432e+18
14295.0	1.786678833525555e+18
14296.0	1.78539938625618e+18
14297.0	1.786024315741798e+18
14298.0	1.7854030504001528e+18
14299.0	1.785346786328576e+18
14300.0	1.7850258834849787e+18
14301.0	1.784697867101798e+18
14302.0	1.784208016015359e+18
14303.0	1.783735546124697e+18
14304.0	1.7834230134341632e+18
14305.0	1.7831087275245565e+18
14306.0	1.7827586256142333e+18
14307.0	1.7824321963556861e+18
14308.0	1.7821080253104128e+18
14309.0	1.7817672817311741e+18
14310.0	1.7813558674849787e+18
14311.0	1.7809681409900544e+18
14312.0	1.780717167260467e+18
14313.0	1.780315307638784e+18
14314.0	1.7801123536568317e+18
14315.0	1.7797893318508541e+18
14316.0	1.7794001574821885e+18
14317.0	1.7791083094212603e+18
14318.0	1.7787993821544443e+18
14319.0	1.7784697937461248e+18
14320.0	1.778138413531136e+18
14321.0	1.7778047432261632e+18
14322.0	1.7774305962098685e+18
14323.0	1.7771244606717947e+18
14324.0	1.77681583875031e+18
14325.0	1.7764740214292475e+18
14326.0	1.7761545144500221e+18
14327.0	1.7758161582686203e+18
14328.0	1.7754854474645504e+18
14329.0	1.7751626236297213e+18
14330.0	1.7747638157836288e+18
14331.0	1.774420659640729e+18
14332.0	1.7740901904285696e+18
14333.0	1.7737595500888061e+18
14334.0	1.773428881227776e+18
14335.0	1.773083492037427e+18
14336.0	1.7727063536435197e+18
14337.0	1.772433698717696e+18
14338.0	1.7721032764817403e+18
14339.0	1.771763220768358e+18
14340.0	1.7714455609606144e+18
14341.0	1.771112152380211e+18
14342.0	1.7707829884354555e+18
14343.0	1.7704523363516413e+18
14344.0	1.7701197481771005e+18
14345.0	1.7697951207915515e+18
14346.0	1.7694602509156347e+18
14347.0	1.7691069344907261e+18
14348.0	1.7688033021132797e+18
14349.0	1.76847567496151e+18
14350.0	1.768099115381555e+18
14351.0	1.767760740745216e+18
14352.0	1.7674761706405885e+18
14353.0	1.7671557040046077e+18
14354.0	1.7668214548856827e+18
14355.0	1.766481196167987e+18
14356.0	1.7661562013614077e+18
14357.0	1.7658407108476925e+18
14358.0	1.7655115351588861e+18
14359.0	1.7651649061322747e+18
14360.0	1.7648486673547261e+18
14361.0	1.7645223270154237e+18
14362.0	1.7641319681753085e+18
14363.0	1.76378522674135e+18
14364.0	1.7633062036701184e+18
14365.0	1.7630958912012288e+18
14366.0	1.762771406422016e+18
14367.0	1.7624698661634043e+18
14368.0	1.7621404136505336e+18
14369.0	1.7618121741303803e+18
14370.0	1.7614834682036221e+18
14371.0	1.7611548964945915e+18
14372.0	1.7608198974341117e+18
14373.0	1.7604959428149248e+18
14374.0	1.7601682921750518e+18
14375.0	1.7598377357213693e+18
14376.0	1.759511672206131e+18
14377.0	1.7591824193421312e+18
14378.0	1.7588515340550147e+18
14379.0	1.7585262758461437e+18
14380.0	1.7581968652763133e+18
14381.0	1.757855616702873e+18
14382.0	1.757539455100518e+18
14383.0	1.7572087375855613e+18
14384.0	1.7568633819496443e+18
14385.0	1.7565568253034493e+18
14386.0	1.7562078877319168e+18
14387.0	1.7559003580071933e+18
14388.0	1.7555703317135357e+18
14389.0	1.7552443604729856e+18
14390.0	1.7549143291461632e+18
14391.0	1.7545891246243837e+18
14392.0	1.7542599506132987e+18
14393.0	1.7539337948233725e+18
14394.0	1.7535614731681795e+18
14395.0	1.7532648553447421e+18
14396.0	1.7529507137191933e+18
14397.0	1.7526233063489533e+18
14398.0	1.7522897014751232e+18
14399.0	1.7518891571871741e+18
14400.0	1.7515383338565632e+18
14401.0	1.7512252592619515e+18
14402.0	1.7509008281698304e+18
14403.0	1.7496381799268337e+18
14404.0	1.745596746563581e+18
14405.0	1.747969204289531e+18
14406.0	1.7495873332183037e+18
14407.0	1.7479322541490179e+18
14408.0	1.7489196084101115e+18
14409.0	1.74858972472279e+18
14410.0	1.748275311306342e+18
14411.0	1.7479589802541053e+18
14412.0	1.747629099922227e+18
14413.0	1.7473067324276733e+18
14414.0	1.7469767111671803e+18
14415.0	1.7466510989590525e+18
14416.0	1.74632341644247e+18
14417.0	1.7459884828131325e+18
14418.0	1.7456494823866363e+18
14419.0	1.745342162377113e+18
14420.0	1.74501094490112e+18
14421.0	1.744689102533427e+18
14422.0	1.7443553969963003e+18
14423.0	1.7440022768648187e+18
14424.0	1.738222687014089e+18
14425.0	1.743355219909017e+18
14426.0	1.7430549010317307e+18
14427.0	1.7427302702907387e+18
14428.0	1.742379086249984e+18
14429.0	1.7420747559403512e+18
14430.0	1.741752190474649e+18
14431.0	1.7411672813600768e+18
14432.0	1.7410930472124413e+18
14433.0	1.7397183808536566e+18
14434.0	1.74042597336023e+18
14435.0	1.7400806999326715e+18
14436.0	1.7397957607292925e+18
14437.0	1.7394706434490365e+18
14438.0	1.738973422131609e+18
14439.0	1.7386687881543677e+18
14440.0	1.7382867726237693e+18
14441.0	1.7379508675936253e+18
14442.0	1.737617123468902e+18
14443.0	1.7372419698196477e+18
14444.0	1.7369757875437565e+18
14445.0	1.736653260665651e+18
14446.0	1.73447508310098e+18
14447.0	1.7359826367545341e+18
14448.0	1.7356778048061437e+18
14449.0	1.7353527093362685e+18
14450.0	1.7350200339202048e+18
14451.0	1.734696035680256e+18
14452.0	1.7343728964337661e+18
14453.0	1.7340326209388541e+18
14454.0	1.733722237409689e+18
14455.0	1.7333857653096443e+18
14456.0	1.7330641964105728e+18
14457.0	1.7327384952831995e+18
14458.0	1.7324149064073213e+18
14459.0	1.7320849405116413e+18
14460.0	1.731753655926784e+18
14461.0	1.7313804853444605e+18
14462.0	1.730972963412377e+18
14463.0	1.730761585590272e+18
14464.0	1.7304567653859325e+18
14465.0	1.7301071651143677e+18
14466.0	1.7298098359369723e+18
14467.0	1.7294554004717563e+18
14468.0	1.729158358184755e+18
14469.0	1.728798012106342e+18
14470.0	1.7284761881935872e+18
14471.0	1.7281772718915584e+18
14472.0	1.7278580652244987e+18
14473.0	1.7275380935163904e+18
14474.0	1.7272162545041405e+18
14475.0	1.726888642451865e+18
14476.0	1.726502466171699e+18
14477.0	1.7262410888904704e+18
14478.0	1.725914117727846e+18
14479.0	1.7255882958045181e+18
14480.0	1.7252456664662013e+18
14481.0	1.7249431933943805e+18
14482.0	1.7246136083415037e+18
14483.0	1.7242802349932541e+18
14484.0	1.7239548761210872e+18
14485.0	1.7235945015214077e+18
14486.0	1.7229468858843133e+18
14487.0	1.7229919243206653e+18
14488.0	1.7226549690367997e+18
14489.0	1.7222706751602685e+18
14490.0	1.721937174305177e+18
14491.0	1.721619150431846e+18
14492.0	1.721296076616499e+18
14493.0	1.7209628777512952e+18
14494.0	1.7206198642147323e+18
14495.0	1.720319578891878e+18
14496.0	1.719828905721856e+18
14497.0	1.7196696815534075e+18
14498.0	1.7193467251785725e+18
14499.0	1.7190221279920125e+18
14500.0	1.7186967473094653e+18
14501.0	1.718335765374566e+18
14502.0	1.7177599193120765e+18
14503.0	1.7176976640966653e+18
14504.0	1.7173904430727165e+18
14505.0	1.7170441193914365e+18
14506.0	1.7166889994158077e+18
14507.0	1.7161177788317693e+18
14508.0	1.7160988558098427e+18
14509.0	1.7157753172656125e+18
14510.0	1.7154467136798715e+18
14511.0	1.715125834324377e+18
14512.0	1.7147822637842432e+18
14513.0	1.7144763245395965e+18
14514.0	1.7141111281680381e+18
14515.0	1.713822652327526e+18
14516.0	1.7104393102950426e+18
14517.0	1.7131653092605947e+18
14518.0	1.7128535919427581e+18
14519.0	1.7125304073977853e+18
14520.0	1.7122051525443581e+18
14521.0	1.711881412673536e+18
14522.0	1.7115556645699581e+18
14523.0	1.7110537053667328e+18
14524.0	1.710594564974182e+18
14525.0	1.710331754918707e+18
14526.0	1.7100115818840061e+18
14527.0	1.7096640787644413e+18
14528.0	1.7091962192527357e+18
14529.0	1.7090276854071293e+18
14530.0	1.7086945251295227e+18
14531.0	1.7083898961854461e+18
14532.0	1.7079802703904763e+18
14533.0	1.7077430892101627e+18
14534.0	1.707421016994611e+18
14535.0	1.7070832681484285e+18
14536.0	1.7067675175878653e+18
14537.0	1.7064302183710715e+18
14538.0	1.706123839563366e+18
14539.0	1.7057998128021504e+18
14540.0	1.7054754639183867e+18
14541.0	1.705123083662131e+18
14542.0	1.7048236892094461e+18
14543.0	1.7044472705581053e+18
14544.0	1.7041752129011707e+18
14545.0	1.7038060856279032e+18
14546.0	1.6965365649113047e+18
14547.0	1.6967564471041994e+18
14548.0	1.7027837877813248e+18
14549.0	1.702331747506585e+18
14550.0	1.7021481812754432e+18
14551.0	1.7018361300910077e+18
14552.0	1.7015105749254136e+18
14553.0	1.7011771881553915e+18
14554.0	1.7008633199984637e+18
14555.0	1.7005384711536637e+18
14556.0	1.700212375761715e+18
14557.0	1.6998886895779835e+18
14558.0	1.6995589484969984e+18
14559.0	1.6969782368665556e+18
14560.0	1.698904952484659e+18
14561.0	1.6985809408229368e+18
14562.0	1.6982323807387648e+18
14563.0	1.6979381519908861e+18
14564.0	1.6975956535148544e+18
14565.0	1.6972922795065341e+18
14566.0	1.6969678148599805e+18
14567.0	1.6966412882935805e+18
14568.0	1.696300707453337e+18
14569.0	1.6959904178765821e+18
14570.0	1.6950352842588152e+18
14571.0	1.695337977112166e+18
14572.0	1.6949674288087037e+18
14573.0	1.6946309365759997e+18
14574.0	1.6943231149277181e+18
14575.0	1.6940349142335485e+18
14576.0	1.6937074414321661e+18
14577.0	1.6933857752252413e+18
14578.0	1.693065523337625e+18
14579.0	1.6927446926360576e+18
14580.0	1.6924198203031547e+18
14581.0	1.6920886397370363e+18
14582.0	1.6917649350983677e+18
14583.0	1.6914439517241341e+18
14584.0	1.6910980055302141e+18
14585.0	1.690793294377779e+18
14586.0	1.6904642394849275e+18
14587.0	1.6901417746825213e+18
14588.0	1.6898176841678843e+18
14589.0	1.6894971554562043e+18
14590.0	1.6891765931900923e+18
14591.0	1.688853121754726e+18
14592.0	1.6885238370140157e+18
14593.0	1.688066592446873e+18
14594.0	1.6878919164624893e+18
14595.0	1.6875611033174013e+18
14596.0	1.6871087828631547e+18
14597.0	1.6867603720962043e+18
14598.0	1.686591145351577e+18
14599.0	1.686286806653337e+18
14600.0	1.6859625701769208e+18
14601.0	1.6856425212936187e+18
14602.0	1.6853145401425915e+18
14603.0	1.684998975809126e+18
14604.0	1.6846188930138112e+18
14605.0	1.684329796416307e+18
14606.0	1.6839428181852157e+18
14607.0	1.6837041673207805e+18
14608.0	1.683388988863283e+18
14609.0	1.683062638457651e+18
14610.0	1.682676648404582e+18
14611.0	1.682347551568691e+18
14612.0	1.6820381226631165e+18
14613.0	1.6817186626600952e+18
14614.0	1.6813927534952448e+18
14615.0	1.681074697745203e+18
14616.0	1.6807539995836413e+18
14617.0	1.680431348554137e+18
14618.0	1.6800999649837053e+18
14619.0	1.6796807862419446e+18
14620.0	1.6790990748647421e+18
14621.0	1.6791411353452536e+18
14622.0	1.6788157680844797e+18
14623.0	1.6784968667627515e+18
14624.0	1.6781009882185723e+18
14625.0	1.6778465952923643e+18
14626.0	1.677524033182105e+18
14627.0	1.6771989041577981e+18
14628.0	1.676881667135897e+18
14629.0	1.6765580312838141e+18
14630.0	1.6762312815804413e+18
14631.0	1.6759101220454397e+18
14632.0	1.67513908314112e+18
14633.0	1.6752024389419003e+18
14634.0	1.6749333827289088e+18
14635.0	1.6745460941193208e+18
14636.0	1.6740994376531965e+18
14637.0	1.6739675821572093e+18
14638.0	1.673634794333798e+18
14639.0	1.6732988372942843e+18
14640.0	1.672984506086195e+18
14641.0	1.6709480607645683e+18
14642.0	1.672332877339033e+18
14643.0	1.6720176502276093e+18
14644.0	1.671678332711731e+18
14645.0	1.671339414493593e+18
14646.0	1.6710282910892032e+18
14647.0	1.6706871079469053e+18
14648.0	1.6703845174345728e+18
