# Flux units: erg / (cm m2 s)
# Wavelength units: Angstrom
wave	flux
14000.0	2.0363823114354683e+18
14001.0	2.0358001823055872e+18
14002.0	2.035435390264934e+18
14003.0	2.0349577932570621e+18
14004.0	2.0344795822030843e+18
14005.0	2.033999456868761e+18
14006.0	2.0335048527970296e+18
14007.0	2.0330189410009083e+18
14008.0	2.0323488103399424e+18
14009.0	2.032077697240268e+18
14010.0	2.0315692284772347e+18
14011.0	2.0299642126204928e+18
14012.0	2.0306352760946688e+18
14013.0	2.030160621810483e+18
14014.0	2.0296671669780477e+18
14015.0	2.029197846170828e+18
14016.0	2.0287240408137725e+18
14017.0	2.0282425615581181e+18
14018.0	2.027760317261414e+18
14019.0	2.0272758030073853e+18
14020.0	2.0267936493076472e+18
14021.0	2.026316092565094e+18
14022.0	2.0258382657093627e+18
14023.0	2.0253269381087227e+18
14024.0	2.0248500893646845e+18
14025.0	2.0244051978616827e+18
14026.0	2.0239254550478843e+18
14027.0	2.0234490659995645e+18
14028.0	2.0229612734775296e+18
14029.0	2.0224874312105976e+18
14030.0	2.0212478969380864e+18
14031.0	2.021497127514931e+18
14032.0	2.0210619936407547e+18
14033.0	2.0204948180434936e+18
14034.0	2.0201129384083453e+18
14035.0	2.0196295113179133e+18
14036.0	2.019156538110771e+18
14037.0	2.018666366579507e+18
14038.0	2.01819707932672e+18
14039.0	2.017712110410137e+18
14040.0	2.017220754407424e+18
14041.0	2.0167601141317627e+18
14042.0	2.016271460938547e+18
14043.0	2.0157421716504573e+18
14044.0	2.0153239643095035e+18
14045.0	2.0148617369092093e+18
14046.0	2.0143834973339643e+18
14047.0	2.013901442619801e+18
14048.0	2.0134409516613627e+18
14049.0	2.01297100841943e+18
14050.0	2.0124966997458936e+18
14051.0	2.01199625216983e+18
14052.0	2.0115388079538173e+18
14053.0	2.0110715071234043e+18
14054.0	2.0106007468310525e+18
14055.0	2.0101226498621437e+18
14056.0	2.0096433868767227e+18
14057.0	2.0091647798804477e+18
14058.0	2.008694274601779e+18
14059.0	2.0082215866073088e+18
14060.0	2.0077485731348477e+18
14061.0	2.0072623627042816e+18
14062.0	2.0068029421322237e+18
14063.0	2.0062969882738688e+18
14064.0	2.0057492490813435e+18
14065.0	2.0053658477527037e+18
14066.0	2.0048953189859325e+18
14067.0	2.0044072815165437e+18
14068.0	2.003956887086694e+18
14069.0	2.0034817814953981e+18
14070.0	2.003012994203648e+18
14071.0	2.0025364910702587e+18
14072.0	2.0020682658152445e+18
14073.0	2.001599104391577e+18
14074.0	2.001128151161241e+18
14075.0	2.0006193116217344e+18
14076.0	2.0001614429421565e+18
14077.0	1.9995244791595005e+18
14078.0	1.9992230395641853e+18
14079.0	1.9987393322942461e+18
14080.0	1.998292169156198e+18
14081.0	1.997821672266137e+18
14082.0	1.9973068617154555e+18
14083.0	1.996875680553369e+18
14084.0	1.996411803952742e+18
14085.0	1.995353188466688e+18
14086.0	1.9954547124338683e+18
14087.0	1.995003435522457e+18
14088.0	1.9945096485011453e+18
14089.0	1.9940415306203133e+18
14090.0	1.9935888310009853e+18
14091.0	1.9931271136280573e+18
14092.0	1.992655126921216e+18
14093.0	1.9921894685802493e+18
14094.0	1.9917211627945981e+18
14095.0	1.991252924117811e+18
14096.0	1.9907407140356096e+18
14097.0	1.99027101574103e+18
14098.0	1.9898256913858555e+18
14099.0	1.9893801355051005e+18
14100.0	1.988884677473075e+18
14101.0	1.9884456630288381e+18
14102.0	1.9879734464741373e+18
14103.0	1.9874795487231997e+18
14104.0	1.987025696509132e+18
14105.0	1.9865559831150587e+18
14106.0	1.9860975523987453e+18
14107.0	1.9856051427868672e+18
14108.0	1.9851358622449661e+18
14109.0	1.984687454237491e+18
14110.0	1.9841813007302653e+18
14111.0	1.9836582106234875e+18
14112.0	1.9832795488583677e+18
14113.0	1.9828182039396347e+18
14114.0	1.982334151059046e+18
14115.0	1.981896441882214e+18
14116.0	1.9812882996789245e+18
14117.0	1.9797147243249664e+18
14118.0	1.9805019633090555e+18
14119.0	1.9800069800722427e+18
14120.0	1.9795547535704061e+18
14121.0	1.9790641726750723e+18
14122.0	1.97861357691863e+18
14123.0	1.978133547214438e+18
14124.0	1.9776699407269883e+18
14125.0	1.9763069362110454e+18
14126.0	1.976776384525107e+18
14127.0	1.9763228091351035e+18
14128.0	1.9758560686637048e+18
14129.0	1.975369168689561e+18
14130.0	1.974881481863987e+18
14131.0	1.9744538574716925e+18
14132.0	1.9739792568745981e+18
14133.0	1.9724305721982956e+18
14134.0	1.973064667077017e+18
14135.0	1.9725684876247035e+18
14136.0	1.9720502645882877e+18
14137.0	1.9716741932253181e+18
14138.0	1.9711955258310653e+18
14139.0	1.9707501259784187e+18
14140.0	1.9702058177265661e+18
14141.0	1.969822055687782e+18
14142.0	1.9692206696693755e+18
14143.0	1.9687952380592125e+18
14144.0	1.9684400778182656e+18
14145.0	1.9679762364497915e+18
14146.0	1.9675115729977341e+18
14147.0	1.9670526322540544e+18
14148.0	1.9665863649001472e+18
14149.0	1.9661225335980032e+18
14150.0	1.9656704614465533e+18
14151.0	1.965188151718707e+18
14152.0	1.9647453137469437e+18
14153.0	1.9642883762028541e+18
14154.0	1.9637732015865848e+18
14155.0	1.963073257812787e+18
14156.0	1.9628745467887608e+18
14157.0	1.962443603863142e+18
14158.0	1.9619731656933373e+18
14159.0	1.9615244338855933e+18
14160.0	1.9610560022708221e+18
14161.0	1.9604757052129277e+18
14162.0	1.9599228842016758e+18
14163.0	1.959673472430899e+18
14164.0	1.9591504729210877e+18
14165.0	1.9579152738811907e+18
14166.0	1.958278772398489e+18
14167.0	1.9578087754694653e+18
14168.0	1.957364872144486e+18
14169.0	1.9569215560220672e+18
14170.0	1.9564528526163965e+18
14171.0	1.9559892058636283e+18
14172.0	1.955546359503257e+18
14173.0	1.9547037607395328e+18
14174.0	1.9546178580381693e+18
14175.0	1.9541720723095547e+18
14176.0	1.9537100948897787e+18
14177.0	1.9532540431826944e+18
14178.0	1.9527871953371133e+18
14179.0	1.95226047128535e+18
14180.0	1.9518841298092032e+18
14181.0	1.9514249961275387e+18
14182.0	1.9509677482049533e+18
14183.0	1.950511768639897e+18
14184.0	1.950043969526169e+18
14185.0	1.949596360114176e+18
14186.0	1.9488625917951992e+18
14187.0	1.9486370623913981e+18
14188.0	1.9482195764707328e+18
14189.0	1.947759994837401e+18
14190.0	1.9473138031001592e+18
14191.0	1.9468577983692797e+18
14192.0	1.9463845080727547e+18
14193.0	1.9459094326804477e+18
14194.0	1.945490163341721e+18
14195.0	1.9450389736718336e+18
14196.0	1.9445830276612093e+18
14197.0	1.9441244610494461e+18
14198.0	1.9436607404769275e+18
14199.0	1.9431832760090621e+18
14200.0	1.9426117500796928e+18
14201.0	1.942292370607308e+18
14202.0	1.9418391458611197e+18
14203.0	1.9412947503677437e+18
14204.0	1.9409272571953147e+18
14205.0	1.940473834477977e+18
14206.0	1.9397694850072568e+18
14207.0	1.9395712940769275e+18
14208.0	1.9391170224324603e+18
14209.0	1.938387238702284e+18
14210.0	1.9380252300017656e+18
14211.0	1.937742008785305e+18
14212.0	1.9373017964478461e+18
14213.0	1.9368440720523261e+18
14214.0	1.9363922012274683e+18
14215.0	1.9359095106568187e+18
14216.0	1.9354816094404605e+18
14217.0	1.9350319817293824e+18
14218.0	1.934554213593907e+18
14219.0	1.934123310933606e+18
14220.0	1.9336740590321656e+18
14221.0	1.933216572873113e+18
14222.0	1.932714617025331e+18
14223.0	1.9323163594719232e+18
14224.0	1.9318670421393405e+18
14225.0	1.9310177844985859e+18
14226.0	1.9309633977974781e+18
14227.0	1.9305104330981373e+18
14228.0	1.9291707774337027e+18
14229.0	1.9294463398510584e+18
14230.0	1.9291573120401405e+18
14231.0	1.9286718800723965e+18
14232.0	1.9282572848660477e+18
14233.0	1.9277892022173693e+18
14234.0	1.9273559775903741e+18
14235.0	1.9269003906121728e+18
14236.0	1.9264517527568381e+18
14237.0	1.9260007459586043e+18
14238.0	1.9255542052552704e+18
14239.0	1.9250817773076477e+18
14240.0	1.9218433098907653e+18
14241.0	1.9241907511099387e+18
14242.0	1.9237441919516664e+18
14243.0	1.9229776694738944e+18
14244.0	1.9228466561941496e+18
14245.0	1.9223518625398781e+18
14246.0	1.9218827346706432e+18
14247.0	1.921487731897139e+18
14248.0	1.92102284698583e+18
14249.0	1.9205915299282941e+18
14250.0	1.9201482960142333e+18
14251.0	1.91970193482711e+18
14252.0	1.9192560517906432e+18
14253.0	1.9188069810831355e+18
14254.0	1.9183554088927227e+18
14255.0	1.917851855853977e+18
14256.0	1.9171006224531456e+18
14257.0	1.9169995179163643e+18
14258.0	1.9165693467426816e+18
14259.0	1.916080089569689e+18
14260.0	1.915659134120755e+18
14261.0	1.91518030734295e+18
14262.0	1.914784807963852e+18
14263.0	1.9138007135158275e+18
14264.0	1.913789177502105e+18
14265.0	1.9134291032145912e+18
14266.0	1.9129949004759037e+18
14267.0	1.9125508562223104e+18
14268.0	1.9121022032674816e+18
14269.0	1.911639774540595e+18
14270.0	1.911213631576473e+18
14271.0	1.910750563637657e+18
14272.0	1.910321209514393e+18
14273.0	1.9098741134852093e+18
14274.0	1.9086194478415875e+18
14275.0	1.9089134987509755e+18
14276.0	1.9084466492276733e+18
14277.0	1.9080344464523261e+18
14278.0	1.9076484580769787e+18
14279.0	1.9072013117161464e+18
14280.0	1.906743624230502e+18
14281.0	1.9063138070560765e+18
14282.0	1.9058697594470397e+18
14283.0	1.9054251984551933e+18
14284.0	1.904980783425126e+18
14285.0	1.9045362996084733e+18
14286.0	1.904087493980979e+18
14287.0	1.903644776805171e+18
14288.0	1.9031904598622203e+18
14289.0	1.9009553790140378e+18
14290.0	1.9022851059220477e+18
14291.0	1.901858909270835e+18
14292.0	1.901413742621491e+18
14293.0	1.9009709650477053e+18
14294.0	1.900251673788416e+18
14295.0	1.900055244465766e+18
14296.0	1.8981889838678024e+18
14297.0	1.8992028025094141e+18
14298.0	1.898402591381913e+18
14299.0	1.8982803425198077e+18
14300.0	1.8978544210149368e+18
14301.0	1.8974124135153661e+18
14302.0	1.8969817289588733e+18
14303.0	1.896472109278822e+18
14304.0	1.89607147774935e+18
14305.0	1.8956511363465213e+18
14306.0	1.8950307115433981e+18
14307.0	1.894728590793113e+18
14308.0	1.8943365995298813e+18
14309.0	1.8938845038903293e+18
14310.0	1.8925831808090107e+18
14311.0	1.892774117271142e+18
14312.0	1.892473894023987e+18
14313.0	1.892001573450547e+18
14314.0	1.8916836653400061e+18
14315.0	1.8912466977161208e+18
14316.0	1.8907043071000573e+18
14317.0	1.890268906468147e+18
14318.0	1.8899292987064315e+18
14319.0	1.8894903379492861e+18
14320.0	1.889049565252812e+18
14321.0	1.8886009726959616e+18
14322.0	1.888082410759782e+18
14323.0	1.887694628900044e+18
14324.0	1.8872900111040507e+18
14325.0	1.886830625764147e+18
14326.0	1.8864131247439872e+18
14327.0	1.8859579320303613e+18
14328.0	1.8855169882062843e+18
14329.0	1.885095772710502e+18
14330.0	1.88465494968238e+18
14331.0	1.8842104457330683e+18
14332.0	1.8837767865761787e+18
14333.0	1.8833397770092541e+18
14334.0	1.8829023597559803e+18
14335.0	1.882417343863193e+18
14336.0	1.881950699021926e+18
14337.0	1.8815809493139456e+18
14338.0	1.8811430253887483e+18
14339.0	1.8806845426630653e+18
14340.0	1.8802738028609533e+18
14341.0	1.8798289918885883e+18
14342.0	1.8793906837651453e+18
14343.0	1.878912546530918e+18
14344.0	1.878483590027673e+18
14345.0	1.878074043085619e+18
14346.0	1.8776345639124987e+18
14347.0	1.8771675902377981e+18
14348.0	1.8767613903503355e+18
14349.0	1.876329521322393e+18
14350.0	1.8758606501445632e+18
14351.0	1.8754098446729216e+18
14352.0	1.8750019351871483e+18
14353.0	1.8745792063864832e+18
14354.0	1.8741393614700541e+18
14355.0	1.873700701025075e+18
14356.0	1.873268031723929e+18
14357.0	1.872840153995673e+18
14358.0	1.8724042483695613e+18
14359.0	1.8719349007187965e+18
14360.0	1.8715299020799997e+18
14361.0	1.8710972193570813e+18
14362.0	1.870660994963865e+18
14363.0	1.8702272150110203e+18
14364.0	1.8696801569734653e+18
14365.0	1.8693385879551997e+18
14366.0	1.8689016891179003e+18
14367.0	1.8684857685114877e+18
14368.0	1.8680504584765437e+18
14369.0	1.8676199635025917e+18
14370.0	1.8671857691525115e+18
14371.0	1.8667517509631997e+18
14372.0	1.8663036332015608e+18
14373.0	1.8658825619898363e+18
14374.0	1.8654466144206845e+18
14375.0	1.8650111617794045e+18
14376.0	1.864579348116275e+18
14377.0	1.86414787503063e+18
14378.0	1.8637102950383616e+18
14379.0	1.86328245421998e+18
14380.0	1.8628473035685883e+18
14381.0	1.862391010269593e+18
14382.0	1.8619790910291965e+18
14383.0	1.8614901559787515e+18
14384.0	1.861068235839897e+18
14385.0	1.86068518347735e+18
14386.0	1.8602139936882683e+18
14387.0	1.8598166320381947e+18
14388.0	1.8593782870048765e+18
14389.0	1.858954808262656e+18
14390.0	1.8585195284267003e+18
14391.0	1.858088045274726e+18
14392.0	1.8576374058975227e+18
14393.0	1.8572285652762621e+18
14394.0	1.8567186603835387e+18
14395.0	1.85631639643095e+18
14396.0	1.8559326830460925e+18
14397.0	1.855502948080025e+18
14398.0	1.8550554712080381e+18
14399.0	1.8546355660128253e+18
14400.0	1.8541591769645053e+18
14401.0	1.8537659341209597e+18
14402.0	1.853339935440896e+18
14403.0	1.8404695106125655e+18
14404.0	1.8226098890342354e+18
14405.0	1.849239474798585e+18
14406.0	1.8516218948354045e+18
14407.0	1.8325730488221778e+18
14408.0	1.8506603590320118e+18
14409.0	1.850287089464115e+18
14410.0	1.849883164567142e+18
14411.0	1.84946336506839e+18
14412.0	1.849026984647065e+18
14413.0	1.8486043397324792e+18
14414.0	1.8481730109308925e+18
14415.0	1.8477462706978816e+18
14416.0	1.8473062848528384e+18
14417.0	1.846837123429171e+18
14418.0	1.8463630529921021e+18
14419.0	1.846028795484569e+18
14420.0	1.8455902256365563e+18
14421.0	1.8451728621895677e+18
14422.0	1.844734064171417e+18
14423.0	1.8442964489469952e+18
14424.0	1.78076589668431e+18
14425.0	1.8434445556056061e+18
14426.0	1.8430315492016123e+18
14427.0	1.8426048408453115e+18
14428.0	1.8421201135206397e+18
14429.0	1.8417405894066176e+18
14430.0	1.8413230917419005e+18
14431.0	1.8407131275329536e+18
14432.0	1.8404030996807677e+18
14433.0	1.8258639374516145e+18
14434.0	1.8395773133651963e+18
14435.0	1.8391400101969917e+18
14436.0	1.8387591824932867e+18
14437.0	1.8383306437427197e+18
14438.0	1.8374778494648317e+18
14439.0	1.8373650646302715e+18
14440.0	1.8370504045887488e+18
14441.0	1.8366113012252672e+18
14442.0	1.836178279602585e+18
14443.0	1.8356729112690685e+18
14444.0	1.8353372293758976e+18
14445.0	1.8349196427919355e+18
14446.0	1.8193714518163512e+18
14447.0	1.834021212808806e+18
14448.0	1.8336436835057661e+18
14449.0	1.833218384435609e+18
14450.0	1.8327805662068733e+18
14451.0	1.832357849150259e+18
14452.0	1.8319266059124733e+18
14453.0	1.8312232647524347e+18
14454.0	1.831087656193229e+18
14455.0	1.8306474623107064e+18
14456.0	1.8301753380306941e+18
14457.0	1.8297155567484925e+18
14458.0	1.8293646075887613e+18
14459.0	1.828923460760371e+18
14460.0	1.8285358013743104e+18
14461.0	1.828063249275289e+18
14462.0	1.827498848629555e+18
14463.0	1.8272514316697597e+18
14464.0	1.8268392674820093e+18
14465.0	1.8263797932228605e+18
14466.0	1.8259848038711293e+18
14467.0	1.8253490497257472e+18
14468.0	1.8251179217649656e+18
14469.0	1.8246737567154176e+18
14470.0	1.8242402300985336e+18
14471.0	1.8238395734032381e+18
14472.0	1.8234293469839355e+18
14473.0	1.8230279973896184e+18
14474.0	1.8226078539579384e+18
14475.0	1.8221619574996987e+18
14476.0	1.8208056873582595e+18
14477.0	1.821338699510579e+18
14478.0	1.8209086843650045e+18
14479.0	1.8204804308271104e+18
14480.0	1.820038079394611e+18
14481.0	1.8196524601180155e+18
14482.0	1.8192226362327037e+18
14483.0	1.8187843515973627e+18
14484.0	1.8183665838194685e+18
14485.0	1.8178686813470715e+18
14486.0	1.816913727245517e+18
14487.0	1.8171066467745787e+18
14488.0	1.8166397905403904e+18
14489.0	1.8162463765692413e+18
14490.0	1.815825806996275e+18
14491.0	1.8154190987591675e+18
14492.0	1.8150019148283904e+18
14493.0	1.8145619591823355e+18
14494.0	1.8141160308473853e+18
14495.0	1.8137380586258432e+18
14496.0	1.8130375242940413e+18
14497.0	1.8128900357881853e+18
14498.0	1.8124707345727485e+18
14499.0	1.8120496298065923e+18
14500.0	1.8116275418955768e+18
14501.0	1.8107552826916861e+18
14502.0	1.809933860129997e+18
14503.0	1.8103034571653117e+18
14504.0	1.8099308570083325e+18
14505.0	1.8090887464615928e+18
14506.0	1.808159595718246e+18
14507.0	1.8081824278315008e+18
14508.0	1.8082662501580797e+18
14509.0	1.8078456688410621e+18
14510.0	1.807422877964697e+18
14511.0	1.8070086854115325e+18
14512.0	1.806552091800371e+18
14513.0	1.806169905142169e+18
14514.0	1.805619080619622e+18
14515.0	1.8053225634594816e+18
14516.0	1.8005698080145436e+18
14517.0	1.804492609683456e+18
14518.0	1.804073592002969e+18
14519.0	1.8036519520436221e+18
14520.0	1.8032351875432445e+18
14521.0	1.802809849885491e+18
14522.0	1.8023924814053368e+18
14523.0	1.8009836180471798e+18
14524.0	1.800509346283519e+18
14525.0	1.8011315813482493e+18
14526.0	1.800719360117964e+18
14527.0	1.800226363303526e+18
14528.0	1.7996186237534208e+18
14529.0	1.799446528104857e+18
14530.0	1.7990113220886528e+18
14531.0	1.7986257732763648e+18
14532.0	1.7966925095108605e+18
14533.0	1.7977888452116477e+18
14534.0	1.797378820118937e+18
14535.0	1.7969352288501755e+18
14536.0	1.796534120847769e+18
14537.0	1.7960938716004352e+18
14538.0	1.7957062726123515e+18
14539.0	1.7952888655446016e+18
14540.0	1.7948746159489021e+18
14541.0	1.7944057078611965e+18
14542.0	1.794032434937856e+18
14543.0	1.7929680665444344e+18
14544.0	1.7932018587271165e+18
14545.0	1.7927675351924733e+18
14546.0	1.7356760163549007e+18
14547.0	1.7401880841813775e+18
14548.0	1.7915090074337277e+18
14549.0	1.7908723909394427e+18
14550.0	1.7906873684459515e+18
14551.0	1.790290781903257e+18
14552.0	1.7898634309795837e+18
14553.0	1.7894355800948733e+18
14554.0	1.789040872600371e+18
14555.0	1.7886221820755965e+18
14556.0	1.7881832599060475e+18
14557.0	1.787794115736371e+18
14558.0	1.7873774904868861e+18
14559.0	1.7837081908740037e+18
14560.0	1.7864932036968443e+18
14561.0	1.7861173588262907e+18
14562.0	1.7856521568255995e+18
14563.0	1.785280660609433e+18
14564.0	1.784847875545497e+18
14565.0	1.7844543072239613e+18
14566.0	1.784038920133017e+18
14567.0	1.7836188857532416e+18
14568.0	1.783144209658675e+18
14569.0	1.7827925692776448e+18
14570.0	1.781443927736319e+18
14571.0	1.7819553694220285e+18
14572.0	1.781450615134617e+18
14573.0	1.7810295338565632e+18
14574.0	1.7806623879725053e+18
14575.0	1.7802886553534461e+18
14576.0	1.779867231820185e+18
14577.0	1.779443894006579e+18
14578.0	1.779043891622707e+18
14579.0	1.7786328968069115e+18
14580.0	1.7782196689436672e+18
14581.0	1.7777714253529085e+18
14582.0	1.777387866318438e+18
14583.0	1.776975764206387e+18
14584.0	1.7765355099258877e+18
14585.0	1.776146515073433e+18
14586.0	1.7757250831515643e+18
14587.0	1.7752976416309248e+18
14588.0	1.774895901127475e+18
14589.0	1.774504822544793e+18
14590.0	1.774108989299097e+18
14591.0	1.7737025041989627e+18
14592.0	1.7732973361102848e+18
14593.0	1.772672909941145e+18
14594.0	1.772512497945804e+18
14595.0	1.7721036573245437e+18
14596.0	1.771555527222886e+18
14597.0	1.77122109858775e+18
14598.0	1.7709157314461693e+18
14599.0	1.770533313262387e+18
14600.0	1.7701329870782461e+18
14601.0	1.769736009626419e+18
14602.0	1.7693055935053821e+18
14603.0	1.7689375835947005e+18
14604.0	1.7684529233788928e+18
14605.0	1.7681207462461437e+18
14606.0	1.767619813808537e+18
14607.0	1.7673390018002941e+18
14608.0	1.7669459854491643e+18
14609.0	1.7664661805596672e+18
14610.0	1.7661115622227965e+18
14611.0	1.7657547695587328e+18
14612.0	1.765366088440217e+18
14613.0	1.764973050278707e+18
14614.0	1.7645689139888128e+18
14615.0	1.7641667674767357e+18
14616.0	1.7637814585786365e+18
14617.0	1.7633821457383421e+18
14618.0	1.7629485436239864e+18
14619.0	1.762523662306508e+18
14620.0	1.761932839223296e+18
14621.0	1.7617956250845181e+18
14622.0	1.7613912925011965e+18
14623.0	1.7610004924203003e+18
14624.0	1.7604798131994621e+18
14625.0	1.7601985716944893e+18
14626.0	1.759775384875827e+18
14627.0	1.7593526376202235e+18
14628.0	1.7590136841699325e+18
14629.0	1.7586161094492152e+18
14630.0	1.7582160097574907e+18
14631.0	1.7578122408886264e+18
14632.0	1.751155761322397e+18
14633.0	1.756236323435313e+18
14634.0	1.7566065663934461e+18
14635.0	1.7558641376755697e+18
14636.0	1.7548908729204728e+18
14637.0	1.7554347046993917e+18
14638.0	1.7550273840939005e+18
14639.0	1.754616734888755e+18
14640.0	1.7542298455769085e+18
14641.0	1.7308089980026737e+18
14642.0	1.7534222105313275e+18
14643.0	1.7530344118943741e+18
14644.0	1.7526116545724413e+18
14645.0	1.752184399278899e+18
14646.0	1.7518013603381243e+18
14647.0	1.7514041798819835e+18
14648.0	1.7510378040721403e+18
