# Flux units: erg / (cm m2 s)
# Wavelength units: Angstrom
wave	flux
14000.0	1.9050051892412416e+18
14001.0	1.9045417186492413e+18
14002.0	1.90409660736471e+18
14003.0	1.9036429313114107e+18
14004.0	1.903189417997107e+18
14005.0	1.902735827507609e+18
14006.0	1.9022812488400893e+18
14007.0	1.9018281885106173e+18
14008.0	1.9013605202591741e+18
14009.0	1.900922660087398e+18
14010.0	1.9004675495821312e+18
14011.0	1.8999274675109888e+18
14012.0	1.899557162477158e+18
14013.0	1.8991046658621435e+18
14014.0	1.89865219105751e+18
14015.0	1.8981995015045115e+18
14016.0	1.8977476893999107e+18
14017.0	1.8972956323479547e+18
14018.0	1.8968433337040896e+18
14019.0	1.8963919091531773e+18
14020.0	1.8959401222144e+18
14021.0	1.895488496336896e+18
14022.0	1.8950371187621883e+18
14023.0	1.8945840164896765e+18
14024.0	1.894132388934451e+18
14025.0	1.893683850064691e+18
14026.0	1.893232685560627e+18
14027.0	1.8927822374436861e+18
14028.0	1.8923316551090179e+18
14029.0	1.8918758198280187e+18
14030.0	1.8913665340145661e+18
14031.0	1.8909707175460861e+18
14032.0	1.8905235829293053e+18
14033.0	1.8900666202193917e+18
14034.0	1.8896237705035773e+18
14035.0	1.8891741142712317e+18
14036.0	1.8887245268254715e+18
14037.0	1.888275085341491e+18
14038.0	1.8878257646534653e+18
14039.0	1.8873765714722808e+18
14040.0	1.8869255395082235e+18
14041.0	1.8864779300962304e+18
14042.0	1.8860283124514813e+18
14043.0	1.8855751111933952e+18
14044.0	1.8851310283522043e+18
14045.0	1.8846838182379515e+18
14046.0	1.8842349975109627e+18
14047.0	1.883786557626777e+18
14048.0	1.8833385405284347e+18
14049.0	1.8828850926452733e+18
14050.0	1.8824373171388413e+18
14051.0	1.881988331995136e+18
14052.0	1.8815421503242237e+18
14053.0	1.8810946365423613e+18
14054.0	1.8806475270914043e+18
14055.0	1.8801999327789053e+18
14056.0	1.879753407175065e+18
14057.0	1.8793065007284216e+18
14058.0	1.8788598073524221e+18
14059.0	1.878413204573388e+18
14060.0	1.8779667293011963e+18
14061.0	1.877519361481113e+18
14062.0	1.8770741646327803e+18
14063.0	1.876625652606566e+18
14064.0	1.8761740468617213e+18
14065.0	1.8757350961709053e+18
14066.0	1.8752904949137405e+18
14067.0	1.8748433804296187e+18
14068.0	1.8743995794456573e+18
14069.0	1.873954006787686e+18
14070.0	1.8735090599198715e+18
14071.0	1.8730595647487997e+18
14072.0	1.8726124099993597e+18
14073.0	1.8721675939938304e+18
14074.0	1.8717229239500797e+18
14075.0	1.8712756249165821e+18
14076.0	1.8708320755908605e+18
14077.0	1.8703759282536445e+18
14078.0	1.8699444669120507e+18
14079.0	1.8695004427911163e+18
14080.0	1.8690575377104893e+18
14081.0	1.8686137535037437e+18
14082.0	1.8681664142049275e+18
14083.0	1.867726337762918e+18
14084.0	1.867283179346329e+18
14085.0	1.8667974588104704e+18
14086.0	1.8663957300510715e+18
14087.0	1.8659537561059325e+18
14088.0	1.8655091296829437e+18
14089.0	1.8650663319764987e+18
14090.0	1.864625255612416e+18
14091.0	1.8641829964546043e+18
14092.0	1.8637406299226107e+18
14093.0	1.8632983925751803e+18
14094.0	1.8628562542133243e+18
14095.0	1.8624142869790715e+18
14096.0	1.8619644361310205e+18
14097.0	1.8615218045190141e+18
14098.0	1.861080627491635e+18
14099.0	1.860640888271667e+18
14100.0	1.8601979295039488e+18
14101.0	1.8597583664447483e+18
14102.0	1.859317135730278e+18
14103.0	1.858874322924339e+18
14104.0	1.8584354141765627e+18
14105.0	1.8579937841643517e+18
14106.0	1.8575540583661565e+18
14107.0	1.8571109066604541e+18
14108.0	1.8566714023215104e+18
14109.0	1.8562322972803064e+18
14110.0	1.8557889274707963e+18
14111.0	1.8553446919569405e+18
14112.0	1.8549129152036861e+18
14113.0	1.85447341925335e+18
14114.0	1.8540316785115128e+18
14115.0	1.8535941907939328e+18
14116.0	1.8531439356149755e+18
14117.0	1.8526240164020221e+18
14118.0	1.852276493149798e+18
14119.0	1.8518363663761403e+18
14120.0	1.8513975213817853e+18
14121.0	1.8509567973392381e+18
14122.0	1.8505195780571133e+18
14123.0	1.8500772937334784e+18
14124.0	1.8496348802252792e+18
14125.0	1.8491311426371581e+18
14126.0	1.8487621680365563e+18
14127.0	1.8483242306895864e+18
14128.0	1.847886202745651e+18
14129.0	1.8474469550981117e+18
14130.0	1.8470076789293053e+18
14131.0	1.846573677517209e+18
14132.0	1.8461363441500152e+18
14133.0	1.8456184851791862e+18
14134.0	1.8452620398034941e+18
14135.0	1.8448230102597632e+18
14136.0	1.8443812158308347e+18
14137.0	1.8439515295186941e+18
14138.0	1.8435109195612155e+18
14139.0	1.8430721165099005e+18
14140.0	1.842628917827993e+18
14141.0	1.8421995737710587e+18
14142.0	1.8417526337699835e+18
14143.0	1.8413169277927421e+18
14144.0	1.8408919089020925e+18
14145.0	1.8404562297683965e+18
14146.0	1.8400203878957053e+18
14147.0	1.8395850560503803e+18
14148.0	1.8391497527263232e+18
14149.0	1.8387147614584827e+18
14150.0	1.8382796007407613e+18
14151.0	1.8378443997577216e+18
14152.0	1.837409970526617e+18
14153.0	1.8369752560828413e+18
14154.0	1.836536776831795e+18
14155.0	1.836066283297177e+18
14156.0	1.8356642743582715e+18
14157.0	1.8352312795791355e+18
14158.0	1.8347963638087677e+18
14159.0	1.834363078783795e+18
14160.0	1.833926780570828e+18
14161.0	1.8334828604686333e+18
14162.0	1.8330430356848635e+18
14163.0	1.8326252679069696e+18
14164.0	1.832187379213926e+18
14165.0	1.831687632925491e+18
14166.0	1.831325375922176e+18
14167.0	1.8308907604639741e+18
14168.0	1.8304593712644093e+18
14169.0	1.8300274300944381e+18
14170.0	1.8295941417140221e+18
14171.0	1.829162019350118e+18
14172.0	1.8287300932796413e+18
14173.0	1.8282656529645565e+18
14174.0	1.827865212695347e+18
14175.0	1.8274338453061627e+18
14176.0	1.8270015568478203e+18
14177.0	1.826570095506227e+18
14178.0	1.826137934554726e+18
14179.0	1.8257003159748603e+18
14180.0	1.8252759312629752e+18
14181.0	1.8248447115132923e+18
14182.0	1.8244135118962685e+18
14183.0	1.8239826511790077e+18
14184.0	1.8235510371647485e+18
14185.0	1.8231210824171515e+18
14186.0	1.822670219902976e+18
14187.0	1.8222563998040061e+18
14188.0	1.8218295102537725e+18
14189.0	1.8213984951861243e+18
14190.0	1.8209691460960256e+18
14191.0	1.8205353862758397e+18
14192.0	1.820101869725286e+18
14193.0	1.819670448649011e+18
14194.0	1.81924344669143e+18
14195.0	1.8188142485962747e+18
14196.0	1.8183848206532605e+18
14197.0	1.8179555671932923e+18
14198.0	1.8175256610996221e+18
14199.0	1.817096219734835e+18
14200.0	1.81665807770583e+18
14201.0	1.8162396723937275e+18
14202.0	1.815811143709491e+18
14203.0	1.815374909249945e+18
14204.0	1.8149537189199872e+18
14205.0	1.8145254972588027e+18
14206.0	1.8140799430557693e+18
14207.0	1.813669669660262e+18
14208.0	1.8132418942730237e+18
14209.0	1.812793395668582e+18
14210.0	1.8123741011640317e+18
14211.0	1.811958698973593e+18
14212.0	1.8115312406757376e+18
14213.0	1.8111037572120568e+18
14214.0	1.810676787131187e+18
14215.0	1.8102476796329981e+18
14216.0	1.8098229157560315e+18
14217.0	1.809396096670105e+18
14218.0	1.8089675780521981e+18
14219.0	1.8085428259192827e+18
14220.0	1.808116406131097e+18
14221.0	1.8076900031201277e+18
14222.0	1.8072607630819325e+18
14223.0	1.806837722225049e+18
14224.0	1.8064117956870144e+18
14225.0	1.8059567892004861e+18
14226.0	1.8055602446008317e+18
14227.0	1.8051346737397755e+18
14228.0	1.8046390546464763e+18
14229.0	1.8042755645177853e+18
14230.0	1.803858591979929e+18
14231.0	1.8034293787852797e+18
14232.0	1.8030022526763005e+18
14233.0	1.8025762070200317e+18
14234.0	1.8021526058041344e+18
14235.0	1.801727598657536e+18
14236.0	1.8013031199932416e+18
14237.0	1.8008788023902203e+18
14238.0	1.800454664303411e+18
14239.0	1.8000297192325115e+18
14240.0	1.7993977030508544e+18
14241.0	1.7991825906204664e+18
14242.0	1.798758828343296e+18
14243.0	1.7983121131569147e+18
14244.0	1.7979115923570688e+18
14245.0	1.797485625553715e+18
14246.0	1.7970595832528893e+18
14247.0	1.7966415084519424e+18
14248.0	1.7962164794949632e+18
14249.0	1.795795260643737e+18
14250.0	1.7953723674263547e+18
14251.0	1.7949500245016576e+18
14252.0	1.794527413141504e+18
14253.0	1.7941048420466688e+18
14254.0	1.793682205520691e+18
14255.0	1.7932558763294717e+18
14256.0	1.7928134292668413e+18
14257.0	1.7924160139296765e+18
14258.0	1.791994333705011e+18
14259.0	1.7915702291726333e+18
14260.0	1.7911502384136184e+18
14261.0	1.7907261624025085e+18
14262.0	1.790312129232896e+18
14263.0	1.789853661606707e+18
14264.0	1.789463676898508e+18
14265.0	1.789048002917171e+18
14266.0	1.7886276782915581e+18
14267.0	1.7882067110985725e+18
14268.0	1.7877861650137085e+18
14269.0	1.787365248152371e+18
14270.0	1.7869451617632253e+18
14271.0	1.7865236795097088e+18
14272.0	1.7861045695545344e+18
14273.0	1.785684437866905e+18
14274.0	1.7852102902546427e+18
14275.0	1.7848398895906808e+18
14276.0	1.784417256420147e+18
14277.0	1.7840008324972541e+18
14278.0	1.78358578095063e+18
14279.0	1.7831663337734136e+18
14280.0	1.7827428080549885e+18
14281.0	1.7823218240847872e+18
14282.0	1.7819028282146816e+18
14283.0	1.7814838977757184e+18
14284.0	1.7810650864549885e+18
14285.0	1.7806463892193277e+18
14286.0	1.78022762151936e+18
14287.0	1.7798093823016955e+18
14288.0	1.779390976989593e+18
14289.0	1.778839526676889e+18
14290.0	1.7785531681210365e+18
14291.0	1.7781365747482621e+18
14292.0	1.7777188673683456e+18
14293.0	1.7773007942451197e+18
14294.0	1.7768629944713208e+18
14295.0	1.7764639081234427e+18
14296.0	1.775940492538675e+18
14297.0	1.7756313085804541e+18
14298.0	1.7751893749006333e+18
14299.0	1.7747948787990525e+18
14300.0	1.7743788759842816e+18
14301.0	1.773962331265433e+18
14302.0	1.7735460969250813e+18
14303.0	1.7731247371452413e+18
14304.0	1.772711771006566e+18
14305.0	1.7722964057260024e+18
14306.0	1.7718645551529981e+18
14307.0	1.7714613063778304e+18
14308.0	1.7710488905318397e+18
14309.0	1.7706323575570432e+18
14310.0	1.7701450633183227e+18
14311.0	1.7697844488044544e+18
14312.0	1.769380671546982e+18
14313.0	1.768960773062656e+18
14314.0	1.7685550043496443e+18
14315.0	1.768140243048857e+18
14316.0	1.7677175243145213e+18
14317.0	1.7673011909885947e+18
14318.0	1.7668954558300157e+18
14319.0	1.7664808287469565e+18
14320.0	1.7660661563654136e+18
14321.0	1.765651760807936e+18
14322.0	1.7652305553784827e+18
14323.0	1.7648211711754237e+18
14324.0	1.764408840893235e+18
14325.0	1.7639934873567227e+18
14326.0	1.7635811503636472e+18
14327.0	1.7631662246461437e+18
14328.0	1.7627527635795965e+18
14329.0	1.762340159828787e+18
14330.0	1.7619267222503421e+18
14331.0	1.7615132863496187e+18
14332.0	1.7611001843154941e+18
14333.0	1.760683015484211e+18
14334.0	1.7602700040470525e+18
14335.0	1.7598524040413181e+18
14336.0	1.7594325609218048e+18
14337.0	1.7590256731684861e+18
14338.0	1.7586129452662784e+18
14339.0	1.7581990043713533e+18
14340.0	1.757788543071027e+18
14341.0	1.7573760701825024e+18
14342.0	1.7569642516054013e+18
14343.0	1.7565490775851005e+18
14344.0	1.7561388410994685e+18
14345.0	1.7557288545943547e+18
14346.0	1.7553168833445885e+18
14347.0	1.7549032142405627e+18
14348.0	1.7544940481413115e+18
14349.0	1.754083117078937e+18
14350.0	1.753669650979225e+18
14351.0	1.7532585253011456e+18
14352.0	1.7528490052026365e+18
14353.0	1.7524391998914557e+18
14354.0	1.752028085957427e+18
14355.0	1.7516171582504957e+18
14356.0	1.7512069720965117e+18
14357.0	1.7507971164536827e+18
14358.0	1.7503868782903296e+18
14359.0	1.7499743080939523e+18
14360.0	1.749566490882867e+18
14361.0	1.7491568013344765e+18
14362.0	1.7487470715207675e+18
14363.0	1.7483373467402235e+18
14364.0	1.7479192534843387e+18
14365.0	1.7475174324502525e+18
14366.0	1.7471077580013565e+18
14367.0	1.7466998535487485e+18
14368.0	1.7462906723500032e+18
14369.0	1.7458817696530432e+18
14370.0	1.7454728954773504e+18
14371.0	1.7450641404198907e+18
14372.0	1.7446553618743293e+18
14373.0	1.7442469071290363e+18
14374.0	1.7438385211703293e+18
14375.0	1.7434301939318781e+18
14376.0	1.7430220059443197e+18
14377.0	1.7426138179567613e+18
14378.0	1.742205529305907e+18
14379.0	1.741798061060915e+18
14380.0	1.7413902723710976e+18
14381.0	1.7409807354953728e+18
14382.0	1.7405748409532413e+18
14383.0	1.740162725419417e+18
14384.0	1.7397570154266621e+18
14385.0	1.7393532163588093e+18
14386.0	1.7389438187339776e+18
14387.0	1.7385391086632957e+18
14388.0	1.7381319239532544e+18
14389.0	1.7377254841516032e+18
14390.0	1.7373185645215736e+18
14391.0	1.7369122253832187e+18
14392.0	1.7365033528852477e+18
14393.0	1.7360996729356285e+18
14394.0	1.7356877352402936e+18
14395.0	1.7352831375769595e+18
14396.0	1.7348812863438843e+18
14397.0	1.7344755763511293e+18
14398.0	1.73406812152791e+18
14399.0	1.7336634768883712e+18
14400.0	1.7332485729812477e+18
14401.0	1.7328465086775288e+18
14402.0	1.73244199993344e+18
14403.0	1.7309262287994857e+18
14404.0	1.7286477050281974e+18
14405.0	1.731041340633906e+18
14406.0	1.7308218644496381e+18
14407.0	1.7287233987936264e+18
14408.0	1.730008416098713e+18
14409.0	1.7296050498830333e+18
14410.0	1.7292024302534653e+18
14411.0	1.7287990774595581e+18
14412.0	1.728394483151667e+18
14413.0	1.7279909038653437e+18
14414.0	1.7275864991399933e+18
14415.0	1.727182787313664e+18
14416.0	1.7267787885969405e+18
14417.0	1.726371384105369e+18
14418.0	1.725963842040627e+18
14419.0	1.7255682436759547e+18
14420.0	1.7251643842101248e+18
14421.0	1.724761766258278e+18
14422.0	1.7243587171319805e+18
14423.0	1.7239547855241216e+18
14424.0	1.7166768376119245e+18
14425.0	1.7231491738107896e+18
14426.0	1.72274714977239e+18
14427.0	1.722344800256e+18
14428.0	1.721937382342656e+18
14429.0	1.721539587840409e+18
14430.0	1.7211376963420157e+18
14431.0	1.720722270663475e+18
14432.0	1.7203279943434237e+18
14433.0	1.7186664073920497e+18
14434.0	1.719528068428595e+18
14435.0	1.7191248062316541e+18
14436.0	1.718726402716467e+18
14437.0	1.7183248870277115e+18
14438.0	1.7178869832351744e+18
14439.0	1.717514123031347e+18
14440.0	1.7171208466333693e+18
14441.0	1.7167188897038339e+18
14442.0	1.7163172062429181e+18
14443.0	1.715910816772915e+18
14444.0	1.7155165941399547e+18
14445.0	1.7151165464576e+18
14446.0	1.7133713385062403e+18
14447.0	1.7143137768046587e+18
14448.0	1.713915351479091e+18
14449.0	1.7135151746121725e+18
14450.0	1.7131140867424253e+18
14451.0	1.7127148913426432e+18
14452.0	1.7123144259076093e+18
14453.0	1.711890641820057e+18
14454.0	1.7115154411945981e+18
14455.0	1.711115208962867e+18
14456.0	1.7107112689663997e+18
14457.0	1.710308932871782e+18
14458.0	1.7099152873750525e+18
14459.0	1.7095145082060797e+18
14460.0	1.709119253774336e+18
14461.0	1.7087172163141627e+18
14462.0	1.7083065436209147e+18
14463.0	1.707922132303872e+18
14464.0	1.7075242690150397e+18
14465.0	1.7071227466153981e+18
14466.0	1.7067271029522432e+18
14467.0	1.706310556555673e+18
14468.0	1.7059291382939643e+18
14469.0	1.7055295033311227e+18
14470.0	1.7051298583019515e+18
14471.0	1.7047334563086333e+18
14472.0	1.70433675568087e+18
14473.0	1.703941153960755e+18
14474.0	1.7035435607851005e+18
14475.0	1.7031451690139643e+18
14476.0	1.702666211373875e+18
14477.0	1.7023482042777597e+18
14478.0	1.7019480307662848e+18
14479.0	1.7015503235055616e+18
14480.0	1.70115164316631e+18
14481.0	1.7007573920120824e+18
14482.0	1.7003600689496061e+18
14483.0	1.6999621888835581e+18
14484.0	1.699566521732301e+18
14485.0	1.6991640983961597e+18
14486.0	1.6987295064260605e+18
14487.0	1.698377951608832e+18
14488.0	1.6979786270244861e+18
14489.0	1.6975845218320384e+18
14490.0	1.697188213791129e+18
14491.0	1.6967936707133437e+18
14492.0	1.6963979565858813e+18
14493.0	1.6960020511981568e+18
14494.0	1.6956035285647357e+18
14495.0	1.695211295709593e+18
14496.0	1.694795365036851e+18
14497.0	1.6944204966002688e+18
14498.0	1.694025037486489e+18
14499.0	1.6936283687354365e+18
14500.0	1.693231944931737e+18
14501.0	1.6927993276399616e+18
14502.0	1.6923741577543677e+18
14503.0	1.6920442656784384e+18
14504.0	1.691652242538496e+18
14505.0	1.6912240024223741e+18
14506.0	1.690782045254451e+18
14507.0	1.6904330053419005e+18
14508.0	1.6900755986317307e+18
14509.0	1.6896814783397885e+18
14510.0	1.6892874536779776e+18
14511.0	1.6888935280017405e+18
14512.0	1.6884971981504507e+18
14513.0	1.6881059467624443e+18
14514.0	1.6877004867502075e+18
14515.0	1.6873178739507195e+18
14516.0	1.686598780662579e+18
14517.0	1.6865319452672e+18
14518.0	1.6861386588028925e+18
14519.0	1.6857455501770752e+18
14520.0	1.6853524834942976e+18
14521.0	1.6849586198937595e+18
14522.0	1.6845665917206528e+18
14523.0	1.6840910515994621e+18
14524.0	1.683692220265267e+18
14525.0	1.6833876835958781e+18
14526.0	1.6829960161329147e+18
14527.0	1.6825979716501504e+18
14528.0	1.682189753463603e+18
14529.0	1.681817468718285e+18
14530.0	1.681424397002342e+18
14531.0	1.6810346152984576e+18
14532.0	1.6805078593699835e+18
14533.0	1.680250917984665e+18
14534.0	1.6798593243414525e+18
14535.0	1.679465712399155e+18
14536.0	1.679075947472486e+18
14537.0	1.6786825469231104e+18
14538.0	1.6782929095032832e+18
14539.0	1.6779018443423741e+18
14540.0	1.6775106046984187e+18
14541.0	1.677116192482918e+18
14542.0	1.6767284139786235e+18
14543.0	1.6762828111216635e+18
14544.0	1.6759465118269437e+18
14545.0	1.675554767188787e+18
14546.0	1.6672868075044805e+18
14547.0	1.6678333521592246e+18
14548.0	1.6743818132979707e+18
14549.0	1.6739754959699965e+18
14550.0	1.6736023035772925e+18
14551.0	1.6732130553888763e+18
14552.0	1.672821904664166e+18
14553.0	1.6724308478918653e+18
14554.0	1.6720428110184448e+18
14555.0	1.671652822954803e+18
14556.0	1.6712609474543616e+18
14557.0	1.67087350784983e+18
14558.0	1.6704837999656957e+18
14559.0	1.6698502604128246e+18
14560.0	1.6696998241501181e+18
14561.0	1.6693143625793539e+18
14562.0	1.668922112946995e+18
14563.0	1.6685367688167421e+18
14564.0	1.6681461801287677e+18
14565.0	1.6677585358422016e+18
14566.0	1.6673695309234176e+18
14567.0	1.6669795093053437e+18
14568.0	1.6665818758643707e+18
14569.0	1.6661974981017597e+18
14570.0	1.6657403692974075e+18
14571.0	1.6654196442923e+18
14572.0	1.665024626419302e+18
14573.0	1.6646360996511736e+18
14574.0	1.6642506263363584e+18
14575.0	1.663866047247155e+18
14576.0	1.6634779180990461e+18
14577.0	1.663088929957478e+18
14578.0	1.662701594371686e+18
14579.0	1.6623138024456187e+18
14580.0	1.6619259819982848e+18
14581.0	1.6615350342778877e+18
14582.0	1.6611502807056381e+18
14583.0	1.6607625810542592e+18
14584.0	1.6603732657569792e+18
14585.0	1.6599873293910013e+18
14586.0	1.659599257285427e+18
14587.0	1.6592105862332413e+18
14588.0	1.6588259333242877e+18
14589.0	1.6584536653561853e+18
14590.0	1.65808318751703e+18
14591.0	1.6577124110434304e+18
14592.0	1.6573418811949053e+18
14593.0	1.6569542687850493e+18
14594.0	1.656601695590809e+18
14595.0	1.656230476198707e+18
14596.0	1.6558485260992507e+18
14597.0	1.6554833246945283e+18
14598.0	1.6551203781476347e+18
14599.0	1.6547510042492925e+18
14600.0	1.6543807965233147e+18
14601.0	1.65401110553559e+18
14602.0	1.653638601008742e+18
14603.0	1.653271059182387e+18
14604.0	1.6528948099809277e+18
14605.0	1.6525296303865853e+18
14606.0	1.6521512773222397e+18
14607.0	1.6517920335069181e+18
14608.0	1.651422100927283e+18
14609.0	1.651044811538432e+18
14610.0	1.650679506114969e+18
14611.0	1.6503134171955195e+18
14612.0	1.649944615400243e+18
14613.0	1.6495752331132925e+18
14614.0	1.6492052418134013e+18
14615.0	1.6488355558588416e+18
14616.0	1.6484670577311744e+18
14617.0	1.6480976720887803e+18
14618.0	1.647725694366515e+18
14619.0	1.6473555705266176e+18
14620.0	1.6469700418469885e+18
14621.0	1.6466207100108797e+18
14622.0	1.646251550860902e+18
14623.0	1.6458823329906685e+18
14624.0	1.6455042953379837e+18
14625.0	1.6451440901881853e+18
14626.0	1.644772802009497e+18
14627.0	1.6444009299836923e+18
14628.0	1.6440368979509243e+18
14629.0	1.64366787805184e+18
14630.0	1.6432986417266685e+18
14631.0	1.6429290144923643e+18
14632.0	1.6419992362811397e+18
14633.0	1.6421408745717757e+18
14634.0	1.6418217148809216e+18
14635.0	1.6414239002460152e+18
14636.0	1.6409686488121341e+18
14637.0	1.6407163597488128e+18
14638.0	1.6403470345043963e+18
14639.0	1.6399769056313344e+18
14640.0	1.6396087615029248e+18
14641.0	1.6371044583473132e+18
14642.0	1.6388707267379195e+18
14643.0	1.6385024869793792e+18
14644.0	1.6381317323161595e+18
14645.0	1.6377609977855997e+18
14646.0	1.6373926791741437e+18
14647.0	1.637023874023424e+18
14648.0	1.6366513728520187e+18
