# Flux units: erg / (cm m2 s)
# Wavelength units: Angstrom
wave	flux
14000.0	2.135349934214348e+18
14001.0	2.1347941218254843e+18
14002.0	2.134333395986022e+18
14003.0	2.1338205903126528e+18
14004.0	2.1333042865897472e+18
14005.0	2.1327935109595133e+18
14006.0	2.132270632245657e+18
14007.0	2.1317515468603387e+18
14008.0	2.1311254446473216e+18
14009.0	2.1307353055887355e+18
14010.0	2.1302032581263355e+18
14011.0	2.1290459624112128e+18
14012.0	2.1291783967211517e+18
14013.0	2.128669062253772e+18
14014.0	2.128146784164249e+18
14015.0	2.127639563626086e+18
14016.0	2.1271271689945083e+18
14017.0	2.126614943812812e+18
14018.0	2.126100260768972e+18
14019.0	2.1255911880261624e+18
14020.0	2.125075999988121e+18
14021.0	2.1245645499138043e+18
14022.0	2.1240393643327483e+18
14023.0	2.123425383658291e+18
14024.0	2.1229763448274936e+18
14025.0	2.1225143237869565e+18
14026.0	2.1220041840132093e+18
14027.0	2.1214921870016504e+18
14028.0	2.12097559471063e+18
14029.0	2.1204624920805373e+18
14030.0	2.115399891655069e+18
14031.0	2.119397001291366e+18
14032.0	2.118920610565324e+18
14033.0	2.1183029858795515e+18
14034.0	2.117899480412979e+18
14035.0	2.1173916005302272e+18
14036.0	2.1168756893941755e+18
14037.0	2.1163575871537147e+18
14038.0	2.115865279882854e+18
14039.0	2.1153522208735227e+18
14040.0	2.114832608683622e+18
14041.0	2.114334103909171e+18
14042.0	2.1138183269908477e+18
14043.0	2.1132750589263867e+18
14044.0	2.112800773740953e+18
14045.0	2.1122992306126843e+18
14046.0	2.1117869920092155e+18
14047.0	2.1112581741608955e+18
14048.0	2.1107674221379581e+18
14049.0	2.110262557120921e+18
14050.0	2.1097501138354173e+18
14051.0	2.1092260338728955e+18
14052.0	2.1087267103703037e+18
14053.0	2.108225182341529e+18
14054.0	2.1077199113158653e+18
14055.0	2.1072085837152248e+18
14056.0	2.1067054584954877e+18
14057.0	2.106196196170137e+18
14058.0	2.105691237200691e+18
14059.0	2.1051792351559677e+18
14060.0	2.104677455468953e+18
14061.0	2.1041622993076221e+18
14062.0	2.1036643800580093e+18
14063.0	2.103138399236915e+18
14064.0	2.1020509839818752e+18
14065.0	2.102137269203763e+18
14066.0	2.1016368635707387e+18
14067.0	2.1009836376326144e+18
14068.0	2.1006287189835773e+18
14069.0	2.100109063172915e+18
14070.0	2.0996176216064e+18
14071.0	2.0991098222542843e+18
14072.0	2.098595983104409e+18
14073.0	2.0980892423946235e+18
14074.0	2.0975896722669565e+18
14075.0	2.097057092966809e+18
14076.0	2.0964176729997312e+18
14077.0	2.094937157507481e+18
14078.0	2.0954838313467901e+18
14079.0	2.095055911675494e+18
14080.0	2.0945660522004477e+18
14081.0	2.094062435408281e+18
14082.0	2.093524844753715e+18
14083.0	2.093051918522777e+18
14084.0	2.0925530547159035e+18
14085.0	2.0909902285242363e+18
14086.0	2.091458826233446e+18
14087.0	2.0910455228727293e+18
14088.0	2.0905148293316605e+18
14089.0	2.0899027931365373e+18
14090.0	2.0895160682414077e+18
14091.0	2.0890367515688955e+18
14092.0	2.0885330710233088e+18
14093.0	2.088033183806259e+18
14094.0	2.0875317883174912e+18
14095.0	2.0870305035583483e+18
14096.0	2.0862852998889472e+18
14097.0	2.0859053295009787e+18
14098.0	2.0853916967108605e+18
14099.0	2.0850143569903616e+18
14100.0	2.0844848680534016e+18
14101.0	2.0840145255137275e+18
14102.0	2.0835108651007997e+18
14103.0	2.0829992271216637e+18
14104.0	2.0825101494648827e+18
14105.0	2.0820049556144125e+18
14106.0	2.0815139938762747e+18
14107.0	2.080988627101286e+18
14108.0	2.080484572423782e+18
14109.0	2.0800087387013112e+18
14110.0	2.0794766962720765e+18
14111.0	2.0789387298078712e+18
14112.0	2.0784990157537277e+18
14113.0	2.0779251024265216e+18
14114.0	2.0774872439324664e+18
14115.0	2.0770050432565243e+18
14116.0	2.0761388389498872e+18
14117.0	2.0689720266719258e+18
14118.0	2.0755138893316096e+18
14119.0	2.074889130973593e+18
14120.0	2.0743988436795387e+18
14121.0	2.0739872079740925e+18
14122.0	2.0733839026421755e+18
14123.0	2.0727874575138816e+18
14124.0	2.0722275363848187e+18
14125.0	2.07147349615575e+18
14126.0	2.071461606142771e+18
14127.0	2.0710312168652797e+18
14128.0	2.070536230273024e+18
14129.0	2.0700269696253947e+18
14130.0	2.069515444053606e+18
14131.0	2.069035414349414e+18
14132.0	2.0685441170669565e+18
14133.0	2.0674151228375017e+18
14134.0	2.0675614654595064e+18
14135.0	2.0670157026230264e+18
14136.0	2.0659728577200128e+18
14137.0	2.0660655015067645e+18
14138.0	2.065464300037734e+18
14139.0	2.065084920207769e+18
14140.0	2.0645291799609344e+18
14141.0	2.0640797334437883e+18
14142.0	2.0628674386591747e+18
14143.0	2.0630043273199608e+18
14144.0	2.0626132168605693e+18
14145.0	2.0621181514153981e+18
14146.0	2.0616116321648637e+18
14147.0	2.061121658604748e+18
14148.0	2.0605910472720376e+18
14149.0	2.0600718293467128e+18
14150.0	2.0596489596174333e+18
14151.0	2.0590543465611261e+18
14152.0	2.058662377108275e+18
14153.0	2.058171708971417e+18
14154.0	2.0576462281113597e+18
14155.0	2.0551004902653965e+18
14156.0	2.0565942815686643e+18
14157.0	2.056184184333926e+18
14158.0	2.0556682497097725e+18
14159.0	2.0552044653838336e+18
14160.0	2.0547121010704381e+18
14161.0	2.0541402546962427e+18
14162.0	2.0536009275998205e+18
14163.0	2.0532362563551227e+18
14164.0	2.0524682289610744e+18
14165.0	2.05163033788416e+18
14166.0	2.051754756040294e+18
14167.0	2.0512553704620027e+18
14168.0	2.0507201789493243e+18
14169.0	2.050286914057011e+18
14170.0	2.0497638071730173e+18
14171.0	2.049286436657561e+18
14172.0	2.0488214175285245e+18
14173.0	2.0480505346523133e+18
14174.0	2.047822096079257e+18
14175.0	2.0473479971209208e+18
14176.0	2.0468245748252672e+18
14177.0	2.0463619766484984e+18
14178.0	2.0458755414032381e+18
14179.0	2.0453332665499645e+18
14180.0	2.0449044392312827e+18
14181.0	2.0444142324678656e+18
14182.0	2.0439254316351488e+18
14183.0	2.0434371139862525e+18
14184.0	2.0429429696102392e+18
14185.0	2.042457910096691e+18
14186.0	2.040537781213594e+18
14187.0	2.0414539531026427e+18
14188.0	2.0409900630802427e+18
14189.0	2.0404870402015227e+18
14190.0	2.0400084080394237e+18
14191.0	2.039513679816294e+18
14192.0	2.0390220469895165e+18
14193.0	2.0383014823395328e+18
14194.0	2.038044562764595e+18
14195.0	2.0375726481997821e+18
14196.0	2.037083287008051e+18
14197.0	2.0365945901940733e+18
14198.0	2.0361040327868416e+18
14199.0	2.0356068936777725e+18
14200.0	2.0342939272085507e+18
14201.0	2.0346385027039224e+18
14202.0	2.0341616724148221e+18
14203.0	2.0336113629528064e+18
14204.0	2.0331757156958203e+18
14205.0	2.0327036669132797e+18
14206.0	2.0320719443329021e+18
14207.0	2.0317363631030264e+18
14208.0	2.0312513455325176e+18
14209.0	2.0305944671944696e+18
14210.0	2.0301825932525558e+18
14211.0	2.0297877733507072e+18
14212.0	2.0293108558200827e+18
14213.0	2.0287936125730816e+18
14214.0	2.0283423960596472e+18
14215.0	2.0278374689669115e+18
14216.0	2.027372911211315e+18
14217.0	2.02688833823703e+18
14218.0	2.026387731277414e+18
14219.0	2.0259162847969277e+18
14220.0	2.0254298260635645e+18
14221.0	2.0249195671715835e+18
14222.0	2.0242187727929344e+18
14223.0	2.0239710722981883e+18
14224.0	2.0235028285882365e+18
14225.0	2.0207546920861711e+18
14226.0	2.02253582509015e+18
14227.0	2.0220535623385088e+18
14228.0	2.0165804888686615e+18
14229.0	2.0204913753587668e+18
14230.0	2.0206072404901883e+18
14231.0	2.0198878619893755e+18
14232.0	2.019636911747891e+18
14233.0	2.0191414436495352e+18
14234.0	2.0186706229592061e+18
14235.0	2.018185892279091e+18
14236.0	2.0177040187588603e+18
14237.0	2.017219616912179e+18
14238.0	2.0167399529512955e+18
14239.0	2.0162340225810427e+18
14240.0	2.014214414873396e+18
14241.0	2.0152835446407165e+18
14242.0	2.014816060938649e+18
14243.0	2.014155258409779e+18
14244.0	2.0138617259163643e+18
14245.0	2.0133562904739837e+18
14246.0	2.012855514064486e+18
14247.0	2.0124140535021563e+18
14248.0	2.0119249926225917e+18
14249.0	2.0114562221080573e+18
14250.0	2.01098018202583e+18
14251.0	2.0105019223179261e+18
14252.0	2.0100242061918205e+18
14253.0	2.0095410727026683e+18
14254.0	2.0090638229831677e+18
14255.0	2.0085536664322043e+18
14256.0	2.006210083972712e+18
14257.0	2.0076077653164027e+18
14258.0	2.007152708498227e+18
14259.0	2.00662776283136e+18
14260.0	2.0061416312537083e+18
14261.0	2.005689604400742e+18
14262.0	2.005243847193395e+18
14263.0	2.0019784775106583e+18
14264.0	2.0038973279698936e+18
14265.0	2.0037531764523005e+18
14266.0	2.0033328686039037e+18
14267.0	2.0028563268829181e+18
14268.0	2.0023763558989821e+18
14269.0	2.0018921889333243e+18
14270.0	2.0014265977012221e+18
14271.0	2.0009387397480445e+18
14272.0	2.000469415585382e+18
14273.0	1.999996596728627e+18
14274.0	1.9955136994476063e+18
14275.0	1.9986778286981117e+18
14276.0	1.998502615842816e+18
14277.0	1.9980564895367165e+18
14278.0	1.9976188978003965e+18
14279.0	1.9971427385999355e+18
14280.0	1.996658638743142e+18
14281.0	1.9961826372485115e+18
14282.0	1.995707803448115e+18
14283.0	1.9952328303968253e+18
14284.0	1.99475791438807e+18
14285.0	1.9942823591673853e+18
14286.0	1.9937976855298043e+18
14287.0	1.9933317369430016e+18
14288.0	1.992858142978867e+18
14289.0	1.9913819039989727e+18
14290.0	1.991896753137254e+18
14291.0	1.9914358175825915e+18
14292.0	1.9909613461700603e+18
14293.0	1.990488188413542e+18
14294.0	1.989842362905395e+18
14295.0	1.989518362987724e+18
14296.0	1.9882543104917507e+18
14297.0	1.9885981947658237e+18
14298.0	1.987194646429695e+18
14299.0	1.987597670390169e+18
14300.0	1.98716874073047e+18
14301.0	1.986692209075814e+18
14302.0	1.986230587333017e+18
14303.0	1.9857085340581888e+18
14304.0	1.9852702360010747e+18
14305.0	1.9848076562792443e+18
14306.0	1.9841555292487677e+18
14307.0	1.9838044827811837e+18
14308.0	1.9833774992785403e+18
14309.0	1.982876227941171e+18
14310.0	1.9816356853579768e+18
14311.0	1.9806836236484603e+18
14312.0	1.9812302119239677e+18
14313.0	1.9809195817697277e+18
14314.0	1.980520388047667e+18
14315.0	1.9800855611965435e+18
14316.0	1.979569539330867e+18
14317.0	1.9789427190530043e+18
14318.0	1.9786936310824955e+18
14319.0	1.9782254561591293e+18
14320.0	1.9777560078450683e+18
14321.0	1.977281210954547e+18
14322.0	1.9767606995058683e+18
14323.0	1.9763317597798397e+18
14324.0	1.9758609793548288e+18
14325.0	1.9753966883569661e+18
14326.0	1.974941072857497e+18
14327.0	1.9744615112376317e+18
14328.0	1.9739930427129848e+18
14329.0	1.9735347663470587e+18
14330.0	1.9730648851808253e+18
14331.0	1.9725670414286845e+18
14332.0	1.9721272350998525e+18
14333.0	1.971660457718579e+18
14334.0	1.9711929572392955e+18
14335.0	1.9706941638967296e+18
14336.0	1.9699771560165379e+18
14337.0	1.9697740711723005e+18
14338.0	1.969305803974246e+18
14339.0	1.9688146291654653e+18
14340.0	1.968376233800499e+18
14341.0	1.9678840137711616e+18
14342.0	1.9674363204730875e+18
14343.0	1.9669463972446203e+18
14344.0	1.9664879296184315e+18
14345.0	1.9660420298047488e+18
14346.0	1.965568846882406e+18
14347.0	1.9649866103783421e+18
14348.0	1.9646377231384579e+18
14349.0	1.964179075996057e+18
14350.0	1.9635240867725307e+18
14351.0	1.9630427350237181e+18
14352.0	1.9627694643740672e+18
14353.0	1.962314162608537e+18
14354.0	1.9618286467547133e+18
14355.0	1.9613253923504125e+18
14356.0	1.96088119206871e+18
14357.0	1.9604552672083965e+18
14358.0	1.9599902615011325e+18
14359.0	1.9595047288700925e+18
14360.0	1.9590451254263805e+18
14361.0	1.9585921959591933e+18
14362.0	1.95813056750551e+18
14363.0	1.9576668771319805e+18
14364.0	1.9565009310842885e+18
14365.0	1.9566559139725307e+18
14366.0	1.956169369675366e+18
14367.0	1.955810541935001e+18
14368.0	1.9553464405196797e+18
14369.0	1.954885152643481e+18
14370.0	1.9544207995699197e+18
14371.0	1.9539598455603197e+18
14372.0	1.9534827954896893e+18
14373.0	1.9530310974701568e+18
14374.0	1.952567772839936e+18
14375.0	1.952104901194547e+18
14376.0	1.9516431787884541e+18
14377.0	1.951181768438579e+18
14378.0	1.9507168298401787e+18
14379.0	1.9502576575709181e+18
14380.0	1.9497950929485821e+18
14381.0	1.9493173835333632e+18
14382.0	1.9488685443514365e+18
14383.0	1.9483636692680701e+18
14384.0	1.9479172208394235e+18
14385.0	1.9474861688619003e+18
14386.0	1.9470013475848187e+18
14387.0	1.946561079882547e+18
14388.0	1.9460961664499712e+18
14389.0	1.945640270770995e+18
14390.0	1.9451773253058555e+18
14391.0	1.9447065113264125e+18
14392.0	1.9442372844716027e+18
14393.0	1.9437977398673405e+18
14394.0	1.9432889590480896e+18
14395.0	1.9425650825756664e+18
14396.0	1.9424012950044664e+18
14397.0	1.9419567876997115e+18
14398.0	1.941480007742259e+18
14399.0	1.9410242144043003e+18
14400.0	1.9403706143342595e+18
14401.0	1.940096581999001e+18
14402.0	1.9396426979082237e+18
14403.0	1.9306626225799014e+18
14404.0	1.9170356157743068e+18
14405.0	1.936836492106131e+18
14406.0	1.937808993497907e+18
14407.0	1.923972081909767e+18
14408.0	1.936711355885158e+18
14409.0	1.9364121795362808e+18
14410.0	1.9359242259529728e+18
14411.0	1.9355038426071037e+18
14412.0	1.9350543474360315e+18
14413.0	1.9346001378672635e+18
14414.0	1.9341408498352125e+18
14415.0	1.9336852309803008e+18
14416.0	1.9331836022882296e+18
14417.0	1.9325894740934656e+18
14418.0	1.9321554928140283e+18
14419.0	1.9318538401480704e+18
14420.0	1.9313908258963453e+18
14421.0	1.930939970093056e+18
14422.0	1.9304759794073597e+18
14423.0	1.9300030548541435e+18
14424.0	1.8827062391340774e+18
14425.0	1.9291026636144637e+18
14426.0	1.9286556900589565e+18
14427.0	1.9282008530223104e+18
14428.0	1.927703207241318e+18
14429.0	1.9272860300214272e+18
14430.0	1.9268330737106941e+18
14431.0	1.9253238725345285e+18
14432.0	1.9258724807868408e+18
14433.0	1.9153837109542843e+18
14434.0	1.924990150220185e+18
14435.0	1.92438105842647e+18
14436.0	1.9240991944867837e+18
14437.0	1.923643607508582e+18
14438.0	1.9227994031652861e+18
14439.0	1.9226556979216381e+18
14440.0	1.9222786870345725e+18
14441.0	1.921817852143206e+18
14442.0	1.921358617798246e+18
14443.0	1.9208582356533245e+18
14444.0	1.920455099285504e+18
14445.0	1.9200060872982525e+18
14446.0	1.908956124623672e+18
14447.0	1.9190811862237174e+18
14448.0	1.9186439501643773e+18
14449.0	1.9181897959604221e+18
14450.0	1.9177294744518653e+18
14451.0	1.9172787310559224e+18
14452.0	1.9168217465356283e+18
14453.0	1.9161563285946365e+18
14454.0	1.9159155956776955e+18
14455.0	1.915458131329024e+18
14456.0	1.9149604519935992e+18
14457.0	1.914480262905856e+18
14458.0	1.913973329258086e+18
14459.0	1.9136033044037627e+18
14460.0	1.9131733681111037e+18
14461.0	1.912556484978278e+18
14462.0	1.9111273530654717e+18
14463.0	1.911768236005785e+18
14464.0	1.9113745502437373e+18
14465.0	1.910914243834675e+18
14466.0	1.9104803330195453e+18
14467.0	1.9098766787215355e+18
14468.0	1.9095689963241464e+18
14469.0	1.909045954871296e+18
14470.0	1.908647655374848e+18
14471.0	1.908209894188646e+18
14472.0	1.9077667475161088e+18
14473.0	1.907329630575001e+18
14474.0	1.9068827039956987e+18
14475.0	1.9064210520539133e+18
14476.0	1.905298315726029e+18
14477.0	1.9055263449350141e+18
14478.0	1.9050652315418621e+18
14479.0	1.9046034252496893e+18
14480.0	1.9041490881740792e+18
14481.0	1.9037219805200381e+18
14482.0	1.9032678665814013e+18
14483.0	1.902807311869542e+18
14484.0	1.9023677639098365e+18
14485.0	1.9018701365837821e+18
14486.0	1.9011177656877053e+18
14487.0	1.9010141462462456e+18
14488.0	1.9002415101509632e+18
14489.0	1.9000072767275e+18
14490.0	1.899646939037696e+18
14491.0	1.8992274046189565e+18
14492.0	1.8987701617295355e+18
14493.0	1.898288410682982e+18
14494.0	1.8978455660003325e+18
14495.0	1.897433895062732e+18
14496.0	1.8968233721724928e+18
14497.0	1.8965349080760315e+18
14498.0	1.8960862115004413e+18
14499.0	1.8956425598337021e+18
14500.0	1.8951944672378877e+18
14501.0	1.8944177509236733e+18
14502.0	1.893594362072269e+18
14503.0	1.8937547371577341e+18
14504.0	1.8933955034087421e+18
14505.0	1.8926501202231283e+18
14506.0	1.8917968578609147e+18
14507.0	1.8917698331213824e+18
14508.0	1.8916137781690365e+18
14509.0	1.8911633132748797e+18
14510.0	1.8907148582911997e+18
14511.0	1.8902711479042043e+18
14512.0	1.8898022549159933e+18
14513.0	1.8893766639222781e+18
14514.0	1.8888338656198656e+18
14515.0	1.8884768112312315e+18
14516.0	1.8856251710504978e+18
14517.0	1.8875914104340475e+18
14518.0	1.8871449083183104e+18
14519.0	1.886697314005811e+18
14520.0	1.8862525835640827e+18
14521.0	1.8858012814868477e+18
14522.0	1.8853367086317565e+18
14523.0	1.8840453226954744e+18
14524.0	1.8836964723654646e+18
14525.0	1.8840174876164093e+18
14526.0	1.8835720474984443e+18
14527.0	1.8830770474844152e+18
14528.0	1.8824002042593272e+18
14529.0	1.882230277904793e+18
14530.0	1.8817733839814653e+18
14531.0	1.8813499824144381e+18
14532.0	1.8797626967195643e+18
14533.0	1.8804619610161147e+18
14534.0	1.880019040835993e+18
14535.0	1.8795585985314813e+18
14536.0	1.8791239025426427e+18
14537.0	1.8786658912567296e+18
14538.0	1.8782384900014075e+18
14539.0	1.8777952812531712e+18
14540.0	1.8773527670816765e+18
14541.0	1.8768777269215227e+18
14542.0	1.8764595967557627e+18
14543.0	1.875545538795929e+18
14544.0	1.875574271456051e+18
14545.0	1.8751146495574013e+18
14546.0	1.8331614694080315e+18
14547.0	1.8368736834617093e+18
14548.0	1.8737848874172413e+18
14549.0	1.873213884937011e+18
14550.0	1.872904620448153e+18
14551.0	1.872473363788595e+18
14552.0	1.8720200299905021e+18
14553.0	1.8715694392672253e+18
14554.0	1.8711433231466496e+18
14555.0	1.8706986363256827e+18
14556.0	1.8702380782583805e+18
14557.0	1.869814711923507e+18
14558.0	1.8693686879584253e+18
14559.0	1.866659164218976e+18
14560.0	1.8680392580071416e+18
14561.0	1.868036753168793e+18
14562.0	1.8675462511263744e+18
14563.0	1.8671586118729725e+18
14564.0	1.866592899248947e+18
14565.0	1.8662799890710525e+18
14566.0	1.8658380335808507e+18
14567.0	1.8653887816794107e+18
14568.0	1.8645749675851776e+18
14569.0	1.8644921284034555e+18
14570.0	1.8633379515727872e+18
14571.0	1.863614381372211e+18
14572.0	1.8629805935165437e+18
14573.0	1.86264144880599e+18
14574.0	1.861950915372646e+18
14575.0	1.861813372400435e+18
14576.0	1.8613775372386304e+18
14577.0	1.8609601217822715e+18
14578.0	1.86052592575447e+18
14579.0	1.8600876025315325e+18
14580.0	1.8596460782157821e+18
14581.0	1.8591674393427963e+18
14582.0	1.858753206524313e+18
14583.0	1.8583259713634304e+18
14584.0	1.8578417205116925e+18
14585.0	1.8574445065011197e+18
14586.0	1.8569999555756027e+18
14587.0	1.856548160248217e+18
14588.0	1.8561179504869376e+18
14589.0	1.8557002330406912e+18
14590.0	1.8552787155550208e+18
14591.0	1.85483391968215e+18
14592.0	1.85442107433943e+18
14593.0	1.8538635859066875e+18
14594.0	1.8535848911831037e+18
14595.0	1.8531554951167997e+18
14596.0	1.8521792171737075e+18
14597.0	1.8517145906315254e+18
14598.0	1.8518544236937213e+18
14599.0	1.8514767232630784e+18
14600.0	1.8510318200160253e+18
14601.0	1.8506205148217341e+18
14602.0	1.8501156347052032e+18
14603.0	1.8497575300628477e+18
14604.0	1.8492458820173821e+18
14605.0	1.8487643658518523e+18
14606.0	1.8483461467668477e+18
14607.0	1.848093312444006e+18
14608.0	1.847664025429606e+18
14609.0	1.847159136924467e+18
14610.0	1.8465135966289923e+18
14611.0	1.8463646250172413e+18
14612.0	1.8459818008248315e+18
14613.0	1.8455675814281216e+18
14614.0	1.8451419971452923e+18
14615.0	1.8446524094611453e+18
14616.0	1.8443044885889021e+18
14617.0	1.8438817564327933e+18
14618.0	1.8432974697529344e+18
14619.0	1.8427264924385262e+18
14620.0	1.8410205314285565e+18
14621.0	1.8421958274187261e+18
14622.0	1.8417700166434813e+18
14623.0	1.8413520995483643e+18
14624.0	1.840858309171609e+18
14625.0	1.8405038384742397e+18
14626.0	1.8400632872370176e+18
14627.0	1.8396218182860797e+18
14628.0	1.8392427085692925e+18
14629.0	1.8388205065732096e+18
14630.0	1.838386438052249e+18
14631.0	1.837968279365222e+18
14632.0	1.8330402640887834e+18
14633.0	1.8365796073865193e+18
14634.0	1.836680346179993e+18
14635.0	1.8344853058355072e+18
14636.0	1.829376942197963e+18
14637.0	1.835442810073907e+18
14638.0	1.8349717041709053e+18
14639.0	1.8345593235570685e+18
14640.0	1.834164471778508e+18
14641.0	1.8173379626401667e+18
14642.0	1.8333185712586747e+18
14643.0	1.8328959045337088e+18
14644.0	1.8324515096363003e+18
14645.0	1.832018966164275e+18
14646.0	1.8314453950922752e+18
14647.0	1.8310345512714235e+18
14648.0	1.8307629516324861e+18
