# Flux units: erg / (cm m2 s)
# Wavelength units: Angstrom
wave	flux
14000.0	1.621345448230912e+18
14001.0	1.6209554937217021e+18
14002.0	1.6206154497523707e+18
14003.0	1.6202499211919357e+18
14004.0	1.6198845201383421e+18
14005.0	1.6195190234546176e+18
14006.0	1.6191515235713021e+18
14007.0	1.6187857198645243e+18
14008.0	1.61839530901504e+18
14009.0	1.6180579980541947e+18
14010.0	1.6176893724196861e+18
14011.0	1.6171555029516288e+18
14012.0	1.6169603486973955e+18
14013.0	1.6165955918888952e+18
14014.0	1.6162282044129275e+18
14015.0	1.6158645884551165e+18
14016.0	1.6155008634454013e+18
14017.0	1.6151365579440125e+18
14018.0	1.6147723782717437e+18
14019.0	1.6144086532620285e+18
14020.0	1.6140444115140605e+18
14021.0	1.6136803039838205e+18
14022.0	1.6133154247016443e+18
14023.0	1.6129414555238397e+18
14024.0	1.612582597584486e+18
14025.0	1.612225590172057e+18
14026.0	1.6118618668400635e+18
14027.0	1.6114988733169661e+18
14028.0	1.6111276572803067e+18
14029.0	1.610765029500518e+18
14030.0	1.6099869441654784e+18
14031.0	1.6100030200938493e+18
14032.0	1.609644960749977e+18
14033.0	1.609264300818432e+18
14034.0	1.6089161400319997e+18
14035.0	1.6085553191583741e+18
14036.0	1.6081927232552957e+18
14037.0	1.6078294076096512e+18
14038.0	1.607468751152742e+18
14039.0	1.6071053969195003e+18
14040.0	1.606742738940723e+18
14041.0	1.606383407883878e+18
14042.0	1.6060200469397496e+18
14043.0	1.6056491530256381e+18
14044.0	1.6052960932921341e+18
14045.0	1.6049368763203581e+18
14046.0	1.604574525364633e+18
14047.0	1.6042107030470653e+18
14048.0	1.60385202126848e+18
14049.0	1.6034918765166592e+18
14050.0	1.603130797273907e+18
14051.0	1.602764147995443e+18
14052.0	1.6024025738248192e+18
14053.0	1.602042826693017e+18
14054.0	1.601682269221683e+18
14055.0	1.601321121192345e+18
14056.0	1.600961149245849e+18
14057.0	1.6006011152236541e+18
14058.0	1.6002424653217787e+18
14059.0	1.599882271916032e+18
14060.0	1.5995224996184061e+18
14061.0	1.5991605865480192e+18
14062.0	1.598802627867443e+18
14063.0	1.5984384716832765e+18
14064.0	1.5980158787780605e+18
14065.0	1.5977205829992448e+18
14066.0	1.5973628793323515e+18
14067.0	1.5969946194411515e+18
14068.0	1.596644619871846e+18
14069.0	1.5962841781633021e+18
14070.0	1.595925984601702e+18
14071.0	1.5955624206532603e+18
14072.0	1.5952041918595067e+18
14073.0	1.5948450956836864e+18
14074.0	1.59448530157568e+18
14075.0	1.5941214977130493e+18
14076.0	1.5937568096911357e+18
14077.0	1.5933126916177912e+18
14078.0	1.5930463600246784e+18
14079.0	1.5927008584269821e+18
14080.0	1.5923507414171643e+18
14081.0	1.5919925746991101e+18
14082.0	1.591627391749324e+18
14083.0	1.591264933419417e+18
14084.0	1.590907201231257e+18
14085.0	1.5904273040670715e+18
14086.0	1.5901852373614587e+18
14087.0	1.5898347999068152e+18
14088.0	1.5894733649870848e+18
14089.0	1.5891110761070587e+18
14090.0	1.588760688984064e+18
14091.0	1.5884057619464187e+18
14092.0	1.5880487327236093e+18
14093.0	1.5876898680733693e+18
14094.0	1.587330998389964e+18
14095.0	1.5869742308917243e+18
14096.0	1.5865983994429435e+18
14097.0	1.5862528223477752e+18
14098.0	1.5858951723679741e+18
14099.0	1.5855466307387392e+18
14100.0	1.5851890428346365e+18
14101.0	1.5848361777168384e+18
14102.0	1.5844795847016448e+18
14103.0	1.5841200539959293e+18
14104.0	1.5837673415507965e+18
14105.0	1.583411565586022e+18
14106.0	1.5830562778382333e+18
14107.0	1.5826979886465021e+18
14108.0	1.582341955990323e+18
14109.0	1.5819881547038715e+18
14110.0	1.5816286827184128e+18
14111.0	1.5812669575528448e+18
14112.0	1.580921462666035e+18
14113.0	1.5805640945434621e+18
14114.0	1.5802103050010621e+18
14115.0	1.5798579733987325e+18
14116.0	1.579470746864845e+18
14117.0	1.5784902544850944e+18
14118.0	1.5787928668078075e+18
14119.0	1.5784260531126267e+18
14120.0	1.5780726695788541e+18
14121.0	1.5777230491746304e+18
14122.0	1.5773575826898941e+18
14123.0	1.5770031270920192e+18
14124.0	1.57664424230912e+18
14125.0	1.5761862528335872e+18
14126.0	1.5759545427034112e+18
14127.0	1.5756045917880315e+18
14128.0	1.5752505405210621e+18
14129.0	1.5748943098937341e+18
14130.0	1.5745378729066493e+18
14131.0	1.574190081218969e+18
14132.0	1.573835357185638e+18
14133.0	1.5733346327855096e+18
14134.0	1.5731304423227387e+18
14135.0	1.572772307481395e+18
14136.0	1.5723808983875581e+18
14137.0	1.5720714946478075e+18
14138.0	1.5717100479840253e+18
14139.0	1.571367591451033e+18
14140.0	1.5710060843892733e+18
14141.0	1.5706623477547005e+18
14142.0	1.5702511063138304e+18
14143.0	1.5699478212247547e+18
14144.0	1.5696066380824576e+18
14145.0	1.5692535531831293e+18
14146.0	1.5688974198636544e+18
14147.0	1.5685461485813757e+18
14148.0	1.568192067115417e+18
14149.0	1.5678388345765888e+18
14150.0	1.5674918414843901e+18
14151.0	1.5671333408997368e+18
14152.0	1.5667899314208763e+18
14153.0	1.5664396801933307e+18
14154.0	1.5660816376266747e+18
14155.0	1.5654538895687683e+18
14156.0	1.565377135483289e+18
14157.0	1.5650348484001792e+18
14158.0	1.5646808743084032e+18
14159.0	1.5643317572206592e+18
14160.0	1.5639805849239547e+18
14161.0	1.5636128971358203e+18
14162.0	1.5632506770423805e+18
14163.0	1.5629289839919101e+18
14164.0	1.5625554963202048e+18
14165.0	1.5621348176953344e+18
14166.0	1.5618783209062395e+18
14167.0	1.5615250346803197e+18
14168.0	1.5611741559848957e+18
14169.0	1.560829186224947e+18
14170.0	1.5604762858749947e+18
14171.0	1.5601280042926077e+18
14172.0	1.5597803451449341e+18
14173.0	1.5593867634016253e+18
14174.0	1.5590796078088187e+18
14175.0	1.5587320795234301e+18
14176.0	1.5583813585338365e+18
14177.0	1.5580318035607547e+18
14178.0	1.5576806211977213e+18
14179.0	1.5573232245538813e+18
14180.0	1.5569842761367547e+18
14181.0	1.556635638877388e+18
14182.0	1.5562868170686464e+18
14183.0	1.5559385103204347e+18
14184.0	1.5555905760264192e+18
14185.0	1.5552436533985275e+18
14186.0	1.5547743292358653e+18
14187.0	1.5545409397063677e+18
14188.0	1.554200135729152e+18
14189.0	1.5538527064293373e+18
14190.0	1.5535056244178941e+18
14191.0	1.5531571851296763e+18
14192.0	1.5528224259833853e+18
14193.0	1.552470735270707e+18
14194.0	1.5521410076114941e+18
14195.0	1.5517949741760512e+18
14196.0	1.5514476052742144e+18
14197.0	1.5511000384012285e+18
14198.0	1.5507517467525115e+18
14199.0	1.5504041865904123e+18
14200.0	1.5499834391789565e+18
14201.0	1.5497115560050685e+18
14202.0	1.5493639471890435e+18
14203.0	1.5490058945560576e+18
14204.0	1.5486690785230843e+18
14205.0	1.5483226256572413e+18
14206.0	1.5479425831272443e+18
14207.0	1.547630491677491e+18
14208.0	1.5472843642896384e+18
14209.0	1.5468987500462077e+18
14210.0	1.546569710252851e+18
14211.0	1.546244369835622e+18
14212.0	1.5459000694865915e+18
14213.0	1.5455511319150595e+18
14214.0	1.5452048518545405e+18
14215.0	1.544855582094131e+18
14216.0	1.5445142798335995e+18
14217.0	1.5441685483880448e+18
14218.0	1.5438201040666621e+18
14219.0	1.5434780518645757e+18
14220.0	1.5431338555342843e+18
14221.0	1.5427878623641597e+18
14222.0	1.5424264291221501e+18
14223.0	1.542099509968896e+18
14224.0	1.5417556105953277e+18
14225.0	1.5411904130318333e+18
14226.0	1.541066129093427e+18
14227.0	1.5407214244134912e+18
14228.0	1.539794999967744e+18
14229.0	1.539971932487679e+18
14230.0	1.5396884478689275e+18
14231.0	1.5393277159145472e+18
14232.0	1.539000325321523e+18
14233.0	1.5386545234116603e+18
14234.0	1.5383116457705472e+18
14235.0	1.537968392319795e+18
14236.0	1.5376272729309181e+18
14237.0	1.5372834121449472e+18
14238.0	1.5369401402392576e+18
14239.0	1.5365935263121403e+18
14240.0	1.5358281983721472e+18
14241.0	1.535908734042112e+18
14242.0	1.535566817735475e+18
14243.0	1.5351818963910656e+18
14244.0	1.5348813443104768e+18
14245.0	1.5345326701412347e+18
14246.0	1.5341859891052541e+18
14247.0	1.5338426433798141e+18
14248.0	1.5334728785723392e+18
14249.0	1.5331335509901307e+18
14250.0	1.5327916279726075e+18
14251.0	1.532450005267251e+18
14252.0	1.5321077467054075e+18
14253.0	1.5317654210347005e+18
14254.0	1.5314196375797757e+18
14255.0	1.531068945111449e+18
14256.0	1.5305346595684355e+18
14257.0	1.5303910918979581e+18
14258.0	1.5300524119162875e+18
14259.0	1.5297055547195387e+18
14260.0	1.5293631099305981e+18
14261.0	1.529024215200563e+18
14262.0	1.528694291247923e+18
14263.0	1.5280552638676992e+18
14264.0	1.5279710103666685e+18
14265.0	1.5276669837246464e+18
14266.0	1.5273295872e+18
14267.0	1.5269888402653184e+18
14268.0	1.5266485781921787e+18
14269.0	1.5263051955568635e+18
14270.0	1.5259672286068736e+18
14271.0	1.5256255186599936e+18
14272.0	1.5252860937699325e+18
14273.0	1.524945833374515e+18
14274.0	1.5241735294681088e+18
14275.0	1.5242270588534781e+18
14276.0	1.5239148768067584e+18
14277.0	1.5235780809064443e+18
14278.0	1.523245494409625e+18
14279.0	1.5229056115015677e+18
14280.0	1.522563742171136e+18
14281.0	1.5222263003480056e+18
14282.0	1.5218867831832573e+18
14283.0	1.5215462023430144e+18
14284.0	1.5212068311400448e+18
14285.0	1.5208675052355584e+18
14286.0	1.520527276716851e+18
14287.0	1.520189240980275e+18
14288.0	1.519850163378585e+18
14289.0	1.5192410833289203e+18
14290.0	1.5191704294391803e+18
14291.0	1.518833365103411e+18
14292.0	1.518494535804518e+18
14293.0	1.5181558289793021e+18
14294.0	1.5177797072846843e+18
14295.0	1.5174761403383803e+18
14296.0	1.5169227908448256e+18
14297.0	1.5168031088967677e+18
14298.0	1.5163670824747005e+18
14299.0	1.5161205026979837e+18
14300.0	1.515786273711718e+18
14301.0	1.515448981205811e+18
14302.0	1.515111901770547e+18
14303.0	1.5147620498407421e+18
14304.0	1.514429631116083e+18
14305.0	1.5140956722429947e+18
14306.0	1.5137342138351616e+18
14307.0	1.513415210172416e+18
14308.0	1.5130845228564477e+18
14309.0	1.5127465844277243e+18
14310.0	1.5123117626097656e+18
14311.0	1.5119479738466304e+18
14312.0	1.5117190135021565e+18
14313.0	1.5113733156110336e+18
14314.0	1.511061428843315e+18
14315.0	1.5107272032124925e+18
14316.0	1.5103770291601403e+18
14317.0	1.5100377317769213e+18
14318.0	1.5097183976030205e+18
14319.0	1.5093822493032443e+18
14320.0	1.5090459332313085e+18
14321.0	1.5087091255869437e+18
14322.0	1.508361152705331e+18
14323.0	1.5080345372196864e+18
14324.0	1.5077014306291707e+18
14325.0	1.507364317639475e+18
14326.0	1.507031268091494e+18
14327.0	1.5066938212351997e+18
14328.0	1.506358286981529e+18
14329.0	1.5060247861264381e+18
14330.0	1.5056894347444221e+18
14331.0	1.5053522512904192e+18
14332.0	1.5050190574583803e+18
14333.0	1.5047195036221435e+18
14334.0	1.5043917909065723e+18
14335.0	1.5040492622315515e+18
14336.0	1.503695390480793e+18
14337.0	1.5033863944273915e+18
14338.0	1.503051246049689e+18
14339.0	1.5027131616591867e+18
14340.0	1.502382541452083e+18
14341.0	1.5020459217125376e+18
14342.0	1.5017131406000125e+18
14343.0	1.5013753078677501e+18
14344.0	1.501042276774707e+18
14345.0	1.5007116850888701e+18
14346.0	1.5003768705777664e+18
14347.0	1.5000304747544573e+18
14348.0	1.4997097229058043e+18
14349.0	1.4993764200218621e+18
14350.0	1.4990255883026432e+18
14351.0	1.498689740315033e+18
14352.0	1.4983732347797501e+18
14353.0	1.4980421129338877e+18
14354.0	1.4977070182432765e+18
14355.0	1.4973699455188992e+18
14356.0	1.4970391004971003e+18
14357.0	1.4966978569568253e+18
14358.0	1.496360908383846e+18
14359.0	1.4960222971887613e+18
14360.0	1.495692004137369e+18
14361.0	1.495360635666432e+18
14362.0	1.4950284501450747e+18
14363.0	1.494695883780915e+18
14364.0	1.4943030352019456e+18
14365.0	1.4940266775445504e+18
14366.0	1.4936903665057787e+18
14367.0	1.4933687841849341e+18
14368.0	1.4930365214883837e+18
14369.0	1.4927047587528701e+18
14370.0	1.4923729289084925e+18
14371.0	1.4920409984008192e+18
14372.0	1.4917069321535485e+18
14373.0	1.4913770048454653e+18
14374.0	1.491045777303142e+18
14375.0	1.4907140833542141e+18
14376.0	1.490383052105318e+18
14377.0	1.4900515259285504e+18
14378.0	1.4897198219132928e+18
14379.0	1.4893880910544893e+18
14380.0	1.489046131127091e+18
14381.0	1.4886498415411197e+18
14382.0	1.4882869755248635e+18
14383.0	1.487950193046323e+18
14384.0	1.4876204704202744e+18
14385.0	1.4872955074904064e+18
14386.0	1.486960404411187e+18
14387.0	1.4866345841655803e+18
14388.0	1.4863035042627584e+18
14389.0	1.4859745013792763e+18
14390.0	1.4856437620539387e+18
14391.0	1.4853142038446075e+18
14392.0	1.4849810670551037e+18
14393.0	1.484654610953011e+18
14394.0	1.484314523362918e+18
14395.0	1.4839836934406141e+18
14396.0	1.483665040421683e+18
14397.0	1.483335997272883e+18
14398.0	1.4830049559576573e+18
14399.0	1.4826770704367613e+18
14400.0	1.482338054910771e+18
14401.0	1.4820170614702075e+18
14402.0	1.481688268301926e+18
14403.0	1.4797901427376092e+18
14404.0	1.4765414814842867e+18
14405.0	1.4803238394003438e+18
14406.0	1.4803727399518203e+18
14407.0	1.4775924633370637e+18
14408.0	1.4797017570082813e+18
14409.0	1.4793816024285184e+18
14410.0	1.479053877968896e+18
14411.0	1.478729225417523e+18
14412.0	1.4784010261626877e+18
14413.0	1.4780737278443515e+18
14414.0	1.4777447786479616e+18
14415.0	1.477416721999462e+18
14416.0	1.4770866436964347e+18
14417.0	1.4767468832620541e+18
14418.0	1.4764155047247872e+18
14419.0	1.4761053409771515e+18
14420.0	1.4757767441022976e+18
14421.0	1.4754504188624899e+18
14422.0	1.475120412701491e+18
14423.0	1.4747901381050363e+18
14424.0	1.4646530489188275e+18
14425.0	1.4741365833334781e+18
14426.0	1.4738105617612797e+18
14427.0	1.4734835570442237e+18
14428.0	1.47314912002048e+18
14429.0	1.472830800868147e+18
14430.0	1.4725051047739392e+18
14431.0	1.472081203245875e+18
14432.0	1.4718450052104192e+18
14433.0	1.469686909973298e+18
14434.0	1.4711950155972605e+18
14435.0	1.4708569345622016e+18
14436.0	1.4705460695269376e+18
14437.0	1.4702199271587837e+18
14438.0	1.4698390893887485e+18
14439.0	1.469553438831411e+18
14440.0	1.4692359988051965e+18
14441.0	1.4689082441465856e+18
14442.0	1.4685804542558205e+18
14443.0	1.4682440341651453e+18
14444.0	1.4679318118531072e+18
14445.0	1.467607558599475e+18
14446.0	1.4652777217130504e+18
14447.0	1.4669541531451387e+18
14448.0	1.4666316061343741e+18
14449.0	1.466306401612595e+18
14450.0	1.4659795713785853e+18
14451.0	1.4656553818783741e+18
14452.0	1.4653303820386301e+18
14453.0	1.4649741430226941e+18
14454.0	1.4646810769358845e+18
14455.0	1.464354137649971e+18
14456.0	1.4640245039431677e+18
14457.0	1.463696277844787e+18
14458.0	1.4633788663398397e+18
14459.0	1.4630546399297536e+18
14460.0	1.462733186793472e+18
14461.0	1.4624004476239872e+18
14462.0	1.4619768044650493e+18
14463.0	1.4617590831775744e+18
14464.0	1.4614372760420347e+18
14465.0	1.4611073135017981e+18
14466.0	1.4607891721879547e+18
14467.0	1.4604412848701437e+18
14468.0	1.460140028146483e+18
14469.0	1.4598079214780413e+18
14470.0	1.4594866629574653e+18
14471.0	1.4591671945658365e+18
14472.0	1.4588460434194432e+18
14473.0	1.458524857040896e+18
14474.0	1.458202410693427e+18
14475.0	1.4578768353951741e+18
14476.0	1.4574486741319683e+18
14477.0	1.457262265840435e+18
14478.0	1.456939232290406e+18
14479.0	1.456614836430438e+18
14480.0	1.4562889859858424e+18
14481.0	1.4559713295335421e+18
14482.0	1.4556478480318464e+18
14483.0	1.4553231183052797e+18
14484.0	1.4550026718019584e+18
14485.0	1.4546692145676285e+18
14486.0	1.4542752654032893e+18
14487.0	1.4540366212497403e+18
14488.0	1.453694666355507e+18
14489.0	1.4533831570751485e+18
14490.0	1.4530675323437056e+18
14491.0	1.4527490152202235e+18
14492.0	1.4524265487400957e+18
14493.0	1.4521020656386048e+18
14494.0	1.4517777972854781e+18
14495.0	1.4514628067327997e+18
14496.0	1.4511064536317947e+18
14497.0	1.4508240209444864e+18
14498.0	1.4505020225486848e+18
14499.0	1.4501831631699965e+18
14500.0	1.449860909760512e+18
14501.0	1.4494880881442813e+18
14502.0	1.4491005092888573e+18
14503.0	1.448887138333491e+18
14504.0	1.4485746106761213e+18
14505.0	1.4482105551552507e+18
14506.0	1.4478251120394237e+18
14507.0	1.4475469508313085e+18
14508.0	1.4472955710930941e+18
14509.0	1.4469752084758525e+18
14510.0	1.4466537133965307e+18
14511.0	1.4463342869479421e+18
14512.0	1.4460073644392445e+18
14513.0	1.4456911474720765e+18
14514.0	1.445353180522086e+18
14515.0	1.4450496571965437e+18
14516.0	1.4440608382844928e+18
14517.0	1.4444109821378557e+18
14518.0	1.4440912251781115e+18
14519.0	1.443771634312806e+18
14520.0	1.443451764945715e+18
14521.0	1.443130748017049e+18
14522.0	1.4428115900039163e+18
14523.0	1.4423727382986747e+18
14524.0	1.4420549543395323e+18
14525.0	1.4418533911887867e+18
14526.0	1.4415350451929085e+18
14527.0	1.441210823815987e+18
14528.0	1.4408499324780541e+18
14529.0	1.4405757793468413e+18
14530.0	1.4402541366280192e+18
14531.0	1.4399403624235008e+18
14532.0	1.4394405741920253e+18
14533.0	1.4393034204512253e+18
14534.0	1.4389851012988925e+18
14535.0	1.4386632119549947e+18
14536.0	1.438346919490355e+18
14537.0	1.4380256240599037e+18
14538.0	1.4377113364725757e+18
14539.0	1.4373932421349373e+18
14540.0	1.4370751914180608e+18
14541.0	1.4367507586482173e+18
14542.0	1.436438371919462e+18
14543.0	1.436046930948915e+18
14544.0	1.4358031361900541e+18
14545.0	1.4354821981143037e+18
14546.0	1.4228078427373478e+18
14547.0	1.4239595029856143e+18
14548.0	1.4345286046449664e+18
14549.0	1.4341810478383101e+18
14550.0	1.433895130523238e+18
14551.0	1.4335803312308221e+18
14552.0	1.4332621697843197e+18
14553.0	1.4329427617906685e+18
14554.0	1.4326287258615808e+18
14555.0	1.432311316034355e+18
14556.0	1.431991752012595e+18
14557.0	1.4316780365283325e+18
14558.0	1.4313610964631547e+18
14559.0	1.4305310386683889e+18
14560.0	1.4307063454760957e+18
14561.0	1.430409023009587e+18
14562.0	1.430085704246886e+18
14563.0	1.4297775671869437e+18
14564.0	1.4294517419081725e+18
14565.0	1.4291451416412157e+18
14566.0	1.4288288223330301e+18
14567.0	1.428512617109913e+18
14568.0	1.4281698300657664e+18
14569.0	1.4278801965973501e+18
14570.0	1.4274121844129792e+18
14571.0	1.4272462946566141e+18
14572.0	1.4269102101102592e+18
14573.0	1.4266002359451648e+18
14574.0	1.4262733855784957e+18
14575.0	1.425982698500915e+18
14576.0	1.4256662214868987e+18
14577.0	1.4253522895765501e+18
14578.0	1.4250373627772928e+18
14579.0	1.4247229040623613e+18
14580.0	1.4244076467519485e+18
14581.0	1.424088441762611e+18
14582.0	1.423775982891827e+18
14583.0	1.4234618915979264e+18
14584.0	1.4231410457968637e+18
14585.0	1.4228317376872448e+18
14586.0	1.4225158025773053e+18
14587.0	1.4221995403116541e+18
14588.0	1.4218873834307581e+18
14589.0	1.4215845077057536e+18
14590.0	1.4212817343217664e+18
14591.0	1.4209765651513341e+18
14592.0	1.4206734092468221e+18
14593.0	1.4203403999641595e+18
14594.0	1.420071597087129e+18
14595.0	1.4197679345106941e+18
14596.0	1.4194053805506557e+18
14597.0	1.4190946866429947e+18
14598.0	1.418848766210867e+18
14599.0	1.4185519420276736e+18
14600.0	1.4182487576018941e+18
14601.0	1.4179489353302013e+18
14602.0	1.4176391255818237e+18
14603.0	1.4173461031157757e+18
14604.0	1.4170285775257597e+18
14605.0	1.4167278761279488e+18
14606.0	1.4164163534258176e+18
14607.0	1.416140604781363e+18
14608.0	1.415839250749849e+18
14609.0	1.4155294896553981e+18
14610.0	1.4152088518918141e+18
14611.0	1.414935601374822e+18
14612.0	1.4146367119163392e+18
14613.0	1.4143361850015741e+18
14614.0	1.4140343242981376e+18
14615.0	1.4137302875897853e+18
14616.0	1.413434179793715e+18
14617.0	1.413133582414643e+18
14618.0	1.4128221989634045e+18
14619.0	1.412507834200883e+18
14620.0	1.4120904959197181e+18
14621.0	1.4119316643381248e+18
14622.0	1.411630417680793e+18
14623.0	1.4113309343088637e+18
14624.0	1.4110141100064765e+18
14625.0	1.410729323475763e+18
14626.0	1.410426662499123e+18
14627.0	1.4101227801411581e+18
14628.0	1.4098295680925693e+18
14629.0	1.409529406921113e+18
14630.0	1.409228044500992e+18
14631.0	1.408896835413606e+18
14632.0	1.407769947563623e+18
14633.0	1.4082146763276283e+18
14634.0	1.4079886343798781e+18
14635.0	1.4074486915596265e+18
14636.0	1.4064359516930045e+18
14637.0	1.4070922797383677e+18
14638.0	1.4067895080321021e+18
14639.0	1.4064876582338557e+18
14640.0	1.4061916116746237e+18
14641.0	1.4027720929312737e+18
14642.0	1.4055917859373053e+18
14643.0	1.405293005530726e+18
14644.0	1.4049895585415168e+18
14645.0	1.4046866375180285e+18
14646.0	1.4043797319057405e+18
14647.0	1.404080001069875e+18
