# Flux units: erg / (cm m2 s)
# Wavelength units: Angstrom
wave	flux
14000.0	1.8483079869890552e+18
14001.0	1.8480408081465341e+18
14002.0	1.8478555558051837e+18
14003.0	1.8475228384460792e+18
14004.0	1.8471877823430653e+18
14005.0	1.8468518353698816e+18
14006.0	1.8465073102061563e+18
14007.0	1.8461684406419453e+18
14008.0	1.8457391838265344e+18
14009.0	1.8454965114634235e+18
14010.0	1.845150186104422e+18
14011.0	1.8441415365230587e+18
14012.0	1.8444875515035643e+18
14013.0	1.8441627378909181e+18
14014.0	1.843821880226611e+18
14015.0	1.8434906124189693e+18
14016.0	1.8431572625588221e+18
14017.0	1.8428221074702333e+18
14018.0	1.842480053590425e+18
14019.0	1.8421512251899896e+18
14020.0	1.841815038302617e+18
14021.0	1.8414788195385341e+18
14022.0	1.8411409297637376e+18
14023.0	1.840794310803456e+18
14024.0	1.8404582279348221e+18
14025.0	1.8401382142836733e+18
14026.0	1.8398026078879741e+18
14027.0	1.839468875507302e+18
14028.0	1.8391254358294525e+18
14029.0	1.8387838584225784e+18
14030.0	1.8371868905963525e+18
14031.0	1.838003541717811e+18
14032.0	1.837787828663091e+18
14033.0	1.8374113663909883e+18
14034.0	1.8371245212958717e+18
14035.0	1.8367937752596477e+18
14036.0	1.836456262972211e+18
14037.0	1.8361270537289725e+18
14038.0	1.8357933565804541e+18
14039.0	1.8354550389866493e+18
14040.0	1.8351223115612155e+18
14041.0	1.8347907014983677e+18
14042.0	1.8344473876496381e+18
14043.0	1.83408234898391e+18
14044.0	1.8337745088806907e+18
14045.0	1.8334503411908605e+18
14046.0	1.833119551533875e+18
14047.0	1.8327800628903933e+18
14048.0	1.8324568582127613e+18
14049.0	1.832125320291942e+18
14050.0	1.831792406639411e+18
14051.0	1.8314508376211453e+18
14052.0	1.8311216854204408e+18
14053.0	1.8307938653306875e+18
14054.0	1.8304613090328576e+18
14055.0	1.8301286822707192e+18
14056.0	1.8297960873852925e+18
14057.0	1.82946362336215e+18
14058.0	1.829131157661286e+18
14059.0	1.8287928853659645e+18
14060.0	1.8284664091312125e+18
14061.0	1.8281266738626555e+18
14062.0	1.8278011606401021e+18
14063.0	1.8274502634897405e+18
14064.0	1.8268798683447293e+18
14065.0	1.8267953665409021e+18
14066.0	1.8264718128971776e+18
14067.0	1.826138088905113e+18
14068.0	1.8258107939422205e+18
14069.0	1.825476845135462e+18
14070.0	1.8251466829463552e+18
14071.0	1.8248130763948027e+18
14072.0	1.8244848788176893e+18
14073.0	1.8241535321571325e+18
14074.0	1.823822049601126e+18
14075.0	1.8234708454277123e+18
14076.0	1.8231509794160635e+18
14077.0	1.8225416057651203e+18
14078.0	1.8224698210910205e+18
14079.0	1.8221545235152893e+18
14080.0	1.8218356876247037e+18
14081.0	1.8215054264500221e+18
14082.0	1.8211738281312253e+18
14083.0	1.820841553690624e+18
14084.0	1.8205054943100923e+18
14085.0	1.819823570944e+18
14086.0	1.819815880268185e+18
14087.0	1.8195157492957181e+18
14088.0	1.8191770877689853e+18
14089.0	1.8188580220305405e+18
14090.0	1.8185295996387323e+18
14091.0	1.8182025764667387e+18
14092.0	1.817873130664755e+18
14093.0	1.8175432151007227e+18
14094.0	1.817212891850342e+18
14095.0	1.8168806291537917e+18
14096.0	1.8165095708229632e+18
14097.0	1.8161903608004603e+18
14098.0	1.815872883864371e+18
14099.0	1.815563434826137e+18
14100.0	1.8152229630377981e+18
14101.0	1.8149076084195323e+18
14102.0	1.8145764345643003e+18
14103.0	1.8142326475980797e+18
14104.0	1.8139174909509632e+18
14105.0	1.8135918082785277e+18
14106.0	1.8132629211578363e+18
14107.0	1.8129288213561336e+18
14108.0	1.8125925036064765e+18
14109.0	1.8122712736071677e+18
14110.0	1.8119453292101627e+18
14111.0	1.8116105197322237e+18
14112.0	1.8112805186043904e+18
14113.0	1.810960238195507e+18
14114.0	1.8106152533360635e+18
14115.0	1.8102923858804733e+18
14116.0	1.8098873570426877e+18
14117.0	1.8073310176739325e+18
14118.0	1.8092798439849984e+18
14119.0	1.80894542373847e+18
14120.0	1.8086328239390717e+18
14121.0	1.8083139947593728e+18
14122.0	1.8079830624960507e+18
14123.0	1.8076598829842432e+18
14124.0	1.807321763361587e+18
14125.0	1.806531041427455e+18
14126.0	1.8066863430828032e+18
14127.0	1.8063705036029947e+18
14128.0	1.806043664980377e+18
14129.0	1.8057056057556984e+18
14130.0	1.805367615317606e+18
14131.0	1.8050629695963133e+18
14132.0	1.8047182196178941e+18
14133.0	1.8038339982589947e+18
14134.0	1.8040648359739387e+18
14135.0	1.8037377842806781e+18
14136.0	1.8034169451905021e+18
14137.0	1.803094408246067e+18
14138.0	1.8027584109412347e+18
14139.0	1.8024484887855104e+18
14140.0	1.8021184071270397e+18
14141.0	1.8017554958123005e+18
14142.0	1.801346913560166e+18
14143.0	1.8011369299247104e+18
14144.0	1.800819417756467e+18
14145.0	1.8004931529146363e+18
14146.0	1.8001641986850813e+18
14147.0	1.7998418160910333e+18
14148.0	1.7995154455527421e+18
14149.0	1.7991912694743037e+18
14150.0	1.7988680614412288e+18
14151.0	1.7985370318700544e+18
14152.0	1.7982152616443904e+18
14153.0	1.797891951270297e+18
14154.0	1.7975385476038656e+18
14155.0	1.7971997552148477e+18
14156.0	1.7969111317348347e+18
14157.0	1.7965906382553085e+18
14158.0	1.796261823276646e+18
14159.0	1.7959404271828987e+18
14160.0	1.7956017472012285e+18
14161.0	1.7952298365878272e+18
14162.0	1.7948528709992448e+18
14163.0	1.7946263550951421e+18
14164.0	1.794251253455257e+18
14165.0	1.793961671996211e+18
14166.0	1.7936646448087037e+18
14167.0	1.7933274898759677e+18
14168.0	1.793015477279129e+18
14169.0	1.7926957203193853e+18
14170.0	1.7923681770536955e+18
14171.0	1.7920444271165437e+18
14172.0	1.791723447097753e+18
14173.0	1.7913762241576955e+18
14174.0	1.791068308557004e+18
14175.0	1.790752215741235e+18
14176.0	1.7904287979929595e+18
14177.0	1.7901052258942976e+18
14178.0	1.7897811202801661e+18
14179.0	1.7894532414701563e+18
14180.0	1.789134601872998e+18
14181.0	1.78881113882624e+18
14182.0	1.7884867698098176e+18
14183.0	1.78816369599447e+18
14184.0	1.7878335774261248e+18
14185.0	1.7875058345115648e+18
14186.0	1.7867923968229376e+18
14187.0	1.7868165845352443e+18
14188.0	1.7865412536434688e+18
14189.0	1.7862218322280443e+18
14190.0	1.7858996660600827e+18
14191.0	1.78557534905303e+18
14192.0	1.7852451986079744e+18
14193.0	1.7848708368433147e+18
14194.0	1.7846086810992637e+18
14195.0	1.784291133698867e+18
14196.0	1.7839691353030653e+18
14197.0	1.7836469104148475e+18
14198.0	1.78331902321623e+18
14199.0	1.7829953974304763e+18
14200.0	1.7824312484429821e+18
14201.0	1.7823252986462203e+18
14202.0	1.7820325446156285e+18
14203.0	1.7817091788767227e+18
14204.0	1.7813900930056187e+18
14205.0	1.7810668094750712e+18
14206.0	1.7806165777842176e+18
14207.0	1.780423460284006e+18
14208.0	1.7801050505347072e+18
14209.0	1.7796430026506237e+18
14210.0	1.779356920918835e+18
14211.0	1.7791339450073088e+18
14212.0	1.778821479425638e+18
14213.0	1.778501185594982e+18
14214.0	1.778179661994393e+18
14215.0	1.7778460202106877e+18
14216.0	1.7775395071852541e+18
14217.0	1.7772188090236928e+18
14218.0	1.7768847310323712e+18
14219.0	1.7765771895635963e+18
14220.0	1.7762535738441725e+18
14221.0	1.7759342077935613e+18
14222.0	1.775598344706457e+18
14223.0	1.7752928148258813e+18
14224.0	1.77496648623063e+18
14225.0	1.773844734725325e+18
14226.0	1.7742966491709435e+18
14227.0	1.7740010111369213e+18
14228.0	1.7715341379502088e+18
14229.0	1.7729292070813676e+18
14230.0	1.7730469445500925e+18
14231.0	1.77272501829632e+18
14232.0	1.7724049794793472e+18
14233.0	1.772052817326899e+18
14234.0	1.7717353924001787e+18
14235.0	1.7714130735595517e+18
14236.0	1.7710959237791741e+18
14237.0	1.7707742626054141e+18
14238.0	1.7704534637805563e+18
14239.0	1.7701125859835904e+18
14240.0	1.767995873427456e+18
14241.0	1.7694579272712187e+18
14242.0	1.7691638511960056e+18
14243.0	1.7686963742048256e+18
14244.0	1.768538899900006e+18
14245.0	1.768212816252108e+18
14246.0	1.7678944417349632e+18
14247.0	1.767579847124582e+18
14248.0	1.767247809242726e+18
14249.0	1.7669426853707768e+18
14250.0	1.7666199588438013e+18
14251.0	1.7662694777683965e+18
14252.0	1.765950120106393e+18
14253.0	1.7656292659167227e+18
14254.0	1.7653058011922427e+18
14255.0	1.764938207356518e+18
14256.0	1.76386010513408e+18
14257.0	1.7641899720441846e+18
14258.0	1.7640275434274808e+18
14259.0	1.7636939217764352e+18
14260.0	1.7633662912692221e+18
14261.0	1.763052881130291e+18
14262.0	1.7627615833620477e+18
14263.0	1.7612768702103552e+18
14264.0	1.761718646184345e+18
14265.0	1.761810469565235e+18
14266.0	1.7615140295802877e+18
14267.0	1.761200391271219e+18
14268.0	1.7608840350531581e+18
14269.0	1.760556515275571e+18
14270.0	1.7602368153583616e+18
14271.0	1.7598860121604093e+18
14272.0	1.7595601482940413e+18
14273.0	1.75919317689303e+18
14274.0	1.7569906052562944e+18
14275.0	1.75831606404055e+18
14276.0	1.7582686197514237e+18
14277.0	1.7579717032935421e+18
14278.0	1.75766761457582e+18
14279.0	1.7573512080261117e+18
14280.0	1.757030070301491e+18
14281.0	1.7567210474045435e+18
14282.0	1.756404999887257e+18
14283.0	1.7560884238876672e+18
14284.0	1.7557716868268032e+18
14285.0	1.7554544498049024e+18
14286.0	1.755136551760691e+18
14287.0	1.754819529487155e+18
14288.0	1.7544902984335357e+18
14289.0	1.753017555825457e+18
14290.0	1.753858617796198e+18
14291.0	1.7535532791758848e+18
14292.0	1.7532366729773053e+18
14293.0	1.7529024825786365e+18
14294.0	1.7524186209583104e+18
14295.0	1.752217257456435e+18
14296.0	1.7509991862763523e+18
14297.0	1.751578605885849e+18
14298.0	1.7509581072629757e+18
14299.0	1.7509554229084157e+18
14300.0	1.7506592010272765e+18
14301.0	1.7503489533935616e+18
14302.0	1.7500350567153661e+18
14303.0	1.749681062490931e+18
14304.0	1.7493853523148797e+18
14305.0	1.7490856961376253e+18
14306.0	1.7487566144012288e+18
14307.0	1.748439355568947e+18
14308.0	1.748129101224345e+18
14309.0	1.7478008365383675e+18
14310.0	1.7474333483991037e+18
14311.0	1.7470631356399613e+18
14312.0	1.7468006225412096e+18
14313.0	1.7464086178562043e+18
14314.0	1.7462336767918077e+18
14315.0	1.7459281016127488e+18
14316.0	1.7455648044220413e+18
14317.0	1.745284896705741e+18
14318.0	1.7449879601152e+18
14319.0	1.7446405090050048e+18
14320.0	1.74432663413719e+18
14321.0	1.744009506167193e+18
14322.0	1.7436589714046976e+18
14323.0	1.7433612093751293e+18
14324.0	1.743071382968729e+18
14325.0	1.742747089449779e+18
14326.0	1.7424441583599613e+18
14327.0	1.7421225542287357e+18
14328.0	1.741809149122969e+18
14329.0	1.7415025589223421e+18
14330.0	1.7411888115613696e+18
14331.0	1.7408747269783547e+18
14332.0	1.7405612077875197e+18
14333.0	1.740247480559206e+18
14334.0	1.7399335385825277e+18
14335.0	1.739604260552704e+18
14336.0	1.7392232902426624e+18
14337.0	1.7389885451141115e+18
14338.0	1.738676269114982e+18
14339.0	1.738353295962931e+18
14340.0	1.7380514386149376e+18
14341.0	1.7377359279685627e+18
14342.0	1.7374234925858813e+18
14343.0	1.7371117350027261e+18
14344.0	1.7367920417964027e+18
14345.0	1.7364843577212925e+18
14346.0	1.73615319393239e+18
14347.0	1.735791104701235e+18
14348.0	1.7354994630000637e+18
14349.0	1.7351901062365184e+18
14350.0	1.734809134248755e+18
14351.0	1.7344906590683133e+18
14352.0	1.7342417741021181e+18
14353.0	1.733939267475865e+18
14354.0	1.7336197722406907e+18
14355.0	1.7332915864076285e+18
14356.0	1.732982204478259e+18
14357.0	1.732690665118105e+18
14358.0	1.7323804577497085e+18
14359.0	1.7320511008669693e+18
14360.0	1.7317502031757312e+18
14361.0	1.7314402407546875e+18
14362.0	1.731130813526835e+18
14363.0	1.730815542794649e+18
14364.0	1.7303039283036157e+18
14365.0	1.7301237292597243e+18
14366.0	1.7298404493230077e+18
14367.0	1.7295707102773243e+18
14368.0	1.7292561257332739e+18
14369.0	1.7289452757975037e+18
14370.0	1.7286339443556347e+18
14371.0	1.728322725321113e+18
14372.0	1.7280050470584315e+18
14373.0	1.727697472035225e+18
14374.0	1.727387925689139e+18
14375.0	1.7270735475048443e+18
14376.0	1.726760939316838e+18
14377.0	1.7264489233645565e+18
14378.0	1.7261240929746941e+18
14379.0	1.725777572999987e+18
14380.0	1.725465385920102e+18
14381.0	1.725141624238899e+18
14382.0	1.724842157644185e+18
14383.0	1.724530866467635e+18
14384.0	1.724201127064371e+18
14385.0	1.7239110003458048e+18
14386.0	1.7235795446333437e+18
14387.0	1.723288719982592e+18
14388.0	1.7229741270499325e+18
14389.0	1.722666664434073e+18
14390.0	1.722354348169625e+18
14391.0	1.7220460450152448e+18
14392.0	1.7217346313650176e+18
14393.0	1.7214250111991805e+18
14394.0	1.7210700422184957e+18
14395.0	1.720791678006067e+18
14396.0	1.7204932834754557e+18
14397.0	1.720182915045785e+18
14398.0	1.7198720332333053e+18
14399.0	1.7195610859896824e+18
14400.0	1.7192284424503293e+18
14401.0	1.7189292946227197e+18
14402.0	1.7186139718811648e+18
14403.0	1.7178730262691832e+18
14404.0	1.714579323224062e+18
14405.0	1.7156886025469908e+18
14406.0	1.7173582006190072e+18
14407.0	1.7165104193732605e+18
14408.0	1.7167408393355261e+18
14409.0	1.716436044297011e+18
14410.0	1.716135816016691e+18
14411.0	1.715840922891059e+18
14412.0	1.7155301669076987e+18
14413.0	1.7152254708547584e+18
14414.0	1.714913520333619e+18
14415.0	1.71458507613143e+18
14416.0	1.7142523654832123e+18
14417.0	1.7139337342746621e+18
14418.0	1.713615512430182e+18
14419.0	1.7133215638618112e+18
14420.0	1.7130083013623805e+18
14421.0	1.712702550022553e+18
14422.0	1.7123817226764285e+18
14423.0	1.7120209236131835e+18
14424.0	1.7094694378930163e+18
14425.0	1.711410805053849e+18
14426.0	1.7111524560601085e+18
14427.0	1.7108489092464635e+18
14428.0	1.7105156466278397e+18
14429.0	1.710230427244953e+18
14430.0	1.7099146246750205e+18
14431.0	1.7092497956143104e+18
14432.0	1.7092944716627965e+18
14433.0	1.7085578143072253e+18
14434.0	1.7086630913376253e+18
14435.0	1.7083393984430075e+18
14436.0	1.7080719125774333e+18
14437.0	1.7077671963918333e+18
14438.0	1.7074148966662141e+18
14439.0	1.707138643027558e+18
14440.0	1.7068429311737853e+18
14441.0	1.7065248167034877e+18
14442.0	1.7062085997363195e+18
14443.0	1.7058541743374333e+18
14444.0	1.7056011990859776e+18
14445.0	1.705292072170291e+18
14446.0	1.7037280917061637e+18
14447.0	1.7046405994512381e+18
14448.0	1.7043762844794877e+18
14449.0	1.7040714340761597e+18
14450.0	1.703757315938713e+18
14451.0	1.7034521887113213e+18
14452.0	1.7031473752178688e+18
14453.0	1.7028353089339387e+18
14454.0	1.7025309199040507e+18
14455.0	1.7022138741424125e+18
14456.0	1.7018896158556157e+18
14457.0	1.7015597523009539e+18
14458.0	1.7012518635438075e+18
14459.0	1.7009374652268536e+18
14460.0	1.7006179733471224e+18
14461.0	1.7002582379593723e+18
14462.0	1.6998990478311424e+18
14463.0	1.699674117373952e+18
14464.0	1.699395437749862e+18
14465.0	1.6990698641293312e+18
14466.0	1.6987924545404925e+18
14467.0	1.698465870931558e+18
14468.0	1.6981789553721336e+18
14469.0	1.69783190355968e+18
14470.0	1.6975330258452477e+18
14471.0	1.697255953478451e+18
14472.0	1.6969555473596408e+18
14473.0	1.6966535474053115e+18
14474.0	1.69635117835223e+18
14475.0	1.696042574885683e+18
14476.0	1.6957118305271803e+18
14477.0	1.6954303021318136e+18
14478.0	1.695122961989632e+18
14479.0	1.6948158181408763e+18
14480.0	1.6944914793234424e+18
14481.0	1.6942074259570685e+18
14482.0	1.6938956079759357e+18
14483.0	1.6935828018167805e+18
14484.0	1.6932694403317757e+18
14485.0	1.692928631321395e+18
14486.0	1.6923274717954048e+18
14487.0	1.6923635277103104e+18
14488.0	1.692051543634739e+18
14489.0	1.6917240322457595e+18
14490.0	1.691441354611097e+18
14491.0	1.6911447250436093e+18
14492.0	1.6908408477188093e+18
14493.0	1.690522073903923e+18
14494.0	1.6902025652469752e+18
14495.0	1.6899157084078075e+18
14496.0	1.6894631413284861e+18
14497.0	1.689307811151872e+18
14498.0	1.689006242371993e+18
14499.0	1.6887008886521853e+18
14500.0	1.6883943538163707e+18
14501.0	1.688064354366259e+18
14502.0	1.687521217164083e+18
14503.0	1.6874549001846781e+18
14504.0	1.6871623894237184e+18
14505.0	1.6868533279391741e+18
14506.0	1.686489978739097e+18
14507.0	1.685928156751462e+18
14508.0	1.6859043414933496e+18
14509.0	1.685602888476262e+18
14510.0	1.685295107093299e+18
14511.0	1.6849926356992e+18
14512.0	1.6846712647712763e+18
14513.0	1.6843790929100797e+18
14514.0	1.684038059085004e+18
14515.0	1.683747048207155e+18
14516.0	1.6804455336902671e+18
14517.0	1.683093597454336e+18
14518.0	1.682850373120819e+18
14519.0	1.6825478346178557e+18
14520.0	1.6822465862828032e+18
14521.0	1.681943034435993e+18
14522.0	1.68163567248343e+18
14523.0	1.6812857215680507e+18
14524.0	1.6809972574715904e+18
14525.0	1.6807172021157885e+18
14526.0	1.680416082965299e+18
14527.0	1.6800809832415224e+18
14528.0	1.6796512130433024e+18
14529.0	1.6794913916059648e+18
14530.0	1.679180073585868e+18
14531.0	1.6788937502621693e+18
14532.0	1.6785588266991608e+18
14533.0	1.6782863093465085e+18
14534.0	1.677984599638016e+18
14535.0	1.6776669448634363e+18
14536.0	1.677370548499251e+18
14537.0	1.6770550294642685e+18
14538.0	1.6767668220592125e+18
14539.0	1.676462865881497e+18
14540.0	1.6761583661219835e+18
14541.0	1.6758266100973563e+18
14542.0	1.6755456856817661e+18
14543.0	1.6752131377725435e+18
14544.0	1.6749344732479485e+18
14545.0	1.6746082486714363e+18
14546.0	1.6711924477591532e+18
14547.0	1.6710115340058596e+18
14548.0	1.6736822621110272e+18
14549.0	1.6732714870767608e+18
14550.0	1.6730993981390848e+18
14551.0	1.6728117880029181e+18
14552.0	1.672507595266457e+18
14553.0	1.6721950441209853e+18
14554.0	1.6719019109253115e+18
14555.0	1.671597657790873e+18
14556.0	1.671292448355123e+18
14557.0	1.6709858833203197e+18
14558.0	1.6706581437612032e+18
14559.0	1.6681419019386844e+18
14560.0	1.6700461780303867e+18
14561.0	1.6697616347693053e+18
14562.0	1.6694063721873403e+18
14563.0	1.6691156851097597e+18
14564.0	1.668795772121907e+18
14565.0	1.6685184967507963e+18
14566.0	1.6682160907878397e+18
14567.0	1.6679102723391488e+18
14568.0	1.6675960132730875e+18
14569.0	1.667293506646835e+18
14570.0	1.6663798546956285e+18
14571.0	1.6666864901947387e+18
14572.0	1.6663454395924475e+18
14573.0	1.6660250635534333e+18
14574.0	1.665742510070169e+18
14575.0	1.6654661608013821e+18
14576.0	1.6651620720836605e+18
14577.0	1.6648666840301563e+18
14578.0	1.664570222234828e+18
14579.0	1.6642720055427072e+18
14580.0	1.6639690106994688e+18
14581.0	1.6636593569792e+18
14582.0	1.6633546072391675e+18
14583.0	1.6630581672542205e+18
14584.0	1.6627318067822587e+18
14585.0	1.6624499008995325e+18
14586.0	1.6621456108552192e+18
14587.0	1.6618454815604733e+18
14588.0	1.6615429665456123e+18
14589.0	1.6612415638601725e+18
14590.0	1.6609399682367485e+18
14591.0	1.6606333344153597e+18
14592.0	1.6603215667658747e+18
14593.0	1.659897094812467e+18
14594.0	1.6597264940138496e+18
14595.0	1.6594195783352315e+18
14596.0	1.6589223805059067e+18
14597.0	1.6585772782059512e+18
14598.0	1.6584968968863741e+18
14599.0	1.6582233427017725e+18
14600.0	1.6579198713856e+18
14601.0	1.657618589496115e+18
14602.0	1.6573103400288256e+18
14603.0	1.657013044405862e+18
14604.0	1.6566566443286525e+18
14605.0	1.6563775385632763e+18
14606.0	1.6560109412941824e+18
14607.0	1.6558030380335104e+18
14608.0	1.655501069955891e+18
14609.0	1.6551926141288443e+18
14610.0	1.6548699446444032e+18
14611.0	1.6545809621319675e+18
14612.0	1.6543040474710013e+18
14613.0	1.654006916264755e+18
14614.0	1.6536978229035003e+18
14615.0	1.6534003846742013e+18
14616.0	1.6531058992349184e+18
14617.0	1.6527919438364667e+18
14618.0	1.652481543530086e+18
14619.0	1.6519868689940475e+18
14620.0	1.6513980893757435e+18
14621.0	1.651591617917747e+18
14622.0	1.6512945051664381e+18
14623.0	1.650997674272358e+18
14624.0	1.6506316994379776e+18
14625.0	1.6503909782650877e+18
14626.0	1.6500893239214083e+18
14627.0	1.6497602874834941e+18
14628.0	1.649454519366451e+18
14629.0	1.64915267544023e+18
14630.0	1.64884422632407e+18
14631.0	1.6485449140797437e+18
14632.0	1.648051105248051e+18
14633.0	1.6479095407771643e+18
14634.0	1.647639165874995e+18
14635.0	1.647298913868185e+18
14636.0	1.6468943598256125e+18
14637.0	1.6467425058881533e+18
14638.0	1.6464263879065597e+18
14639.0	1.646115073241907e+18
14640.0	1.645820977034035e+18
14641.0	1.644808007319551e+18
14642.0	1.645215181963264e+18
14643.0	1.6449285667160056e+18
14644.0	1.6446129554063352e+18
14645.0	1.6442981779243003e+18
14646.0	1.6440062107451392e+18
14647.0	1.643691735252992e+18
14648.0	1.6434075996782592e+18
14649.0	1.6431180467404795e+18
