# Flux units: erg / (cm m2 s)
# Wavelength units: Angstrom
wave	flux
14000.0	1.8436222917541875e+18
14001.0	1.8449383519420416e+18
14002.0	1.8448812204883968e+18
14003.0	1.844589880777113e+18
14004.0	1.844264646056345e+18
14005.0	1.8439409061855227e+18
14006.0	1.8435979262033915e+18
14007.0	1.8432570567950333e+18
14008.0	1.8428265634988027e+18
14009.0	1.842571838383718e+18
14010.0	1.8422226608979963e+18
14011.0	1.8413970406768635e+18
14012.0	1.8415418045628413e+18
14013.0	1.8412409655918587e+18
14014.0	1.8409016229101565e+18
14015.0	1.8405688669634555e+18
14016.0	1.840232017376051e+18
14017.0	1.8398943373164541e+18
14018.0	1.839511482925056e+18
14019.0	1.839217168613376e+18
14020.0	1.8388774568329213e+18
14021.0	1.838536688087859e+18
14022.0	1.8381927098613755e+18
14023.0	1.8378405997182976e+18
14024.0	1.8375041276182525e+18
14025.0	1.8371764635566075e+18
14026.0	1.8368359045267453e+18
14027.0	1.836489243623424e+18
14028.0	1.8361177960611837e+18
14029.0	1.8356528373301245e+18
14030.0	1.8324302193491976e+18
14031.0	1.834249255439564e+18
14032.0	1.8347140648534016e+18
14033.0	1.8344036477698045e+18
14034.0	1.8341275149271037e+18
14035.0	1.8337990774358008e+18
14036.0	1.8334320053714944e+18
14037.0	1.8331307083825147e+18
14038.0	1.8328027574304765e+18
14039.0	1.8324633207963645e+18
14040.0	1.8321296521691133e+18
14041.0	1.831794126304051e+18
14042.0	1.831449352837529e+18
14043.0	1.8310915115974653e+18
14044.0	1.8307531101175805e+18
14045.0	1.8304195706748923e+18
14046.0	1.8301079825416187e+18
14047.0	1.829762937284198e+18
14048.0	1.8294369828208637e+18
14049.0	1.8291066830585853e+18
14050.0	1.8287712410796032e+18
14051.0	1.8284306434621437e+18
14052.0	1.828094968279859e+18
14053.0	1.827764754081382e+18
14054.0	1.8274293959884797e+18
14055.0	1.8270940076965888e+18
14056.0	1.8267584751206397e+18
14057.0	1.8264230935396347e+18
14058.0	1.8260874535895035e+18
14059.0	1.8257042149998587e+18
14060.0	1.8254158280785917e+18
14061.0	1.8250740459896827e+18
14062.0	1.8247382634332155e+18
14063.0	1.8243480052563963e+18
14064.0	1.82334418583552e+18
14065.0	1.8237145428787197e+18
14066.0	1.8234002032820221e+18
14067.0	1.8230570236510205e+18
14068.0	1.8227340806979581e+18
14069.0	1.8223959476535293e+18
14070.0	1.8220658408292347e+18
14071.0	1.8217307008401403e+18
14072.0	1.8213984884752381e+18
14073.0	1.821063192458035e+18
14074.0	1.8207261079896061e+18
14075.0	1.8203663809904637e+18
14076.0	1.8200063318687744e+18
14077.0	1.819004649865216e+18
14078.0	1.8192392523874304e+18
14079.0	1.8190286060519421e+18
14080.0	1.8186970714865661e+18
14081.0	1.8183843223699453e+18
14082.0	1.8180533867511803e+18
14083.0	1.817710324560691e+18
14084.0	1.817331493345689e+18
14085.0	1.816619151209267e+18
14086.0	1.8165981578788861e+18
14087.0	1.816339147862835e+18
14088.0	1.8160353309360125e+18
14089.0	1.8157142921969661e+18
14090.0	1.8153887051546621e+18
14091.0	1.8150591268126715e+18
14092.0	1.8147271224852477e+18
14093.0	1.8143929203425277e+18
14094.0	1.8140555221401597e+18
14095.0	1.8137086565548027e+18
14096.0	1.8133227201888253e+18
14097.0	1.8129902192558075e+18
14098.0	1.812687192535859e+18
14099.0	1.8123846758432768e+18
14100.0	1.8120542569627643e+18
14101.0	1.8117355150245888e+18
14102.0	1.8114030677786624e+18
14103.0	1.8110611548274685e+18
14104.0	1.8107395003645947e+18
14105.0	1.8104107474616317e+18
14106.0	1.8100785485185021e+18
14107.0	1.8097119579602941e+18
14108.0	1.8093929173876733e+18
14109.0	1.809075947123507e+18
14110.0	1.8087428958978043e+18
14111.0	1.8084040884092928e+18
14112.0	1.8080595431129085e+18
14113.0	1.8077217355464704e+18
14114.0	1.807351366759219e+18
14115.0	1.8069386975772672e+18
14116.0	1.8058901467430907e+18
14117.0	1.80052708818944e+18
14118.0	1.8056063316131837e+18
14119.0	1.805580612141056e+18
14120.0	1.805319553626931e+18
14121.0	1.8050319938224125e+18
14122.0	1.804716597261107e+18
14123.0	1.804390904522342e+18
14124.0	1.804030165857075e+18
14125.0	1.8034325849112576e+18
14126.0	1.803408437464268e+18
14127.0	1.803108237705216e+18
14128.0	1.8027889521852413e+18
14129.0	1.8024516328357885e+18
14130.0	1.8021053678747643e+18
14131.0	1.8017895082622976e+18
14132.0	1.8014280666316792e+18
14133.0	1.8007553589903352e+18
14134.0	1.8007378620317696e+18
14135.0	1.80046194058199e+18
14136.0	1.8001362293882877e+18
14137.0	1.799799227128217e+18
14138.0	1.7994576581099517e+18
14139.0	1.799145981057433e+18
14140.0	1.798797897446195e+18
14141.0	1.7983780023173117e+18
14142.0	1.7979765419933693e+18
14143.0	1.797796738891776e+18
14144.0	1.7975082076864507e+18
14145.0	1.7971914471374843e+18
14146.0	1.7968504368005117e+18
14147.0	1.796541143790387e+18
14148.0	1.7962137464864765e+18
14149.0	1.7958878759092221e+18
14150.0	1.7955633726750717e+18
14151.0	1.7952310143483896e+18
14152.0	1.7949089370996733e+18
14153.0	1.7945829507596285e+18
14154.0	1.794230072220057e+18
14155.0	1.7938542038614013e+18
14156.0	1.7935918602125307e+18
14157.0	1.7932691890503677e+18
14158.0	1.792939872432947e+18
14159.0	1.792612255347507e+18
14160.0	1.792265243800371e+18
14161.0	1.7919096104419328e+18
14162.0	1.7915455230443517e+18
14163.0	1.7912349599989755e+18
14164.0	1.790879930620313e+18
14165.0	1.7906068310982656e+18
14166.0	1.7903102166302717e+18
14167.0	1.7899780646633472e+18
14168.0	1.7896652836700155e+18
14169.0	1.78933558453207e+18
14170.0	1.789014706854297e+18
14171.0	1.7886861921878016e+18
14172.0	1.7883639891099648e+18
14173.0	1.7880271562997755e+18
14174.0	1.7877030355861496e+18
14175.0	1.787379609449267e+18
14176.0	1.7870594968125437e+18
14177.0	1.7867331011084285e+18
14178.0	1.7864060376711165e+18
14179.0	1.7860768502382587e+18
14180.0	1.7857522413076477e+18
14181.0	1.7854243322986493e+18
14182.0	1.785094253995622e+18
14183.0	1.784760920912691e+18
14184.0	1.7844112535322621e+18
14185.0	1.7839933599252475e+18
14186.0	1.782965183342182e+18
14187.0	1.7832202574233597e+18
14188.0	1.7830827362615293e+18
14189.0	1.7827857191403517e+18
14190.0	1.7824730606206976e+18
14191.0	1.7821452606636024e+18
14192.0	1.781790622194073e+18
14193.0	1.7813790854742013e+18
14194.0	1.7811680650067963e+18
14195.0	1.7808624344629248e+18
14196.0	1.7805413403590653e+18
14197.0	1.780216065372979e+18
14198.0	1.779882693702451e+18
14199.0	1.779530464441139e+18
14200.0	1.77866447823831e+18
14201.0	1.7786969186631672e+18
14202.0	1.7785699319152635e+18
14203.0	1.7782630967672832e+18
14204.0	1.777942240899891e+18
14205.0	1.7776125837049853e+18
14206.0	1.777210963997491e+18
14207.0	1.7769612267487227e+18
14208.0	1.776644300105318e+18
14209.0	1.7762267789524987e+18
14210.0	1.7759176939798525e+18
14211.0	1.775668765392896e+18
14212.0	1.7753564826828797e+18
14213.0	1.775031692558336e+18
14214.0	1.7747100280291325e+18
14215.0	1.7743716852695037e+18
14216.0	1.7740643669377021e+18
14217.0	1.7737410515304443e+18
14218.0	1.773404847865856e+18
14219.0	1.7730900536066043e+18
14220.0	1.7727560829894653e+18
14221.0	1.772437787325235e+18
14222.0	1.7720870478807035e+18
14223.0	1.7717663866290176e+18
14224.0	1.771368238127513e+18
14225.0	1.7690406846201859e+18
14226.0	1.7704279456350205e+18
14227.0	1.770312105669427e+18
14228.0	1.7645296888578056e+18
14229.0	1.7676919944249313e+18
14230.0	1.7694330969915387e+18
14231.0	1.7691656648130555e+18
14232.0	1.7688790847979517e+18
14233.0	1.7685644717326328e+18
14234.0	1.768246920976793e+18
14235.0	1.767924925936435e+18
14236.0	1.767604690826035e+18
14237.0	1.7672760402640893e+18
14238.0	1.766940130200781e+18
14239.0	1.7665430638297085e+18
14240.0	1.7649034516758525e+18
14241.0	1.7658285171671037e+18
14242.0	1.7656014056718333e+18
14243.0	1.765218281167257e+18
14244.0	1.7649972228915197e+18
14245.0	1.7646773568798715e+18
14246.0	1.7643573683945472e+18
14247.0	1.7640363413995515e+18
14248.0	1.7637052665298944e+18
14249.0	1.7633919805423613e+18
14250.0	1.763070706922291e+18
14251.0	1.7627450208944125e+18
14252.0	1.7624138638163965e+18
14253.0	1.7620685333463035e+18
14254.0	1.7617049106776061e+18
14255.0	1.7611857296621565e+18
14256.0	1.7592228289445888e+18
14257.0	1.759820804154982e+18
14258.0	1.7602966814982141e+18
14259.0	1.7600410537689088e+18
14260.0	1.7596734431559677e+18
14261.0	1.7593407006310395e+18
14262.0	1.7588147818856443e+18
14263.0	1.7560030479908867e+18
14264.0	1.7566978008940536e+18
14265.0	1.7579384273633277e+18
14266.0	1.757819151423897e+18
14267.0	1.7575531721523197e+18
14268.0	1.7572454796886016e+18
14269.0	1.7569235618234365e+18
14270.0	1.7565974311993336e+18
14271.0	1.7562360851988477e+18
14272.0	1.755800600680857e+18
14273.0	1.754937233401446e+18
14274.0	1.7505972310245379e+18
14275.0	1.7533520599580672e+18
14276.0	1.754388120154931e+18
14277.0	1.754264819361382e+18
14278.0	1.7540145972510715e+18
14279.0	1.7537226485268475e+18
14280.0	1.7534167512252416e+18
14281.0	1.7531107582935037e+18
14282.0	1.752797648466739e+18
14283.0	1.7524820941996032e+18
14284.0	1.7521649913954304e+18
14285.0	1.751846348442828e+18
14286.0	1.751526057967616e+18
14287.0	1.751202558010982e+18
14288.0	1.7508389319868408e+18
14289.0	1.7496807722450936e+18
14290.0	1.750206162508185e+18
14291.0	1.749928060020326e+18
14292.0	1.7496098583085053e+18
14293.0	1.7492867291283456e+18
14294.0	1.7488793112150016e+18
14295.0	1.7485958383403005e+18
14296.0	1.7476442698809344e+18
14297.0	1.7478556611248125e+18
14298.0	1.7471479796989947e+18
14299.0	1.7472599055400957e+18
14300.0	1.7470148055138304e+18
14301.0	1.7467126293987325e+18
14302.0	1.7463974526189565e+18
14303.0	1.746044330809753e+18
14304.0	1.7457439582453752e+18
14305.0	1.7454302880595965e+18
14306.0	1.745091738940211e+18
14307.0	1.7447636185382912e+18
14308.0	1.7444444135489533e+18
14309.0	1.7441047537778685e+18
14310.0	1.7437415438286843e+18
14311.0	1.7433556913487872e+18
14312.0	1.7430837947531261e+18
14313.0	1.7427325889019904e+18
14314.0	1.7425356948504576e+18
14315.0	1.7422327906041853e+18
14316.0	1.7418969694601213e+18
14317.0	1.741591986516787e+18
14318.0	1.74131239756759e+18
14319.0	1.7410112297631744e+18
14320.0	1.7407011046031357e+18
14321.0	1.740384495049113e+18
14322.0	1.7400489171746808e+18
14323.0	1.7397418723115005e+18
14324.0	1.7394403236642813e+18
14325.0	1.739092011882905e+18
14326.0	1.7387891814563835e+18
14327.0	1.73846706562007e+18
14328.0	1.738154284626739e+18
14329.0	1.7378461609885693e+18
14330.0	1.7375311888908285e+18
14331.0	1.7372140173000704e+18
14332.0	1.7369001810198523e+18
14333.0	1.7365838734557181e+18
14334.0	1.73626484630487e+18
14335.0	1.7359111658143736e+18
14336.0	1.7354322920603643e+18
14337.0	1.7353048238063608e+18
14338.0	1.7350027215110144e+18
14339.0	1.734680318784307e+18
14340.0	1.734373822536089e+18
14341.0	1.734055518483251e+18
14342.0	1.7337353655812093e+18
14343.0	1.733431615763251e+18
14344.0	1.733092657279795e+18
14345.0	1.7327871911526397e+18
14346.0	1.7324741970886653e+18
14347.0	1.7321385386835963e+18
14348.0	1.7318363910897661e+18
14349.0	1.7315176038531072e+18
14350.0	1.731025578439475e+18
14351.0	1.7307083363844093e+18
14352.0	1.730558161846272e+18
14353.0	1.7302408644263933e+18
14354.0	1.7299125510864893e+18
14355.0	1.729561026468249e+18
14356.0	1.7292469100085243e+18
14357.0	1.7289785685049336e+18
14358.0	1.7286848766279677e+18
14359.0	1.728356616975155e+18
14360.0	1.728043257167872e+18
14361.0	1.7277318535839741e+18
14362.0	1.727417327760179e+18
14363.0	1.7270657444216824e+18
14364.0	1.7263091943211005e+18
14365.0	1.7261689250512893e+18
14366.0	1.7260362860593147e+18
14367.0	1.7258521930235904e+18
14368.0	1.7255472050470907e+18
14369.0	1.725241532560179e+18
14370.0	1.7249289277276152e+18
14371.0	1.7246210607808507e+18
14372.0	1.7242997468954621e+18
14373.0	1.723987350100377e+18
14374.0	1.7236789311832061e+18
14375.0	1.7233624407474176e+18
14376.0	1.7230582983426043e+18
14377.0	1.7227450593312765e+18
14378.0	1.7224310015918075e+18
14379.0	1.7221183682379776e+18
14380.0	1.721805005075251e+18
14381.0	1.721484154241024e+18
14382.0	1.7211813858902016e+18
14383.0	1.7208696920604667e+18
14384.0	1.7205342500814848e+18
14385.0	1.7202150165708795e+18
14386.0	1.7198845607804928e+18
14387.0	1.7195899444789243e+18
14388.0	1.7192751787409405e+18
14389.0	1.7189646760935421e+18
14390.0	1.7186519823417336e+18
14391.0	1.7183412297138168e+18
14392.0	1.7180275410731005e+18
14393.0	1.717716243185664e+18
14394.0	1.7173657252003837e+18
14395.0	1.717082193605427e+18
14396.0	1.7167757845987323e+18
14397.0	1.7164681240117243e+18
14398.0	1.7161549118439421e+18
14399.0	1.7158361514508285e+18
14400.0	1.7155106080292861e+18
14401.0	1.715197659263795e+18
14402.0	1.7148650576674816e+18
14403.0	1.714305639854899e+18
14404.0	1.7119851780767734e+18
14405.0	1.7121273666600947e+18
14406.0	1.713551980468633e+18
14407.0	1.7131059078496253e+18
14408.0	1.71298432000983e+18
14409.0	1.7127007632490493e+18
14410.0	1.7123774042210304e+18
14411.0	1.712094765173964e+18
14412.0	1.7117930521100285e+18
14413.0	1.7114866246483965e+18
14414.0	1.711174306706227e+18
14415.0	1.7108627051511803e+18
14416.0	1.7105446443679741e+18
14417.0	1.710217275585331e+18
14418.0	1.7099040432848893e+18
14419.0	1.7096074925703163e+18
14420.0	1.7092953390448637e+18
14421.0	1.7089688812650493e+18
14422.0	1.7086144541884419e+18
14423.0	1.7082141498146808e+18
14424.0	1.7071071085723648e+18
14425.0	1.70760211529728e+18
14426.0	1.7073850550321147e+18
14427.0	1.7070902592143352e+18
14428.0	1.70675943768064e+18
14429.0	1.7064563438518272e+18
14430.0	1.7060313417383933e+18
14431.0	1.7049318519209981e+18
14432.0	1.7054662767149053e+18
14433.0	1.7050414742503421e+18
14434.0	1.7048845988921341e+18
14435.0	1.704565954261811e+18
14436.0	1.7042969517359104e+18
14437.0	1.7039972502601725e+18
14438.0	1.7036036030857213e+18
14439.0	1.703345143362355e+18
14440.0	1.7030806992060413e+18
14441.0	1.7027653680758781e+18
14442.0	1.7024513673789437e+18
14443.0	1.7021097329295357e+18
14444.0	1.70183103652823e+18
14445.0	1.7015065483935744e+18
14446.0	1.700442799079424e+18
14447.0	1.7008146190958584e+18
14448.0	1.7006005065875453e+18
14449.0	1.7002980318380027e+18
14450.0	1.699986537657139e+18
14451.0	1.6996797998170112e+18
14452.0	1.6993729411809277e+18
14453.0	1.6990613463367677e+18
14454.0	1.6987436999507963e+18
14455.0	1.6984305532141563e+18
14456.0	1.6981101637533693e+18
14457.0	1.6978032883400704e+18
14458.0	1.6974862912323581e+18
14459.0	1.6971602444943357e+18
14460.0	1.696825993697689e+18
14461.0	1.69646122682286e+18
14462.0	1.6960851370049533e+18
14463.0	1.6958358510632957e+18
14464.0	1.6955685111595005e+18
14465.0	1.6952620451102715e+18
14466.0	1.694988235911987e+18
14467.0	1.6946752233930747e+18
14468.0	1.6943773808328704e+18
14469.0	1.6940146624561147e+18
14470.0	1.6937403801403387e+18
14471.0	1.693467302428672e+18
14472.0	1.6931708339224576e+18
14473.0	1.6928727363485693e+18
14474.0	1.6925728469680125e+18
14475.0	1.6922657551286267e+18
14476.0	1.6919516940337152e+18
14477.0	1.6916506369589243e+18
14478.0	1.6913471975194621e+18
14479.0	1.6910401929215995e+18
14480.0	1.6907192531681277e+18
14481.0	1.6904312974213112e+18
14482.0	1.690120024699699e+18
14483.0	1.6898093979009021e+18
14484.0	1.6894902080110587e+18
14485.0	1.689142503564902e+18
14486.0	1.6886674315280381e+18
14487.0	1.688571083331993e+18
14488.0	1.688252032693043e+18
14489.0	1.687896859030323e+18
14490.0	1.6876439542431741e+18
14491.0	1.687368770990899e+18
14492.0	1.6870649372868605e+18
14493.0	1.686734546927616e+18
14494.0	1.686428196641177e+18
14495.0	1.6861272737841147e+18
14496.0	1.6857433825607677e+18
14497.0	1.6855241899114493e+18
14498.0	1.6852275335004152e+18
14499.0	1.6849243692072957e+18
14500.0	1.6846168562597888e+18
14501.0	1.6842806995714048e+18
14502.0	1.6838112411910141e+18
14503.0	1.6836749212778493e+18
14504.0	1.6833851854684157e+18
14505.0	1.6830807175856125e+18
14506.0	1.6827473543036925e+18
14507.0	1.6822884924129277e+18
14508.0	1.682154871953817e+18
14509.0	1.681865486788198e+18
14510.0	1.6815593848045568e+18
14511.0	1.6812550159073275e+18
14512.0	1.680911883252531e+18
14513.0	1.6806019107651581e+18
14514.0	1.680269532305817e+18
14515.0	1.6799109360910339e+18
14516.0	1.6774139763228677e+18
14517.0	1.6791589510709243e+18
14518.0	1.6790592742752253e+18
14519.0	1.6787519995641853e+18
14520.0	1.678475224154112e+18
14521.0	1.6781716706295805e+18
14522.0	1.6778585658359803e+18
14523.0	1.6775189983395837e+18
14524.0	1.6772339400179707e+18
14525.0	1.67694795056087e+18
14526.0	1.6766418905202685e+18
14527.0	1.6762995715604477e+18
14528.0	1.67593842353111e+18
14529.0	1.675729191514931e+18
14530.0	1.6754234670186493e+18
14531.0	1.67513215247319e+18
14532.0	1.674821988725555e+18
14533.0	1.674522926461747e+18
14534.0	1.6742221344669693e+18
14535.0	1.6739095849992195e+18
14536.0	1.6736116820410365e+18
14537.0	1.673299848960409e+18
14538.0	1.6730083666427896e+18
14539.0	1.6727053617332221e+18
14540.0	1.672400365368115e+18
14541.0	1.6720684432490493e+18
14542.0	1.6717878896099325e+18
14543.0	1.6714671411167232e+18
14544.0	1.671170904136089e+18
14545.0	1.6708259628974077e+18
14546.0	1.6692025256574968e+18
14547.0	1.6688764520759288e+18
14548.0	1.6698961259659261e+18
14549.0	1.6695559746224123e+18
14550.0	1.6693362132254715e+18
14551.0	1.6690571393368061e+18
14552.0	1.6687513410207741e+18
14553.0	1.6684470476210176e+18
14554.0	1.6681512434925565e+18
14555.0	1.6678466212593667e+18
14556.0	1.6675378986745853e+18
14557.0	1.6672236228313088e+18
14558.0	1.6668363728093181e+18
14559.0	1.6649199718236147e+18
14560.0	1.6662191591653376e+18
14561.0	1.6659987250020347e+18
14562.0	1.6656773893062656e+18
14563.0	1.6653914736689152e+18
14564.0	1.6650505623175163e+18
14565.0	1.6648067071606781e+18
14566.0	1.6645107973357563e+18
14567.0	1.664205027540992e+18
14568.0	1.6638736842358781e+18
14569.0	1.663534571402035e+18
14570.0	1.6627981908705275e+18
14571.0	1.6629358093402107e+18
14572.0	1.6626176395051003e+18
14573.0	1.6622893479755779e+18
14574.0	1.6619968992903165e+18
14575.0	1.6617173405401088e+18
14576.0	1.6613897737863165e+18
14577.0	1.6611423299829757e+18
14578.0	1.6608452121985021e+18
14579.0	1.6605528473993213e+18
14580.0	1.6602480624271352e+18
14581.0	1.6599419688321021e+18
14582.0	1.6596225608384507e+18
14583.0	1.6593428443824125e+18
14584.0	1.659009603574169e+18
14585.0	1.658730625315635e+18
14586.0	1.6584409985581053e+18
14587.0	1.6581426023497725e+18
14588.0	1.657841681170432e+18
14589.0	1.6575403388829693e+18
14590.0	1.6572383271845885e+18
14591.0	1.656930069328691e+18
14592.0	1.656610382833254e+18
14593.0	1.6562405727272957e+18
14594.0	1.6560089179619325e+18
14595.0	1.655687588977049e+18
14596.0	1.6548051946569723e+18
14597.0	1.654400897305804e+18
14598.0	1.654701283291955e+18
14599.0	1.6545034866262013e+18
14600.0	1.6542103014211581e+18
14601.0	1.6539105177370621e+18
14602.0	1.6535988859830267e+18
14603.0	1.6532999814250493e+18
14604.0	1.6529519397568507e+18
14605.0	1.6526224402677757e+18
14606.0	1.6523040305184768e+18
14607.0	1.6520953387286528e+18
14608.0	1.6517720098996221e+18
14609.0	1.6514430825136128e+18
14610.0	1.6511203593420797e+18
14611.0	1.650819805583769e+18
14612.0	1.6506051293609984e+18
14613.0	1.650312517936742e+18
14614.0	1.6499778007334907e+18
14615.0	1.6496881622319104e+18
14616.0	1.649409069888307e+18
14617.0	1.649011607574937e+18
14618.0	1.6486447519367163e+18
14619.0	1.6476536496455677e+18
14620.0	1.646970065335091e+18
14621.0	1.647788457931571e+18
14622.0	1.6475867387527168e+18
14623.0	1.6473127903035392e+18
14624.0	1.646988149496217e+18
14625.0	1.6467234486484992e+18
14626.0	1.6464049113923581e+18
14627.0	1.646108956268953e+18
14628.0	1.6458424736808957e+18
14629.0	1.6455420004532221e+18
14630.0	1.64521275597783e+18
14631.0	1.6449146584039421e+18
14632.0	1.6445156173545467e+18
14633.0	1.6442838065610747e+18
14634.0	1.644001613787955e+18
14635.0	1.6436376085987325e+18
14636.0	1.6431560186134525e+18
14637.0	1.6431126025338877e+18
14638.0	1.6427782611402747e+18
14639.0	1.6424726456958976e+18
14640.0	1.6421864230354941e+18
14641.0	1.6416397374521341e+18
14642.0	1.641584124336537e+18
14643.0	1.6413012789297147e+18
14644.0	1.6409888922009597e+18
14645.0	1.640661508318822e+18
14646.0	1.6403469522960381e+18
14647.0	1.6400569832833021e+18
