# Flux units: erg / (cm m2 s)
# Wavelength units: Angstrom
wave	flux
14000.0	1.9384131309797373e+18
14001.0	1.9380199384678397e+18
14002.0	1.9376436573896704e+18
14003.0	1.937258863552102e+18
14004.0	1.93687403448238e+18
14005.0	1.9364892842655741e+18
14006.0	1.9361039267135483e+18
14007.0	1.9357195858608125e+18
14008.0	1.93532659803095e+18
14009.0	1.9349510199181307e+18
14010.0	1.9345668233494525e+18
14011.0	1.9341258409377787e+18
14012.0	1.9337984704774141e+18
14013.0	1.933414510467481e+18
14014.0	1.9330305689124861e+18
14015.0	1.9326465115947005e+18
14016.0	1.9322629693374456e+18
14017.0	1.9318793129951227e+18
14018.0	1.931495718728499e+18
14019.0	1.93111224525783e+18
14020.0	1.9307287885643773e+18
14021.0	1.930345420790169e+18
14022.0	1.929962187233689e+18
14023.0	1.9295789134118907e+18
14024.0	1.929195201704755e+18
14025.0	1.9288131861741563e+18
14026.0	1.9284301723992056e+18
14027.0	1.9280475931541496e+18
14028.0	1.9276649149235197e+18
14029.0	1.927282297090867e+18
14030.0	1.926868864545587e+18
14031.0	1.9265167678242808e+18
14032.0	1.9261350609944573e+18
14033.0	1.925748966922649e+18
14034.0	1.925370665867673e+18
14035.0	1.9249886939578365e+18
14036.0	1.9246067488915453e+18
14037.0	1.924224879322726e+18
14038.0	1.9238431020285947e+18
14039.0	1.9234614069428221e+18
14040.0	1.923079820908953e+18
14041.0	1.9226983103725563e+18
14042.0	1.9223163552399355e+18
14043.0	1.9219331418161147e+18
14044.0	1.9215532502810616e+18
14045.0	1.9211731725189117e+18
14046.0	1.9207921049010173e+18
14047.0	1.9204110104395779e+18
14048.0	1.9200302062239736e+18
14049.0	1.9196494556954621e+18
14050.0	1.9192687538208763e+18
14051.0	1.918887325492838e+18
14052.0	1.91850759669678e+18
14053.0	1.9181271666130941e+18
14054.0	1.9177468237709307e+18
14055.0	1.917366576558899e+18
14056.0	1.916986398133452e+18
14057.0	1.9166063220490237e+18
14058.0	1.916226328172953e+18
14059.0	1.915846428249292e+18
14060.0	1.915466605500825e+18
14061.0	1.9150862609809405e+18
14062.0	1.9147072468942843e+18
14063.0	1.9143262480629755e+18
14064.0	1.9139427360047104e+18
14065.0	1.9135680839942141e+18
14066.0	1.9131895866458107e+18
14067.0	1.912810394720665e+18
14068.0	1.9124312917147643e+18
14069.0	1.9118378631299064e+18
14070.0	1.9113877052588027e+18
14071.0	1.9110087465369592e+18
14072.0	1.9106303666290683e+18
14073.0	1.910252322265497e+18
14074.0	1.9098738920259581e+18
14075.0	1.9094954986962936e+18
14076.0	1.9091172328734715e+18
14077.0	1.9087324591685632e+18
14078.0	1.9083604059488256e+18
14079.0	1.9079823347417088e+18
14080.0	1.9076050000543741e+18
14081.0	1.9072271536619515e+18
14082.0	1.9068490556112893e+18
14083.0	1.9064715883839483e+18
14084.0	1.906094122834329e+18
14085.0	1.905693231258009e+18
14086.0	1.9053386229874683e+18
14087.0	1.9049619711328253e+18
14088.0	1.904584654900428e+18
14089.0	1.9042075903262715e+18
14090.0	1.903830433477427e+18
14091.0	1.9034536071397373e+18
14092.0	1.9030767388590075e+18
14093.0	1.9026999544643581e+18
14094.0	1.9023232556335104e+18
14095.0	1.901946640688742e+18
14096.0	1.9015686936330237e+18
14097.0	1.901193565149593e+18
14098.0	1.9008166532481021e+18
14099.0	1.9004410768130043e+18
14100.0	1.9000638243340283e+18
14101.0	1.8996888451678203e+18
14102.0	1.8993128291696637e+18
14103.0	1.898935598501068e+18
14104.0	1.8985611176181755e+18
14105.0	1.898185349922816e+18
14106.0	1.8978097349001213e+18
14107.0	1.8974340779343872e+18
14108.0	1.897058721280819e+18
14109.0	1.896682884798873e+18
14110.0	1.8963075868655613e+18
14111.0	1.8959317839380477e+18
14112.0	1.8955575194812416e+18
14113.0	1.8951826409783293e+18
14114.0	1.894807708788326e+18
14115.0	1.8944327027785725e+18
14116.0	1.89405654417408e+18
14117.0	1.8936285087399933e+18
14118.0	1.8933086947377152e+18
14119.0	1.8929333900935165e+18
14120.0	1.8925590769827837e+18
14121.0	1.8921851447148541e+18
14122.0	1.8918101756149752e+18
14123.0	1.89143622656983e+18
14124.0	1.891062039288217e+18
14125.0	1.8906460297625597e+18
14126.0	1.8903150505230333e+18
14127.0	1.8899413028044792e+18
14128.0	1.889567457778073e+18
14129.0	1.889193946618265e+18
14130.0	1.8888203901599741e+18
14131.0	1.888446912554598e+18
14132.0	1.8880734433378304e+18
14133.0	1.887649932718899e+18
14134.0	1.8873269176238077e+18
14135.0	1.8869525759918077e+18
14136.0	1.886579566470758e+18
14137.0	1.8862077732978683e+18
14138.0	1.8858343997112317e+18
14139.0	1.8854622089183224e+18
14140.0	1.8850888672083965e+18
14141.0	1.8847165489086461e+18
14142.0	1.884340014494515e+18
14143.0	1.8839714576465915e+18
14144.0	1.8835996409855997e+18
14145.0	1.8832273847615488e+18
14146.0	1.882855054717747e+18
14147.0	1.8824830233083904e+18
14148.0	1.8821110304866304e+18
14149.0	1.8817392071147515e+18
14150.0	1.8813673787097088e+18
14151.0	1.8809954110537725e+18
14152.0	1.8806239836241917e+18
14153.0	1.8802524018442235e+18
14154.0	1.8798809173721083e+18
14155.0	1.879506857597337e+18
14156.0	1.8791377873666043e+18
14157.0	1.8787669857271805e+18
14158.0	1.8783954375016445e+18
14159.0	1.8780247684022264e+18
14160.0	1.8776531547455483e+18
14161.0	1.8772773971165181e+18
14162.0	1.8769022434672637e+18
14163.0	1.8765412061675515e+18
14164.0	1.8761690002751483e+18
14165.0	1.8757925682020347e+18
14166.0	1.8754295377690621e+18
14167.0	1.875059378697011e+18
14168.0	1.8746889092464635e+18
14169.0	1.874318892780748e+18
14170.0	1.8739484652732416e+18
14171.0	1.873578482361958e+18
14172.0	1.873208793051955e+18
14173.0	1.8728343440457728e+18
14174.0	1.8724687047557117e+18
14175.0	1.8720994701082621e+18
14176.0	1.8717298713952253e+18
14177.0	1.8713603481796605e+18
14178.0	1.8709908098646016e+18
14179.0	1.8706206491148283e+18
14180.0	1.8702522952712195e+18
14181.0	1.8698831344435197e+18
14182.0	1.8695139484499965e+18
14183.0	1.8691450090815483e+18
14184.0	1.8687756116951035e+18
14185.0	1.8684072008089597e+18
14186.0	1.8680266767728637e+18
14187.0	1.8676675201990653e+18
14188.0	1.8673011125125115e+18
14189.0	1.866932545598259e+18
14190.0	1.8665641984655355e+18
14191.0	1.8661950409932797e+18
14192.0	1.8657495555768315e+18
14193.0	1.865380232010137e+18
14194.0	1.8650134015377403e+18
14195.0	1.8646453396176893e+18
14196.0	1.864277148513075e+18
14197.0	1.8639090664603643e+18
14198.0	1.8635406085980155e+18
14199.0	1.8631729325539325e+18
14200.0	1.862799201612595e+18
14201.0	1.8624372767981565e+18
14202.0	1.862069919521177e+18
14203.0	1.86170133750743e+18
14204.0	1.8613345590444027e+18
14205.0	1.8609671380140027e+18
14206.0	1.860588885612953e+18
14207.0	1.8602327841701888e+18
14208.0	1.859865661774233e+18
14209.0	1.8594857970827256e+18
14210.0	1.8590456669536253e+18
14211.0	1.858687164691251e+18
14212.0	1.858320045650739e+18
14213.0	1.8579530759274493e+18
14214.0	1.8575861246590976e+18
14215.0	1.8572182489661437e+18
14216.0	1.856852613031526e+18
14217.0	1.8564859251654656e+18
14218.0	1.8561193178300408e+18
14219.0	1.8557527977361408e+18
14220.0	1.855386371594649e+18
14221.0	1.8550199806853115e+18
14222.0	1.8546537072164856e+18
14223.0	1.8542875293777917e+18
14224.0	1.8539214287142907e+18
14225.0	1.8535368831795192e+18
14226.0	1.8531893448278008e+18
14227.0	1.8528235746754555e+18
14228.0	1.8524123600781312e+18
14229.0	1.8520059739635707e+18
14230.0	1.851272720705126e+18
14231.0	1.8509068599558136e+18
14232.0	1.8505410747039741e+18
14233.0	1.8501753599164416e+18
14234.0	1.849809727337267e+18
14235.0	1.8494439404077053e+18
14236.0	1.8490786853158907e+18
14237.0	1.8487131701772288e+18
14238.0	1.8483479419289597e+18
14239.0	1.8479822002978813e+18
14240.0	1.8474720118702077e+18
14241.0	1.847252315904409e+18
14242.0	1.8468874349445115e+18
14243.0	1.8465081524223997e+18
14244.0	1.846157755233075e+18
14245.0	1.8457918944837627e+18
14246.0	1.8454264665866237e+18
14247.0	1.8450637247217661e+18
14248.0	1.844697718010675e+18
14249.0	1.8443345483268093e+18
14250.0	1.843970153906176e+18
14251.0	1.843606106773913e+18
14252.0	1.8432160046252027e+18
14253.0	1.842799063964057e+18
14254.0	1.8424345940459515e+18
14255.0	1.8420675001712637e+18
14256.0	1.841686902315417e+18
14257.0	1.8413413554192381e+18
14258.0	1.84097828807639e+18
14259.0	1.8406143634178043e+18
14260.0	1.8402499253764093e+18
14261.0	1.8398875626766333e+18
14262.0	1.8395447437557752e+18
14263.0	1.8391523867492347e+18
14264.0	1.838811346213273e+18
14265.0	1.8384540703653883e+18
14266.0	1.838090682577715e+18
14267.0	1.8377273635766264e+18
14268.0	1.8373641133621243e+18
14269.0	1.8370006819536893e+18
14270.0	1.8366378192928765e+18
14271.0	1.8362746781302784e+18
14272.0	1.8359118137917435e+18
14273.0	1.8355487531597821e+18
14274.0	1.8351425834713085e+18
14275.0	1.8348193032962043e+18
14276.0	1.8344601668550653e+18
14277.0	1.834035193262899e+18
14278.0	1.8333187943956475e+18
14279.0	1.832956181715353e+18
14280.0	1.8325931881922555e+18
14281.0	1.8322314764484608e+18
14282.0	1.831869202667929e+18
14283.0	1.8315069725081597e+18
14284.0	1.8311448161681405e+18
14285.0	1.8307827219038205e+18
14286.0	1.830420654483046e+18
14287.0	1.830058769933926e+18
14288.0	1.8296968384086013e+18
14289.0	1.8292419057418235e+18
14290.0	1.8289731817177085e+18
14291.0	1.8286116780113915e+18
14292.0	1.8282502128926717e+18
14293.0	1.8278884961157117e+18
14294.0	1.8275143960756221e+18
14295.0	1.8271658594795517e+18
14296.0	1.8267293079306237e+18
14297.0	1.8264432345874427e+18
14298.0	1.8260667068841981e+18
14299.0	1.825720948595097e+18
14300.0	1.8253603340812288e+18
14301.0	1.8249993857007613e+18
14302.0	1.8246382980694013e+18
14303.0	1.824274458974617e+18
14304.0	1.8239158073950205e+18
14305.0	1.8235238127763453e+18
14306.0	1.8231184752377853e+18
14307.0	1.8227587666935805e+18
14308.0	1.8223987477708797e+18
14309.0	1.8220379000537085e+18
14310.0	1.8216691066470397e+18
14311.0	1.8213116714156032e+18
14312.0	1.8209541405540347e+18
14313.0	1.8205876993130493e+18
14314.0	1.8202362132824061e+18
14315.0	1.81987632522199e+18
14316.0	1.8195114543284221e+18
14317.0	1.8191553814069245e+18
14318.0	1.8187964127379453e+18
14319.0	1.8184366018527227e+18
14320.0	1.818076762446233e+18
14321.0	1.8177170891341821e+18
14322.0	1.817353677858406e+18
14323.0	1.816996041300377e+18
14324.0	1.8166383359557632e+18
14325.0	1.8162788857806843e+18
14326.0	1.8159195144585213e+18
14327.0	1.8155602001788925e+18
14328.0	1.815200340639744e+18
14329.0	1.8148417863679997e+18
14330.0	1.8144826784481277e+18
14331.0	1.8141236057604093e+18
14332.0	1.813764665612697e+18
14333.0	1.8134057623748605e+18
14334.0	1.813046904435507e+18
14335.0	1.8126870381854715e+18
14336.0	1.8123274487595003e+18
14337.0	1.8119388632711165e+18
14338.0	1.811537783789977e+18
14339.0	1.8111789896040445e+18
14340.0	1.8108204386877437e+18
14341.0	1.8104616428240893e+18
14342.0	1.810103174116147e+18
14343.0	1.8097443665084413e+18
14344.0	1.8093860068524027e+18
14345.0	1.80902779986903e+18
14346.0	1.8086691851993088e+18
14347.0	1.8083097853558781e+18
14348.0	1.8079529390047227e+18
14349.0	1.8075948377178107e+18
14350.0	1.8072352382255104e+18
14351.0	1.806877125194547e+18
14352.0	1.80652079054848e+18
14353.0	1.8061628805218304e+18
14354.0	1.8058047641354235e+18
14355.0	1.805446682981171e+18
14356.0	1.805089133664665e+18
14357.0	1.8047319383474176e+18
14358.0	1.8043743688982523e+18
14359.0	1.8040168128708603e+18
14360.0	1.8036592299999224e+18
14361.0	1.8033019625406461e+18
14362.0	1.8029447101808637e+18
14363.0	1.8025874276220925e+18
14364.0	1.802225392078029e+18
14365.0	1.8018721276624893e+18
14366.0	1.8015152091693056e+18
14367.0	1.8011590775275515e+18
14368.0	1.8008020969586685e+18
14369.0	1.8004452724178941e+18
14370.0	1.8000884612988925e+18
14371.0	1.7997317223219197e+18
14372.0	1.7993750219325435e+18
14373.0	1.7990183802634237e+18
14374.0	1.7986068703870976e+18
14375.0	1.7982337149042685e+18
14376.0	1.797877007804006e+18
14377.0	1.7975203023814653e+18
14378.0	1.7971635298500608e+18
14379.0	1.796807255601971e+18
14380.0	1.7964507934490621e+18
14381.0	1.7960941383581693e+18
14382.0	1.7957379379298304e+18
14383.0	1.7953812442513403e+18
14384.0	1.794832854102835e+18
14385.0	1.7941753818513405e+18
14386.0	1.793819131091353e+18
14387.0	1.7934629071749115e+18
14388.0	1.7931065825951741e+18
14389.0	1.7927506858344448e+18
14390.0	1.7923944988278781e+18
14391.0	1.7920387228631037e+18
14392.0	1.791682678462873e+18
14393.0	1.7913270048391165e+18
14394.0	1.7909712053862395e+18
14395.0	1.7906153488908285e+18
14396.0	1.7902597792858112e+18
14397.0	1.7899041593491453e+18
14398.0	1.789548504180326e+18
14399.0	1.7891930318831608e+18
14400.0	1.788835764423884e+18
14401.0	1.788481443043737e+18
14402.0	1.7881264388308987e+18
14403.0	1.7876370960941053e+18
14404.0	1.7869279667945464e+18
14405.0	1.786905336007884e+18
14406.0	1.7867054304460795e+18
14407.0	1.7861632394788861e+18
14408.0	1.7859942224494587e+18
14409.0	1.7856387837067261e+18
14410.0	1.7852853263532035e+18
14411.0	1.7849308019687421e+18
14412.0	1.7845757608460288e+18
14413.0	1.7842213773901821e+18
14414.0	1.7838664285421565e+18
14415.0	1.7832651163435003e+18
14416.0	1.782886134133555e+18
14417.0	1.782531181930086e+18
14418.0	1.782175466363289e+18
14419.0	1.781822081151795e+18
14420.0	1.7814672094789632e+18
14421.0	1.781113139757056e+18
14422.0	1.7807586204057597e+18
14423.0	1.7804028863840253e+18
14424.0	1.7792752494313464e+18
14425.0	1.7796943073771517e+18
14426.0	1.7793415227899904e+18
14427.0	1.7789875168215037e+18
14428.0	1.7786313482698752e+18
14429.0	1.778278900904755e+18
14430.0	1.7779253948973053e+18
14431.0	1.7775630405861368e+18
14432.0	1.7772168158904317e+18
14433.0	1.7767224970313725e+18
14434.0	1.776508394589388e+18
14435.0	1.7761542376259584e+18
14436.0	1.7758024680603648e+18
14437.0	1.7754488261574653e+18
14438.0	1.7750910486708224e+18
14439.0	1.7747405474627584e+18
14440.0	1.77438809170903e+18
14441.0	1.7740339313901565e+18
14442.0	1.7736800495730685e+18
14443.0	1.7733228341231613e+18
14444.0	1.7729741700202496e+18
14445.0	1.7726212948361213e+18
14446.0	1.7720627947372541e+18
14447.0	1.7719135177801723e+18
14448.0	1.7715619277307904e+18
14449.0	1.7712088528977915e+18
14450.0	1.770855727733145e+18
14451.0	1.7705026596110333e+18
14452.0	1.770149408617267e+18
14453.0	1.7697941527461885e+18
14454.0	1.7694435072540672e+18
14455.0	1.7690900499005435e+18
14456.0	1.7687371092852733e+18
14457.0	1.7683839874760704e+18
14458.0	1.768031744792985e+18
14459.0	1.7676787337134075e+18
14460.0	1.767325979325235e+18
14461.0	1.7669709868564475e+18
14462.0	1.7666154944266235e+18
14463.0	1.7662674510807037e+18
14464.0	1.7658793303212027e+18
14465.0	1.7654922564599805e+18
14466.0	1.7651418408157181e+18
14467.0	1.7647867661385728e+18
14468.0	1.7644362548641784e+18
14469.0	1.7640814838546427e+18
14470.0	1.7637284425760765e+18
14471.0	1.7633777316528125e+18
14472.0	1.763026289242931e+18
14473.0	1.762673974417817e+18
14474.0	1.7623215505407997e+18
14475.0	1.761968995801497e+18
14476.0	1.7616078477721597e+18
14477.0	1.761264530567987e+18
14478.0	1.7609122643967997e+18
14479.0	1.7605600435240957e+18
14480.0	1.7602070475440125e+18
14481.0	1.7598557309632507e+18
14482.0	1.7595032315887608e+18
14483.0	1.7591505023664125e+18
14484.0	1.7587984241000448e+18
14485.0	1.7584436849672187e+18
14486.0	1.7580659392380928e+18
14487.0	1.7577435532886016e+18
14488.0	1.7573916948037627e+18
14489.0	1.7570390545006587e+18
14490.0	1.756687670811033e+18
14491.0	1.7563360572735485e+18
14492.0	1.755984445413785e+18
14493.0	1.755632659070976e+18
14494.0	1.755280886149939e+18
14495.0	1.7549290863853565e+18
14496.0	1.754564054430515e+18
14497.0	1.754225513699737e+18
14498.0	1.7538738833850365e+18
14499.0	1.7535222094495741e+18
14500.0	1.7531704902156285e+18
14501.0	1.7528149508096e+18
14502.0	1.752443647531417e+18
14503.0	1.752114027246387e+18
14504.0	1.751763307934515e+18
14505.0	1.751408251712307e+18
14506.0	1.7510523432075261e+18
14507.0	1.750684746016358e+18
14508.0	1.750357477897011e+18
14509.0	1.75000594153472e+18
14510.0	1.7496544001392635e+18
14511.0	1.7493028335779837e+18
14512.0	1.748949736934605e+18
14513.0	1.7485997793083387e+18
14514.0	1.7482448287825915e+18
14515.0	1.7478966260531197e+18
14516.0	1.7469774493646848e+18
14517.0	1.7465692915761147e+18
14518.0	1.7462180018388987e+18
14519.0	1.7458664168226808e+18
14520.0	1.7454865873633275e+18
14521.0	1.7450942202904568e+18
14522.0	1.7447423869714427e+18
14523.0	1.744381218809446e+18
14524.0	1.7440293687132157e+18
14525.0	1.7436865363705856e+18
14526.0	1.7433353774956541e+18
14527.0	1.742981265830707e+18
14528.0	1.742619196732211e+18
14529.0	1.7422790906871803e+18
14530.0	1.7419270627524605e+18
14531.0	1.7415767209279485e+18
14532.0	1.7412125848764413e+18
14533.0	1.740873450232217e+18
14534.0	1.740521984334233e+18
14535.0	1.740170243289907e+18
14536.0	1.7398185961979896e+18
14537.0	1.7394657478574077e+18
14538.0	1.7391153422794747e+18
14539.0	1.7387637304197117e+18
14540.0	1.7384120732614653e+18
14541.0	1.738059877554585e+18
14542.0	1.7377085811064827e+18
14543.0	1.7373512683487232e+18
14544.0	1.7370049195016187e+18
14545.0	1.736652883178291e+18
14546.0	1.7353137526407163e+18
14547.0	1.7350503201505272e+18
14548.0	1.7355966030807035e+18
14549.0	1.7352346195460093e+18
14550.0	1.7348942081556477e+18
14551.0	1.734542475499929e+18
14552.0	1.7341905079631864e+18
14553.0	1.733838065631232e+18
14554.0	1.7334869939978237e+18
14555.0	1.7331350969253885e+18
14556.0	1.732783025369907e+18
14557.0	1.7324313715671035e+18
14558.0	1.7320793419546621e+18
14559.0	1.7315532571148285e+18
14560.0	1.7313752089100285e+18
14561.0	1.731023019914035e+18
14562.0	1.7306715422719997e+18
14563.0	1.7303196485550077e+18
14564.0	1.7299669679865853e+18
14565.0	1.729615673216204e+18
14566.0	1.729263621793382e+18
14567.0	1.728911439508275e+18
14568.0	1.7285588025606141e+18
14569.0	1.7282071269474304e+18
14570.0	1.7278065608491005e+18
14571.0	1.7275023261695997e+18
14572.0	1.7271464948400125e+18
14573.0	1.726794733663027e+18
14574.0	1.7264439606640637e+18
14575.0	1.7260930266038267e+18
14576.0	1.7257406513807357e+18
14577.0	1.7253883986313213e+18
14578.0	1.7250356559872e+18
14579.0	1.724683332773478e+18
14580.0	1.724330794811392e+18
14581.0	1.723977802186752e+18
14582.0	1.723625547759616e+18
14583.0	1.723272952754995e+18
14584.0	1.722919166568038e+18
14585.0	1.7225281265729533e+18
14586.0	1.7221496241913853e+18
14587.0	1.7217968362487803e+18
14588.0	1.7214446204092416e+18
14589.0	1.721097769923379e+18
14590.0	1.7207518069522427e+18
14591.0	1.720405624199577e+18
14592.0	1.720059428025139e+18
14593.0	1.7197017142919163e+18
14594.0	1.7193670524534781e+18
14595.0	1.7190201801572344e+18
14596.0	1.7186694541344763e+18
14597.0	1.7183226892124157e+18
14598.0	1.7179809004126203e+18
14599.0	1.7176349458300925e+18
14600.0	1.7172881691639805e+18
14601.0	1.7169414428295163e+18
14602.0	1.716594275254272e+18
14603.0	1.71624765629399e+18
14604.0	1.7158963917225981e+18
14605.0	1.715552648377139e+18
14606.0	1.7151999258656765e+18
14607.0	1.7148582226296832e+18
14608.0	1.7145118133846008e+18
14609.0	1.714163694541209e+18
14610.0	1.713815491811737e+18
14611.0	1.7134688090980347e+18
14612.0	1.7131217488969728e+18
14613.0	1.712538106462208e+18
14614.0	1.7116645034033147e+18
14615.0	1.7113167771467776e+18
14616.0	1.7109686432038907e+18
14617.0	1.710620371687833e+18
14618.0	1.710272036418355e+18
14619.0	1.7099203557720061e+18
14620.0	1.7095635865960448e+18
14621.0	1.70922660111319e+18
14622.0	1.7088779370102781e+18
14623.0	1.7085291286233088e+18
14624.0	1.708174448210739e+18
14625.0	1.7078312769683456e+18
14626.0	1.7074818662793208e+18
14627.0	1.7071320999133181e+18
14628.0	1.706783273071411e+18
14629.0	1.7064336409231357e+18
14630.0	1.7060837839601656e+18
14631.0	1.705733970617958e+18
14632.0	1.7053230798209021e+18
14633.0	1.7050259586809853e+18
14634.0	1.7046835306692603e+18
14635.0	1.704329773003571e+18
14636.0	1.7039738510770176e+18
14637.0	1.7036323894329344e+18
14638.0	1.703281232235725e+18
14639.0	1.7029292948979712e+18
14640.0	1.7025786242400253e+18
14641.0	1.7019887155150848e+18
14642.0	1.701875606880256e+18
14643.0	1.701524634232422e+18
14644.0	1.7011728378232827e+18
14645.0	1.7008186926039035e+18
14646.0	1.7004682064953336e+18
14647.0	1.7001156249124861e+18
14648.0	1.6997637899157496e+18
