# Flux units: erg / (cm m2 s)
# Wavelength units: Angstrom
wave	flux
14000.0	1.739451238921011e+18
14001.0	1.7390010206519293e+18
14002.0	1.7388880126803963e+18
14003.0	1.7385811590774784e+18
14004.0	1.7382727300939776e+18
14005.0	1.7379641064947712e+18
14006.0	1.7376449317044221e+18
14007.0	1.7373351571881981e+18
14008.0	1.7369063483244541e+18
14009.0	1.7367276323864568e+18
14010.0	1.736404169339699e+18
14011.0	1.7352460028870656e+18
14012.0	1.7358031322873853e+18
14013.0	1.735496849109811e+18
14014.0	1.735181739438899e+18
14015.0	1.734877895668531e+18
14016.0	1.7345730066776061e+18
14017.0	1.7342652085174272e+18
14018.0	1.7339522832400381e+18
14019.0	1.73364961387479e+18
14020.0	1.7333409684652027e+18
14021.0	1.7330324170080253e+18
14022.0	1.7327197870096381e+18
14023.0	1.7323986358632448e+18
14024.0	1.732088554323968e+18
14025.0	1.7318027125063675e+18
14026.0	1.7314944361955325e+18
14027.0	1.7311896126357496e+18
14028.0	1.7308744744435712e+18
14029.0	1.7305693103063037e+18
14030.0	1.7285493636988938e+18
14031.0	1.7299059609960443e+18
14032.0	1.7296508785262587e+18
14033.0	1.7292832947568637e+18
14034.0	1.7290371696427005e+18
14035.0	1.72873401541591e+18
14036.0	1.7284232862760957e+18
14037.0	1.7281214322835453e+18
14038.0	1.7278150517981181e+18
14039.0	1.7275035425177595e+18
14040.0	1.7271954692112381e+18
14041.0	1.7268932477976576e+18
14042.0	1.726575338009395e+18
14043.0	1.726228987484569e+18
14044.0	1.7259575438737405e+18
14045.0	1.7256635198078976e+18
14046.0	1.7253605081874432e+18
14047.0	1.7250451619577853e+18
14048.0	1.7247503812395003e+18
14049.0	1.7244483577970685e+18
14050.0	1.72414280442839e+18
14051.0	1.7238258257756152e+18
14052.0	1.7235270537576443e+18
14053.0	1.7232260369481728e+18
14054.0	1.7229209298534397e+18
14055.0	1.7226156080103421e+18
14056.0	1.7223103113330688e+18
14057.0	1.72200517739479e+18
14058.0	1.7217000250015741e+18
14059.0	1.7213904685891581e+18
14060.0	1.7210899886505981e+18
14061.0	1.7207756255657981e+18
14062.0	1.7204800579960832e+18
14063.0	1.7201547964317693e+18
14064.0	1.7195259763097597e+18
14065.0	1.7195540160708603e+18
14066.0	1.719261404646604e+18
14067.0	1.7189475096461307e+18
14068.0	1.71865246049239e+18
14069.0	1.7183438838693888e+18
14070.0	1.718042655666995e+18
14071.0	1.71773545980887e+18
14072.0	1.7174352600498176e+18
14073.0	1.717131119322726e+18
14074.0	1.716827077581209e+18
14075.0	1.7165002205036544e+18
14076.0	1.7162071628054525e+18
14077.0	1.7155356446687232e+18
14078.0	1.715583342293811e+18
14079.0	1.7152946500272125e+18
14080.0	1.7150041240109053e+18
14081.0	1.7147006241734653e+18
14082.0	1.7143947486822395e+18
14083.0	1.7140915407683581e+18
14084.0	1.713788809327411e+18
14085.0	1.7130208658194427e+18
14086.0	1.713149781947187e+18
14087.0	1.712876848519577e+18
14088.0	1.71255901758423e+18
14089.0	1.7122655371001856e+18
14090.0	1.7119641629360123e+18
14091.0	1.7116683353194493e+18
14092.0	1.7113656474992637e+18
14093.0	1.7110628355276797e+18
14094.0	1.710759981613056e+18
14095.0	1.7104566529032187e+18
14096.0	1.71008048758784e+18
14097.0	1.709824143471411e+18
14098.0	1.7095161657950203e+18
14099.0	1.7092468361134077e+18
14100.0	1.7089281998716925e+18
14101.0	1.708642983844249e+18
14102.0	1.7083405158055933e+18
14103.0	1.708017027593011e+18
14104.0	1.7077330514018296e+18
14105.0	1.7074344354119677e+18
14106.0	1.7071325461872637e+18
14107.0	1.7068262126780416e+18
14108.0	1.706512871325696e+18
14109.0	1.7062204662611965e+18
14110.0	1.7059212999786493e+18
14111.0	1.7056105825828861e+18
14112.0	1.7053121259765757e+18
14113.0	1.7050177093238781e+18
14114.0	1.7047020141281277e+18
14115.0	1.7044135785529341e+18
14116.0	1.7040707713761277e+18
14117.0	1.70082148768809e+18
14118.0	1.70350611571671e+18
14119.0	1.7031610016727037e+18
14120.0	1.7028719570845696e+18
14121.0	1.7025896418377725e+18
14122.0	1.7022523661090813e+18
14123.0	1.7019800232394747e+18
14124.0	1.701671512047616e+18
14125.0	1.7007951994683384e+18
14126.0	1.7011003585724416e+18
14127.0	1.700806227132416e+18
14128.0	1.700504344618598e+18
14129.0	1.700190828783206e+18
14130.0	1.6998792960147453e+18
14131.0	1.6996051764379648e+18
14132.0	1.699296289436467e+18
14133.0	1.6982897621729265e+18
14134.0	1.6986987001020413e+18
14135.0	1.6983824311255035e+18
14136.0	1.6980657863393277e+18
14137.0	1.6977979112423421e+18
14138.0	1.6974722604466176e+18
14139.0	1.6972040967815165e+18
14140.0	1.696899823514419e+18
14141.0	1.6965843095126013e+18
14142.0	1.6960923092647939e+18
14143.0	1.6960014337966083e+18
14144.0	1.6957071010299904e+18
14145.0	1.695405854372659e+18
14146.0	1.695102010602291e+18
14147.0	1.694806193052057e+18
14148.0	1.6945041998086141e+18
14149.0	1.6942071944314872e+18
14150.0	1.6939127341580285e+18
14151.0	1.6936038656114685e+18
14152.0	1.6933149166534653e+18
14153.0	1.6930158594228221e+18
14154.0	1.692685378466611e+18
14155.0	1.6922843258290176e+18
14156.0	1.6921030731759613e+18
14157.0	1.6918210901180416e+18
14158.0	1.691517256414003e+18
14159.0	1.6912238463942653e+18
14160.0	1.6909174776528893e+18
14161.0	1.6905480198684672e+18
14162.0	1.6901894806962168e+18
14163.0	1.6900233694806016e+18
14164.0	1.689635119536537e+18
14165.0	1.6893767889977336e+18
14166.0	1.689134520965529e+18
14167.0	1.6888202602217472e+18
14168.0	1.6885330628050936e+18
14169.0	1.688242724693606e+18
14170.0	1.6879391476809725e+18
14171.0	1.6876432563109885e+18
14172.0	1.6873496885854205e+18
14173.0	1.6870092537069563e+18
14174.0	1.686747670065971e+18
14175.0	1.6864565719465981e+18
14176.0	1.6861599407013885e+18
14177.0	1.685862655144755e+18
14178.0	1.6855646330683387e+18
14179.0	1.6852597038120957e+18
14180.0	1.6849710652325885e+18
14181.0	1.6846739793248253e+18
14182.0	1.6843758297415677e+18
14183.0	1.684079857840947e+18
14184.0	1.6837759771607037e+18
14185.0	1.6834839764271104e+18
14186.0	1.6826534035718141e+18
14187.0	1.6828554415177725e+18
14188.0	1.682590301106995e+18
14189.0	1.682294351016755e+18
14190.0	1.6819984948789248e+18
14191.0	1.6816999946518525e+18
14192.0	1.6813983889620987e+18
14193.0	1.6810257317625856e+18
14194.0	1.68081186923479e+18
14195.0	1.6805214724030456e+18
14196.0	1.6802250827497467e+18
14197.0	1.6799290286407677e+18
14198.0	1.6796259448782843e+18
14199.0	1.679334338409267e+18
14200.0	1.6787010622586877e+18
14201.0	1.6787289963233272e+18
14202.0	1.678446340499046e+18
14203.0	1.6781442734358525e+18
14204.0	1.677854653389209e+18
14205.0	1.6775590086443005e+18
14206.0	1.6771011131211776e+18
14207.0	1.6769709588348928e+18
14208.0	1.6766764733956093e+18
14209.0	1.6762029314408443e+18
14210.0	1.6759632101900285e+18
14211.0	1.6757816891015165e+18
14212.0	1.675494746698547e+18
14213.0	1.675199043233382e+18
14214.0	1.6749047054335995e+18
14215.0	1.6745929428172797e+18
14216.0	1.674316575093555e+18
14217.0	1.6740217792757757e+18
14218.0	1.6737120550911995e+18
14219.0	1.6734321658298365e+18
14220.0	1.673134155497472e+18
14221.0	1.672839920038707e+18
14222.0	1.6725228725993467e+18
14223.0	1.672253405344563e+18
14224.0	1.6719583259918333e+18
14225.0	1.670597497480807e+18
14226.0	1.6713504287358968e+18
14227.0	1.671034565767987e+18
14228.0	1.6678308422877194e+18
14229.0	1.6699392031457254e+18
14230.0	1.6701530103087104e+18
14231.0	1.669843881715302e+18
14232.0	1.6695660577292288e+18
14233.0	1.6692680692072443e+18
14234.0	1.6689784021843963e+18
14235.0	1.668681125016371e+18
14236.0	1.66839068959703e+18
14237.0	1.668095125382758e+18
14238.0	1.6678023277314043e+18
14239.0	1.6674959220801533e+18
14240.0	1.6649380308189184e+18
14241.0	1.6669086339563515e+18
14242.0	1.6666236964306936e+18
14243.0	1.6661296611065853e+18
14244.0	1.666032319699353e+18
14245.0	1.665694005460992e+18
14246.0	1.6653976644616192e+18
14247.0	1.665117278594662e+18
14248.0	1.6648059521859581e+18
14249.0	1.6645309685825533e+18
14250.0	1.6642407797882875e+18
14251.0	1.6639509936472061e+18
14252.0	1.663657821863936e+18
14253.0	1.663363705523405e+18
14254.0	1.6630680289017853e+18
14255.0	1.6627291710816256e+18
14256.0	1.6613929228697605e+18
14257.0	1.6621305667256315e+18
14258.0	1.6618993414569981e+18
14259.0	1.6615829634285565e+18
14260.0	1.661275081382297e+18
14261.0	1.6609970795577341e+18
14262.0	1.6607509074673661e+18
14263.0	1.6588646769491976e+18
14264.0	1.659837690046054e+18
14265.0	1.659831569717657e+18
14266.0	1.6595462597378043e+18
14267.0	1.6592561296637947e+18
14268.0	1.6589641641623547e+18
14269.0	1.6586602297950203e+18
14270.0	1.65837976675287e+18
14271.0	1.658086601680486e+18
14272.0	1.6577938476498941e+18
14273.0	1.6574925221396477e+18
14274.0	1.654789611978753e+18
14275.0	1.6566611339116541e+18
14276.0	1.6565775514992635e+18
14277.0	1.656289842377523e+18
14278.0	1.6560142615052285e+18
14279.0	1.6557218061090816e+18
14280.0	1.6554220945670144e+18
14281.0	1.6551405326172157e+18
14282.0	1.654849635824435e+18
14283.0	1.6545583145680893e+18
14284.0	1.6542669496909821e+18
14285.0	1.6539750697533435e+18
14286.0	1.6536808225505275e+18
14287.0	1.6533752003952637e+18
14288.0	1.6530621073457152e+18
14289.0	1.6513099133616097e+18
14290.0	1.6524791125114877e+18
14291.0	1.6521896015167485e+18
14292.0	1.6518972383952893e+18
14293.0	1.651605769499443e+18
14294.0	1.6511333482627072e+18
14295.0	1.6510085123538941e+18
14296.0	1.6495563671339016e+18
14297.0	1.6504393771778048e+18
14298.0	1.649711789585203e+18
14299.0	1.6498412107071488e+18
14300.0	1.6495629991673856e+18
14301.0	1.6492784441622525e+18
14302.0	1.6489877386297341e+18
14303.0	1.6486565949734904e+18
14304.0	1.6483868190179325e+18
14305.0	1.648117769515827e+18
14306.0	1.64780269675479e+18
14307.0	1.647519155093504e+18
14308.0	1.647240542578278e+18
14309.0	1.6469376970522624e+18
14310.0	1.6465444625973243e+18
14311.0	1.6460416125239293e+18
14312.0	1.6459774514167803e+18
14313.0	1.645555351761715e+18
14314.0	1.6454538613489661e+18
14315.0	1.645179122692915e+18
14316.0	1.6448225514881021e+18
14317.0	1.644567254269952e+18
14318.0	1.644201500894822e+18
14319.0	1.6438578498240507e+18
14320.0	1.6435680787824637e+18
14321.0	1.6432758448455675e+18
14322.0	1.6429366447702013e+18
14323.0	1.642676619732582e+18
14324.0	1.6424122980499453e+18
14325.0	1.6421112862736381e+18
14326.0	1.6418341904187392e+18
14327.0	1.6415366934691835e+18
14328.0	1.6412469274607616e+18
14329.0	1.640967138862694e+18
14330.0	1.6406782050041853e+18
14331.0	1.6403889054023677e+18
14332.0	1.6401003708416e+18
14333.0	1.6398116064329725e+18
14334.0	1.639522826924851e+18
14335.0	1.6392157468295165e+18
14336.0	1.638834982879232e+18
14337.0	1.638652872910438e+18
14338.0	1.638364091724595e+18
14339.0	1.6380650865033213e+18
14340.0	1.6377738759766013e+18
14341.0	1.6374591068831744e+18
14342.0	1.6371746324086781e+18
14343.0	1.6368858109575165e+18
14344.0	1.6365922130329595e+18
14345.0	1.6363104916996093e+18
14346.0	1.6360163753590781e+18
14347.0	1.6356838190612477e+18
14348.0	1.6354437672992763e+18
14349.0	1.6351586670346235e+18
14350.0	1.6347855602057208e+18
14351.0	1.6344855215079416e+18
14352.0	1.6342819081814016e+18
14353.0	1.6340043425644541e+18
14354.0	1.6337073170546685e+18
14355.0	1.6333992739471357e+18
14356.0	1.6331197504290816e+18
14357.0	1.6328563733037053e+18
14358.0	1.6325686977363968e+18
14359.0	1.632262342416793e+18
14360.0	1.631985301926707e+18
14361.0	1.6317027249553403e+18
14362.0	1.6314185155608576e+18
14363.0	1.6311301772935163e+18
14364.0	1.6305729405190144e+18
14365.0	1.6305037244366843e+18
14366.0	1.6302178507423741e+18
14367.0	1.6299820889145341e+18
14368.0	1.6296943042953213e+18
14369.0	1.6294078819860477e+18
14370.0	1.6291209848815608e+18
14371.0	1.628834270648729e+18
14372.0	1.6285266419384312e+18
14373.0	1.6282215147110395e+18
14374.0	1.6279366124175357e+18
14375.0	1.6276465142202363e+18
14376.0	1.6273634741977085e+18
14377.0	1.6270756392468477e+18
14378.0	1.6267858950488061e+18
14379.0	1.6265027644293115e+18
14380.0	1.6262147835166715e+18
14381.0	1.6259136928874496e+18
14382.0	1.6256403953942525e+18
14383.0	1.6253512383987707e+18
14384.0	1.6250456783192061e+18
14385.0	1.6247827139133435e+18
14386.0	1.624473311851315e+18
14387.0	1.624209277059072e+18
14388.0	1.623920435475251e+18
14389.0	1.623636336810393e+18
14390.0	1.6233473459093504e+18
14391.0	1.6230615309352957e+18
14392.0	1.6227237619564541e+18
14393.0	1.622439337813606e+18
14394.0	1.6221030183862272e+18
14395.0	1.6218509843365888e+18
14396.0	1.621580622856192e+18
14397.0	1.6212947692945403e+18
14398.0	1.6210081506918397e+18
14399.0	1.6207222384099323e+18
14400.0	1.6204081387274237e+18
14401.0	1.6201410454487037e+18
14402.0	1.6198603022270461e+18
14403.0	1.61861395976028e+18
14404.0	1.6139615438110687e+18
14405.0	1.6166084365254595e+18
14406.0	1.6187143965638656e+18
14407.0	1.6170392972427267e+18
14408.0	1.618127470827929e+18
14409.0	1.6178133292023803e+18
14410.0	1.617522145519206e+18
14411.0	1.6172562333564923e+18
14412.0	1.616967165280256e+18
14413.0	1.6166873062178813e+18
14414.0	1.6163982884732925e+18
14415.0	1.6161143559028728e+18
14416.0	1.6158270192353277e+18
14417.0	1.6155304215445501e+18
14418.0	1.6152225462091776e+18
14419.0	1.6149710775517181e+18
14420.0	1.6146806387769344e+18
14421.0	1.614401469258137e+18
14422.0	1.6141093678612477e+18
14423.0	1.6137988333371387e+18
14424.0	1.6078566957514716e+18
14425.0	1.6132398466990077e+18
14426.0	1.6129752448368637e+18
14427.0	1.6126906445332475e+18
14428.0	1.6123782242500605e+18
14429.0	1.612117326797209e+18
14430.0	1.6118366355849213e+18
14431.0	1.611074671476736e+18
14432.0	1.6112618481647616e+18
14433.0	1.609916934520831e+18
14434.0	1.6106748771303421e+18
14435.0	1.6103459715547133e+18
14436.0	1.610128782104985e+18
14437.0	1.6098456615518203e+18
14438.0	1.609489110479667e+18
14439.0	1.6092651514232832e+18
14440.0	1.6089914261110781e+18
14441.0	1.6086935365746685e+18
14442.0	1.6083991517986808e+18
14443.0	1.6080566029910016e+18
14444.0	1.6078470136201213e+18
14445.0	1.607568211522355e+18
14446.0	1.6051873769324557e+18
14447.0	1.606982325973811e+18
14448.0	1.6067176301592576e+18
14449.0	1.6064341388296187e+18
14450.0	1.6061201649762304e+18
14451.0	1.605826015081267e+18
14452.0	1.60554542956544e+18
14453.0	1.6052457968762877e+18
14454.0	1.604976197081497e+18
14455.0	1.604680852648755e+18
14456.0	1.6044004953030653e+18
14457.0	1.604118111269683e+18
14458.0	1.6038354588008448e+18
14459.0	1.6035459763273725e+18
14460.0	1.6032529958043643e+18
14461.0	1.6028943626797053e+18
14462.0	1.6023855701164032e+18
14463.0	1.602377173119795e+18
14464.0	1.6021244612706304e+18
14465.0	1.6018105327157248e+18
14466.0	1.6015632667508733e+18
14467.0	1.6012474524368893e+18
14468.0	1.600995460330291e+18
14469.0	1.6006550791389181e+18
14470.0	1.6003888767303677e+18
14471.0	1.6001363712409597e+18
14472.0	1.599860756814233e+18
14473.0	1.5995821476544507e+18
14474.0	1.5993026123923453e+18
14475.0	1.5990165793144832e+18
14476.0	1.5986679756095485e+18
14477.0	1.5984508247474176e+18
14478.0	1.5981662227660797e+18
14479.0	1.5978806426730493e+18
14480.0	1.5975774750244861e+18
14481.0	1.597320619202969e+18
14482.0	1.5970321165189115e+18
14483.0	1.5967388675604477e+18
14484.0	1.5964562486460413e+18
14485.0	1.5961304653103101e+18
14486.0	1.5954696694923267e+18
14487.0	1.595619174619545e+18
14488.0	1.5953167770451965e+18
14489.0	1.5950104250810365e+18
14490.0	1.5947586460450813e+18
14491.0	1.5944873349742592e+18
14492.0	1.5942062478196733e+18
14493.0	1.5939094051815421e+18
14494.0	1.5936095728435197e+18
14495.0	1.593356282180403e+18
14496.0	1.5928796431515648e+18
14497.0	1.5927899773206528e+18
14498.0	1.5925091149807613e+18
14499.0	1.592220771680256e+18
14500.0	1.5919092942766077e+18
14501.0	1.591589210161152e+18
14502.0	1.590993790120755e+18
14503.0	1.5910312989425664e+18
14504.0	1.5907694217003005e+18
14505.0	1.590466695292518e+18
14506.0	1.5901525016575997e+18
14507.0	1.5895713808384e+18
14508.0	1.589646366605312e+18
14509.0	1.5893644221349885e+18
14510.0	1.589076590539571e+18
14511.0	1.588798571937792e+18
14512.0	1.5884938389749757e+18
14513.0	1.588232822403891e+18
14514.0	1.5879029185839101e+18
14515.0	1.587663173844992e+18
14516.0	1.583602949999824e+18
14517.0	1.58709091139584e+18
14518.0	1.586818796696371e+18
14519.0	1.5865345269039104e+18
14520.0	1.5862530773614592e+18
14521.0	1.5859713526726653e+18
14522.0	1.5856871097237501e+18
14523.0	1.5853055002017787e+18
14524.0	1.5850547126992893e+18
14525.0	1.5848335101394941e+18
14526.0	1.5845556844756987e+18
14527.0	1.584245498917683e+18
14528.0	1.5837860766679037e+18
14529.0	1.5836954293698557e+18
14530.0	1.5834025646096381e+18
14531.0	1.5831429774573565e+18
14532.0	1.5827720919318525e+18
14533.0	1.5825802696327168e+18
14534.0	1.5822998099460093e+18
14535.0	1.5820022878306304e+18
14536.0	1.5817293997015037e+18
14537.0	1.581431711491686e+18
14538.0	1.5811696497000443e+18
14539.0	1.5808873881403392e+18
14540.0	1.5806048229130235e+18
14541.0	1.580291276878643e+18
14542.0	1.5800367379906557e+18
14543.0	1.5797000528199675e+18
14544.0	1.5794724933730301e+18
14545.0	1.579176388932403e+18
14546.0	1.5711712174931922e+18
14547.0	1.5714850051194819e+18
14548.0	1.5783186403426301e+18
14549.0	1.5778838101360632e+18
14550.0	1.577766599471923e+18
14551.0	1.5774974375624701e+18
14552.0	1.577213419428249e+18
14553.0	1.5769189172117504e+18
14554.0	1.5766506730160125e+18
14555.0	1.5763679601491968e+18
14556.0	1.575835026849792e+18
14557.0	1.575522817959526e+18
14558.0	1.5752359292436475e+18
14559.0	1.5721645343768522e+18
14560.0	1.5746634252025853e+18
14561.0	1.5743816434712576e+18
14562.0	1.574068607464243e+18
14563.0	1.5738239704891387e+18
14564.0	1.5735025374855165e+18
14565.0	1.5732635158446083e+18
14566.0	1.572981318038323e+18
14567.0	1.5726962412617723e+18
14568.0	1.572389359137587e+18
14569.0	1.5721306980876285e+18
14570.0	1.5710650730807288e+18
14571.0	1.5715621215928315e+18
14572.0	1.5712217085247485e+18
14573.0	1.570928994759475e+18
14574.0	1.5706332661284864e+18
14575.0	1.5704247236558848e+18
14576.0	1.570137074932121e+18
14577.0	1.5698631550042107e+18
14578.0	1.569583863011737e+18
14579.0	1.569307715069542e+18
14580.0	1.5690251951407101e+18
14581.0	1.5687334812975104e+18
14582.0	1.5684516760780797e+18
14583.0	1.5681761019166715e+18
14584.0	1.5678618646609915e+18
14585.0	1.5676102533971965e+18
14586.0	1.5673230811463675e+18
14587.0	1.5670435072966653e+18
14588.0	1.5667621047304187e+18
14589.0	1.5664835861676032e+18
14590.0	1.5662049921073147e+18
14591.0	1.5659210545037307e+18
14592.0	1.5656346305167357e+18
14593.0	1.5651961126780925e+18
14594.0	1.5650881345159163e+18
14595.0	1.564797573267456e+18
14596.0	1.5642668176506872e+18
14597.0	1.563933330217369e+18
14598.0	1.5639417490243581e+18
14599.0	1.563692560390553e+18
14600.0	1.563406904800051e+18
14601.0	1.5631306444505085e+18
14602.0	1.5628332045434877e+18
14603.0	1.5625712434151421e+18
14604.0	1.562213989377638e+18
14605.0	1.5619556638719997e+18
14606.0	1.5616177556422653e+18
14607.0	1.5614420042383352e+18
14608.0	1.5611677722542075e+18
14609.0	1.5608793014468605e+18
14610.0	1.5605259531452413e+18
14611.0	1.5603091730595837e+18
14612.0	1.5600566591815677e+18
14613.0	1.5597805833814016e+18
14614.0	1.5594923407441915e+18
14615.0	1.559218494636032e+18
14616.0	1.5589432543412221e+18
14617.0	1.5586546241503232e+18
14618.0	1.5583645024649213e+18
14619.0	1.5579211242668022e+18
14620.0	1.557160970420224e+18
14621.0	1.5575129161465853e+18
14622.0	1.5572274618826747e+18
14623.0	1.5569516226412544e+18
14624.0	1.5565864698904573e+18
14625.0	1.5563863361585144e+18
14626.0	1.5561030562217981e+18
14627.0	1.5558203316109307e+18
14628.0	1.5555497285386237e+18
14629.0	1.55526872694784e+18
14630.0	1.5549788921528315e+18
14631.0	1.554703593137766e+18
14632.0	1.553944464379085e+18
14633.0	1.554080259165388e+18
14634.0	1.553854166047129e+18
14635.0	1.553405524836351e+18
14636.0	1.552824561722982e+18
14637.0	1.553020586714726e+18
14638.0	1.5527216955785216e+18
14639.0	1.552428181540045e+18
14640.0	1.552166916666163e+18
14641.0	1.550077423465266e+18
14642.0	1.551600306461081e+18
14643.0	1.5513260107235323e+18
14644.0	1.5510263511908347e+18
14645.0	1.550725955138355e+18
14646.0	1.5504568284610557e+18
14647.0	1.5501445675614205e+18
14648.0	1.5499029756510205e+18
