# Flux units: erg / (cm m2 s)
# Wavelength units: Angstrom
wave	flux
14000.0	2.184123374790246e+18
14001.0	2.1835610310311933e+18
14002.0	2.1830636335529981e+18
14003.0	2.1825328125050877e+18
14004.0	2.181988608271974e+18
14005.0	2.1814577503141883e+18
14006.0	2.1809188426481661e+18
14007.0	2.1803825522278395e+18
14008.0	2.1797655516545021e+18
14009.0	2.1793272871518205e+18
14010.0	2.1787812877565947e+18
14011.0	2.1777748276019203e+18
14012.0	2.1777306297040893e+18
14013.0	2.1772008438104056e+18
14014.0	2.17666269782999e+18
14015.0	2.1761360945741821e+18
14016.0	2.1756061895622656e+18
14017.0	2.1750751671877627e+18
14018.0	2.1745420979929083e+18
14019.0	2.1740151474487293e+18
14020.0	2.1734825614376952e+18
14021.0	2.1729504468664315e+18
14022.0	2.1724061604249595e+18
14023.0	2.1718227277053952e+18
14024.0	2.1713224596455421e+18
14025.0	2.1708219550269437e+18
14026.0	2.1702917362810877e+18
14027.0	2.1697618346246144e+18
14028.0	2.1692287452971003e+18
14029.0	2.1686993654120443e+18
14030.0	2.1659630367145997e+18
14031.0	2.1676208219488248e+18
14032.0	2.1671165290348544e+18
14033.0	2.1665212365012987e+18
14034.0	2.166059416787353e+18
14035.0	2.165531085478297e+18
14036.0	2.1650022642745336e+18
14037.0	2.164468329375334e+18
14038.0	2.1639516934635515e+18
14039.0	2.1634203238006784e+18
14040.0	2.1628854594437115e+18
14041.0	2.1623591414005757e+18
14042.0	2.1618232066572283e+18
14043.0	2.161271133909811e+18
14044.0	2.1607702769696768e+18
14045.0	2.1602488259969021e+18
14046.0	2.1597196575047675e+18
14047.0	2.1591834006388733e+18
14048.0	2.1586681169707005e+18
14049.0	2.1581476743086077e+18
14050.0	2.157622047486771e+18
14051.0	2.1570845541400573e+18
14052.0	2.15656611971072e+18
14053.0	2.1560438936305661e+18
14054.0	2.1555208320450552e+18
14055.0	2.154992015874457e+18
14056.0	2.1544710849953787e+18
14057.0	2.1539444683177976e+18
14058.0	2.153421571149004e+18
14059.0	2.1528952883380221e+18
14060.0	2.1523734330343424e+18
14061.0	2.1518435800317942e+18
14062.0	2.151325895544012e+18
14063.0	2.1507856658333693e+18
14064.0	2.149987932700672e+18
14065.0	2.1497370311131128e+18
14066.0	2.149217291416371e+18
14067.0	2.1486208110559227e+18
14068.0	2.1481747770245115e+18
14069.0	2.147645274665779e+18
14070.0	2.147128313276006e+18
14071.0	2.1466040789630968e+18
14072.0	2.1460827588526077e+18
14073.0	2.1455593902440445e+18
14074.0	2.1450406135595e+18
14075.0	2.1444992346095608e+18
14076.0	2.143914978128691e+18
14077.0	2.1429241006522365e+18
14078.0	2.142909868539904e+18
14079.0	2.1424227521396733e+18
14080.0	2.141912147637043e+18
14081.0	2.1413911228055547e+18
14082.0	2.1408417008582656e+18
14083.0	2.1403482963574781e+18
14084.0	2.1398295112843261e+18
14085.0	2.1387178009427963e+18
14086.0	2.1387454615388155e+18
14087.0	2.1382693023383547e+18
14088.0	2.1377295927214075e+18
14089.0	2.137146713649971e+18
14090.0	2.136687492726784e+18
14091.0	2.1361797554503675e+18
14092.0	2.1356590930067453e+18
14093.0	2.1351414051635195e+18
14094.0	2.1346225982799867e+18
14095.0	2.1341039977562104e+18
14096.0	2.1334673862950912e+18
14097.0	2.1330034727845888e+18
14098.0	2.1324826895450112e+18
14099.0	2.1320297684664317e+18
14100.0	2.131493217999257e+18
14101.0	2.1309951913754624e+18
14102.0	2.1304747973672955e+18
14103.0	2.1299491437019133e+18
14104.0	2.1294398998315003e+18
14105.0	2.128916365128499e+18
14106.0	2.1284083963265021e+18
14107.0	2.1278654889721853e+18
14108.0	2.1273552200138747e+18
14109.0	2.12685337657344e+18
14110.0	2.126310417209753e+18
14111.0	2.1257609617080315e+18
14112.0	2.125296922368409e+18
14113.0	2.1247447942561787e+18
14114.0	2.1242530842542077e+18
14115.0	2.1237529856442365e+18
14116.0	2.1230199890771965e+18
14117.0	2.119276591212136e+18
14118.0	2.1222004539523067e+18
14119.0	2.1216223161221115e+18
14120.0	2.1211133004218365e+18
14121.0	2.1206310477365245e+18
14122.0	2.120080528559308e+18
14123.0	2.1195035131248635e+18
14124.0	2.1189691889942525e+18
14125.0	2.1181848944115704e+18
14126.0	2.118053309028761e+18
14127.0	2.1175733497888763e+18
14128.0	2.1170599132921853e+18
14129.0	2.1165365799157752e+18
14130.0	2.1160112953491453e+18
14131.0	2.115514070676275e+18
14132.0	2.115001677722419e+18
14133.0	2.1140114545573868e+18
14134.0	2.11398209610711e+18
14135.0	2.1134407037353981e+18
14136.0	2.1126591706824707e+18
14137.0	2.112440113928601e+18
14138.0	2.111877590653337e+18
14139.0	2.1114207135072256e+18
14140.0	2.1108583177388027e+18
14141.0	2.1103895740678136e+18
14142.0	2.109519579788083e+18
14143.0	2.109273617412915e+18
14144.0	2.1088637718364155e+18
14145.0	2.1083519912509437e+18
14146.0	2.1078349610745853e+18
14147.0	2.1073223735050237e+18
14148.0	2.1067866988085243e+18
14149.0	2.106262509794099e+18
14150.0	2.1057879326851067e+18
14151.0	2.1052252366045181e+18
14152.0	2.104766862930739e+18
14153.0	2.1042587364229117e+18
14154.0	2.103724142179123e+18
14155.0	2.102139671701095e+18
14156.0	2.1026842047676406e+18
14157.0	2.1022168116625405e+18
14158.0	2.1016917737209853e+18
14159.0	2.101201414284902e+18
14160.0	2.100692455627161e+18
14161.0	2.1001234009817083e+18
14162.0	2.09957902394327e+18
14163.0	2.099166673528422e+18
14164.0	2.09852041349038e+18
14165.0	2.097633024593101e+18
14166.0	2.0976368246325243e+18
14167.0	2.097122255673753e+18
14168.0	2.0965957614698493e+18
14169.0	2.0961186140913661e+18
14170.0	2.0955940526227456e+18
14171.0	2.095090467707289e+18
14172.0	2.0945998834565117e+18
14173.0	2.093861731250995e+18
14174.0	2.093575290486784e+18
14175.0	2.093079345915494e+18
14176.0	2.092550981052006e+18
14177.0	2.092060380024012e+18
14178.0	2.0915548439183355e+18
14179.0	2.0910052223221755e+18
14180.0	2.0905491890700283e+18
14181.0	2.0900435170689021e+18
14182.0	2.0895373249740797e+18
14183.0	2.0890307637805053e+18
14184.0	2.0885118914658296e+18
14185.0	2.088009480955494e+18
14186.0	2.086803618555494e+18
14187.0	2.0869791820546043e+18
14188.0	2.0864931679174653e+18
14189.0	2.085980357210931e+18
14190.0	2.0854819027681277e+18
14191.0	2.084974818125414e+18
14192.0	2.0844702668423165e+18
14193.0	2.0838571686494205e+18
14194.0	2.083464217729433e+18
14195.0	2.0829684912619515e+18
14196.0	2.082464871114342e+18
14197.0	2.0819600463626237e+18
14198.0	2.0814539666751483e+18
14199.0	2.0809421978337277e+18
14200.0	2.0800502270787584e+18
14201.0	2.079943800809062e+18
14202.0	2.0794451081297917e+18
14203.0	2.0788889182535677e+18
14204.0	2.0784325612011517e+18
14205.0	2.0779375108554752e+18
14206.0	2.0773253706416125e+18
14207.0	2.076936342234726e+18
14208.0	2.076434690054553e+18
14209.0	2.0758035630653437e+18
14210.0	2.0753573931384822e+18
14211.0	2.0749238598107136e+18
14212.0	2.074428742356172e+18
14213.0	2.0739111753089021e+18
14214.0	2.073427206314393e+18
14215.0	2.0729107985727488e+18
14216.0	2.07242509984727e+18
14217.0	2.0719262058414075e+18
14218.0	2.071414544374169e+18
14219.0	2.070923273935257e+18
14220.0	2.070423480670617e+18
14221.0	2.069909846202777e+18
14222.0	2.0692993384120315e+18
14223.0	2.0689183664242688e+18
14224.0	2.0684188650831867e+18
14225.0	2.066840072015053e+18
14226.0	2.0674183893614587e+18
14227.0	2.0669192218869755e+18
14228.0	2.0640661623537672e+18
14229.0	2.0656378167164905e+18
14230.0	2.0654246336659453e+18
14231.0	2.0648064133890043e+18
14232.0	2.064428097234534e+18
14233.0	2.0639218061541373e+18
14234.0	2.0634321060626427e+18
14235.0	2.062931824581017e+18
14236.0	2.0624327896465403e+18
14237.0	2.0619348888518648e+18
14238.0	2.0614388285177853e+18
14239.0	2.060927895181721e+18
14240.0	2.0592881152557059e+18
14241.0	2.0599423495045115e+18
14242.0	2.0594517182775293e+18
14243.0	2.0588186853965821e+18
14244.0	2.0584615018233848e+18
14245.0	2.0579460789043197e+18
14246.0	2.0574345181003773e+18
14247.0	2.0569666971762683e+18
14248.0	2.0564647346175997e+18
14249.0	2.055976554541875e+18
14250.0	2.0554835929595896e+18
14251.0	2.0549888714473467e+18
14252.0	2.054494596209049e+18
14253.0	2.0539993999015933e+18
14254.0	2.053502681900646e+18
14255.0	2.0529847675650043e+18
14256.0	2.051678746863207e+18
14257.0	2.052009211042201e+18
14258.0	2.051526408064204e+18
14259.0	2.05099800461312e+18
14260.0	2.050513485325926e+18
14261.0	2.0500217568690173e+18
14262.0	2.049553001453977e+18
14263.0	2.0478222672068616e+18
14264.0	2.0483911691796475e+18
14265.0	2.048036148189593e+18
14266.0	2.047577668819353e+18
14267.0	2.047084343171481e+18
14268.0	2.0465899957911544e+18
14269.0	2.0460910296432637e+18
14270.0	2.0456077199933435e+18
14271.0	2.0451049722609661e+18
14272.0	2.0446178357280763e+18
14273.0	2.044119131304755e+18
14274.0	2.0418398240374794e+18
14275.0	2.0429745678188544e+18
14276.0	2.0425880140513277e+18
14277.0	2.0421224093974525e+18
14278.0	2.041660606460723e+18
14279.0	2.0411684652843003e+18
14280.0	2.040670728906342e+18
14281.0	2.0401867129356283e+18
14282.0	2.039695955879526e+18
14283.0	2.0392050746720256e+18
14284.0	2.0387143142604797e+18
14285.0	2.0382233323896824e+18
14286.0	2.0377283474751483e+18
14287.0	2.037240662327296e+18
14288.0	2.0367512474484733e+18
14289.0	2.035521739240241e+18
14290.0	2.0357603531948027e+18
14291.0	2.0352813217349627e+18
14292.0	2.0347913532080125e+18
14293.0	2.0343022940061693e+18
14294.0	2.0336851759923197e+18
14295.0	2.0333068967477245e+18
14296.0	2.0322339568746499e+18
14297.0	2.0323463977762816e+18
14298.0	2.0313721783975933e+18
14299.0	2.0313367885381624e+18
14300.0	2.030871547949875e+18
14301.0	2.0303770713849856e+18
14302.0	2.0298969712164861e+18
14303.0	2.0293726194630648e+18
14304.0	2.0289093300649981e+18
14305.0	2.0284283440594944e+18
14306.0	2.027808843680972e+18
14307.0	2.027417016834457e+18
14308.0	2.02696119329751e+18
14309.0	2.0264570396344317e+18
14310.0	2.0253841987469302e+18
14311.0	2.0248762702102528e+18
14312.0	2.02487415963648e+18
14313.0	2.0244643744579581e+18
14314.0	2.0240257492451325e+18
14315.0	2.0235564972244984e+18
14316.0	2.0230318954905597e+18
14317.0	2.0224406026452987e+18
14318.0	2.022107603428966e+18
14319.0	2.0216230606536701e+18
14320.0	2.021137764581376e+18
14321.0	2.0206482221957115e+18
14322.0	2.020123581874176e+18
14323.0	2.0196688555671547e+18
14324.0	2.0191858093195261e+18
14325.0	2.018701383984742e+18
14326.0	2.0182269780033533e+18
14327.0	2.0177335869243387e+18
14328.0	2.0172425949872125e+18
14329.0	2.016763587015475e+18
14330.0	2.0162790895386616e+18
14331.0	2.015778772824883e+18
14332.0	2.0153093261885437e+18
14333.0	2.0148268402999293e+18
14334.0	2.014343681644953e+18
14335.0	2.0138352061710333e+18
14336.0	2.01323832147968e+18
14337.0	2.012889538258534e+18
14338.0	2.0124061564665848e+18
14339.0	2.0119083076812797e+18
14340.0	2.011444046882406e+18
14341.0	2.0109486626701312e+18
14342.0	2.0104747516166136e+18
14343.0	2.0099716448518136e+18
14344.0	2.0094969318473725e+18
14345.0	2.0090315989843965e+18
14346.0	2.008546703887564e+18
14347.0	2.0080093581803515e+18
14348.0	2.0075821850951675e+18
14349.0	2.007106183600537e+18
14350.0	2.0065357028917245e+18
14351.0	2.0060458820042747e+18
14352.0	2.005653910873702e+18
14353.0	2.00517958542295e+18
14354.0	2.004689405503078e+18
14355.0	2.0041931287429117e+18
14356.0	2.0037216654852086e+18
14357.0	2.0032583173668856e+18
14358.0	2.0027778967535608e+18
14359.0	2.0022816233488381e+18
14360.0	2.0018105006686203e+18
14361.0	2.0013357943750653e+18
14362.0	2.0008577225719803e+18
14363.0	2.0003775452282877e+18
14364.0	1.9995612648833024e+18
14365.0	1.9993785459015672e+18
14366.0	1.9988891863875581e+18
14367.0	1.998459417867059e+18
14368.0	1.9979787103633405e+18
14369.0	1.997500641915699e+18
14370.0	1.997021944322457e+18
14371.0	1.9965438003773435e+18
14372.0	1.9960562309922816e+18
14373.0	1.9955858196660221e+18
14374.0	1.9951060147765243e+18
14375.0	1.9946284949438461e+18
14376.0	1.9941515606360061e+18
14377.0	1.9936742454853632e+18
14378.0	1.9931946184343547e+18
14379.0	1.9927194474119163e+18
14380.0	1.9922417228972027e+18
14381.0	1.9917525227667453e+18
14382.0	1.9912846129233917e+18
14383.0	1.990772674632089e+18
14384.0	1.9903104858193915e+18
14385.0	1.9898562762506237e+18
14386.0	1.9893622291824637e+18
14387.0	1.9889017986220032e+18
14388.0	1.9884225826127864e+18
14389.0	1.9879501966082043e+18
14390.0	1.9874727841497088e+18
14391.0	1.9869914491781115e+18
14392.0	1.9864953234128896e+18
14393.0	1.9860372097859581e+18
14394.0	1.9855251825754107e+18
14395.0	1.9848792396267515e+18
14396.0	1.9846005113487355e+18
14397.0	1.9841354603429883e+18
14398.0	1.9836436362559483e+18
14399.0	1.9831770702675965e+18
14400.0	1.9825709631406077e+18
14401.0	1.9822277063344118e+18
14402.0	1.9817567531040763e+18
14403.0	1.974201365404045e+18
14404.0	1.9629431505027044e+18
14405.0	1.979289811130773e+18
14406.0	1.9798622916837373e+18
14407.0	1.968426711410284e+18
14408.0	1.9788153078415355e+18
14409.0	1.9784247845847035e+18
14410.0	1.9779413709160443e+18
14411.0	1.9774872100012027e+18
14412.0	1.9770180519329787e+18
14413.0	1.9765484442353661e+18
14414.0	1.976074123817779e+18
14415.0	1.975602814910464e+18
14416.0	1.9751075431055355e+18
14417.0	1.9745602568978432e+18
14418.0	1.9740902499024893e+18
14419.0	1.9737118666391547e+18
14420.0	1.9732352661979133e+18
14421.0	1.9727678881923064e+18
14422.0	1.9722906468614144e+18
14423.0	1.9718099880116224e+18
14424.0	1.931754992146817e+18
14425.0	1.970873899889459e+18
14426.0	1.9704088321064955e+18
14427.0	1.9699388351774723e+18
14428.0	1.9694332118302715e+18
14429.0	1.9689946671480827e+18
14430.0	1.968526129836851e+18
14431.0	1.9675533415546877e+18
14432.0	1.967543879204864e+18
14433.0	1.9588657300111299e+18
14434.0	1.9666295913971707e+18
14435.0	1.9660863652757496e+18
14436.0	1.9657032072167421e+18
14437.0	1.9652333528940541e+18
14438.0	1.9644688940138496e+18
14439.0	1.9642285771718653e+18
14440.0	1.9638231272259581e+18
14441.0	1.9633489678696443e+18
14442.0	1.9628765785096187e+18
14443.0	1.9623745874296824e+18
14444.0	1.9619423325257725e+18
14445.0	1.961476291664281e+18
14446.0	1.9523775947079716e+18
14447.0	1.9605251275358203e+18
14448.0	1.9600702133239803e+18
14449.0	1.9596024158879741e+18
14450.0	1.9591277817364475e+18
14451.0	1.9586615965908987e+18
14452.0	1.9581901601767421e+18
14453.0	1.9575455728271363e+18
14454.0	1.9572556541460475e+18
14455.0	1.956784299940249e+18
14456.0	1.9562815824068603e+18
14457.0	1.955789840528179e+18
14458.0	1.9552895842123773e+18
14459.0	1.9548747172151293e+18
14460.0	1.9544390615695352e+18
14461.0	1.953886866348441e+18
14462.0	1.9529537813479421e+18
14463.0	1.953013575345766e+18
14464.0	1.952576206746419e+18
14465.0	1.9521008260087805e+18
14466.0	1.9516453564710912e+18
14467.0	1.9510537817686019e+18
14468.0	1.9507052166512635e+18
14469.0	1.9502064316973053e+18
14470.0	1.949751203751526e+18
14471.0	1.9492937880567803e+18
14472.0	1.9488344362713088e+18
14473.0	1.948380223347097e+18
14474.0	1.9479170010578941e+18
14475.0	1.9474428031139835e+18
14476.0	1.9464343280156672e+18
14477.0	1.9465190462455805e+18
14478.0	1.9460516934057981e+18
14479.0	1.9455802116931581e+18
14480.0	1.945110899274547e+18
14481.0	1.9446631271235584e+18
14482.0	1.9441953766637565e+18
14483.0	1.9437225880059896e+18
14484.0	1.9432657427365883e+18
14485.0	1.94276523811799e+18
14486.0	1.9420744513486845e+18
14487.0	1.9418724167581696e+18
14488.0	1.94124443549696e+18
14489.0	1.9408929192673275e+18
14490.0	1.940466058238361e+18
14491.0	1.9400228931108861e+18
14492.0	1.939554906092339e+18
14493.0	1.9390716501295104e+18
14494.0	1.9386086392332283e+18
14495.0	1.9381704368062461e+18
14496.0	1.9375856921083904e+18
14497.0	1.9372435711197181e+18
14498.0	1.936779390851481e+18
14499.0	1.9363204534632445e+18
14500.0	1.9358578972295163e+18
14501.0	1.935124060123955e+18
14502.0	1.9344191251283968e+18
14503.0	1.9344137060876283e+18
14504.0	1.9340031038586877e+18
14505.0	1.933292171008409e+18
14506.0	1.9324957985079293e+18
14507.0	1.9324054313893883e+18
14508.0	1.932162082904473e+18
14509.0	1.9317000098545661e+18
14510.0	1.93123752911831e+18
14511.0	1.930778531332096e+18
14512.0	1.9303006306566136e+18
14513.0	1.9298556502343675e+18
14514.0	1.9293130582917117e+18
14515.0	1.9289275732328445e+18
14516.0	1.9266927171993613e+18
14517.0	1.928012684800819e+18
14518.0	1.9275517828005883e+18
14519.0	1.9270903355408381e+18
14520.0	1.9266310189875197e+18
14521.0	1.9261660770336765e+18
14522.0	1.925697980963225e+18
14523.0	1.9245843949289462e+18
14524.0	1.924151331363225e+18
14525.0	1.924325967082291e+18
14526.0	1.923867093447475e+18
14527.0	1.9233564956557307e+18
14528.0	1.922758965041561e+18
14529.0	1.9224831107006461e+18
14530.0	1.922014895511961e+18
14531.0	1.9215718411141117e+18
14532.0	1.920146240805273e+18
14533.0	1.920654884051353e+18
14534.0	1.920197604252057e+18
14535.0	1.9197265923014653e+18
14536.0	1.9192753321672704e+18
14537.0	1.9188066019180541e+18
14538.0	1.9183600159162365e+18
14539.0	1.9179033367412728e+18
14540.0	1.917446229747302e+18
14541.0	1.916964492122521e+18
14542.0	1.9165264255909883e+18
14543.0	1.9156798388830203e+18
14544.0	1.9156117418409984e+18
14545.0	1.91514180363223e+18
14546.0	1.8791428540858184e+18
14547.0	1.882352947874998e+18
14548.0	1.9137692277145597e+18
14549.0	1.9132164754898944e+18
14550.0	1.9128593187602424e+18
14551.0	1.912411081880371e+18
14552.0	1.9119434236952573e+18
14553.0	1.9114806309027837e+18
14554.0	1.9110389774024696e+18
14555.0	1.910580316838297e+18
14556.0	1.910109024708198e+18
14557.0	1.9096684147507192e+18
14558.0	1.9092097709637627e+18
14559.0	1.9071613316104146e+18
14560.0	1.908031491984588e+18
14561.0	1.9078271706595325e+18
14562.0	1.907341253830246e+18
14563.0	1.906919201151385e+18
14564.0	1.9064034779201533e+18
14565.0	1.9060102770196475e+18
14566.0	1.905554262222438e+18
14567.0	1.9050943584665597e+18
14568.0	1.9044449879326717e+18
14569.0	1.9041820990242816e+18
14570.0	1.9032519936573437e+18
14571.0	1.9032716984975355e+18
14572.0	1.9027110509150205e+18
14573.0	1.9023029451358205e+18
14574.0	1.9017412909203453e+18
14575.0	1.9014346168336381e+18
14576.0	1.9009827208429565e+18
14577.0	1.9005348698390528e+18
14578.0	1.900085827652812e+18
14579.0	1.899631930140262e+18
14580.0	1.8991775997755387e+18
14581.0	1.8986883627352061e+18
14582.0	1.8982624915619837e+18
14583.0	1.897812477974937e+18
14584.0	1.8973351292698624e+18
14585.0	1.8969028408115197e+18
14586.0	1.896445404984115e+18
14587.0	1.8959812196827128e+18
14588.0	1.8955357493657597e+18
14589.0	1.8951035766702075e+18
14590.0	1.894668612245913e+18
14591.0	1.8942210363883517e+18
14592.0	1.8937889291239421e+18
14593.0	1.893252841707929e+18
14594.0	1.8929238153363453e+18
14595.0	1.8924835342123003e+18
14596.0	1.8917686754934774e+18
14597.0	1.8913371403321334e+18
14598.0	1.891164905432678e+18
14599.0	1.8907507212681213e+18
14600.0	1.8903046989807613e+18
14601.0	1.889874883484057e+18
14602.0	1.8893883593195515e+18
14603.0	1.888989806487142e+18
14604.0	1.8885044852490235e+18
14605.0	1.8880538827816955e+18
14606.0	1.8875933700128765e+18
14607.0	1.8872664290492416e+18
14608.0	1.886824720184115e+18
14609.0	1.8863215798648827e+18
14610.0	1.885811446802022e+18
14611.0	1.8855070091182077e+18
14612.0	1.8850918485196797e+18
14613.0	1.8846613871001597e+18
14614.0	1.884223698055987e+18
14615.0	1.8837490639044608e+18
14616.0	1.8833582822785021e+18
14617.0	1.8829229303005184e+18
14618.0	1.882398764774195e+18
14619.0	1.8819040818495478e+18
14620.0	1.8808517561417725e+18
14621.0	1.881184996950016e+18
14622.0	1.8807473313939453e+18
14623.0	1.8803156620148733e+18
14624.0	1.8798268746039293e+18
14625.0	1.8794424246992893e+18
14626.0	1.8789914648772603e+18
14627.0	1.87854130029527e+18
14628.0	1.878141621711667e+18
14629.0	1.8777066656759803e+18
14630.0	1.877266384551936e+18
14631.0	1.876829118293606e+18
14632.0	1.8727378549211154e+18
14633.0	1.8755479597481969e+18
14634.0	1.8755143314964475e+18
14635.0	1.8741346672050107e+18
14636.0	1.871162551513906e+18
14637.0	1.8742270626889725e+18
14638.0	1.8737642950623232e+18
14639.0	1.8733379742597115e+18
14640.0	1.8729161413623803e+18
14641.0	1.8589883157184407e+18
14642.0	1.8720449642889213e+18
14643.0	1.8716113923735547e+18
14644.0	1.8711614878384125e+18
14645.0	1.8707166198235133e+18
14646.0	1.870211630655078e+18
14647.0	1.8697844743471104e+18
14648.0	1.8694239420415992e+18
