# Flux units: erg / (cm m2 s)
# Wavelength units: Angstrom
wave	flux
14000.0	1.6056977750753275e+18
14001.0	1.6052852988313597e+18
14002.0	1.6050663058309115e+18
14003.0	1.6047479095033853e+18
14004.0	1.6044267130585085e+18
14005.0	1.6041053924622333e+18
14006.0	1.6037779062390781e+18
14007.0	1.6034566342967293e+18
14008.0	1.6030669817774077e+18
14009.0	1.6028194641543165e+18
14010.0	1.6024902649774077e+18
14011.0	1.6016679414792187e+18
14012.0	1.6018583880466424e+18
14013.0	1.6015375472787453e+18
14014.0	1.6012126883676157e+18
14015.0	1.6008945420206075e+18
14016.0	1.600575815181926e+18
14017.0	1.6002554609532928e+18
14018.0	1.5999349976727555e+18
14019.0	1.599614916912742e+18
14020.0	1.5992942757937147e+18
14021.0	1.5989743594504192e+18
14022.0	1.5986540924633085e+18
14023.0	1.5983232222756861e+18
14024.0	1.597989092274995e+18
14025.0	1.5980943005188096e+18
14026.0	1.5979616967589885e+18
14027.0	1.5976432618438653e+18
14028.0	1.5973210906427387e+18
14029.0	1.5970022564298747e+18
14030.0	1.5962630086721533e+18
14031.0	1.5963400328708093e+18
14032.0	1.5960405327216637e+18
14033.0	1.5956904643657728e+18
14034.0	1.595403782009651e+18
14035.0	1.5950849175977981e+18
14036.0	1.594765736096563e+18
14037.0	1.5944465311072256e+18
14038.0	1.5941274888568832e+18
14039.0	1.5938062504689664e+18
14040.0	1.593482899829555e+18
14041.0	1.5931678723670013e+18
14042.0	1.592833673579725e+18
14043.0	1.5924896265666557e+18
14044.0	1.5921937301635072e+18
14045.0	1.591881900438323e+18
14046.0	1.5915637574467581e+18
14047.0	1.591241743951462e+18
14048.0	1.5909275385724925e+18
14049.0	1.590610769634918e+18
14050.0	1.590291453915955e+18
14051.0	1.5899665731944448e+18
14052.0	1.5896547602464763e+18
14053.0	1.5893371289599997e+18
14054.0	1.5890192728588285e+18
14055.0	1.5887013731368957e+18
14056.0	1.5883836260876285e+18
14057.0	1.588065929370009e+18
14058.0	1.5877485782630397e+18
14059.0	1.5874319720644605e+18
14060.0	1.587114537071411e+18
14061.0	1.586789554008883e+18
14062.0	1.586468050540953e+18
14063.0	1.586138978870886e+18
14064.0	1.5857506114863104e+18
14065.0	1.5855093635088381e+18
14066.0	1.585199213182976e+18
14067.0	1.5848763088175104e+18
14068.0	1.5845653162754048e+18
14069.0	1.5842456935333885e+18
14070.0	1.5839296258834432e+18
14071.0	1.5836107614715904e+18
14072.0	1.5832964470407163e+18
14073.0	1.5829798962069501e+18
14074.0	1.5826634493919224e+18
14075.0	1.582334188139315e+18
14076.0	1.5820232023080957e+18
14077.0	1.5816151837704187e+18
14078.0	1.5813912683347965e+18
14079.0	1.581074309814681e+18
14080.0	1.5807659093524477e+18
14081.0	1.5804506906296315e+18
14082.0	1.5801297760419837e+18
14083.0	1.579818083889971e+18
14084.0	1.5794963488964603e+18
14085.0	1.578951934948147e+18
14086.0	1.5788530617810941e+18
14087.0	1.5784576177668093e+18
14088.0	1.578093431383654e+18
14089.0	1.5777818952597501e+18
14090.0	1.5774688340869115e+18
14091.0	1.5771561235578877e+18
14092.0	1.5768394586390525e+18
14093.0	1.5765242701152253e+18
14094.0	1.5762091537334267e+18
14095.0	1.5760597878571003e+18
14096.0	1.576220652837273e+18
14097.0	1.5759170640805888e+18
14098.0	1.5756036589748221e+18
14099.0	1.5752978606587901e+18
14100.0	1.574973380912742e+18
14101.0	1.574668877797785e+18
14102.0	1.5743542362112e+18
14103.0	1.5740274596642813e+18
14104.0	1.5737248439861248e+18
14105.0	1.5734111587008512e+18
14106.0	1.5730983860961277e+18
14107.0	1.5727828368621563e+18
14108.0	1.5724623266054141e+18
14109.0	1.5721445107695616e+18
14110.0	1.5718244803411965e+18
14111.0	1.5715036999712763e+18
14112.0	1.5711980526501885e+18
14113.0	1.5708900615520253e+18
14114.0	1.570566987736678e+18
14115.0	1.5702618084999165e+18
14116.0	1.5699196556345341e+18
14117.0	1.5688984919277565e+18
14118.0	1.5693198181531643e+18
14119.0	1.5689923369631741e+18
14120.0	1.5686843307655165e+18
14121.0	1.5683707931197437e+18
14122.0	1.568048172289228e+18
14123.0	1.5677415216906237e+18
14124.0	1.5674263616880637e+18
14125.0	1.5667683743760381e+18
14126.0	1.566815996503654e+18
14127.0	1.5665037070827515e+18
14128.0	1.566190083873177e+18
14129.0	1.5658695417397248e+18
14130.0	1.5655512443977725e+18
14131.0	1.5652539403862013e+18
14132.0	1.5649378744139768e+18
14133.0	1.5642077014523901e+18
14134.0	1.5643183337701376e+18
14135.0	1.5639935117688832e+18
14136.0	1.563663260660531e+18
14137.0	1.5633695100633088e+18
14138.0	1.5630503453392896e+18
14139.0	1.5627467565826043e+18
14140.0	1.562424682689331e+18
14141.0	1.5621204245217277e+18
14142.0	1.5617534849974267e+18
14143.0	1.5614916060774397e+18
14144.0	1.5611870442422272e+18
14145.0	1.5608744696086525e+18
14146.0	1.5605624838553595e+18
14147.0	1.5602519929520128e+18
14148.0	1.559939327721472e+18
14149.0	1.5596282177388544e+18
14150.0	1.5593197837221888e+18
14151.0	1.559002784936755e+18
14152.0	1.5586980570071037e+18
14153.0	1.5583870879531003e+18
14154.0	1.5580578837430272e+18
14155.0	1.5576185773752315e+18
14156.0	1.5574270033788923e+18
14157.0	1.5571445841133563e+18
14158.0	1.5568309206384637e+18
14159.0	1.5565231073787901e+18
14160.0	1.5562061958348797e+18
14161.0	1.5557203293372413e+18
14162.0	1.5549297298767867e+18
14163.0	1.5539259037450237e+18
14164.0	1.5535879401504763e+18
14165.0	1.5531986131091453e+18
14166.0	1.5529953940471803e+18
14167.0	1.5526779875753984e+18
14168.0	1.5523669195358203e+18
14169.0	1.5520585073295352e+18
14170.0	1.551755552751616e+18
14171.0	1.5514473250947072e+18
14172.0	1.551140234933043e+18
14173.0	1.5507740705161213e+18
14174.0	1.550516466430771e+18
14175.0	1.550211616027443e+18
14176.0	1.549900999294976e+18
14177.0	1.5495516758474747e+18
14178.0	1.5490695959674875e+18
14179.0	1.5487507147784192e+18
14180.0	1.548453498008371e+18
14181.0	1.5481446563053565e+18
14182.0	1.5478352072671232e+18
14183.0	1.5475271373160448e+18
14184.0	1.5472145828151296e+18
14185.0	1.546909878373581e+18
14186.0	1.5464619149623293e+18
14187.0	1.546274755051519e+18
14188.0	1.5459826301665277e+18
14189.0	1.5456741927944184e+18
14190.0	1.5453669315051515e+18
14191.0	1.5450584488345597e+18
14192.0	1.544754858400153e+18
14193.0	1.5444366768209915e+18
14194.0	1.544148127160729e+18
14195.0	1.5438421073854464e+18
14196.0	1.543534106220953e+18
14197.0	1.5432258601091067e+18
14198.0	1.5429150001070077e+18
14199.0	1.5426085592236032e+18
14200.0	1.5422251646058493e+18
14201.0	1.5419911123763197e+18
14202.0	1.5416891895971837e+18
14203.0	1.5413691793014781e+18
14204.0	1.5410675853557757e+18
14205.0	1.540754626523955e+18
14206.0	1.5403531829772288e+18
14207.0	1.5401425668407293e+18
14208.0	1.5398357434367997e+18
14209.0	1.539428751664742e+18
14210.0	1.539157511058227e+18
14211.0	1.5389252388913147e+18
14212.0	1.5386200328110077e+18
14213.0	1.5383120366796797e+18
14214.0	1.5380034617343997e+18
14215.0	1.537686753194803e+18
14216.0	1.5373914674823163e+18
14217.0	1.537085004788531e+18
14218.0	1.5367704688984064e+18
14219.0	1.536472569295667e+18
14220.0	1.5361667223257085e+18
14221.0	1.535858539967283e+18
14222.0	1.535540306378752e+18
14223.0	1.5352496679550973e+18
14224.0	1.5349443846995963e+18
14225.0	1.534384619598643e+18
14226.0	1.5343319424958464e+18
14227.0	1.534027256509235e+18
14228.0	1.533069453636403e+18
14229.0	1.533254742887628e+18
14230.0	1.5331221374500864e+18
14231.0	1.5328084571979773e+18
14232.0	1.5325101901742077e+18
14233.0	1.5322002764070912e+18
14234.0	1.531899695805235e+18
14235.0	1.5315925922217981e+18
14236.0	1.5312894681939963e+18
14237.0	1.530983582636441e+18
14238.0	1.530679503985049e+18
14239.0	1.5303704055906301e+18
14240.0	1.5287591519649787e+18
14241.0	1.5297675146559488e+18
14242.0	1.529463665852416e+18
14243.0	1.5290395831304187e+18
14244.0	1.5288531580616696e+18
14245.0	1.5285223046512635e+18
14246.0	1.5282133035646976e+18
14247.0	1.5279266530852864e+18
14248.0	1.5276121591382016e+18
14249.0	1.5273202506792957e+18
14250.0	1.5270147828744187e+18
14251.0	1.5267089342267392e+18
14252.0	1.526401374303027e+18
14253.0	1.5261096571043837e+18
14254.0	1.5258048570327035e+18
14255.0	1.5254760588312573e+18
14256.0	1.5249614529626117e+18
14257.0	1.524877508162355e+18
14258.0	1.5245919784009725e+18
14259.0	1.5242745064980477e+18
14260.0	1.523974863742566e+18
14261.0	1.5236696308187136e+18
14262.0	1.523392951038771e+18
14263.0	1.5227441458970627e+18
14264.0	1.5227078416793597e+18
14265.0	1.522479057495654e+18
14266.0	1.5221798408814592e+18
14267.0	1.5218783643762685e+18
14268.0	1.5215756513902592e+18
14269.0	1.521268631692902e+18
14270.0	1.5209701230772221e+18
14271.0	1.5206655931187195e+18
14272.0	1.5203644957786112e+18
14273.0	1.520061096604467e+18
14274.0	1.5192198349848576e+18
14275.0	1.5194066207637507e+18
14276.0	1.5191352929157115e+18
14277.0	1.518833318127206e+18
14278.0	1.5188337610457085e+18
14279.0	1.5185979958624256e+18
14280.0	1.5182917529501696e+18
14281.0	1.5179949757431803e+18
14282.0	1.5176932140253181e+18
14283.0	1.5173922106376187e+18
14284.0	1.5170907576205307e+18
14285.0	1.5167889472487421e+18
14286.0	1.5164859675049981e+18
14287.0	1.516185626817331e+18
14288.0	1.5158839439523837e+18
14289.0	1.514745007544728e+18
14290.0	1.5152792092016635e+18
14291.0	1.514979806360371e+18
14292.0	1.514679217369907e+18
14293.0	1.5143726993113085e+18
14294.0	1.5139583574409219e+18
14295.0	1.5137546954604541e+18
14296.0	1.5127870493949955e+18
14297.0	1.513161632618905e+18
14298.0	1.512684830851072e+18
14299.0	1.512548326388531e+18
14300.0	1.5122491433287677e+18
14301.0	1.5119500374441984e+18
14302.0	1.5116504584421373e+18
14303.0	1.5113259652743163e+18
14304.0	1.511037118657331e+18
14305.0	1.510750100756889e+18
14306.0	1.5104370311954432e+18
14307.0	1.5101529358860285e+18
14308.0	1.509863396370022e+18
14309.0	1.509562233598771e+18
14310.0	1.509146321380966e+18
14311.0	1.5088387799121915e+18
14312.0	1.508624466077286e+18
14313.0	1.5082658413412347e+18
14314.0	1.5080611727278075e+18
14315.0	1.507764264658534e+18
14316.0	1.507424485769216e+18
14317.0	1.5071524817993725e+18
14318.0	1.5068654672543741e+18
14319.0	1.5065659989819387e+18
14320.0	1.506265785801113e+18
14321.0	1.5059650609151997e+18
14322.0	1.5056381736386552e+18
14323.0	1.5053527059529725e+18
14324.0	1.5050690837610493e+18
14325.0	1.50476324685742e+18
14326.0	1.5044709206458363e+18
14327.0	1.5041655887364093e+18
14328.0	1.5038644158988285e+18
14329.0	1.5035652865261565e+18
14330.0	1.5032623353036795e+18
14331.0	1.5029632780730365e+18
14332.0	1.5026647476469757e+18
14333.0	1.5023662037991421e+18
14334.0	1.5020682337320952e+18
14335.0	1.501755073573683e+18
14336.0	1.5014419536805885e+18
14337.0	1.5011752244674552e+18
14338.0	1.5008877200277501e+18
14339.0	1.5005831531593728e+18
14340.0	1.5002926187544573e+18
14341.0	1.4999930162642944e+18
14342.0	1.4996953481871357e+18
14343.0	1.4993930563092475e+18
14344.0	1.4990958747713536e+18
14345.0	1.4988033338114043e+18
14346.0	1.498504382277222e+18
14347.0	1.498190116500275e+18
14348.0	1.497910535939686e+18
14349.0	1.497603680659046e+18
14350.0	1.4972847810150397e+18
14351.0	1.4969815949115387e+18
14352.0	1.4967024488808443e+18
14353.0	1.4964102468206587e+18
14354.0	1.4961116694183936e+18
14355.0	1.495810716362342e+18
14356.0	1.4955147176181757e+18
14357.0	1.4952218696351741e+18
14358.0	1.4949244867706877e+18
14359.0	1.4946162054266877e+18
14360.0	1.4943256710217725e+18
14361.0	1.494030036343193e+18
14362.0	1.4937339671347197e+18
14363.0	1.493437022155571e+18
14364.0	1.4930815867682813e+18
14365.0	1.492830101333606e+18
14366.0	1.4925354061791232e+18
14367.0	1.4922509753253885e+18
14368.0	1.4919549010837501e+18
14369.0	1.4916594710872064e+18
14370.0	1.4913631837749245e+18
14371.0	1.4910670323580923e+18
14372.0	1.4907664869883901e+18
14373.0	1.4904739426729984e+18
14374.0	1.4901836716703741e+18
14375.0	1.4898937882214397e+18
14376.0	1.4899247488958454e+18
14377.0	1.4901367407640573e+18
14378.0	1.4898395139276797e+18
14379.0	1.4895458757378045e+18
14380.0	1.4892489961897981e+18
14381.0	1.488946737866342e+18
14382.0	1.4886582016278525e+18
14383.0	1.4883567821651965e+18
14384.0	1.4880547889217536e+18
14385.0	1.4877738443735037e+18
14386.0	1.4874679604936704e+18
14387.0	1.4871836386918397e+18
14388.0	1.4868871903182845e+18
14389.0	1.486593587360563e+18
14390.0	1.4862974392991741e+18
14391.0	1.486003707156889e+18
14392.0	1.4857066296377344e+18
14393.0	1.485415029879603e+18
14394.0	1.4850923016749053e+18
14395.0	1.4848155430420477e+18
14396.0	1.4844434780782587e+18
14397.0	1.484113315889152e+18
14398.0	1.4838177432862715e+18
14399.0	1.4823092333314048e+18
14400.0	1.4819868205383675e+18
14401.0	1.4817030641287165e+18
14402.0	1.4814132293337085e+18
14403.0	1.479113774307735e+18
14404.0	1.4750491330215918e+18
14405.0	1.4792657054203876e+18
14406.0	1.480238481958502e+18
14407.0	1.4774467179839498e+18
14408.0	1.4796195234840573e+18
14409.0	1.479340679443251e+18
14410.0	1.4790590453514237e+18
14411.0	1.4787695645556736e+18
14412.0	1.4784738325692413e+18
14413.0	1.4781741059276795e+18
14414.0	1.477876389196595e+18
14415.0	1.477591335908147e+18
14416.0	1.4773016789516288e+18
14417.0	1.477001205723955e+18
14418.0	1.47669691400192e+18
14419.0	1.476422769259315e+18
14420.0	1.4761262219001853e+18
14421.0	1.4758357126610944e+18
14422.0	1.4755396585521147e+18
14423.0	1.4752445104128e+18
14424.0	1.4630336633765832e+18
14425.0	1.474659408360243e+18
14426.0	1.4743715717316603e+18
14427.0	1.474078072792678e+18
14428.0	1.4737703199309821e+18
14429.0	1.4734887831470077e+18
14430.0	1.4732011964989437e+18
14431.0	1.4727968437829624e+18
14432.0	1.4726078400561155e+18
14433.0	1.470029638297189e+18
14434.0	1.4720167636369403e+18
14435.0	1.4717164732809213e+18
14436.0	1.4713332044922877e+18
14437.0	1.4709776919298045e+18
14438.0	1.4706242899410941e+18
14439.0	1.4703765307260925e+18
14440.0	1.4700999096664064e+18
14441.0	1.4697996461539325e+18
14442.0	1.4695035786231803e+18
14443.0	1.46917833048064e+18
14444.0	1.4689283080191997e+18
14445.0	1.4686407666696187e+18
14446.0	1.4655465430450184e+18
14447.0	1.468041534845747e+18
14448.0	1.4677672307195901e+18
14449.0	1.467475718202982e+18
14450.0	1.4671803351826424e+18
14451.0	1.4668912184524795e+18
14452.0	1.4665989610274816e+18
14453.0	1.4662741121826813e+18
14454.0	1.4660181371650045e+18
14455.0	1.465721078100787e+18
14456.0	1.465427451654963e+18
14457.0	1.4651329427275776e+18
14458.0	1.4648513203798013e+18
14459.0	1.4645589119598592e+18
14460.0	1.4642698791157757e+18
14461.0	1.4639620239130621e+18
14462.0	1.463582684348416e+18
14463.0	1.4633941705162747e+18
14464.0	1.4631101339271165e+18
14465.0	1.4628174470053888e+18
14466.0	1.4625502815846397e+18
14467.0	1.462224051974963e+18
14468.0	1.461964533609267e+18
14469.0	1.4616556348637181e+18
14470.0	1.4613659242201085e+18
14471.0	1.4610883451813888e+18
14472.0	1.4608029999693821e+18
14473.0	1.4605172353269757e+18
14474.0	1.4602279558578176e+18
14475.0	1.459931980601753e+18
14476.0	1.459502356365312e+18
14477.0	1.4593586158895104e+18
14478.0	1.4590667242078203e+18
14479.0	1.4587762049023997e+18
14480.0	1.4584755488030715e+18
14481.0	1.458200145769267e+18
14482.0	1.4579071635685373e+18
14483.0	1.4576125590110203e+18
14484.0	1.457321459213926e+18
14485.0	1.4570127248850944e+18
14486.0	1.4565058449244157e+18
14487.0	1.456458112067174e+18
14488.0	1.4561607258472445e+18
14489.0	1.4558713574588413e+18
14490.0	1.4555852975374336e+18
14491.0	1.455290221540147e+18
14492.0	1.4550020107796475e+18
14493.0	1.454708575594086e+18
14494.0	1.4544075000643584e+18
14495.0	1.4541357645299707e+18
14496.0	1.4537374600003581e+18
14497.0	1.4535570965397504e+18
14498.0	1.4532681157050365e+18
14499.0	1.4529790459510781e+18
14500.0	1.4526900248510464e+18
14501.0	1.4523385841188864e+18
14502.0	1.4518726288211965e+18
14503.0	1.451806452770406e+18
14504.0	1.4515300783357947e+18
14505.0	1.451187873461043e+18
14506.0	1.450838638932787e+18
14507.0	1.4504702649565181e+18
14508.0	1.4503832448925693e+18
14509.0	1.4500948965588992e+18
14510.0	1.4498037883731963e+18
14511.0	1.4495179901763581e+18
14512.0	1.4492173105889275e+18
14513.0	1.448941785081446e+18
14514.0	1.4486202279264253e+18
14515.0	1.4483641220464635e+18
14516.0	1.4459489965047816e+18
14517.0	1.4477924753211387e+18
14518.0	1.4475017848881147e+18
14519.0	1.447213812364083e+18
14520.0	1.446926131763609e+18
14521.0	1.446648737274265e+18
14522.0	1.4463631034941435e+18
14523.0	1.4459356166750203e+18
14524.0	1.4456470888251387e+18
14525.0	1.4454956861947904e+18
14526.0	1.445210780545843e+18
14527.0	1.444897731117056e+18
14528.0	1.4445282548776957e+18
14529.0	1.444340294693683e+18
14530.0	1.4440483459694587e+18
14531.0	1.443772981523251e+18
14532.0	1.4432820902494203e+18
14533.0	1.4431972344463357e+18
14534.0	1.4429135250128893e+18
14535.0	1.4426175447236603e+18
14536.0	1.442337061548851e+18
14537.0	1.4420418664333307e+18
14538.0	1.4417648175546365e+18
14539.0	1.4414779271610365e+18
14540.0	1.4411909159714813e+18
14541.0	1.4408880117252093e+18
14542.0	1.4406164003422208e+18
14543.0	1.4402335325290493e+18
14544.0	1.4400397489733632e+18
14545.0	1.439749192758067e+18
14546.0	1.422865858350279e+18
14547.0	1.4240376042815404e+18
14548.0	1.4388820489273341e+18
14549.0	1.4385077760819197e+18
14550.0	1.4383136133611515e+18
14551.0	1.4380336620240893e+18
14552.0	1.4377461324185597e+18
14553.0	1.437454099808256e+18
14554.0	1.4371751886585853e+18
14555.0	1.436888138881433e+18
14556.0	1.4365988275355645e+18
14557.0	1.436315878110003e+18
14558.0	1.4360293383602173e+18
14559.0	1.4341792291880942e+18
14560.0	1.4354488265539581e+18
14561.0	1.4351647547326464e+18
14562.0	1.434864553295872e+18
14563.0	1.4345967989948413e+18
14564.0	1.4343017766846464e+18
14565.0	1.4340254072831997e+18
14566.0	1.4337391846227963e+18
14567.0	1.4334525995745277e+18
14568.0	1.433147911910195e+18
14569.0	1.4328806944800763e+18
14570.0	1.4321554556977147e+18
14571.0	1.430907625091892e+18
14572.0	1.4305436937224192e+18
14573.0	1.4302559946670077e+18
14574.0	1.4299824220274685e+18
14575.0	1.4297187814998013e+18
14576.0	1.4294315136188413e+18
14577.0	1.4291432609153021e+18
14578.0	1.4288606218682365e+18
14579.0	1.4285767379517437e+18
14580.0	1.4282903592632315e+18
14581.0	1.4279914899374077e+18
14582.0	1.4277058712567803e+18
14583.0	1.4274209874182141e+18
14584.0	1.4281309606117373e+18
14585.0	1.4278696856715264e+18
14586.0	1.4275907678109693e+18
14587.0	1.4273022785486845e+18
14588.0	1.427017772197478e+18
14589.0	1.4267398441926653e+18
14590.0	1.4264633556729853e+18
14591.0	1.4261856206061565e+18
14592.0	1.425906041723289e+18
14593.0	1.4255378824953853e+18
14594.0	1.4253570241069053e+18
14595.0	1.425076519121715e+18
14596.0	1.4247356950118397e+18
14597.0	1.424457028809523e+18
14598.0	1.424244365852672e+18
14599.0	1.4239753683599357e+18
14600.0	1.4236973329809408e+18
14601.0	1.423422408097792e+18
14602.0	1.4231389788438525e+18
14603.0	1.4228694058926077e+18
14604.0	1.4225549270450173e+18
14605.0	1.4223007857770493e+18
14606.0	1.421982241810022e+18
14607.0	1.4217504628932603e+18
14608.0	1.421481148311142e+18
14609.0	1.4211979673599997e+18
14610.0	1.4209019300282365e+18
14611.0	1.420651545178931e+18
14612.0	1.4203788516655101e+18
14613.0	1.4201029285380093e+18
14614.0	1.4198232959680507e+18
14615.0	1.419548132848435e+18
14616.0	1.4192740451483645e+18
14617.0	1.4189982914707453e+18
14618.0	1.4187162060718075e+18
14619.0	1.418400957150003e+18
14620.0	1.4180291388112893e+18
14621.0	1.4178931410206717e+18
14622.0	1.4176142013497341e+18
14623.0	1.4173398955458557e+18
14624.0	1.4170153973448701e+18
14625.0	1.4167841234223101e+18
14626.0	1.4165048817614848e+18
14627.0	1.4162240496205821e+18
14628.0	1.4159560604385275e+18
14629.0	1.4156793605259264e+18
14630.0	1.4154008251858944e+18
14631.0	1.415124668855091e+18
14632.0	1.4138636345802755e+18
14633.0	1.4144180225835003e+18
14634.0	1.414290665059123e+18
14635.0	1.4137742069858294e+18
14636.0	1.4132378293239803e+18
14637.0	1.4134638888878077e+18
14638.0	1.4131837647454208e+18
14639.0	1.412898902717235e+18
14640.0	1.412629041197875e+18
14641.0	1.4084201024323564e+18
14642.0	1.4120752185868285e+18
14643.0	1.4118011896070141e+18
14644.0	1.4115153578557437e+18
14645.0	1.4112257730412541e+18
14646.0	1.4109579314987008e+18
14647.0	1.4106765272547325e+18
