# Flux units: erg / (cm m2 s)
# Wavelength units: Angstrom
wave	flux
14000.0	1.876792812398182e+18
14001.0	1.8762614997778427e+18
14002.0	1.8758978385215488e+18
14003.0	1.8754563410493437e+18
14004.0	1.875001898277273e+18
14005.0	1.8745589663531003e+18
14006.0	1.874091517883187e+18
14007.0	1.8736334730428408e+18
14008.0	1.872998096384819e+18
14009.0	1.8727483104821243e+18
14010.0	1.8722664839380995e+18
14011.0	1.8707110061670403e+18
14012.0	1.871385728752025e+18
14013.0	1.870942501548851e+18
14014.0	1.870471942583091e+18
14015.0	1.870032002036531e+18
14016.0	1.8695790205599741e+18
14017.0	1.8691308809879547e+18
14018.0	1.8686703782854653e+18
14019.0	1.8682311792918525e+18
14020.0	1.8677768975810555e+18
14021.0	1.8673274896515072e+18
14022.0	1.8668506459406333e+18
14023.0	1.8661178356006907e+18
14024.0	1.8658577216438264e+18
14025.0	1.8655211975344125e+18
14026.0	1.8650754101280765e+18
14027.0	1.8646211166732283e+18
14028.0	1.8641649055825915e+18
14029.0	1.8637123250814976e+18
14030.0	1.8520841339797604e+18
14031.0	1.8627489957937144e+18
14032.0	1.862366255487385e+18
14033.0	1.8616721149526016e+18
14034.0	1.8614755514122235e+18
14035.0	1.8610272054804475e+18
14036.0	1.8605579836588032e+18
14037.0	1.8600439918362621e+18
14038.0	1.8596823924998141e+18
14039.0	1.8592276796145661e+18
14040.0	1.8587608082808824e+18
14041.0	1.8583344472129533e+18
14042.0	1.8578739344441341e+18
14043.0	1.8573712538206203e+18
14044.0	1.8569790461313021e+18
14045.0	1.856543850181427e+18
14046.0	1.8560916270350333e+18
14047.0	1.8555960112971776e+18
14048.0	1.855181895919206e+18
14049.0	1.8547636869005307e+18
14050.0	1.8543155825606656e+18
14051.0	1.853841161479782e+18
14052.0	1.8534116597170168e+18
14053.0	1.8529724489793533e+18
14054.0	1.8525324161581053e+18
14055.0	1.8520698129481725e+18
14056.0	1.8516402457542653e+18
14057.0	1.8511877877268477e+18
14058.0	1.8507455352799232e+18
14059.0	1.85028922352599e+18
14060.0	1.849855141583257e+18
14061.0	1.8493933168361472e+18
14062.0	1.84896357180375e+18
14063.0	1.848487061959475e+18
14064.0	1.846470573136283e+18
14065.0	1.8476139404066816e+18
14066.0	1.8471762127749115e+18
14067.0	1.8463442071453693e+18
14068.0	1.8462922262970363e+18
14069.0	1.8458122486022141e+18
14070.0	1.845403022104985e+18
14071.0	1.8449507469492221e+18
14072.0	1.8445097729261563e+18
14073.0	1.844051877403033e+18
14074.0	1.843628979152486e+18
14075.0	1.8431374469890043e+18
14076.0	1.8423108905992195e+18
14077.0	1.8393678884110344e+18
14078.0	1.8416350724620288e+18
14079.0	1.8413946968997883e+18
14080.0	1.840974082028339e+18
14081.0	1.8405289992650747e+18
14082.0	1.84001716331479e+18
14083.0	1.8396375351820283e+18
14084.0	1.8392035421585408e+18
14085.0	1.8362872778194941e+18
14086.0	1.8380953416105981e+18
14087.0	1.8378777092423677e+18
14088.0	1.8373761711472637e+18
14089.0	1.8366271825379325e+18
14090.0	1.836493867424153e+18
14091.0	1.8361074495520765e+18
14092.0	1.835662138618675e+18
14093.0	1.8352234446192637e+18
14094.0	1.8347836265463803e+18
14095.0	1.8343444141309947e+18
14096.0	1.833296192130253e+18
14097.0	1.8331804964487163e+18
14098.0	1.8326864359587835e+18
14099.0	1.832579778163507e+18
14100.0	1.8320776763539453e+18
14101.0	1.831702329766707e+18
14102.0	1.831255673300582e+18
14103.0	1.8307977224126461e+18
14104.0	1.8303774732845053e+18
14105.0	1.829916499142246e+18
14106.0	1.8295036688990208e+18
14107.0	1.8289809093033981e+18
14108.0	1.8285640827273213e+18
14109.0	1.8281756297789437e+18
14110.0	1.827667728085811e+18
14111.0	1.827162155070259e+18
14112.0	1.8268302178516987e+18
14113.0	1.8261873048682493e+18
14114.0	1.8258905477939192e+18
14115.0	1.82550899195904e+18
14116.0	1.824147327942654e+18
14117.0	1.807835362597281e+18
14118.0	1.824221692952576e+18
14119.0	1.823477232513842e+18
14120.0	1.823045600044646e+18
14121.0	1.8228646309265403e+18
14122.0	1.822144165262131e+18
14123.0	1.8214222215249917e+18
14124.0	1.8208169280929797e+18
14125.0	1.8202782066540536e+18
14126.0	1.8205576680964093e+18
14127.0	1.8202971263205376e+18
14128.0	1.8198633681780733e+18
14129.0	1.819406079990169e+18
14130.0	1.8189474731130875e+18
14131.0	1.8185219676831736e+18
14132.0	1.8181039985786875e+18
14133.0	1.8166448253829082e+18
14134.0	1.817250551667097e+18
14135.0	1.816712350321868e+18
14136.0	1.8147695084437514e+18
14137.0	1.8159238849232893e+18
14138.0	1.8152144133685243e+18
14139.0	1.815073223029555e+18
14140.0	1.8145237104852987e+18
14141.0	1.8141872652287992e+18
14142.0	1.8119368600715277e+18
14143.0	1.813027095576576e+18
14144.0	1.8129021321609213e+18
14145.0	1.81246624834519e+18
14146.0	1.8120027861417984e+18
14147.0	1.811575398308249e+18
14148.0	1.811045593959628e+18
14149.0	1.8105421298401275e+18
14150.0	1.8102928774529021e+18
14151.0	1.8095996160442368e+18
14152.0	1.8094284683083776e+18
14153.0	1.8089988407164923e+18
14154.0	1.8085132007112696e+18
14155.0	1.796219553080945e+18
14156.0	1.807255021918612e+18
14157.0	1.8072386423226365e+18
14158.0	1.8067009795260413e+18
14159.0	1.8063937819901947e+18
14160.0	1.8059642970046461e+18
14161.0	1.8054011680718845e+18
14162.0	1.8048929610334203e+18
14163.0	1.80466735948759e+18
14164.0	1.80355077368709e+18
14165.0	1.802621562545767e+18
14166.0	1.8033596308652032e+18
14167.0	1.802914428983705e+18
14168.0	1.8023445790982141e+18
14169.0	1.8020673288929275e+18
14170.0	1.8015465070657533e+18
14171.0	1.8011179616043003e+18
14172.0	1.8007868951232507e+18
14173.0	1.7998293137096704e+18
14174.0	1.799870714845593e+18
14175.0	1.799487816833433e+18
14176.0	1.798873584500736e+18
14177.0	1.7985841154490363e+18
14178.0	1.7981882822033403e+18
14179.0	1.7976591908863997e+18
14180.0	1.797344876455526e+18
14181.0	1.7969129218637821e+18
14182.0	1.7964833060159485e+18
14183.0	1.7960549786583037e+18
14184.0	1.795613395622297e+18
14185.0	1.795190146727936e+18
14186.0	1.791233411461941e+18
14187.0	1.7942897856872448e+18
14188.0	1.7938998831874043e+18
14189.0	1.7934328675696635e+18
14190.0	1.7930229162967037e+18
14191.0	1.7925777697800187e+18
14192.0	1.7921752256479232e+18
14193.0	1.791150828971623e+18
14194.0	1.7913018088161275e+18
14195.0	1.7909123056140285e+18
14196.0	1.790478601158656e+18
14197.0	1.790050352653926e+18
14198.0	1.7896163680190461e+18
14199.0	1.7891666396446715e+18
14200.0	1.7866313774923794e+18
14201.0	1.788315575097753e+18
14202.0	1.7879107157098493e+18
14203.0	1.7873602888073213e+18
14204.0	1.7870194428870653e+18
14205.0	1.786629823922176e+18
14206.0	1.7859637013381117e+18
14207.0	1.7857823866093565e+18
14208.0	1.7853571009609728e+18
14209.0	1.7846500486807544e+18
14210.0	1.7843463491944438e+18
14211.0	1.7840634400342016e+18
14212.0	1.783650658444902e+18
14213.0	1.783134957024051e+18
14214.0	1.7827980688490493e+18
14215.0	1.7823306958766077e+18
14216.0	1.7819454624759805e+18
14217.0	1.7815257451855864e+18
14218.0	1.7810769127145472e+18
14219.0	1.7806682784530427e+18
14220.0	1.7802345303769088e+18
14221.0	1.7797412064067574e+18
14222.0	1.7787532095782912e+18
14223.0	1.7789039847407608e+18
14224.0	1.7785536143949821e+18
14225.0	1.7723863752245297e+18
14226.0	1.777703454140006e+18
14227.0	1.7772796985737208e+18
14228.0	1.764241137519827e+18
14229.0	1.7749148325379988e+18
14230.0	1.7760087237984253e+18
14231.0	1.7749557387460613e+18
14232.0	1.7751636034191355e+18
14233.0	1.7747213006405627e+18
14234.0	1.7743184712957947e+18
14235.0	1.7738891524046843e+18
14236.0	1.7734608468574205e+18
14237.0	1.7730291103694848e+18
14238.0	1.7726040780570621e+18
14239.0	1.772127881946726e+18
14240.0	1.76918527570084e+18
14241.0	1.7713236526759933e+18
14242.0	1.770926034334515e+18
14243.0	1.7702152793227267e+18
14244.0	1.7700957383032827e+18
14245.0	1.7696285465247744e+18
14246.0	1.7691515904065533e+18
14247.0	1.7688143280996347e+18
14248.0	1.7683715203268605e+18
14249.0	1.7679757743226877e+18
14250.0	1.7675587296428027e+18
14251.0	1.7671383932731387e+18
14252.0	1.7667190417260541e+18
14253.0	1.7662835152650237e+18
14254.0	1.765876461417267e+18
14255.0	1.7654036761149437e+18
14256.0	1.7612352073498657e+18
14257.0	1.7645805456326653e+18
14258.0	1.76419601687511e+18
14259.0	1.7636436287160317e+18
14260.0	1.763242461993369e+18
14261.0	1.7628930898919421e+18
14262.0	1.7625213772496893e+18
14263.0	1.7565281530413102e+18
14264.0	1.760910732636979e+18
14265.0	1.7609897784901632e+18
14266.0	1.760841870553907e+18
14267.0	1.7604222673485821e+18
14268.0	1.7599944869281787e+18
14269.0	1.7595693656965117e+18
14270.0	1.759166048134758e+18
14271.0	1.7587300703666168e+18
14272.0	1.7583099890106365e+18
14273.0	1.7579133471031293e+18
14274.0	1.7496145290854461e+18
14275.0	1.756339162736231e+18
14276.0	1.7565343471894525e+18
14277.0	1.7561740061442043e+18
14278.0	1.7558258755567608e+18
14279.0	1.7554071162454016e+18
14280.0	1.754975107966566e+18
14281.0	1.7545741056606205e+18
14282.0	1.7541543212613627e+18
14283.0	1.7537399978459133e+18
14284.0	1.753321592533811e+18
14285.0	1.7529054907334656e+18
14286.0	1.7524643623600125e+18
14287.0	1.7520671181504507e+18
14288.0	1.7516533970370557e+18
14289.0	1.7495756982190024e+18
14290.0	1.7507939942137853e+18
14291.0	1.7503991357243387e+18
14292.0	1.7499871258869757e+18
14293.0	1.7495729366892541e+18
14294.0	1.7488383429312512e+18
14295.0	1.7486853011668987e+18
14296.0	1.7469751240425482e+18
14297.0	1.7479161882869757e+18
14298.0	1.7452740049371126e+18
14299.0	1.7469589273182203e+18
14300.0	1.7466539561189376e+18
14301.0	1.746216721737318e+18
14302.0	1.7458325268463608e+18
14303.0	1.7453067406409723e+18
14304.0	1.7449802962829307e+18
14305.0	1.7445807351398397e+18
14306.0	1.743795598340915e+18
14307.0	1.7436286952407035e+18
14308.0	1.7433211218952187e+18
14309.0	1.7428621811515395e+18
14310.0	1.7411036671901678e+18
14311.0	1.7381440303923195e+18
14312.0	1.741188789750989e+18
14313.0	1.7410642155667456e+18
14314.0	1.7407573384757243e+18
14315.0	1.7404233544368128e+18
14316.0	1.7399453983965181e+18
14317.0	1.7390503221788672e+18
14318.0	1.7392214262939648e+18
14319.0	1.7388120622235643e+18
14320.0	1.7383984535175163e+18
14321.0	1.73797767422935e+18
14322.0	1.737483961027788e+18
14323.0	1.7371385802260475e+18
14324.0	1.7366559131435005e+18
14325.0	1.7363208738177021e+18
14326.0	1.735930103935795e+18
14327.0	1.7354985251536893e+18
14328.0	1.7350906995539968e+18
14329.0	1.734696240362291e+18
14330.0	1.7342826517889021e+18
14331.0	1.7337943358177277e+18
14332.0	1.7334579190824957e+18
14333.0	1.7330504760033277e+18
14334.0	1.7326391724867581e+18
14335.0	1.732146714220953e+18
14336.0	1.7311344139173888e+18
14337.0	1.731397863184793e+18
14338.0	1.7309818268155904e+18
14339.0	1.7305277296541693e+18
14340.0	1.7301783390978048e+18
14341.0	1.7297058423635968e+18
14342.0	1.729347546460979e+18
14343.0	1.7288950917890043e+18
14344.0	1.7285043722387453e+18
14345.0	1.7281356794953725e+18
14346.0	1.7277201397317627e+18
14347.0	1.727020308365312e+18
14348.0	1.7268984453791744e+18
14349.0	1.7265017548177405e+18
14350.0	1.7256258683797494e+18
14351.0	1.7252011783225336e+18
14352.0	1.725255658976051e+18
14353.0	1.7248652145721341e+18
14354.0	1.72441446949847e+18
14355.0	1.7239296817758203e+18
14356.0	1.7235648763133944e+18
14357.0	1.7232345899728893e+18
14358.0	1.722826807993958e+18
14359.0	1.7223883807522813e+18
14360.0	1.7219803823472635e+18
14361.0	1.7215977980690427e+18
14362.0	1.7211951666954235e+18
14363.0	1.720789738559897e+18
14364.0	1.7186285680590853e+18
14365.0	1.7197746867929073e+18
14366.0	1.7192936538111997e+18
14367.0	1.7191548508700672e+18
14368.0	1.7187510534799357e+18
14369.0	1.7183491334602747e+18
14370.0	1.7179407911223293e+18
14371.0	1.717540320654131e+18
14372.0	1.7170857554083835e+18
14373.0	1.7167214280966136e+18
14374.0	1.7163132669526013e+18
14375.0	1.715911180838502e+18
14376.0	1.7155066687389693e+18
14377.0	1.7151017070100477e+18
14378.0	1.714692760692326e+18
14379.0	1.7142923036459003e+18
14380.0	1.7138822315769853e+18
14381.0	1.7134562396078077e+18
14382.0	1.7130715011350525e+18
14383.0	1.7125828479418365e+18
14384.0	1.712217841152819e+18
14385.0	1.7118615132176381e+18
14386.0	1.7114195879264253e+18
14387.0	1.7110489322487805e+18
14388.0	1.7106391219044352e+18
14389.0	1.7102422786703357e+18
14390.0	1.7098352566992893e+18
14391.0	1.7094017384710136e+18
14392.0	1.7089616821616637e+18
14393.0	1.7086269817356285e+18
14394.0	1.7081462591324157e+18
14395.0	1.7064590416281595e+18
14396.0	1.7073489739513853e+18
14397.0	1.7070138306068477e+18
14398.0	1.7065575876395003e+18
14399.0	1.706183818110566e+18
14400.0	1.7048655684960256e+18
14401.0	1.7053814561439741e+18
14402.0	1.7049889514979328e+18
14403.0	1.6896002699034383e+18
14404.0	1.6672887771496384e+18
14405.0	1.7014296315690903e+18
14406.0	1.7033846855827453e+18
14407.0	1.6782502886637696e+18
14408.0	1.702080740222566e+18
14409.0	1.7021364254801915e+18
14410.0	1.7016409221496832e+18
14411.0	1.7013047923048443e+18
14412.0	1.70096548988846e+18
14413.0	1.7005688513363963e+18
14414.0	1.700163401390489e+18
14415.0	1.6997689975635963e+18
14416.0	1.6992566046097398e+18
14417.0	1.6985089078460408e+18
14418.0	1.6981976166694912e+18
14419.0	1.698164188066611e+18
14420.0	1.6977540690214907e+18
14421.0	1.6973629065527288e+18
14422.0	1.696952502294937e+18
14423.0	1.696537853401497e+18
14424.0	1.6217019808480906e+18
14425.0	1.6957492537851904e+18
14426.0	1.6953585443012605e+18
14427.0	1.694961518195507e+18
14428.0	1.694477269021491e+18
14429.0	1.6941602048049147e+18
14430.0	1.6937633632485376e+18
14431.0	1.6907025531273231e+18
14432.0	1.69287368090583e+18
14433.0	1.6736961402240896e+18
14434.0	1.692134178134425e+18
14435.0	1.6913455969730547e+18
14436.0	1.6913697830076413e+18
14437.0	1.6909716311506941e+18
14438.0	1.689826852916429e+18
14439.0	1.6900315366293496e+18
14440.0	1.6897757914595325e+18
14441.0	1.6893621928198136e+18
14442.0	1.688957569990656e+18
14443.0	1.688481462799565e+18
14444.0	1.6881678764998653e+18
14445.0	1.6877798094274557e+18
14446.0	1.6677944441176156e+18
14447.0	1.6869603112124413e+18
14448.0	1.686585560216371e+18
14449.0	1.686189629662822e+18
14450.0	1.6857833408561147e+18
14451.0	1.6853881753436157e+18
14452.0	1.684988268589875e+18
14453.0	1.6841898979229696e+18
14454.0	1.6841880843059195e+18
14455.0	1.683788538262323e+18
14456.0	1.683303274066739e+18
14457.0	1.6828490661756925e+18
14458.0	1.6820063717818365e+18
14459.0	1.6820948044873725e+18
14460.0	1.681797181708697e+18
14461.0	1.681187670484582e+18
14462.0	1.677608907440129e+18
14463.0	1.6805545100967933e+18
14464.0	1.6802227221954557e+18
14465.0	1.6798018439217147e+18
14466.0	1.6794294014705661e+18
14467.0	1.678752403895091e+18
14468.0	1.6786242158985213e+18
14469.0	1.678085375341363e+18
14470.0	1.6778066101534715e+18
14471.0	1.6774279232225277e+18
14472.0	1.677046981433753e+18
14473.0	1.676677183071846e+18
14474.0	1.6762878593859581e+18
14475.0	1.675875671710105e+18
14476.0	1.6741619495600136e+18
14477.0	1.675096000928153e+18
14478.0	1.674701677631897e+18
14479.0	1.674269758272307e+18
14480.0	1.673888814805811e+18
14481.0	1.673533037163315e+18
14482.0	1.6731310382907387e+18
14483.0	1.6727196391440381e+18
14484.0	1.6723475842465787e+18
14485.0	1.6718752032751613e+18
14486.0	1.6709939212845059e+18
14487.0	1.67114939910062e+18
14488.0	1.6699264960823296e+18
14489.0	1.6700792392122363e+18
14490.0	1.669917369276825e+18
14491.0	1.6696045983498235e+18
14492.0	1.6691588965072893e+18
14493.0	1.6686733772980221e+18
14494.0	1.6683561318875133e+18
14495.0	1.6680378697777152e+18
14496.0	1.6673835768086525e+18
14497.0	1.6672501979414523e+18
14498.0	1.6668551398031357e+18
14499.0	1.6664727266525184e+18
14500.0	1.6660801968406525e+18
14501.0	1.6650696044576768e+18
14502.0	1.6639054770601994e+18
14503.0	1.6646875989934072e+18
14504.0	1.6645012360003581e+18
14505.0	1.663548659230309e+18
14506.0	1.662385868976947e+18
14507.0	1.6628703429656579e+18
14508.0	1.6629497663062013e+18
14509.0	1.6625589813247997e+18
14510.0	1.6621653878374395e+18
14511.0	1.661779850769203e+18
14512.0	1.661353976240537e+18
14513.0	1.6609942173646848e+18
14514.0	1.6603523177250816e+18
14515.0	1.6601938871189504e+18
14516.0	1.6558680094801953e+18
14517.0	1.659438034950553e+18
14518.0	1.6590469983109115e+18
14519.0	1.6586555019755515e+18
14520.0	1.6582676026753021e+18
14521.0	1.6578557706764285e+18
14522.0	1.65742824694743e+18
14523.0	1.6553606949896182e+18
14524.0	1.6552544130039793e+18
14525.0	1.6563087553331195e+18
14526.0	1.6559152876748797e+18
14527.0	1.6553949859414013e+18
14528.0	1.6542194785583094e+18
14529.0	1.654744316850995e+18
14530.0	1.65433423471575e+18
14531.0	1.653983174826393e+18
14532.0	1.6510839259398147e+18
14533.0	1.6532052186759163e+18
14534.0	1.652821099282432e+18
14535.0	1.6524057793003515e+18
14536.0	1.6520343770365947e+18
14537.0	1.6516242848350205e+18
14538.0	1.651259554870067e+18
14539.0	1.6508791969284093e+18
14540.0	1.6504918831529981e+18
14541.0	1.6500573180264448e+18
14542.0	1.6497097394094077e+18
14543.0	1.6484377194135547e+18
14544.0	1.6489379019096061e+18
14545.0	1.648511908262707e+18
14546.0	1.5892774968622912e+18
14547.0	1.5940768711573253e+18
14548.0	1.6473622763798528e+18
14549.0	1.6467751140851707e+18
14550.0	1.64660048339927e+18
14551.0	1.6462374814875643e+18
14552.0	1.6458178346614784e+18
14553.0	1.6454175990743035e+18
14554.0	1.6450762129276925e+18
14555.0	1.6446868003225597e+18
14556.0	1.6442650664108032e+18
14557.0	1.643918788028006e+18
14558.0	1.6435271004323837e+18
14559.0	1.638384054933901e+18
14560.0	1.6411254251847636e+18
14561.0	1.6423692108038144e+18
14562.0	1.6418775796547584e+18
14563.0	1.6416083204374525e+18
14564.0	1.6409071972253696e+18
14565.0	1.6408473528958976e+18
14566.0	1.6404628677591037e+18
14567.0	1.6400677643223037e+18
14568.0	1.6384506453819402e+18
14569.0	1.6392842230366205e+18
14570.0	1.6374973757128707e+18
14571.0	1.6385289681371133e+18
14572.0	1.6376702716346368e+18
14573.0	1.6375826257805307e+18
14574.0	1.6364970291757053e+18
14575.0	1.636911805575987e+18
14576.0	1.6365517681983485e+18
14577.0	1.63621271240704e+18
14578.0	1.635840263245004e+18
14579.0	1.6354614068641787e+18
14580.0	1.635078624614809e+18
14581.0	1.6345942294790141e+18
14582.0	1.6342895653027837e+18
14583.0	1.6339334336610304e+18
14584.0	1.633465334235136e+18
14585.0	1.633166718245273e+18
14586.0	1.6327777552695293e+18
14587.0	1.632372216404377e+18
14588.0	1.6320078689599485e+18
14589.0	1.6316505981452285e+18
14590.0	1.6312870056755195e+18
14591.0	1.630860646285312e+18
14592.0	1.630531603136512e+18
14593.0	1.6299241286664187e+18
14594.0	1.6298120686075904e+18
14595.0	1.6294358563160056e+18
14596.0	1.6276886250323937e+18
14597.0	1.62720457718497e+18
14598.0	1.6282504554086395e+18
14599.0	1.627985576722432e+18
14600.0	1.6275575345774587e+18
14601.0	1.6272369505009661e+18
14602.0	1.6266222970601472e+18
14603.0	1.6264226549006333e+18
14604.0	1.6259109045141496e+18
14605.0	1.6252979371835384e+18
14606.0	1.6248312151670787e+18
14607.0	1.6250511342698493e+18
14608.0	1.6246668504596475e+18
14609.0	1.6241392808361984e+18
14610.0	1.6230236781805573e+18
14611.0	1.6235425521729528e+18
14612.0	1.6232241893998587e+18
14613.0	1.6228682288857085e+18
14614.0	1.6224919092199421e+18
14615.0	1.6217716935360515e+18
14616.0	1.621774007114137e+18
14617.0	1.6214081245544443e+18
14618.0	1.6206212211146755e+18
14619.0	1.6199282734399447e+18
14620.0	1.6163856216752136e+18
14621.0	1.6199526943555584e+18
14622.0	1.6195818457399296e+18
14623.0	1.619222459318272e+18
14624.0	1.6187429530632192e+18
14625.0	1.6184864529186808e+18
14626.0	1.6180829457743867e+18
14627.0	1.617683589313331e+18
14628.0	1.6173997741834235e+18
14629.0	1.617035926700032e+18
14630.0	1.6166471986053115e+18
14631.0	1.6162864800727037e+18
14632.0	1.6072841631891507e+18
14633.0	1.6144624863150044e+18
14634.0	1.6151572610285568e+18
14635.0	1.605946359729305e+18
14636.0	1.5859641284034417e+18
14637.0	1.6141245512417277e+18
14638.0	1.6136110761574397e+18
14639.0	1.6133226472931323e+18
14640.0	1.613025995915264e+18
14641.0	1.5829547421269798e+18
14642.0	1.6122977825325056e+18
14643.0	1.6119272895938557e+18
14644.0	1.6115214990704635e+18
14645.0	1.6111491841261563e+18
14646.0	1.6103624115486715e+18
14647.0	1.6100481373831165e+18
