# Flux units: erg / (cm m2 s)
# Wavelength units: Angstrom
wave	flux
14000.0	2.334307517884006e+18
14001.0	2.3339922337300475e+18
14002.0	2.3335576082055163e+18
14003.0	2.333075642410598e+18
14004.0	2.332591319416832e+18
14005.0	2.3321060636098555e+18
14006.0	2.331616274599117e+18
14007.0	2.3311278898413563e+18
14008.0	2.3305926278643707e+18
14009.0	2.330154447247769e+18
14010.0	2.329663549263053e+18
14011.0	2.3288303071526907e+18
14012.0	2.328699449901056e+18
14013.0	2.3282239466897403e+18
14014.0	2.3277359343861755e+18
14015.0	2.3272546497462267e+18
14016.0	2.326771413916057e+18
14017.0	2.326287357680025e+18
14018.0	2.325803066562969e+18
14019.0	2.3253189130190843e+18
14020.0	2.324834254480998e+18
14021.0	2.324349627819622e+18
14022.0	2.323864759566336e+18
14023.0	2.323370487683481e+18
14024.0	2.322888325595135e+18
14025.0	2.3224147500859387e+18
14026.0	2.321930843167129e+18
14027.0	2.321447852284313e+18
14028.0	2.320962764249497e+18
14029.0	2.320468826233241e+18
14030.0	2.319210016617267e+18
14031.0	2.319397626157465e+18
14032.0	2.319025641724313e+18
14033.0	2.318518080608665e+18
14034.0	2.3180679747469307e+18
14035.0	2.317587445081702e+18
14036.0	2.317102187597005e+18
14037.0	2.3166244765040635e+18
14038.0	2.3161428445757435e+18
14039.0	2.31565791592448e+18
14040.0	2.315176424924774e+18
14041.0	2.3146967022436347e+18
14042.0	2.314209481824665e+18
14043.0	2.3137120155598843e+18
14044.0	2.313248075205837e+18
14045.0	2.3127713892007936e+18
14046.0	2.312287975532134e+18
14047.0	2.3118044108685307e+18
14048.0	2.3113302531899387e+18
14049.0	2.310850565740953e+18
14050.0	2.3103701619048443e+18
14051.0	2.309884919519641e+18
14052.0	2.309405525671936e+18
14053.0	2.308929604707942e+18
14054.0	2.3084498484723707e+18
14055.0	2.307970035194265e+18
14056.0	2.307490307479961e+18
14057.0	2.307010713983385e+18
14058.0	2.306531217794662e+18
14059.0	2.3060518205915136e+18
14060.0	2.3055724552650742e+18
14061.0	2.305089355330355e+18
14062.0	2.3046134444326904e+18
14063.0	2.3041226806657021e+18
14064.0	2.3035276465012733e+18
14065.0	2.3031716994088955e+18
14066.0	2.3026991305326587e+18
14067.0	2.3022145240039421e+18
14068.0	2.3017424752214008e+18
14069.0	2.3012631417716733e+18
14070.0	2.3007856773038077e+18
14071.0	2.3003065971900408e+18
14072.0	2.299830434634137e+18
14073.0	2.2993526346219515e+18
14074.0	2.2988747222024187e+18
14075.0	2.2983833058017275e+18
14076.0	2.2979090642370555e+18
14077.0	2.2972609268285437e+18
14078.0	2.2969443189522427e+18
14079.0	2.296479526315622e+18
14080.0	2.2960107524456443e+18
14081.0	2.295534445605683e+18
14082.0	2.2950566304940027e+18
14083.0	2.2945789932208123e+18
14084.0	2.294095629883801e+18
14085.0	2.2934026922754045e+18
14086.0	2.293124296186265e+18
14087.0	2.2926728364031995e+18
14088.0	2.2921898639753213e+18
14089.0	2.2917183537414141e+18
14090.0	2.2912476504915965e+18
14091.0	2.2907732528988155e+18
14092.0	2.2902979845685243e+18
14093.0	2.2898223639166973e+18
14094.0	2.2893462718251003e+18
14095.0	2.2888682990075901e+18
14096.0	2.2883717437456381e+18
14097.0	2.2878948933238784e+18
14098.0	2.287433925892505e+18
14099.0	2.286969859709337e+18
14100.0	2.2864906051125243e+18
14101.0	2.2860238780628987e+18
14102.0	2.285549715351142e+18
14103.0	2.285067617016217e+18
14104.0	2.2846018261352443e+18
14105.0	2.2841278043521021e+18
14106.0	2.2836540140945405e+18
14107.0	2.2831798144729083e+18
14108.0	2.28269721953239e+18
14109.0	2.282229621745254e+18
14110.0	2.2817564505669627e+18
14111.0	2.281281016142233e+18
14112.0	2.2808047982215168e+18
14113.0	2.2803355831107581e+18
14114.0	2.279851531907891e+18
14115.0	2.2793795703668733e+18
14116.0	2.27882830963671e+18
14117.0	2.277003624657715e+18
14118.0	2.2779315976404984e+18
14119.0	2.277469620220723e+18
14120.0	2.2770091997265912e+18
14121.0	2.2765417210576893e+18
14122.0	2.2760765006020603e+18
14123.0	2.275599017679257e+18
14124.0	2.2751157180956667e+18
14125.0	2.274377325975961e+18
14126.0	2.2741849986826237e+18
14127.0	2.2737260092850173e+18
14128.0	2.27325571539927e+18
14129.0	2.2727769590857723e+18
14130.0	2.2722979242704893e+18
14131.0	2.271842206430003e+18
14132.0	2.2713551068069883e+18
14133.0	2.2705619202998264e+18
14134.0	2.270416191723929e+18
14135.0	2.2699451646738427e+18
14136.0	2.269476882376294e+18
14137.0	2.2690123279761403e+18
14138.0	2.2685387675664384e+18
14139.0	2.2680761190580221e+18
14140.0	2.2676012198264835e+18
14141.0	2.2671070116970493e+18
14142.0	2.2666017087946747e+18
14143.0	2.266189522796544e+18
14144.0	2.2657298119786493e+18
14145.0	2.2652628181712893e+18
14146.0	2.2647916669698043e+18
14147.0	2.2643248610672637e+18
14148.0	2.263854966479257e+18
14149.0	2.2633860231593984e+18
14150.0	2.2629206064103421e+18
14151.0	2.262446443698585e+18
14152.0	2.2619839042420733e+18
14153.0	2.261515486049075e+18
14154.0	2.261027636484505e+18
14155.0	2.2605638790021115e+18
14156.0	2.2601083239006203e+18
14157.0	2.259642412223692e+18
14158.0	2.2591724639485947e+18
14159.0	2.2587065019400187e+18
14160.0	2.25822785971159e+18
14161.0	2.2577354601660408e+18
14162.0	2.25723561321431e+18
14163.0	2.2568260041965565e+18
14164.0	2.2563315041435643e+18
14165.0	2.2558705014800381e+18
14166.0	2.2554296801296376e+18
14167.0	2.2549571850731517e+18
14168.0	2.2545012776501243e+18
14169.0	2.2540363575066621e+18
14170.0	2.2535681322516475e+18
14171.0	2.253102227285606e+18
14172.0	2.2526372316446715e+18
14173.0	2.2521532525838333e+18
14174.0	2.251699261118873e+18
14175.0	2.2512398120255483e+18
14176.0	2.2507744640630784e+18
14177.0	2.250308871153254e+18
14178.0	2.2498425299795965e+18
14179.0	2.2493741537296381e+18
14180.0	2.248912427968102e+18
14181.0	2.2484471068491773e+18
14182.0	2.2479812354375677e+18
14183.0	2.247515805266739e+18
14184.0	2.2470456053334013e+18
14185.0	2.2465716640808955e+18
14186.0	2.245866683786854e+18
14187.0	2.245608462299955e+18
14188.0	2.2451880470773755e+18
14189.0	2.2447252123418621e+18
14190.0	2.2442617484607485e+18
14191.0	2.2437965733036027e+18
14192.0	2.243326348204441e+18
14193.0	2.2428314857635837e+18
14194.0	2.242405643111628e+18
14195.0	2.2419455816499195e+18
14196.0	2.2414825522987003e+18
14197.0	2.241019187403161e+18
14198.0	2.2405527522770936e+18
14199.0	2.2400887599136765e+18
14200.0	2.239479762072371e+18
14201.0	2.239136755246694e+18
14202.0	2.2387021615988733e+18
14203.0	2.2380988092907515e+18
14204.0	2.2376136071708667e+18
14205.0	2.237149114846412e+18
14206.0	2.236611146704486e+18
14207.0	2.2362224504864765e+18
14208.0	2.2357627916779517e+18
14209.0	2.2352180069531643e+18
14210.0	2.234773232890675e+18
14211.0	2.234373056023756e+18
14212.0	2.233915850044211e+18
14213.0	2.2334542350123003e+18
14214.0	2.232992470663167e+18
14215.0	2.232524750402355e+18
14216.0	2.2320702740758523e+18
14217.0	2.2316088016502781e+18
14218.0	2.2311381017559037e+18
14219.0	2.2306859893391357e+18
14220.0	2.230224828969779e+18
14221.0	2.2296179148587003e+18
14222.0	2.2291120398532605e+18
14223.0	2.228665739064115e+18
14224.0	2.2281989851709432e+18
14225.0	2.2272819693879296e+18
14226.0	2.2272506110935032e+18
14227.0	2.2268132022288376e+18
14228.0	2.2253345758511101e+18
14229.0	2.225633822664293e+18
14230.0	2.2254366568218621e+18
14231.0	2.224970822320128e+18
14232.0	2.2245213976133627e+18
14233.0	2.224059606420684e+18
14234.0	2.223601811560857e+18
14235.0	2.2231404834193403e+18
14236.0	2.2226819067412477e+18
14237.0	2.2222208755564544e+18
14238.0	2.221759918191411e+18
14239.0	2.221286364492595e+18
14240.0	2.2199206689112061e+18
14241.0	2.2201725385441277e+18
14242.0	2.2197258418126845e+18
14243.0	2.21918505509847e+18
14244.0	2.2188188822929405e+18
14245.0	2.2183543362813947e+18
14246.0	2.2178949308088317e+18
14247.0	2.2174407782825976e+18
14248.0	2.2169769302032384e+18
14249.0	2.2165255811497981e+18
14250.0	2.2160668165668861e+18
14251.0	2.2156093471850493e+18
14252.0	2.2151501128400896e+18
14253.0	2.2146895598059515e+18
14254.0	2.2142266143408123e+18
14255.0	2.2137341141319677e+18
14256.0	2.212853295192473e+18
14257.0	2.21271999685591e+18
14258.0	2.212387306340352e+18
14259.0	2.2119219466338301e+18
14260.0	2.211463094809395e+18
14261.0	2.2110007818452984e+18
14262.0	2.2105617959223293e+18
14263.0	2.209428025219481e+18
14264.0	2.2091656413052923e+18
14265.0	2.208998335551897e+18
14266.0	2.208562985251635e+18
14267.0	2.2081101715472376e+18
14268.0	2.207654346332569e+18
14269.0	2.207190499930931e+18
14270.0	2.2067389696835581e+18
14271.0	2.2062786045542392e+18
14272.0	2.205811939580313e+18
14273.0	2.205301115296153e+18
14274.0	2.203773162225664e+18
14275.0	2.2042188221251581e+18
14276.0	2.2039643436351483e+18
14277.0	2.2035300301668347e+18
14278.0	2.2030859590696955e+18
14279.0	2.202631239473561e+18
14280.0	2.2021739546411003e+18
14281.0	2.2017227901370363e+18
14282.0	2.2012676745986043e+18
14283.0	2.2008122184826875e+18
14284.0	2.200356678480691e+18
14285.0	2.199900974061977e+18
14286.0	2.1994450582503421e+18
14287.0	2.1989885938237437e+18
14288.0	2.198522811331379e+18
14289.0	2.1972921371066358e+18
14290.0	2.1974053329829883e+18
14291.0	2.1969590573596672e+18
14292.0	2.1965051548139517e+18
14293.0	2.1960466955763704e+18
14294.0	2.1955101702750205e+18
14295.0	2.1951162462765053e+18
14296.0	2.1942121254617085e+18
14297.0	2.194196834707046e+18
14298.0	2.193570792892006e+18
14299.0	2.1932977621565437e+18
14300.0	2.1928587577786363e+18
14301.0	2.1924082912067576e+18
14302.0	2.1919564757467133e+18
14303.0	2.1914756944232445e+18
14304.0	2.191037153096499e+18
14305.0	2.1905915150073848e+18
14306.0	2.190127886709555e+18
14307.0	2.1896742039453693e+18
14308.0	2.1892251869249533e+18
14309.0	2.188766267991654e+18
14310.0	2.1882842485096445e+18
14311.0	2.1878396287975421e+18
14312.0	2.1873823003443195e+18
14313.0	2.1869162510942203e+18
14314.0	2.1865029779324923e+18
14315.0	2.186052808317337e+18
14316.0	2.1855314009653245e+18
14317.0	2.1849205744074747e+18
14318.0	2.184481912284774e+18
14319.0	2.1840323013509112e+18
14320.0	2.1835802543652861e+18
14321.0	2.1831278651244544e+18
14322.0	2.182652737722777e+18
14323.0	2.1822079888261115e+18
14324.0	2.181771558073139e+18
14325.0	2.1813117684023293e+18
14326.0	2.1808681033138168e+18
14327.0	2.1804106960076795e+18
14328.0	2.1799602277580795e+18
14329.0	2.1795123264225277e+18
14330.0	2.1790605881376763e+18
14331.0	2.178608680402943e+18
14332.0	2.1781571400892416e+18
14333.0	2.1777055041454075e+18
14334.0	2.17725368532992e+18
14335.0	2.176792946068684e+18
14336.0	2.176300237822361e+18
14337.0	2.1758962374279165e+18
14338.0	2.1754464704659453e+18
14339.0	2.1749882846969853e+18
14340.0	2.1745457134829565e+18
14341.0	2.1740940959940603e+18
14342.0	2.173644884357939e+18
14343.0	2.173193276935372e+18
14344.0	2.172739835763097e+18
14345.0	2.1722926625587195e+18
14346.0	2.171839729736089e+18
14347.0	2.1713808577789947e+18
14348.0	2.1709043647119355e+18
14349.0	2.1702614416621565e+18
14350.0	2.1697692568649725e+18
14351.0	2.169315312376217e+18
14352.0	2.1689042890391542e+18
14353.0	2.1684603437711355e+18
14354.0	2.1680060016623616e+18
14355.0	2.1675467102748667e+18
14356.0	2.16709892973527e+18
14357.0	2.1666611266060285e+18
14358.0	2.1662121716613115e+18
14359.0	2.1657496238161915e+18
14360.0	2.1653096581038075e+18
14361.0	2.1648608709312504e+18
14362.0	2.1644126021746685e+18
14363.0	2.163959593854566e+18
14364.0	2.1633917874339837e+18
14365.0	2.163009570576793e+18
14366.0	2.162591525974835e+18
14367.0	2.162166948324966e+18
14368.0	2.1617186896347133e+18
14369.0	2.1612704930201595e+18
14370.0	2.1608220430696445e+18
14371.0	2.1603737072041976e+18
14372.0	2.159921234077286e+18
14373.0	2.159476517057331e+18
14374.0	2.159028348964044e+18
14375.0	2.1585800617525243e+18
14376.0	2.1581318349389821e+18
14377.0	2.1576832776142843e+18
14378.0	2.1572339770589181e+18
14379.0	2.15678756889559e+18
14380.0	2.156338877353164e+18
14381.0	2.1558829917405176e+18
14382.0	2.1554430528716792e+18
14383.0	2.1549949434986493e+18
14384.0	2.154534333421977e+18
14385.0	2.153987324038349e+18
14386.0	2.153398509187891e+18
14387.0	2.1529623183491072e+18
14388.0	2.152513829810995e+18
14389.0	2.1520662908633083e+18
14390.0	2.1516179449315328e+18
14391.0	2.1511714864365565e+18
14392.0	2.1507234592718845e+18
14393.0	2.1502765545029627e+18
14394.0	2.1497997812563965e+18
14395.0	2.1493730762555387e+18
14396.0	2.1489341507305464e+18
14397.0	2.1484870781894656e+18
14398.0	2.1480393463037947e+18
14399.0	2.1475916311953405e+18
14400.0	2.1471324102721533e+18
14401.0	2.1466881059717117e+18
14402.0	2.1462323981975547e+18
14403.0	2.1452507045691387e+18
14404.0	2.1431364045766646e+18
14405.0	2.1438344005156846e+18
14406.0	2.1444298088120317e+18
14407.0	2.1433749883322368e+18
14408.0	2.1435237921718267e+18
14409.0	2.1431105424982008e+18
14410.0	2.142670519743283e+18
14411.0	2.1422337802895355e+18
14412.0	2.141788304939417e+18
14413.0	2.1413450995466235e+18
14414.0	2.1408979280199677e+18
14415.0	2.1404527127166973e+18
14416.0	2.1400052408778752e+18
14417.0	2.1395515228815355e+18
14418.0	2.139105364698726e+18
14419.0	2.1386673384325115e+18
14420.0	2.1382192022159357e+18
14421.0	2.1377737050554365e+18
14422.0	2.1373147005583355e+18
14423.0	2.136800943616819e+18
14424.0	2.1337943792680947e+18
14425.0	2.1359011026698235e+18
14426.0	2.135396467500646e+18
14427.0	2.134862703729049e+18
14428.0	2.1344029157359619e+18
14429.0	2.133973009642291e+18
14430.0	2.1335202060042237e+18
14431.0	2.1328669129572347e+18
14432.0	2.1326202258063355e+18
14433.0	2.1317048860671992e+18
14434.0	2.1317258458431483e+18
14435.0	2.131285219108454e+18
14436.0	2.1308608444628987e+18
14437.0	2.130419063455744e+18
14438.0	2.1299477864251387e+18
14439.0	2.1295230678466555e+18
14440.0	2.1290876185608187e+18
14441.0	2.1286402440298493e+18
14442.0	2.128193382881689e+18
14443.0	2.127723964766617e+18
14444.0	2.1273048497782776e+18
14445.0	2.1268544167608315e+18
14446.0	2.1255288405360637e+18
14447.0	2.1259296381599744e+18
14448.0	2.1255328905560061e+18
14449.0	2.1250928006922237e+18
14450.0	2.1246453422751744e+18
14451.0	2.124205572856217e+18
14452.0	2.1237610269638653e+18
14453.0	2.1233137614847995e+18
14454.0	2.122874921523609e+18
14455.0	2.1224255320489981e+18
14456.0	2.1219841922826235e+18
14457.0	2.121541674755686e+18
14458.0	2.1210977529757693e+18
14459.0	2.1206516535132157e+18
14460.0	2.120204768876953e+18
14461.0	2.1197452325421053e+18
14462.0	2.1193006228963325e+18
14463.0	2.1188698259324925e+18
14464.0	2.1184368848404475e+18
14465.0	2.117986255529574e+18
14466.0	2.117556294071091e+18
14467.0	2.1171008513769472e+18
14468.0	2.116671207007846e+18
14469.0	2.116212655495577e+18
14470.0	2.115772632740659e+18
14471.0	2.1153475165421563e+18
14472.0	2.114908297415884e+18
14473.0	2.1144707174236155e+18
14474.0	2.1140316308373501e+18
14475.0	2.113544737574092e+18
14476.0	2.112870504883814e+18
14477.0	2.112456787125862e+18
14478.0	2.1120140363956221e+18
14479.0	2.1115738844561408e+18
14480.0	2.1111189467561981e+18
14481.0	2.1106905992658936e+18
14482.0	2.1102451172048893e+18
14483.0	2.1097998951907325e+18
14484.0	2.1093515744247803e+18
14485.0	2.1088887195566072e+18
14486.0	2.1082843555823616e+18
14487.0	2.1080336905535488e+18
14488.0	2.1075821284294648e+18
14489.0	2.107137092642406e+18
14490.0	2.1067103524093947e+18
14491.0	2.1062747303182333e+18
14492.0	2.1058349491552253e+18
14493.0	2.105386021054054e+18
14494.0	2.1049357272875003e+18
14495.0	2.1045043682869243e+18
14496.0	2.1039830565650424e+18
14497.0	2.1036261682708477e+18
14498.0	2.1031887694725115e+18
14499.0	2.1027482115244027e+18
14500.0	2.1023063600529405e+18
14501.0	2.1018430186455037e+18
14502.0	2.1012823760961533e+18
14503.0	2.1009670399328253e+18
14504.0	2.100538434073395e+18
14505.0	2.100085281469235e+18
14506.0	2.09962776175575e+18
14507.0	2.099060983778508e+18
14508.0	2.0987793765302264e+18
14509.0	2.0983438634909693e+18
14510.0	2.0979023744073725e+18
14511.0	2.0974631166935035e+18
14512.0	2.0970145392361472e+18
14513.0	2.0965807039184893e+18
14514.0	2.096120650845388e+18
14515.0	2.0956846982430717e+18
14516.0	2.093772768385434e+18
14517.0	2.0947714372009976e+18
14518.0	2.0943801774243837e+18
14519.0	2.0939450989150203e+18
14520.0	2.0935066985168893e+18
14521.0	2.093067056604774e+18
14522.0	2.092623799202611e+18
14523.0	2.092143214172569e+18
14524.0	2.0917118014849021e+18
14525.0	2.0913049355419643e+18
14526.0	2.0908707630022648e+18
14527.0	2.0904095170691067e+18
14528.0	2.0899148928647165e+18
14529.0	2.0895457035157501e+18
14530.0	2.0891030534488061e+18
14531.0	2.0886733369376763e+18
14532.0	2.0879416892588024e+18
14533.0	2.0875349474672637e+18
14534.0	2.087099850502963e+18
14535.0	2.0866517327413243e+18
14536.0	2.0862175702679547e+18
14537.0	2.0857745158701048e+18
14538.0	2.0853427961593853e+18
14539.0	2.0849039125774333e+18
14540.0	2.084464475347353e+18
14541.0	2.0840059741667325e+18
14542.0	2.083581475369779e+18
14543.0	2.0831154110201853e+18
14544.0	2.0826980727390205e+18
14545.0	2.0822358654713848e+18
14546.0	2.0788373434138609e+18
14547.0	2.0785715084263404e+18
14548.0	2.0809086635343867e+18
14549.0	2.0804242751094781e+18
14550.0	2.0800609946959867e+18
14551.0	2.079635658715955e+18
14552.0	2.079197664326451e+18
14553.0	2.078756567829708e+18
14554.0	2.0783223197925373e+18
14555.0	2.0778834294996987e+18
14556.0	2.0774438395969533e+18
14557.0	2.077003414188851e+18
14558.0	2.0765461209677821e+18
14559.0	2.0750220887326705e+18
14560.0	2.0756658657427453e+18
14561.0	2.0752446838013952e+18
14562.0	2.0747922492620797e+18
14563.0	2.0743705103171576e+18
14564.0	2.0739276220137467e+18
14565.0	2.0734997157642237e+18
14566.0	2.073062828670976e+18
14567.0	2.0726233008439293e+18
14568.0	2.0721772366135293e+18
14569.0	2.071739545891635e+18
14570.0	2.0710019238461435e+18
14571.0	2.0708647566835707e+18
14572.0	2.0704067336536061e+18
14573.0	2.0699558241632256e+18
14574.0	2.069539692163891e+18
14575.0	2.0691123848609787e+18
14576.0	2.0686712313217021e+18
14577.0	2.0682427311587325e+18
14578.0	2.0678110181588987e+18
14579.0	2.0673752702386173e+18
14580.0	2.0669381885296637e+18
14581.0	2.066497125587353e+18
14582.0	2.0660580524228605e+18
14583.0	2.06562529420247e+18
14584.0	2.0651758560739325e+18
14585.0	2.064749508427776e+18
14586.0	2.064312461950976e+18
14587.0	2.0638771049398267e+18
14588.0	2.063440586945331e+18
14589.0	2.0630069630205947e+18
14590.0	2.0625735806877693e+18
14591.0	2.0621387756470267e+18
14592.0	2.0616973972930555e+18
14593.0	2.061195231730073e+18
14594.0	2.060835756389171e+18
14595.0	2.0604005419843581e+18
14596.0	2.0598202835140603e+18
14597.0	2.0591446801252347e+18
14598.0	2.058835204243456e+18
14599.0	2.058418461553459e+18
14600.0	2.0579845306056701e+18
14601.0	2.0575509838561277e+18
14602.0	2.0571160496308221e+18
14603.0	2.0566812814999552e+18
14604.0	2.0562195691601917e+18
14605.0	2.0558018366144512e+18
14606.0	2.055332086310502e+18
14607.0	2.054942593174732e+18
14608.0	2.0545123062382587e+18
14609.0	2.0540774038896635e+18
14610.0	2.0536419663478781e+18
14611.0	2.053209595681177e+18
14612.0	2.052780488182988e+18
14613.0	2.0523486241882107e+18
14614.0	2.0519138141143037e+18
14615.0	2.0514817789919227e+18
14616.0	2.0510491633778688e+18
14617.0	2.050614157010534e+18
14618.0	2.050168012249497e+18
14619.0	2.0495937801551864e+18
14620.0	2.049018328357273e+18
14621.0	2.0488722843697147e+18
14622.0	2.0484452002037752e+18
14623.0	2.0480150575513592e+18
14624.0	2.0475460722884605e+18
14625.0	2.0471453266739197e+18
14626.0	2.0467168617431037e+18
14627.0	2.0462822680952827e+18
14628.0	2.0458515516620797e+18
14629.0	2.045417877405696e+18
14630.0	2.0449830220333053e+18
14631.0	2.0445485357596672e+18
14632.0	2.0439156236746747e+18
14633.0	2.0436342127198205e+18
14634.0	2.043245976197529e+18
14635.0	2.042799812981555e+18
14636.0	2.042333502006886e+18
14637.0	2.0419509261172733e+18
14638.0	2.0415094789767165e+18
14639.0	2.0410682583285755e+18
14640.0	2.0406243835248635e+18
14641.0	2.0393967677865976e+18
14642.0	2.03975482713047e+18
14643.0	2.0393441359822845e+18
14644.0	2.038902818026291e+18
14645.0	2.038466180913561e+18
14646.0	2.0380329898409981e+18
14647.0	2.0375951883894776e+18
14648.0	2.0371706275168248e+18
14649.0	2.0367435634835456e+18
