# Flux units: erg / (cm m2 s)
# Wavelength units: Angstrom
wave	flux
14000.0	1.593043514608844e+18
14001.0	1.5933567385206784e+18
14002.0	1.5934102913941501e+18
14003.0	1.5931691927339005e+18
14004.0	1.5929040087023613e+18
14005.0	1.5926403581083643e+18
14006.0	1.5923578516013053e+18
14007.0	1.5920766302289915e+18
14008.0	1.591653814186803e+18
14009.0	1.591518400243302e+18
14010.0	1.5912177659543547e+18
14011.0	1.5904644874108923e+18
14012.0	1.5906539961319421e+18
14013.0	1.590451627674828e+18
14014.0	1.5901825899167741e+18
14015.0	1.5899173907857405e+18
14016.0	1.5896463112404987e+18
14017.0	1.589374461621043e+18
14018.0	1.5889897063710715e+18
14019.0	1.5888286618746872e+18
14020.0	1.5885549634060285e+18
14021.0	1.588280979724697e+18
14022.0	1.5880040113766397e+18
14023.0	1.587722261522022e+18
14024.0	1.587451879908966e+18
14025.0	1.5871852664586237e+18
14026.0	1.5869098063822848e+18
14027.0	1.5866307308158976e+18
14028.0	1.5863333831835648e+18
14029.0	1.5859825564975104e+18
14030.0	1.5848710357385216e+18
14031.0	1.5851275493048315e+18
14032.0	1.585214649899417e+18
14033.0	1.584944425992192e+18
14034.0	1.5847280636592125e+18
14035.0	1.5844570663223293e+18
14036.0	1.5841353195847677e+18
14037.0	1.583906745116262e+18
14038.0	1.5836535853154301e+18
14039.0	1.5833785480249341e+18
14040.0	1.5831101545119741e+18
14041.0	1.582838355224166e+18
14042.0	1.5825573133680637e+18
14043.0	1.5822652270706685e+18
14044.0	1.5819541221212157e+18
14045.0	1.5816830425759741e+18
14046.0	1.5814787380281341e+18
14047.0	1.5812038785761277e+18
14048.0	1.5809345858043904e+18
14049.0	1.580670327875174e+18
14050.0	1.5803991292116992e+18
14051.0	1.5801224007778304e+18
14052.0	1.5798523899412472e+18
14053.0	1.5795859409076224e+18
14054.0	1.5793163142692864e+18
14055.0	1.5790456088559616e+18
14056.0	1.578774863177318e+18
14057.0	1.5785041376313341e+18
14058.0	1.5782331587493885e+18
14059.0	1.5778580554317821e+18
14060.0	1.577689066923622e+18
14061.0	1.5774128720052221e+18
14062.0	1.577141418328064e+18
14063.0	1.5768328500936701e+18
14064.0	1.5763110736429053e+18
14065.0	1.5763157360312315e+18
14066.0	1.5760637338583035e+18
14067.0	1.5757952229048315e+18
14068.0	1.5755291714912256e+18
14069.0	1.5752589375176701e+18
14070.0	1.5749859302703104e+18
14071.0	1.5747173438193664e+18
14072.0	1.5744494653669376e+18
14073.0	1.574179167639961e+18
14074.0	1.5739076804083707e+18
14075.0	1.5736161511145467e+18
14076.0	1.5733409275969533e+18
14077.0	1.5728751149056e+18
14078.0	1.572757719692083e+18
14079.0	1.5725416912257021e+18
14080.0	1.5722408036007933e+18
14081.0	1.5720115899203581e+18
14082.0	1.571749019779072e+18
14083.0	1.571471408863641e+18
14084.0	1.571171148706611e+18
14085.0	1.570735712842547e+18
14086.0	1.5705709001834493e+18
14087.0	1.5703215404220413e+18
14088.0	1.5701221968969723e+18
14089.0	1.5698679180558333e+18
14090.0	1.5696020209926144e+18
14091.0	1.5693345200275453e+18
14092.0	1.5690662573768701e+18
14093.0	1.568797167609446e+18
14094.0	1.5685269084700667e+18
14095.0	1.5682541763690493e+18
14096.0	1.567974661239603e+18
14097.0	1.567693147943731e+18
14098.0	1.5674445179912187e+18
14099.0	1.567181407623577e+18
14100.0	1.5669079356473341e+18
14101.0	1.5666505412771837e+18
14102.0	1.56637914464256e+18
14103.0	1.5660992386039803e+18
14104.0	1.5658455704535037e+18
14105.0	1.565581436675686e+18
14106.0	1.5653134307164157e+18
14107.0	1.56495884928942e+18
14108.0	1.5647562744725504e+18
14109.0	1.5645051984019453e+18
14110.0	1.5642353318494205e+18
14111.0	1.5639631970172925e+18
14112.0	1.5636812475138043e+18
14113.0	1.563416971129651e+18
14114.0	1.5631144930246653e+18
14115.0	1.5627979539349496e+18
14116.0	1.5621587453607933e+18
14117.0	1.5605080166236157e+18
14118.0	1.561807180477235e+18
14119.0	1.5617347901456381e+18
14120.0	1.5615108814209021e+18
14121.0	1.5612559113584637e+18
14122.0	1.5610045232316413e+18
14123.0	1.5607340946423805e+18
14124.0	1.560417072368844e+18
14125.0	1.5599375493365757e+18
14126.0	1.5599074342338557e+18
14127.0	1.5596844063129595e+18
14128.0	1.5594265589579773e+18
14129.0	1.5591520014958587e+18
14130.0	1.5588548468015104e+18
14131.0	1.5585963501682685e+18
14132.0	1.5582923587583995e+18
14133.0	1.5577669332631547e+18
14134.0	1.5576820875263997e+18
14135.0	1.5575472893067264e+18
14136.0	1.5572954532282363e+18
14137.0	1.557031030882304e+18
14138.0	1.5567636305805307e+18
14139.0	1.5564999430766595e+18
14140.0	1.5562282293526525e+18
14141.0	1.555943605560934e+18
14142.0	1.5556669106814973e+18
14143.0	1.5554293234925563e+18
14144.0	1.555176254288691e+18
14145.0	1.554913833464627e+18
14146.0	1.5546461563387904e+18
14147.0	1.5543897887342587e+18
14148.0	1.5541260391546875e+18
14149.0	1.5538623197741053e+18
14150.0	1.5535975971160064e+18
14151.0	1.5533308880355325e+18
14152.0	1.553066888475443e+18
14153.0	1.552804138817945e+18
14154.0	1.5525139684786176e+18
14155.0	1.5522428436348925e+18
14156.0	1.5520063704530941e+18
14157.0	1.5517420202491896e+18
14158.0	1.5514766617346048e+18
14159.0	1.5512088050925563e+18
14160.0	1.550926283486003e+18
14161.0	1.5506382975401984e+18
14162.0	1.550350684048588e+18
14163.0	1.5500592302522365e+18
14164.0	1.549858321412915e+18
14165.0	1.5496119530291197e+18
14166.0	1.5493575399702525e+18
14167.0	1.5490850846932992e+18
14168.0	1.5488346058915837e+18
14169.0	1.5485713646616573e+18
14170.0	1.5483081200762877e+18
14171.0	1.5480420585963515e+18
14172.0	1.5477821258334203e+18
14173.0	1.5475118717272064e+18
14174.0	1.5472489844965373e+18
14175.0	1.5469909576253437e+18
14176.0	1.546729489747148e+18
14177.0	1.5464661293989888e+18
14178.0	1.5462020946067456e+18
14179.0	1.5459365045665792e+18
14180.0	1.5456746139025405e+18
14181.0	1.545410258665472e+18
14182.0	1.5451444605878272e+18
14183.0	1.5448767247417341e+18
14184.0	1.5445999157772285e+18
14185.0	1.5442981825806333e+18
14186.0	1.5438174113234941e+18
14187.0	1.543716358796083e+18
14188.0	1.543516424713011e+18
14189.0	1.5432802853978112e+18
14190.0	1.5430340998856704e+18
14191.0	1.542770677461811e+18
14192.0	1.5424877817233403e+18
14193.0	1.5422170796654587e+18
14194.0	1.5419829653602301e+18
14195.0	1.5417284365385725e+18
14196.0	1.5414677924216832e+18
14197.0	1.5412047491629053e+18
14198.0	1.540935726504345e+18
14199.0	1.540655867441971e+18
14200.0	1.5402415373156347e+18
14201.0	1.5400591773663224e+18
14202.0	1.539876901303091e+18
14203.0	1.5396260030709757e+18
14204.0	1.539363984900096e+18
14205.0	1.539091355140096e+18
14206.0	1.5387712492142592e+18
14207.0	1.5385627184857085e+18
14208.0	1.538308172886835e+18
14209.0	1.5379679309463547e+18
14210.0	1.5377177675563003e+18
14211.0	1.537521761019494e+18
14212.0	1.5372765670408187e+18
14213.0	1.5370181626822653e+18
14214.0	1.5367557418582013e+18
14215.0	1.536483793253171e+18
14216.0	1.5362339905732603e+18
14217.0	1.5359749386141693e+18
14218.0	1.5357008978903035e+18
14219.0	1.5354474327441405e+18
14220.0	1.5351833174212603e+18
14221.0	1.534924565774336e+18
14222.0	1.5346488439734272e+18
14223.0	1.5343803330199547e+18
14224.0	1.5340709863227387e+18
14225.0	1.5331548362440701e+18
14226.0	1.533388054645964e+18
14227.0	1.5331823240347643e+18
14228.0	1.5308083244826627e+18
14229.0	1.5317055062409203e+18
14230.0	1.532494565552947e+18
14231.0	1.5322867646332925e+18
14232.0	1.5320469259419648e+18
14233.0	1.5317928299724797e+18
14234.0	1.5315358332223488e+18
14235.0	1.5312748216844285e+18
14236.0	1.5310142010556413e+18
14237.0	1.5307459736371197e+18
14238.0	1.5304676564008952e+18
14239.0	1.530100476962406e+18
14240.0	1.5284991705481216e+18
14241.0	1.5294787234037757e+18
14242.0	1.5293863950286843e+18
14243.0	1.5290969645645827e+18
14244.0	1.5289198877605888e+18
14245.0	1.5286693351391224e+18
14246.0	1.5284135664812024e+18
14247.0	1.5281536504954875e+18
14248.0	1.5278851311534077e+18
14249.0	1.527636298196582e+18
14250.0	1.5273782746808315e+18
14251.0	1.5271149915078653e+18
14252.0	1.5268470979559421e+18
14253.0	1.5265621688188925e+18
14254.0	1.5262781473292285e+18
14255.0	1.525898775887872e+18
14256.0	1.5251947636391936e+18
14257.0	1.525146894886502e+18
14258.0	1.5251841134624765e+18
14259.0	1.524957032166195e+18
14260.0	1.5246924084936701e+18
14261.0	1.5244009614082043e+18
14262.0	1.5240333944160253e+18
14263.0	1.5230539439013885e+18
14264.0	1.5230256994582525e+18
14265.0	1.5232993022967803e+18
14266.0	1.5231627743461373e+18
14267.0	1.5229439172411384e+18
14268.0	1.5226945876787197e+18
14269.0	1.5224337757896701e+18
14270.0	1.5221726451335165e+18
14271.0	1.5218828606701568e+18
14272.0	1.521547698870681e+18
14273.0	1.5209985000603643e+18
14274.0	1.519646118877593e+18
14275.0	1.5201580655575037e+18
14276.0	1.5204365505658875e+18
14277.0	1.5203186654576637e+18
14278.0	1.5201096549007357e+18
14279.0	1.5198719502712824e+18
14280.0	1.5196236877398016e+18
14281.0	1.5193716251688957e+18
14282.0	1.5191187841351675e+18
14283.0	1.5188637234757632e+18
14284.0	1.5186071696441341e+18
14285.0	1.518348928024576e+18
14286.0	1.518087592686387e+18
14287.0	1.517816690979635e+18
14288.0	1.5174680352653307e+18
14289.0	1.516374821804441e+18
14290.0	1.516960917068185e+18
14291.0	1.516786256183296e+18
14292.0	1.5165337037176832e+18
14293.0	1.516270764477644e+18
14294.0	1.5159421877354493e+18
14295.0	1.515679666248089e+18
14296.0	1.5148039022837757e+18
14297.0	1.5150458733592573e+18
14298.0	1.514755852337152e+18
14299.0	1.5146724829954048e+18
14300.0	1.514472605954867e+18
14301.0	1.5142265110396925e+18
14302.0	1.5139735626317821e+18
14303.0	1.513682382304051e+18
14304.0	1.5134498601566205e+18
14305.0	1.5132030421434363e+18
14306.0	1.5129430154280957e+18
14307.0	1.5126828024856573e+18
14308.0	1.5124250255949821e+18
14309.0	1.5121626299367421e+18
14310.0	1.511895056829644e+18
14311.0	1.5116089297993728e+18
14312.0	1.5113404138127357e+18
14313.0	1.5109745648074747e+18
14314.0	1.5108851003031547e+18
14315.0	1.5106259107708925e+18
14316.0	1.5103561750806523e+18
14317.0	1.5101191549616128e+18
14318.0	1.5098811265318907e+18
14319.0	1.5096312785534976e+18
14320.0	1.5093782445817856e+18
14321.0	1.5091190164619264e+18
14322.0	1.5088485241192443e+18
14323.0	1.5085974530818048e+18
14324.0	1.5083489841905664e+18
14325.0	1.5080864526368765e+18
14326.0	1.5078461240508416e+18
14327.0	1.5075839917948925e+18
14328.0	1.5073350581747707e+18
14329.0	1.5070868392640512e+18
14330.0	1.5068327248396285e+18
14331.0	1.5065780081131515e+18
14332.0	1.5063233450737664e+18
14333.0	1.506068079732326e+18
14334.0	1.5058107793145853e+18
14335.0	1.505533091223961e+18
14336.0	1.5052401190895613e+18
14337.0	1.5050382422048765e+18
14338.0	1.5047922697633787e+18
14339.0	1.504530684444672e+18
14340.0	1.5042866346721277e+18
14341.0	1.5040310874734592e+18
14342.0	1.5037550586494979e+18
14343.0	1.5035245178912763e+18
14344.0	1.5032169579675643e+18
14345.0	1.5029869607911421e+18
14346.0	1.5027572320501757e+18
14347.0	1.5024964352606205e+18
14348.0	1.5022456511135741e+18
14349.0	1.5019810945499136e+18
14350.0	1.5016725263155197e+18
14351.0	1.5014132008878077e+18
14352.0	1.5012033883799547e+18
14353.0	1.5009650277613563e+18
14354.0	1.5007140037001216e+18
14355.0	1.500451462080102e+18
14356.0	1.500178070634496e+18
14357.0	1.4999319253876736e+18
14358.0	1.4997114459258877e+18
14359.0	1.4994441563537405e+18
14360.0	1.4991963249967104e+18
14361.0	1.4989471917277181e+18
14362.0	1.498689859433267e+18
14363.0	1.4984142131298301e+18
14364.0	1.4980335397765123e+18
14365.0	1.4978159896166397e+18
14366.0	1.4976271368847352e+18
14367.0	1.497426090472243e+18
14368.0	1.4971731202539515e+18
14369.0	1.496928897676083e+18
14370.0	1.4966783115001853e+18
14371.0	1.496429003748147e+18
14372.0	1.4961662943559675e+18
14373.0	1.4959167550783488e+18
14374.0	1.4956618840014848e+18
14375.0	1.4953994614996992e+18
14376.0	1.4951677496918013e+18
14377.0	1.494910276468736e+18
14378.0	1.494656868365107e+18
14379.0	1.4944017741512701e+18
14380.0	1.49415008403456e+18
14381.0	1.4938908575924221e+18
14382.0	1.4936485073518592e+18
14383.0	1.4933962249994235e+18
14384.0	1.4931276519702525e+18
14385.0	1.4928940846022653e+18
14386.0	1.4926237986193405e+18
14387.0	1.492389811820953e+18
14388.0	1.4921356822970365e+18
14389.0	1.4918851363864573e+18
14390.0	1.4916328439676925e+18
14391.0	1.4913822947016704e+18
14392.0	1.4911269739954176e+18
14393.0	1.4908763995635712e+18
14394.0	1.4905852192358397e+18
14395.0	1.4903638623256573e+18
14396.0	1.4901104424779776e+18
14397.0	1.4898688153354237e+18
14398.0	1.4896147143327741e+18
14399.0	1.4893471613583352e+18
14400.0	1.4890862790049787e+18
14401.0	1.488826299265843e+18
14402.0	1.4885406671634432e+18
14403.0	1.4880898046492672e+18
14404.0	1.4857441384595453e+18
14405.0	1.4856932447748088e+18
14406.0	1.4873981421092864e+18
14407.0	1.4872045665910781e+18
14408.0	1.4870516758216704e+18
14409.0	1.4868139225382907e+18
14410.0	1.4865764343349245e+18
14411.0	1.4863383689953277e+18
14412.0	1.4860927337758715e+18
14413.0	1.4858473418260477e+18
14414.0	1.4855969871757307e+18
14415.0	1.4853469915578365e+18
14416.0	1.4850943568838653e+18
14417.0	1.4848420594319357e+18
14418.0	1.4845907702906877e+18
14419.0	1.484341044785971e+18
14420.0	1.484087577962086e+18
14421.0	1.4838329182781437e+18
14422.0	1.483570364914073e+18
14423.0	1.4832742336299005e+18
14424.0	1.4827454493360125e+18
14425.0	1.482767526474547e+18
14426.0	1.4825774741716987e+18
14427.0	1.482335236338483e+18
14428.0	1.4820621200392187e+18
14429.0	1.4818193554014203e+18
14430.0	1.481517179286323e+18
14431.0	1.4810500546166781e+18
14432.0	1.48103822835712e+18
14433.0	1.4807527942258685e+18
14434.0	1.4805645907722237e+18
14435.0	1.4803250238717947e+18
14436.0	1.4800906226761725e+18
14437.0	1.4798434238201853e+18
14438.0	1.4795682758000637e+18
14439.0	1.479328443819622e+18
14440.0	1.4791002887815163e+18
14441.0	1.4788380894167037e+18
14442.0	1.4785813946564605e+18
14443.0	1.478302673089331e+18
14444.0	1.4780764088434685e+18
14445.0	1.4777963014782973e+18
14446.0	1.4768762775404547e+18
14447.0	1.477188489786163e+18
14448.0	1.477081798436454e+18
14449.0	1.4768498433589245e+18
14450.0	1.476599440054681e+18
14451.0	1.4763551923109883e+18
14452.0	1.476110142616371e+18
14453.0	1.475860742589644e+18
14454.0	1.4756078008926203e+18
14455.0	1.4753543793672192e+18
14456.0	1.4751018537451515e+18
14457.0	1.474851401786982e+18
14458.0	1.4746036442497021e+18
14459.0	1.4743482698563581e+18
14460.0	1.474095101666918e+18
14461.0	1.4738294864609277e+18
14462.0	1.4735690101161984e+18
14463.0	1.4733430159835136e+18
14464.0	1.473099133983129e+18
14465.0	1.472833599307776e+18
14466.0	1.472615440134963e+18
14467.0	1.4723591044071421e+18
14468.0	1.472121164896665e+18
14469.0	1.4718087731347453e+18
14470.0	1.471608748454707e+18
14471.0	1.471377617138483e+18
14472.0	1.4711394997895165e+18
14473.0	1.470900219779481e+18
14474.0	1.470658119519436e+18
14475.0	1.4704109659619325e+18
14476.0	1.4701611515379707e+18
14477.0	1.4699163618902016e+18
14478.0	1.4696681262022656e+18
14479.0	1.469421066597171e+18
14480.0	1.4691583320391675e+18
14481.0	1.4689278483234816e+18
14482.0	1.4686756330799101e+18
14483.0	1.4684227635249147e+18
14484.0	1.4681600440664064e+18
14485.0	1.467861624369971e+18
14486.0	1.4674913814118397e+18
14487.0	1.467404089556992e+18
14488.0	1.4671771642888192e+18
14489.0	1.4669205701918715e+18
14490.0	1.4666862663041021e+18
14491.0	1.466454195463782e+18
14492.0	1.4662067264946173e+18
14493.0	1.465948122487193e+18
14494.0	1.465686491870003e+18
14495.0	1.465441292858163e+18
14496.0	1.4651420158459904e+18
14497.0	1.464957672829747e+18
14498.0	1.4647220083097597e+18
14499.0	1.4644806613467136e+18
14500.0	1.4642327846911995e+18
14501.0	1.4639416362401787e+18
14502.0	1.4635507153633277e+18
14503.0	1.4634674718507003e+18
14504.0	1.4632381289857021e+18
14505.0	1.4629926279839744e+18
14506.0	1.4627110710673403e+18
14507.0	1.4623495371620347e+18
14508.0	1.4622327627055101e+18
14509.0	1.462014054917734e+18
14510.0	1.461767505340006e+18
14511.0	1.4615228180332541e+18
14512.0	1.4612679754776573e+18
14513.0	1.4610099553173501e+18
14514.0	1.4607278128758781e+18
14515.0	1.460342646584115e+18
14516.0	1.4578628398415875e+18
14517.0	1.459596513456947e+18
14518.0	1.4597388496797693e+18
14519.0	1.4594799386492925e+18
14520.0	1.4593094519357435e+18
14521.0	1.4590713832407035e+18
14522.0	1.4588270113456125e+18
14523.0	1.458576339605913e+18
14524.0	1.4583303487094781e+18
14525.0	1.4580905335062528e+18
14526.0	1.457839293018931e+18
14527.0	1.4575421920116736e+18
14528.0	1.4572561119576064e+18
14529.0	1.457103150723891e+18
14530.0	1.4568604515172347e+18
14531.0	1.4566283169234944e+18
14532.0	1.4563841933311997e+18
14533.0	1.4561369105891328e+18
14534.0	1.4558947683860477e+18
14535.0	1.4556435681640445e+18
14536.0	1.4554023268974592e+18
14537.0	1.4551461169987581e+18
14538.0	1.4549139387842557e+18
14539.0	1.4546690417623035e+18
14540.0	1.454424265536307e+18
14541.0	1.4541484816596987e+18
14542.0	1.4539310304854013e+18
14543.0	1.453670448444211e+18
14544.0	1.453426344984576e+18
14545.0	1.4531455782748157e+18
14546.0	1.4522035426295803e+18
14547.0	1.451902074512998e+18
14548.0	1.4523763630538747e+18
14549.0	1.4521216312279037e+18
14550.0	1.4519438481031165e+18
14551.0	1.4517298714902525e+18
14552.0	1.4514806576906237e+18
14553.0	1.4512380054601728e+18
14554.0	1.4510026278305787e+18
14555.0	1.450755432330035e+18
14556.0	1.4504988063563776e+18
14557.0	1.4502307685203965e+18
14558.0	1.449816911511552e+18
14559.0	1.447953456064102e+18
14560.0	1.4493155546103808e+18
14561.0	1.4492478920982525e+18
14562.0	1.449007035029913e+18
14563.0	1.4487973366071293e+18
14564.0	1.4484750127333373e+18
14565.0	1.4483218199740413e+18
14566.0	1.448080674337587e+18
14567.0	1.447834158314291e+18
14568.0	1.4475787973427197e+18
14569.0	1.4472804967645181e+18
14570.0	1.4466167951327232e+18
14571.0	1.4468114141937664e+18
14572.0	1.4465799758544893e+18
14573.0	1.4463270509346813e+18
14574.0	1.446122580292403e+18
14575.0	1.4458873486245885e+18
14576.0	1.4456305532010493e+18
14577.0	1.4454026078781437e+18
14578.0	1.4451649368031232e+18
14579.0	1.444929248795033e+18
14580.0	1.444685643618713e+18
14581.0	1.4444419998547963e+18
14582.0	1.444192269316915e+18
14583.0	1.4439568078012413e+18
14584.0	1.4437042821791741e+18
14585.0	1.4434695706050557e+18
14586.0	1.443231622705971e+18
14587.0	1.4429910927933435e+18
14588.0	1.4427475715031035e+18
14589.0	1.4425071305097213e+18
14590.0	1.4422626579513341e+18
14591.0	1.4420128435273725e+18
14592.0	1.4417497113493501e+18
14593.0	1.4414531639902208e+18
14594.0	1.4412608299859963e+18
14595.0	1.441011121258496e+18
14596.0	1.440561104316006e+18
14597.0	1.4402906455277565e+18
14598.0	1.4402589500112893e+18
14599.0	1.440063899775795e+18
14600.0	1.439830079071846e+18
14601.0	1.4395900122103808e+18
14602.0	1.4393414946652157e+18
14603.0	1.4390993927274493e+18
14604.0	1.4388199547731965e+18
14605.0	1.4385161965666301e+18
14606.0	1.4382679692673021e+18
14607.0	1.4381338840793083e+18
14608.0	1.4378314294624253e+18
14609.0	1.4375372023922685e+18
14610.0	1.4372888710742016e+18
14611.0	1.4370088073297915e+18
14612.0	1.436935066432307e+18
14613.0	1.4366957830668288e+18
14614.0	1.4363704594268157e+18
14615.0	1.4361532448112637e+18
14616.0	1.4359651269214208e+18
14617.0	1.4355281609752573e+18
14618.0	1.4352863492833275e+18
14619.0	1.434916061026713e+18
14620.0	1.4345948461268987e+18
14621.0	1.4346822369673213e+18
14622.0	1.4344980214579197e+18
14623.0	1.4342733560807421e+18
14624.0	1.4340157687726075e+18
14625.0	1.4337970324635645e+18
14626.0	1.4334962941558781e+18
14627.0	1.4332598880829437e+18
14628.0	1.4330940503359485e+18
14629.0	1.432854181445632e+18
14630.0	1.4325485643235325e+18
14631.0	1.4323051285970941e+18
14632.0	1.4319694181826557e+18
14633.0	1.4318453104050176e+18
14634.0	1.4316485086281725e+18
14635.0	1.4313824471482363e+18
14636.0	1.4310596652564475e+18
14637.0	1.430927333287526e+18
14638.0	1.4306736231940093e+18
14639.0	1.430430145524531e+18
14640.0	1.4301855370706941e+18
14641.0	1.429860835865395e+18
14642.0	1.429705448646246e+18
14643.0	1.4294800819814397e+18
14644.0	1.429227797951283e+18
14645.0	1.428915909505843e+18
14646.0	1.428675691649433e+18
14647.0	1.4285066511319037e+18
