# Flux units: erg / (cm m2 s)
# Wavelength units: Angstrom
wave	flux
14000.0	1.9918541876625403e+18
14001.0	1.9913292034080765e+18
14002.0	1.9908901453430781e+18
14003.0	1.9904091090059261e+18
14004.0	1.9899274586226688e+18
14005.0	1.989445132117606e+18
14006.0	1.9889560762712061e+18
14007.0	1.9884703574130683e+18
14008.0	1.9879029704228861e+18
14009.0	1.987515290904166e+18
14010.0	1.9870195979911168e+18
14011.0	1.9860456386592768e+18
14012.0	1.986069802883481e+18
14013.0	1.9855890903465984e+18
14014.0	1.985101037777715e+18
14015.0	1.984624370227609e+18
14016.0	1.984145650823987e+18
14017.0	1.9836602624770045e+18
14018.0	1.9831739329282043e+18
14019.0	1.9826970271416315e+18
14020.0	1.9822153633366016e+18
14021.0	1.9817348638703616e+18
14022.0	1.98125531734999e+18
14023.0	1.9807614397317115e+18
14024.0	1.9802814855249917e+18
14025.0	1.979816122463027e+18
14026.0	1.9793345760985083e+18
14027.0	1.9788550597771261e+18
14028.0	1.9783713961279483e+18
14029.0	1.9778916466032637e+18
14030.0	1.9771950968602624e+18
14031.0	1.9769217725235197e+18
14032.0	1.9764613973278712e+18
14033.0	1.9759406929412093e+18
14034.0	1.9755043745955837e+18
14035.0	1.9750232627609597e+18
14036.0	1.9745481202597883e+18
14037.0	1.9740616883699707e+18
14038.0	1.9735853781745661e+18
14039.0	1.9731036892037115e+18
14040.0	1.9726178294169592e+18
14041.0	1.9721490270257147e+18
14042.0	1.9716667105869821e+18
14043.0	1.9711628924682237e+18
14044.0	1.9707124896497661e+18
14045.0	1.9702412797280256e+18
14046.0	1.9697619546669048e+18
14047.0	1.9692830490361853e+18
14048.0	1.9688133406752768e+18
14049.0	1.9683382518611965e+18
14050.0	1.967861716851097e+18
14051.0	1.9673740770017275e+18
14052.0	1.966905291387699e+18
14053.0	1.9664328063975421e+18
14054.0	1.9659586050981883e+18
14055.0	1.9654784797638653e+18
14056.0	1.9650076691398656e+18
14057.0	1.964530610680627e+18
14058.0	1.9640569244418043e+18
14059.0	1.9635797065990141e+18
14060.0	1.9631014468911101e+18
14061.0	1.9626206773116925e+18
14062.0	1.9621523161612283e+18
14063.0	1.9616628794720248e+18
14064.0	1.9611740031418365e+18
14065.0	1.9607224141742077e+18
14066.0	1.960252387046195e+18
14067.0	1.959774722929459e+18
14068.0	1.9593081233866747e+18
14069.0	1.9588333600505853e+18
14070.0	1.9583610965196797e+18
14071.0	1.9578855597539325e+18
14072.0	1.957413799539507e+18
14073.0	1.9569417591455741e+18
14074.0	1.9564690174640125e+18
14075.0	1.955979305628467e+18
14076.0	1.955515541435187e+18
14077.0	1.9549948622143483e+18
14078.0	1.9545735460552701e+18
14079.0	1.954096873472e+18
14080.0	1.9536349832937464e+18
14081.0	1.9531628841795581e+18
14082.0	1.9526628879106045e+18
14083.0	1.952218112170393e+18
14084.0	1.9517449024045056e+18
14085.0	1.951026146338406e+18
14086.0	1.950794055365427e+18
14087.0	1.9503288332320763e+18
14088.0	1.949847451284275e+18
14089.0	1.9493765467078648e+18
14090.0	1.9489139132989435e+18
14091.0	1.948446159483699e+18
14092.0	1.9479743422267387e+18
14093.0	1.9475053871628288e+18
14094.0	1.9470354892193787e+18
14095.0	1.9465657489817597e+18
14096.0	1.9460833587232765e+18
14097.0	1.945607085437747e+18
14098.0	1.945145582813184e+18
14099.0	1.9446866471026683e+18
14100.0	1.9442048323026941e+18
14101.0	1.9437492654571512e+18
14102.0	1.9432776411381755e+18
14103.0	1.9427999736659965e+18
14104.0	1.9423400682323965e+18
14105.0	1.9418651673231355e+18
14106.0	1.9414058591584253e+18
14107.0	1.9409107668697083e+18
14108.0	1.940456721717657e+18
14109.0	1.939997111563059e+18
14110.0	1.9395047304724475e+18
14111.0	1.9390004576911355e+18
14112.0	1.938584433065984e+18
14113.0	1.9381198719549437e+18
14114.0	1.9376428705382392e+18
14115.0	1.937189640758886e+18
14116.0	1.9366472937635837e+18
14117.0	1.9358975149473795e+18
14118.0	1.935787753367142e+18
14119.0	1.9353127215955963e+18
14120.0	1.9348512978239483e+18
14121.0	1.9343671694458877e+18
14122.0	1.9339168538689533e+18
14123.0	1.9334378526081021e+18
14124.0	1.932977547876761e+18
14125.0	1.9321045773189117e+18
14126.0	1.93205810275287e+18
14127.0	1.931596135399424e+18
14128.0	1.9311295627001853e+18
14129.0	1.93065464669143e+18
14130.0	1.930177482535731e+18
14131.0	1.9297356260311037e+18
14132.0	1.9292656358129661e+18
14133.0	1.9283154716065772e+18
14134.0	1.9283410870599677e+18
14135.0	1.9278649412812792e+18
14136.0	1.927383346262835e+18
14137.0	1.9269485009567736e+18
14138.0	1.9264796331343864e+18
14139.0	1.926020791376281e+18
14140.0	1.9255069438377981e+18
14141.0	1.925093449216819e+18
14142.0	1.924577007920742e+18
14143.0	1.9240599374790653e+18
14144.0	1.923698363308441e+18
14145.0	1.9232344330207224e+18
14146.0	1.9227708164669437e+18
14147.0	1.9223089044783104e+18
14148.0	1.921845051365785e+18
14149.0	1.9213813492482045e+18
14150.0	1.9209214303928317e+18
14151.0	1.9204521632727037e+18
14152.0	1.9199964102000637e+18
14153.0	1.9195362329755645e+18
14154.0	1.9190499420143616e+18
14155.0	1.918454027046092e+18
14156.0	1.9181454890106875e+18
14157.0	1.9176886152200187e+18
14158.0	1.9172207456419837e+18
14159.0	1.916765960614707e+18
14160.0	1.9163054780448763e+18
14161.0	1.9157836797837307e+18
14162.0	1.9152870372802555e+18
14163.0	1.9149235085639677e+18
14164.0	1.9144414588829693e+18
14165.0	1.9134883351756797e+18
14166.0	1.913537487385395e+18
14167.0	1.913070213398528e+18
14168.0	1.912617431570841e+18
14169.0	1.9121639803322363e+18
14170.0	1.9116980216791037e+18
14171.0	1.9112354050473984e+18
14172.0	1.9107834503364605e+18
14173.0	1.9100939872894973e+18
14174.0	1.90986138461143e+18
14175.0	1.9094063043051515e+18
14176.0	1.9089447043727355e+18
14177.0	1.9084870437306365e+18
14178.0	1.908024480786022e+18
14179.0	1.9075191845945341e+18
14180.0	1.9071078928220155e+18
14181.0	1.906649769128755e+18
14182.0	1.906191105209139e+18
14183.0	1.905733919362252e+18
14184.0	1.905271504057139e+18
14185.0	1.9048172827443197e+18
14186.0	1.9042738435522552e+18
14187.0	1.903881773436108e+18
14188.0	1.9034428378447872e+18
14189.0	1.9029831857471483e+18
14190.0	1.9025318568263675e+18
14191.0	1.9020750618886141e+18
14192.0	1.9016097189593083e+18
14193.0	1.9011511003381755e+18
14194.0	1.9007047995490296e+18
14195.0	1.9002500665311227e+18
14196.0	1.8997936943792125e+18
14197.0	1.8993361981538296e+18
14198.0	1.8988773295521787e+18
14199.0	1.8984135838138365e+18
14200.0	1.897930242287206e+18
14201.0	1.8975149642481661e+18
14202.0	1.8970583790256125e+18
14203.0	1.8965490948898808e+18
14204.0	1.8961466698760187e+18
14205.0	1.8956922791133181e+18
14206.0	1.8951262091345915e+18
14207.0	1.8947853615366141e+18
14208.0	1.8943308013240315e+18
14209.0	1.8937449862397947e+18
14210.0	1.8933473997750262e+18
14211.0	1.8929614902525947e+18
14212.0	1.89251344966615e+18
14213.0	1.8920565658091515e+18
14214.0	1.8916061462134781e+18
14215.0	1.8911377145987064e+18
14216.0	1.8906982807240704e+18
14217.0	1.8902463176245243e+18
14218.0	1.8897819209302016e+18
14219.0	1.889336588186419e+18
14220.0	1.888881437415833e+18
14221.0	1.888427031553638e+18
14222.0	1.8879571268993021e+18
14223.0	1.8875225902940155e+18
14224.0	1.8870713704251384e+18
14225.0	1.8865077297872893e+18
14226.0	1.886167170757427e+18
14227.0	1.8857141322383355e+18
14228.0	1.8850018437890045e+18
14229.0	1.884776673417625e+18
14230.0	1.8843601773527035e+18
14231.0	1.883897381204787e+18
14232.0	1.8834573534167037e+18
14233.0	1.8829978221150203e+18
14234.0	1.8825550546075643e+18
14235.0	1.882101447340851e+18
14236.0	1.8816495815491581e+18
14237.0	1.8812003548135421e+18
14238.0	1.8807504301457403e+18
14239.0	1.8802953783607293e+18
14240.0	1.8786307362783237e+18
14241.0	1.8794012097904635e+18
14242.0	1.878951676031795e+18
14243.0	1.878361134805811e+18
14244.0	1.8780520800321533e+18
14245.0	1.87758302766039e+18
14246.0	1.877120583834009e+18
14247.0	1.8766974641242112e+18
14248.0	1.8762421237710843e+18
14249.0	1.875800554156851e+18
14250.0	1.8753540805623803e+18
14251.0	1.874906041653657e+18
14252.0	1.8744582544031741e+18
14253.0	1.8740096920453115e+18
14254.0	1.873559512363827e+18
14255.0	1.873087267287859e+18
14256.0	1.8725812698087421e+18
14257.0	1.872212719671705e+18
14258.0	1.8717695159566328e+18
14259.0	1.871302913058406e+18
14260.0	1.870869695142297e+18
14261.0	1.8704049561927675e+18
14262.0	1.8699819304353787e+18
14263.0	1.8694066547982333e+18
14264.0	1.8690638878867453e+18
14265.0	1.8686318577975293e+18
14266.0	1.8681919289950205e+18
14267.0	1.8677452020645883e+18
14268.0	1.8672953847709693e+18
14269.0	1.8668388465246203e+18
14270.0	1.866401860445798e+18
14271.0	1.8659456627769341e+18
14272.0	1.8655091850477565e+18
14273.0	1.865063152694067e+18
14274.0	1.8644243115409403e+18
14275.0	1.8641557838102525e+18
14276.0	1.8636712091582461e+18
14277.0	1.863250926475673e+18
14278.0	1.8628354840199168e+18
14279.0	1.8623896378933243e+18
14280.0	1.861937976783667e+18
14281.0	1.8615002608959483e+18
14282.0	1.8610557267476475e+18
14283.0	1.8606110382489597e+18
14284.0	1.8601665007452155e+18
14285.0	1.859722065582489e+18
14286.0	1.8592764425928704e+18
14287.0	1.8588315477344253e+18
14288.0	1.8583880688730107e+18
14289.0	1.8571649880162276e+18
14290.0	1.857489618757222e+18
14291.0	1.8570563454763003e+18
14292.0	1.8566126166343675e+18
14293.0	1.8561695572033533e+18
14294.0	1.855602009151897e+18
14295.0	1.855269503185715e+18
14296.0	1.854207637952922e+18
14297.0	1.8543992572477435e+18
14298.0	1.853818877981491e+18
14299.0	1.8534979315171323e+18
14300.0	1.8530613883568123e+18
14301.0	1.8526133762916347e+18
14302.0	1.8521819585708027e+18
14303.0	1.8517102704984061e+18
14304.0	1.8512872699068416e+18
14305.0	1.8508543288147963e+18
14306.0	1.8502991204057088e+18
14307.0	1.8499516978167805e+18
14308.0	1.84953517155287e+18
14309.0	1.8490891828199421e+18
14310.0	1.8481302474850294e+18
14311.0	1.8481286721044475e+18
14312.0	1.847736868746035e+18
14313.0	1.8472765623369725e+18
14314.0	1.846887923161497e+18
14315.0	1.8464482711830523e+18
14316.0	1.8459598813921275e+18
14317.0	1.8454774693232637e+18
14318.0	1.8451275049861117e+18
14319.0	1.8446881063436288e+18
14320.0	1.8442482865930235e+18
14321.0	1.8438053177589755e+18
14322.0	1.8433241774030843e+18
14323.0	1.842915977671475e+18
14324.0	1.8424837814878205e+18
14325.0	1.8420336655597565e+18
14326.0	1.8416063247024125e+18
14327.0	1.8411538079547387e+18
14328.0	1.8407073125498875e+18
14329.0	1.8402764400885755e+18
14330.0	1.8398375598620672e+18
14331.0	1.8393971545866237e+18
14332.0	1.8389590008135677e+18
14333.0	1.8385219962798077e+18
14334.0	1.8380843558895613e+18
14335.0	1.8376171808882683e+18
14336.0	1.8371772738961405e+18
14337.0	1.8367672303484925e+18
14338.0	1.8363302291701755e+18
14339.0	1.8358838981820413e+18
14340.0	1.8354579682885627e+18
14341.0	1.835017905268326e+18
14342.0	1.8345788723691515e+18
14343.0	1.8341210758316027e+18
14344.0	1.833692570635468e+18
14345.0	1.8332732190883837e+18
14346.0	1.8328345083117563e+18
14347.0	1.832387741116006e+18
14348.0	1.831959524487987e+18
14349.0	1.8315273937354752e+18
14350.0	1.8310823814365184e+18
14351.0	1.8306406994149376e+18
14352.0	1.8302105383075837e+18
14353.0	1.8297824407977981e+18
14354.0	1.829344458152345e+18
14355.0	1.828909659822489e+18
14356.0	1.8284752188473344e+18
14357.0	1.8280416100220925e+18
14358.0	1.8276064342048765e+18
14359.0	1.8271558116048893e+18
14360.0	1.8267353829605376e+18
14361.0	1.826301559386931e+18
14362.0	1.8258670596915192e+18
14363.0	1.8254321506320381e+18
14364.0	1.824964536067686e+18
14365.0	1.8245599551815675e+18
14366.0	1.8241230680883197e+18
14367.0	1.823694182049382e+18
14368.0	1.8232600095096827e+18
14369.0	1.822827957610086e+18
14370.0	1.82239413403648e+18
14371.0	1.821960637618585e+18
14372.0	1.8215210275831805e+18
14373.0	1.821093792422297e+18
14374.0	1.8206581518761981e+18
14375.0	1.8202255748497405e+18
14376.0	1.8197946084360187e+18
14377.0	1.8193615733915645e+18
14378.0	1.8189269629665277e+18
14379.0	1.8184968740012032e+18
14380.0	1.8180638825775104e+18
14381.0	1.8176201386360827e+18
14382.0	1.8171975524417533e+18
14383.0	1.8167308337807355e+18
14384.0	1.8163127539466237e+18
14385.0	1.8159040609648637e+18
14386.0	1.815454908048998e+18
14387.0	1.8150380462407677e+18
14388.0	1.814599434449715e+18
14389.0	1.814171848645017e+18
14390.0	1.8137391793438715e+18
14391.0	1.8133082565509112e+18
14392.0	1.812856600474419e+18
14393.0	1.8124483755769853e+18
14394.0	1.8119822659289085e+18
14395.0	1.811559419687731e+18
14396.0	1.8111552028671992e+18
14397.0	1.810724706215526e+18
14398.0	1.8102776538071037e+18
14399.0	1.8098625703837696e+18
14400.0	1.8094072015093755e+18
14401.0	1.808998797095731e+18
14402.0	1.8085706727423997e+18
14403.0	1.8009021361422203e+18
14404.0	1.7892252693037025e+18
14405.0	1.806209299723054e+18
14406.0	1.8068547745873917e+18
14407.0	1.795132470014777e+18
14408.0	1.8059727963422715e+18
14409.0	1.8055510070657016e+18
14410.0	1.8051332157997053e+18
14411.0	1.8047096615600123e+18
14412.0	1.8042751585091581e+18
14413.0	1.8038502369263613e+18
14414.0	1.8034211915038715e+18
14415.0	1.802994129148313e+18
14416.0	1.8025636576624635e+18
14417.0	1.8021132783321085e+18
14418.0	1.8016582131253243e+18
14419.0	1.8012820226441216e+18
14420.0	1.8008499657113597e+18
14421.0	1.8004274030051325e+18
14422.0	1.79999533432832e+18
14423.0	1.7995654684999675e+18
14424.0	1.7587506459442941e+18
14425.0	1.7987139778117632e+18
14426.0	1.79829138826199e+18
14427.0	1.7978658207563776e+18
14428.0	1.7974044087287803e+18
14429.0	1.7970108152414203e+18
14430.0	1.7965868130500605e+18
14431.0	1.7961091036348408e+18
14432.0	1.7956942500593661e+18
14433.0	1.7867827214024643e+18
14434.0	1.7948683312037888e+18
14435.0	1.7944405440724987e+18
14436.0	1.7940307857375232e+18
14437.0	1.7936052266205181e+18
14438.0	1.7929180066873341e+18
14439.0	1.7926928631595005e+18
14440.0	1.7923283110330363e+18
14441.0	1.791897869746176e+18
14442.0	1.7914695709097981e+18
14443.0	1.7910118230261755e+18
14444.0	1.7906251887280125e+18
14445.0	1.7902038541139963e+18
14446.0	1.7808477091004457e+18
14447.0	1.7893426611617787e+18
14448.0	1.7889316713791488e+18
14449.0	1.7885075735576576e+18
14450.0	1.7880774510379005e+18
14451.0	1.7876557976567805e+18
14452.0	1.7872295473184763e+18
14453.0	1.7866310369148925e+18
14454.0	1.7863850728620032e+18
14455.0	1.7859564904906752e+18
14456.0	1.7855031365599227e+18
14457.0	1.7850564784160765e+18
14458.0	1.7846723338567675e+18
14459.0	1.7842312356823035e+18
14460.0	1.7838471431323643e+18
14461.0	1.7834084726210555e+18
14462.0	1.7829415291453437e+18
14463.0	1.7825760039403515e+18
14464.0	1.7821566423269376e+18
14465.0	1.7817152186744827e+18
14466.0	1.7813015764140024e+18
14467.0	1.7807545670303741e+18
14468.0	1.7804494045708285e+18
14469.0	1.780024670892851e+18
14470.0	1.7795914211000315e+18
14471.0	1.7791781143838717e+18
14472.0	1.7787638446555133e+18
14473.0	1.7783538732498944e+18
14474.0	1.7779341307936765e+18
14475.0	1.7775043320741885e+18
14476.0	1.7765212677472256e+18
14477.0	1.7766704054534144e+18
14478.0	1.7762456617091072e+18
14479.0	1.775820444847308e+18
14480.0	1.7753938774196224e+18
14481.0	1.7749895800684541e+18
14482.0	1.7745660040183803e+18
14483.0	1.7741374065475584e+18
14484.0	1.7737239572250621e+18
14485.0	1.7732669508943872e+18
14486.0	1.7726169713475584e+18
14487.0	1.7724684057444347e+18
14488.0	1.772033172884684e+18
14489.0	1.771623698084659e+18
14490.0	1.771196598819225e+18
14491.0	1.7707895332274176e+18
14492.0	1.7703710557732861e+18
14493.0	1.7699440152281085e+18
14494.0	1.7695138440544253e+18
14495.0	1.7691146335551485e+18
14496.0	1.7685713956896765e+18
14497.0	1.7682746990133243e+18
14498.0	1.7678545253826555e+18
14499.0	1.7674396734849021e+18
14500.0	1.7670212480401403e+18
14501.0	1.7663324359491581e+18
14502.0	1.7657358280818688e+18
14503.0	1.7657403713519616e+18
14504.0	1.7653429828583421e+18
14505.0	1.7646803264471032e+18
14506.0	1.763924833311129e+18
14507.0	1.7638745318621187e+18
14508.0	1.7636764919267325e+18
14509.0	1.7632578500558848e+18
14510.0	1.762839265227571e+18
14511.0	1.7624245592915965e+18
14512.0	1.7619908581916672e+18
14513.0	1.7615904263110653e+18
14514.0	1.7610829323042816e+18
14515.0	1.7607490858385405e+18
14516.0	1.7584657235181583e+18
14517.0	1.759923443807027e+18
14518.0	1.7595066289750013e+18
14519.0	1.7590893057933307e+18
14520.0	1.758673992522137e+18
14521.0	1.7582514868584443e+18
14522.0	1.7578400004702205e+18
14523.0	1.7568342902570998e+18
14524.0	1.7563730225135606e+18
14525.0	1.7565895828176893e+18
14526.0	1.7561765730582523e+18
14527.0	1.755710590917017e+18
14528.0	1.7552206743994368e+18
14529.0	1.7549231254405117e+18
14530.0	1.754498903467622e+18
14531.0	1.7541001862184957e+18
14532.0	1.7526794915676157e+18
14533.0	1.7532714722787323e+18
14534.0	1.7528579592028157e+18
14535.0	1.752430901880422e+18
14536.0	1.75202407284736e+18
14537.0	1.7515994331217915e+18
14538.0	1.7511970047524861e+18
14539.0	1.7507842097414141e+18
14540.0	1.75037133923287e+18
14541.0	1.7499344554950653e+18
14542.0	1.7495407126904827e+18
14543.0	1.7487386174816253e+18
14544.0	1.7487136546619395e+18
14545.0	1.7482886642925565e+18
14546.0	1.7102426779680579e+18
14547.0	1.7137208213372687e+18
14548.0	1.7470474858528763e+18
14549.0	1.7465386496688125e+18
14550.0	1.7462263434706941e+18
14551.0	1.745822160204595e+18
14552.0	1.7453991025704952e+18
14553.0	1.7449800714682363e+18
14554.0	1.7445835369349115e+18
14555.0	1.7441665006436347e+18
14556.0	1.7437364888535035e+18
14557.0	1.7433405683662848e+18
14558.0	1.7429279277055997e+18
14559.0	1.741109908314517e+18
14560.0	1.7420771198500861e+18
14561.0	1.7416848752508923e+18
14562.0	1.7412552342372347e+18
14563.0	1.7408658082103296e+18
14564.0	1.7404489598238715e+18
14565.0	1.740044003128115e+18
14566.0	1.739632313735577e+18
14567.0	1.7392188174368763e+18
14568.0	1.7387833715064832e+18
14569.0	1.7383977035759613e+18
14570.0	1.7375899276017661e+18
14571.0	1.7375719071940603e+18
14572.0	1.737124317914726e+18
14573.0	1.736708373820211e+18
14574.0	1.7363252845477885e+18
14575.0	1.735929206354739e+18
14576.0	1.7355172351049728e+18
14577.0	1.7351008296370176e+18
14578.0	1.7346969718489088e+18
14579.0	1.734287278945075e+18
14580.0	1.733878283973427e+18
14581.0	1.73343700460503e+18
14582.0	1.733057542566707e+18
14583.0	1.7326474587537405e+18
14584.0	1.7322272029147133e+18
14585.0	1.7318268582756347e+18
14586.0	1.7314139676344315e+18
14587.0	1.730994599310131e+18
14588.0	1.730593820141158e+18
14589.0	1.7302048957530107e+18
14590.0	1.729812979987251e+18
14591.0	1.7294172759261184e+18
14592.0	1.7290215752204285e+18
14593.0	1.728530194051891e+18
14594.0	1.728242221527859e+18
14595.0	1.7278453917155325e+18
14596.0	1.727389744339353e+18
14597.0	1.7270416624058368e+18
14598.0	1.726674491355955e+18
14599.0	1.7262878537023485e+18
14600.0	1.725895674534297e+18
14601.0	1.7255039852609533e+18
14602.0	1.7250883465117693e+18
14603.0	1.72471911186432e+18
14604.0	1.7242921786933248e+18
14605.0	1.723931780605542e+18
14606.0	1.7234874628833275e+18
14607.0	1.7231558662422523e+18
14608.0	1.7227594088841213e+18
14609.0	1.7223082678681595e+18
14610.0	1.7219696197632e+18
14611.0	1.7215916441862144e+18
14612.0	1.72120315265024e+18
14613.0	1.7208143960342528e+18
14614.0	1.720420472035737e+18
14615.0	1.7200268349276157e+18
14616.0	1.71964244206551e+18
14617.0	1.7192512745635835e+18
14618.0	1.7188395583275003e+18
14619.0	1.7184571720204285e+18
14620.0	1.7180042408755197e+18
14621.0	1.7176911344041981e+18
14622.0	1.717297918404198e+18
14623.0	1.716910728780185e+18
14624.0	1.7164661426225152e+18
14625.0	1.7161267613532157e+18
14626.0	1.7157207091052541e+18
14627.0	1.715314744098816e+18
14628.0	1.7149600989183997e+18
14629.0	1.7145700739448827e+18
14630.0	1.7141793510391805e+18
14631.0	1.713782615179264e+18
14632.0	1.7095847510540308e+18
14633.0	1.712640783024126e+18
14634.0	1.7126096612884475e+18
14635.0	1.712091654678117e+18
14636.0	1.7113193641934848e+18
14637.0	1.7114510418509821e+18
14638.0	1.7110573124681723e+18
14639.0	1.710663104934707e+18
14640.0	1.7102767541714941e+18
14641.0	1.6959152492380047e+18
14642.0	1.7094972310290427e+18
14643.0	1.709112365049446e+18
14644.0	1.7087117268090875e+18
14645.0	1.7083097027706872e+18
14646.0	1.707928648574566e+18
14647.0	1.7075413700313085e+18
