# Flux units: erg / (cm m2 s)
# Wavelength units: Angstrom
wave	flux
14000.0	2.0401414429736955e+18
14001.0	2.0396994103083005e+18
14002.0	2.0393927462879227e+18
14003.0	2.0389991410565117e+18
14004.0	2.0386050526412792e+18
14005.0	2.038210637070336e+18
14006.0	2.03780934116311e+18
14007.0	2.037412766364467e+18
14008.0	2.0369379275309056e+18
14009.0	2.0366271296045053e+18
14010.0	2.036223253361459e+18
14011.0	2.0352659286392827e+18
14012.0	2.0354463810191355e+18
14013.0	2.035058872628019e+18
14014.0	2.0346602761748475e+18
14015.0	2.034270720963379e+18
14016.0	2.03387952997335e+18
14017.0	2.0334865740201981e+18
14018.0	2.0330934402285565e+18
14019.0	2.0327004792422397e+18
14020.0	2.0323068069019643e+18
14021.0	2.0319133006561277e+18
14022.0	2.0315208547303421e+18
14023.0	2.03111766467543e+18
14024.0	2.030723673568051e+18
14025.0	2.030343770288947e+18
14026.0	2.0299499771527165e+18
14027.0	2.0295592240480248e+18
14028.0	2.029160495054848e+18
14029.0	2.0287699013337083e+18
14030.0	2.0280770744549373e+18
14031.0	2.027954912834355e+18
14032.0	2.027596952476057e+18
14033.0	2.0271661907443712e+18
14034.0	2.026815192930713e+18
14035.0	2.026424431437414e+18
14036.0	2.0260331699830784e+18
14037.0	2.025641895106969e+18
14038.0	2.0252506739179515e+18
14039.0	2.0248552231927803e+18
14040.0	2.0244639097290747e+18
14041.0	2.0240755389890552e+18
14042.0	2.0236761909166077e+18
14043.0	2.023258778815692e+18
14044.0	2.0228940622725115e+18
14045.0	2.0225106542329848e+18
14046.0	2.02211878544343e+18
14047.0	2.021726262342451e+18
14048.0	2.0213421479821307e+18
14049.0	2.020952757187379e+18
14050.0	2.02056257283031e+18
14051.0	2.0201644847267837e+18
14052.0	2.0197778453954555e+18
14053.0	2.0193924962320381e+18
14054.0	2.0190028789448701e+18
14055.0	2.018613174416179e+18
14056.0	2.0182235135082493e+18
14057.0	2.0178340035952637e+18
14058.0	2.017444549047091e+18
14059.0	2.0170551850958843e+18
14060.0	2.0166658614099965e+18
14061.0	2.016270409007104e+18
14062.0	2.0158872308154365e+18
14063.0	2.0154835072450555e+18
14064.0	2.0150553308823547e+18
14065.0	2.0147127032217597e+18
14066.0	2.014332090266419e+18
14067.0	2.0139417532366845e+18
14068.0	2.0135549578772475e+18
14069.0	2.0131655016513533e+18
14070.0	2.0127779311845373e+18
14071.0	2.0123871965347837e+18
14072.0	2.0120016611442683e+18
14073.0	2.011613567228313e+18
14074.0	2.0112255907528701e+18
14075.0	2.0108200938307581e+18
14076.0	2.010447198394777e+18
14077.0	2.0099932388065275e+18
14078.0	2.00966816179159e+18
14079.0	2.0092768701382648e+18
14080.0	2.00889922003927e+18
14081.0	2.0085119314296824e+18
14082.0	2.0081231043493883e+18
14083.0	2.0077355540152317e+18
14084.0	2.0073472285736955e+18
14085.0	2.0067167793840128e+18
14086.0	2.00656455467008e+18
14087.0	2.0061886426906621e+18
14088.0	2.005791413580595e+18
14089.0	2.00541614416855e+18
14090.0	2.0050289696440317e+18
14091.0	2.0046433033912317e+18
14092.0	2.0042570197368827e+18
14093.0	2.003870702528102e+18
14094.0	2.0034843819638781e+18
14095.0	2.0030977107558397e+18
14096.0	2.0026991914778624e+18
14097.0	2.0023089299455997e+18
14098.0	2.001934762796646e+18
14099.0	2.0015541850734587e+18
14100.0	2.0011577444925435e+18
14101.0	2.0007835991539712e+18
14102.0	2.0003979211571197e+18
14103.0	1.9999990227140605e+18
14104.0	1.9996245200207864e+18
14105.0	1.9992421521686525e+18
14106.0	1.9988570563411963e+18
14107.0	1.9984715712823296e+18
14108.0	1.9980751843885056e+18
14109.0	1.9976975930097661e+18
14110.0	1.9973147721727997e+18
14111.0	1.9969230443118587e+18
14112.0	1.996539280595353e+18
14113.0	1.9961630129389565e+18
14114.0	1.9957649667784701e+18
14115.0	1.9953913700548608e+18
14116.0	1.9949881078579192e+18
14117.0	1.994080195392307e+18
14118.0	1.9942353175314427e+18
14119.0	1.993843099775795e+18
14120.0	1.9934663304806397e+18
14121.0	1.9930771812777984e+18
14122.0	1.9926996620410875e+18
14123.0	1.9923155241926648e+18
14124.0	1.9919250395234301e+18
14125.0	1.9911125021753336e+18
14126.0	1.9911661288685565e+18
14127.0	1.9907880794718205e+18
14128.0	1.990404512048742e+18
14129.0	1.9900109487603707e+18
14130.0	1.9896178954993661e+18
14131.0	1.9892559622963192e+18
14132.0	1.988860474661273e+18
14133.0	1.9879731444842483e+18
14134.0	1.9881000574124032e+18
14135.0	1.987712062482022e+18
14136.0	1.9873382023561216e+18
14137.0	1.986959220146176e+18
14138.0	1.986574350811136e+18
14139.0	1.9861961168650237e+18
14140.0	1.9858110931795963e+18
14141.0	1.9854231720689661e+18
14142.0	1.9850175560286205e+18
14143.0	1.9846653318004733e+18
14144.0	1.9842874384318464e+18
14145.0	1.983906030236467e+18
14146.0	1.983523110413926e+18
14147.0	1.983142304520601e+18
14148.0	1.982761352665497e+18
14149.0	1.9823807329992696e+18
14150.0	1.981999447277568e+18
14151.0	1.9816160610484221e+18
14152.0	1.9812373825060861e+18
14153.0	1.9808562914000893e+18
14154.0	1.9804496167174136e+18
14155.0	1.9800849941266427e+18
14156.0	1.9797124157800445e+18
14157.0	1.979333056082739e+18
14158.0	1.978948768917094e+18
14159.0	1.9785718402383864e+18
14160.0	1.9781810871336955e+18
14161.0	1.977755628679987e+18
14162.0	1.977329218958131e+18
14163.0	1.9770461789356032e+18
14164.0	1.9766455843160061e+18
14165.0	1.976253888331776e+18
14166.0	1.9759079035502587e+18
14167.0	1.9755167981240323e+18
14168.0	1.9751508870430717e+18
14169.0	1.974772604443033e+18
14170.0	1.9743904563724283e+18
14171.0	1.974010950713344e+18
14172.0	1.9736340757217275e+18
14173.0	1.9732269111443448e+18
14174.0	1.9728694406807547e+18
14175.0	1.9724969126658043e+18
14176.0	1.972118156948275e+18
14177.0	1.9717393341218808e+18
14178.0	1.9713597999415293e+18
14179.0	1.9709762979495936e+18
14180.0	1.9706032179642365e+18
14181.0	1.9702246870614016e+18
14182.0	1.9698454850699264e+18
14183.0	1.9694676973977603e+18
14184.0	1.969084307813171e+18
14185.0	1.9687083958337533e+18
14186.0	1.9682034737741821e+18
14187.0	1.9679112717139965e+18
14188.0	1.9675580442083325e+18
14189.0	1.9671835582922752e+18
14190.0	1.9668058998046715e+18
14191.0	1.9664278738960381e+18
14192.0	1.966043068314419e+18
14193.0	1.9656580144300027e+18
14194.0	1.965295126603366e+18
14195.0	1.9649195384242173e+18
14196.0	1.9645421282394107e+18
14197.0	1.96416495461335e+18
14198.0	1.9637831521533947e+18
14199.0	1.9634087199244288e+18
14200.0	1.962974508797132e+18
14201.0	1.9626512252665856e+18
14202.0	1.962278368418201e+18
14203.0	1.9618971615494144e+18
14204.0	1.9615240949858301e+18
14205.0	1.9611466898341888e+18
14206.0	1.9606533809635325e+18
14207.0	1.9603946108616701e+18
14208.0	1.9600202809737216e+18
14209.0	1.959516595394969e+18
14210.0	1.9591749072584701e+18
14211.0	1.958887468249907e+18
14212.0	1.958516809216819e+18
14213.0	1.9581420313772027e+18
14214.0	1.9577656060149752e+18
14215.0	1.9573086735040512e+18
14216.0	1.9569181217259517e+18
14217.0	1.9565424530161661e+18
14218.0	1.9561545251946493e+18
14219.0	1.9557910921084925e+18
14220.0	1.9554157320994816e+18
14221.0	1.955039831864115e+18
14222.0	1.9546542092320765e+18
14223.0	1.9542891906990075e+18
14224.0	1.9539133139517435e+18
14225.0	1.9533562147504128e+18
14226.0	1.9531586764537853e+18
14227.0	1.9527878144163837e+18
14228.0	1.951962957558579e+18
14229.0	1.95195134101422e+18
14230.0	1.9516644288102397e+18
14231.0	1.9512876762923005e+18
14232.0	1.9509162169860093e+18
14233.0	1.950470047059148e+18
14234.0	1.9500672294584312e+18
14235.0	1.9496902521257981e+18
14236.0	1.9493179204042752e+18
14237.0	1.9489418943397883e+18
14238.0	1.948567203741696e+18
14239.0	1.9481815878205435e+18
14240.0	1.946321714308711e+18
14241.0	1.947428846147993e+18
14242.0	1.947065027185868e+18
14243.0	1.9465502183129088e+18
14244.0	1.9463233635090427e+18
14245.0	1.9459403631558653e+18
14246.0	1.945565672557772e+18
14247.0	1.9451992984256512e+18
14248.0	1.9448158316658683e+18
14249.0	1.9444554990092283e+18
14250.0	1.9440821740765184e+18
14251.0	1.9437112700960763e+18
14252.0	1.943337945163366e+18
14253.0	1.9428651900600317e+18
14254.0	1.9424696638373888e+18
14255.0	1.9420650829512701e+18
14256.0	1.9415334700187645e+18
14257.0	1.9413215653920763e+18
14258.0	1.9409784713248765e+18
14259.0	1.9405864146305021e+18
14260.0	1.9402243002335232e+18
14261.0	1.9398392530599933e+18
14262.0	1.9395104917684221e+18
14263.0	1.9388578178007037e+18
14264.0	1.9386753135673336e+18
14265.0	1.9383891865370621e+18
14266.0	1.938024486771097e+18
14267.0	1.9376529251237883e+18
14268.0	1.9372809021030397e+18
14269.0	1.9368995173957635e+18
14270.0	1.9365364634746877e+18
14271.0	1.936163732455424e+18
14272.0	1.9357907967541243e+18
14273.0	1.9354100244152315e+18
14274.0	1.934592423703347e+18
14275.0	1.9346156769247232e+18
14276.0	1.9341877220212733e+18
14277.0	1.9338185863593984e+18
14278.0	1.9334574081310715e+18
14279.0	1.9330848566280187e+18
14280.0	1.9327082651713533e+18
14281.0	1.9323434899079165e+18
14282.0	1.931972392989491e+18
14283.0	1.9316010058252283e+18
14284.0	1.9312296169832443e+18
14285.0	1.9308581241225216e+18
14286.0	1.9304864014139387e+18
14287.0	1.9301146904494077e+18
14288.0	1.9297366527967232e+18
14289.0	1.9284099810197486e+18
14290.0	1.9289948800679933e+18
14291.0	1.92862988837847e+18
14292.0	1.9282606923186173e+18
14293.0	1.9278868691025915e+18
14294.0	1.9273873123966973e+18
14295.0	1.9271273108471805e+18
14296.0	1.9260052405747717e+18
14297.0	1.9263897206783997e+18
14298.0	1.9258705967054845e+18
14299.0	1.9256521103769597e+18
14300.0	1.9252894708531197e+18
14301.0	1.92484645839831e+18
14302.0	1.9244500144619515e+18
14303.0	1.9240454016991227e+18
14304.0	1.9236945850793981e+18
14305.0	1.9233395724779517e+18
14306.0	1.9229617814503421e+18
14307.0	1.922593971188531e+18
14308.0	1.9222286187888635e+18
14309.0	1.921855025420697e+18
14310.0	1.9214469750063104e+18
14311.0	1.9210892394627072e+18
14312.0	1.9207196441051133e+18
14313.0	1.9202911657525243e+18
14314.0	1.920009692721971e+18
14315.0	1.9196414026317821e+18
14316.0	1.9192250995048443e+18
14317.0	1.9188989672030205e+18
14318.0	1.9185372336488443e+18
14319.0	1.918169431775641e+18
14320.0	1.9178002273271805e+18
14321.0	1.9174286824570877e+18
14322.0	1.917025703795097e+18
14323.0	1.9166735886188541e+18
14324.0	1.9163259915468792e+18
14325.0	1.915947448899993e+18
14326.0	1.91558946169815e+18
14327.0	1.915214083234201e+18
14328.0	1.9148464558440443e+18
14329.0	1.914381804136038e+18
14330.0	1.9140101233704955e+18
14331.0	1.9136413417078781e+18
14332.0	1.9132731506032637e+18
14333.0	1.9129048085037053e+18
14334.0	1.9125364529823736e+18
14335.0	1.9121568449822715e+18
14336.0	1.911780392776499e+18
14337.0	1.9114286181777403e+18
14338.0	1.9110608867688445e+18
14339.0	1.9106839497015296e+18
14340.0	1.9103277392068603e+18
14341.0	1.9099592914108416e+18
14342.0	1.9095899460337661e+18
14343.0	1.9092225451360253e+18
14344.0	1.908852315599667e+18
14345.0	1.9084894747492347e+18
14346.0	1.9081192619900928e+18
14347.0	1.907743391953715e+18
14348.0	1.9073862167691261e+18
14349.0	1.9070199147790333e+18
14350.0	1.9066370067005437e+18
14351.0	1.906263815985561e+18
14352.0	1.905909229525401e+18
14353.0	1.9055502625341435e+18
14354.0	1.905182287855616e+18
14355.0	1.9048123569537021e+18
14356.0	1.9044467126304765e+18
14357.0	1.904084799560089e+18
14358.0	1.903718235845427e+18
14359.0	1.903335421719347e+18
14360.0	1.9029835061919747e+18
14361.0	1.9025204516749312e+18
14362.0	1.90214470411223e+18
14363.0	1.9017773015367677e+18
14364.0	1.901362835514982e+18
14365.0	1.9010300493692928e+18
14366.0	1.9006694499549181e+18
14367.0	1.9003120935763963e+18
14368.0	1.8999453889331197e+18
14369.0	1.8995796741455872e+18
14370.0	1.8992135466385403e+18
14371.0	1.8988474845626363e+18
14372.0	1.8984759329816573e+18
14373.0	1.8981151003639805e+18
14374.0	1.897749179216691e+18
14375.0	1.8973819695792125e+18
14376.0	1.8970177680965627e+18
14377.0	1.896651357054566e+18
14378.0	1.896283664233267e+18
14379.0	1.8959205566251005e+18
14380.0	1.8955540549861373e+18
14381.0	1.895177114563379e+18
14382.0	1.8948223536201725e+18
14383.0	1.8944558184267773e+18
14384.0	1.8940738582609917e+18
14385.0	1.893728014408089e+18
14386.0	1.8933438463606781e+18
14387.0	1.8929972643102717e+18
14388.0	1.8926307492495355e+18
14389.0	1.8922668178800635e+18
14390.0	1.891900376639078e+18
14391.0	1.8915375508881403e+18
14392.0	1.8911718008684541e+18
14393.0	1.8908080641146877e+18
14394.0	1.8904036459675643e+18
14395.0	1.8900677812027387e+18
14396.0	1.8897137886560253e+18
14397.0	1.8893288538898427e+18
14398.0	1.888877092116889e+18
14399.0	1.8885119678873597e+18
14400.0	1.8881284172414973e+18
14401.0	1.8877730573516797e+18
14402.0	1.8874065590681597e+18
14403.0	1.886398223220735e+18
14404.0	1.8832812530466796e+18
14405.0	1.8847057963909082e+18
14406.0	1.8859383026876416e+18
14407.0	1.8847310041579517e+18
14408.0	1.8852024254726141e+18
14409.0	1.8848448811892733e+18
14410.0	1.8844975894626307e+18
14411.0	1.8841373222371325e+18
14412.0	1.8837712433840125e+18
14413.0	1.8834110684332027e+18
14414.0	1.8830446607466493e+18
14415.0	1.8826818098298877e+18
14416.0	1.8823185696817147e+18
14417.0	1.881951289579929e+18
14418.0	1.8815833182568443e+18
14419.0	1.8812249854443517e+18
14420.0	1.8808571500167165e+18
14421.0	1.880496735151718e+18
14422.0	1.8801243027668987e+18
14423.0	1.879723510176153e+18
14424.0	1.8758967362584556e+18
14425.0	1.8789919732269053e+18
14426.0	1.8786752495878144e+18
14427.0	1.878317539210035e+18
14428.0	1.87793162633216e+18
14429.0	1.8775893073723387e+18
14430.0	1.8772288019103741e+18
14431.0	1.8767820397477883e+18
14432.0	1.8764932065525755e+18
14433.0	1.8754797318438902e+18
14434.0	1.8757550979678205e+18
14435.0	1.8753974932865024e+18
14436.0	1.8750528204832765e+18
14437.0	1.8746907698397181e+18
14438.0	1.874279358948966e+18
14439.0	1.8738544306552832e+18
14440.0	1.8734980020568061e+18
14441.0	1.8731281818845181e+18
14442.0	1.8727596686573563e+18
14443.0	1.8723567537487872e+18
14444.0	1.872039947901337e+18
14445.0	1.87167673459671e+18
14446.0	1.869984990599578e+18
14447.0	1.8709237714649083e+18
14448.0	1.8705949480976384e+18
14449.0	1.8702346221518843e+18
14450.0	1.8698664042037245e+18
14451.0	1.869506017859993e+18
14452.0	1.8691458915631104e+18
14453.0	1.8687763582812155e+18
14454.0	1.86842262578135e+18
14455.0	1.8680516563697661e+18
14456.0	1.8676960699875325e+18
14457.0	1.8673328835264507e+18
14458.0	1.8669721415057403e+18
14459.0	1.8666077017866237e+18
14460.0	1.866243983487795e+18
14461.0	1.865861402565017e+18
14462.0	1.8654985600368637e+18
14463.0	1.865152642364211e+18
14464.0	1.864798606196736e+18
14465.0	1.8644163759177725e+18
14466.0	1.8640748605865981e+18
14467.0	1.8636908955435005e+18
14468.0	1.8633497593774077e+18
14469.0	1.8629699148185597e+18
14470.0	1.8626020374478843e+18
14471.0	1.8622616747114493e+18
14472.0	1.8619041673379835e+18
14473.0	1.8615476347207677e+18
14474.0	1.861188312052531e+18
14475.0	1.8608033923858432e+18
14476.0	1.860404587895193e+18
14477.0	1.8600839216103421e+18
14478.0	1.859720314041139e+18
14479.0	1.8593593908264952e+18
14480.0	1.8589824604700672e+18
14481.0	1.8586404116234237e+18
14482.0	1.8582747270348797e+18
14483.0	1.857907485520691e+18
14484.0	1.8575418579746813e+18
14485.0	1.8571519454085123e+18
14486.0	1.856526433753497e+18
14487.0	1.8564708827135997e+18
14488.0	1.856007254415769e+18
14489.0	1.8556187914010621e+18
14490.0	1.8552625674846205e+18
14491.0	1.8549028941725693e+18
14492.0	1.8545438047076347e+18
14493.0	1.8541752445042683e+18
14494.0	1.853799052345344e+18
14495.0	1.8534564129406968e+18
14496.0	1.8529615991537661e+18
14497.0	1.8527363717398525e+18
14498.0	1.8523783342063613e+18
14499.0	1.8520177851236347e+18
14500.0	1.8516562562514936e+18
14501.0	1.8512678620233725e+18
14502.0	1.8507127710547965e+18
14503.0	1.850555164209971e+18
14504.0	1.8502067282771965e+18
14505.0	1.8498318833287163e+18
14506.0	1.849450815710822e+18
14507.0	1.8488783469019133e+18
14508.0	1.848769773148569e+18
14509.0	1.848412109746995e+18
14510.0	1.8480486766608384e+18
14511.0	1.8476906810703864e+18
14512.0	1.8473152640188413e+18
14513.0	1.8469684068220925e+18
14514.0	1.8465754357694467e+18
14515.0	1.846236599759667e+18
14516.0	1.843429221230184e+18
14517.0	1.8454933825126392e+18
14518.0	1.8451661143932925e+18
14519.0	1.8448091204026363e+18
14520.0	1.8444499151749115e+18
14521.0	1.8440897737785344e+18
14522.0	1.8437290753785853e+18
14523.0	1.843323219424051e+18
14524.0	1.842964539323187e+18
14525.0	1.842643758953267e+18
14526.0	1.842287123995033e+18
14527.0	1.8419041689403387e+18
14528.0	1.8414370442706944e+18
14529.0	1.841197965587251e+18
14530.0	1.8408315058913277e+18
14531.0	1.8404876753043453e+18
14532.0	1.8400757510307837e+18
14533.0	1.839769259815731e+18
14534.0	1.8394125443268605e+18
14535.0	1.8390407930970107e+18
14536.0	1.8386884514283517e+18
14537.0	1.838318416507699e+18
14538.0	1.8379736900173821e+18
14539.0	1.837614310306611e+18
14540.0	1.837254489355059e+18
14541.0	1.8368693700395005e+18
14542.0	1.8365312302841853e+18
14543.0	1.836134660518707e+18
14544.0	1.8357509051908093e+18
14545.0	1.8353329427972093e+18
14546.0	1.8306437193138148e+18
14547.0	1.8305644503236575e+18
14548.0	1.8342419372179453e+18
14549.0	1.8337859224207352e+18
14550.0	1.8335434480287741e+18
14551.0	1.8331972803756027e+18
14552.0	1.8328373403058176e+18
14553.0	1.8324714208362493e+18
14554.0	1.8321197066354685e+18
14555.0	1.8317597212671997e+18
14556.0	1.831398880260915e+18
14557.0	1.8310384955949053e+18
14558.0	1.8306662276268032e+18
14559.0	1.8285033861152735e+18
14560.0	1.829944778817536e+18
14561.0	1.8295928985223165e+18
14562.0	1.8292156695314427e+18
14563.0	1.8288813163937787e+18
14564.0	1.8285182003970043e+18
14565.0	1.8281643471011835e+18
14566.0	1.8278049908785147e+18
14567.0	1.8274446380892155e+18
14568.0	1.8270774871719933e+18
14569.0	1.82672017105879e+18
14570.0	1.8258613520826365e+18
14571.0	1.8259997104275453e+18
14572.0	1.8256073953640443e+18
14573.0	1.8252352884572155e+18
14574.0	1.8249163804246013e+18
14575.0	1.824564651124326e+18
14576.0	1.824203513161318e+18
14577.0	1.8238419037585403e+18
14578.0	1.8234883004432384e+18
14579.0	1.8231310111735805e+18
14580.0	1.8227716549509117e+18
14581.0	1.8224087352475645e+18
14582.0	1.8220520768012288e+18
14583.0	1.821692739033497e+18
14584.0	1.8213215649398781e+18
14585.0	1.8209732800020472e+18
14586.0	1.8206108652929021e+18
14587.0	1.8202539400888315e+18
14588.0	1.8198951492583421e+18
14589.0	1.8195390645927933e+18
14590.0	1.8191829547614203e+18
14591.0	1.818825846685696e+18
14592.0	1.8184592326393853e+18
14593.0	1.8179917506150397e+18
14594.0	1.8177554703712253e+18
14595.0	1.8173925154357243e+18
14596.0	1.8169981350969341e+18
14597.0	1.8166341936611323e+18
14598.0	1.8163262763827197e+18
14599.0	1.815976998233702e+18
14600.0	1.815620482393702e+18
14601.0	1.8152643658514432e+18
14602.0	1.8149068081463293e+18
14603.0	1.8145508107223037e+18
14604.0	1.814151791483289e+18
14605.0	1.8138308836065277e+18
14606.0	1.8134077152428027e+18
14607.0	1.8131192125587453e+18
14608.0	1.8127672332779517e+18
14609.0	1.8123432461860861e+18
14610.0	1.8119536255434747e+18
14611.0	1.8115984049045504e+18
14612.0	1.8112468366655485e+18
14613.0	1.8108911445868544e+18
14614.0	1.810530983057817e+18
14615.0	1.8101775575810043e+18
14616.0	1.8098213319868408e+18
14617.0	1.8094640762716155e+18
14618.0	1.8091023645278203e+18
14619.0	1.8087054525071355e+18
14620.0	1.8082750615519227e+18
14621.0	1.808035556727193e+18
14622.0	1.8076762474807293e+18
14623.0	1.8073219948871675e+18
14624.0	1.8069051112685565e+18
14625.0	1.806603025750425e+18
14626.0	1.806250001249075e+18
14627.0	1.8058900796342264e+18
14628.0	1.8055369746022392e+18
14629.0	1.805179640034099e+18
14630.0	1.8048212266909693e+18
14631.0	1.8044631421812733e+18
14632.0	1.8038215680196603e+18
14633.0	1.8037034899734525e+18
14634.0	1.803389167153971e+18
14635.0	1.8030231436656635e+18
14636.0	1.8026428092121085e+18
14637.0	1.8023193998524413e+18
14638.0	1.801958471604633e+18
14639.0	1.8015906378547197e+18
14640.0	1.8012296710193147e+18
14641.0	1.79977716844462e+18
14642.0	1.8005118628659197e+18
14643.0	1.8001695673942013e+18
14644.0	1.7998004250214397e+18
14645.0	1.7994320376233981e+18
14646.0	1.799088878125056e+18
14647.0	1.798727414684057e+18
