# Flux units: erg / (cm m2 s)
# Wavelength units: Angstrom
wave	flux
14000.0	1.379489023210291e+18
14001.0	1.3790640663953408e+18
14002.0	1.3789688473059325e+18
14003.0	1.3787071831343101e+18
14004.0	1.3784456800239613e+18
14005.0	1.3781840343072765e+18
14006.0	1.3779149546061821e+18
14007.0	1.377653306372915e+18
14008.0	1.377314641490739e+18
14009.0	1.3771379522404347e+18
14010.0	1.376866199089971e+18
14011.0	1.3760074606444547e+18
14012.0	1.3763540074627072e+18
14013.0	1.37609282060288e+18
14014.0	1.3758262667116541e+18
14015.0	1.3755686047449085e+18
14016.0	1.3753096911978493e+18
14017.0	1.375047776206848e+18
14018.0	1.374787619468083e+18
14019.0	1.3745270013558784e+18
14020.0	1.3742655427051517e+18
14021.0	1.3740043818500093e+18
14022.0	1.3737436764962813e+18
14023.0	1.3734727898890237e+18
14024.0	1.3732114344181757e+18
14025.0	1.3729629453942784e+18
14026.0	1.3727010538913792e+18
14027.0	1.3724413727866877e+18
14028.0	1.3721772197150717e+18
14029.0	1.3719190905028605e+18
14030.0	1.371353957531648e+18
14031.0	1.371387431433011e+18
14032.0	1.3711410991202304e+18
14033.0	1.370846588515123e+18
14034.0	1.3706212260446208e+18
14035.0	1.3703603101368317e+18
14036.0	1.3701015677173757e+18
14037.0	1.3698404773265403e+18
14038.0	1.3695820385746944e+18
14039.0	1.3693191253393405e+18
14040.0	1.3690528616939517e+18
14041.0	1.3688001590722555e+18
14042.0	1.368535157912371e+18
14043.0	1.3682423669719037e+18
14044.0	1.368012060255846e+18
14045.0	1.3677618566004733e+18
14046.0	1.3675028021247997e+18
14047.0	1.3672388352802813e+18
14048.0	1.366986615842406e+18
14049.0	1.3667286778904573e+18
14050.0	1.366469626770227e+18
14051.0	1.3662014169677821e+18
14052.0	1.3659489098006523e+18
14053.0	1.3656920455905277e+18
14054.0	1.3654339952312317e+18
14055.0	1.3651747729833981e+18
14056.0	1.364916484387635e+18
14057.0	1.3646578677972987e+18
14058.0	1.3643992713396221e+18
14059.0	1.364140739474227e+18
14060.0	1.3638822587793403e+18
14061.0	1.3636170185441275e+18
14062.0	1.3633650415370237e+18
14063.0	1.3630941004038144e+18
14064.0	1.362784533086208e+18
14065.0	1.362582535405568e+18
14066.0	1.3623309778288637e+18
14067.0	1.3620709653741565e+18
14068.0	1.3618164751400957e+18
14069.0	1.361557266314035e+18
14070.0	1.3613005237387264e+18
14071.0	1.361039910659686e+18
14072.0	1.3607840774094845e+18
14073.0	1.3605271486070781e+18
14074.0	1.3602695403274237e+18
14075.0	1.3599956237549565e+18
14076.0	1.3597470097408e+18
14077.0	1.3594241682898944e+18
14078.0	1.3592310071689213e+18
14079.0	1.3589706843357181e+18
14080.0	1.3587217792368637e+18
14081.0	1.358464369767219e+18
14082.0	1.3582023121698813e+18
14083.0	1.3579487832702973e+18
14084.0	1.357692911432499e+18
14085.0	1.357204543451955e+18
14086.0	1.357172603826995e+18
14087.0	1.3569219262152701e+18
14088.0	1.3566556038496253e+18
14089.0	1.356404769370931e+18
14090.0	1.3561485527613437e+18
14091.0	1.3558946841231357e+18
14092.0	1.355637732671488e+18
14093.0	1.3553784970018813e+18
14094.0	1.355122029572915e+18
14095.0	1.3548655294283773e+18
14096.0	1.3545956091887613e+18
14097.0	1.3543395410575357e+18
14098.0	1.3540904774139901e+18
14099.0	1.3538400271335421e+18
14100.0	1.353572083249971e+18
14101.0	1.3533276710895613e+18
14102.0	1.3530698849714176e+18
14103.0	1.3528000595230717e+18
14104.0	1.3525571598286845e+18
14105.0	1.352303025271603e+18
14106.0	1.3520475275657216e+18
14107.0	1.3517901038354427e+18
14108.0	1.3515270991642621e+18
14109.0	1.351276092719104e+18
14110.0	1.3510189399408637e+18
14111.0	1.3507519062212605e+18
14112.0	1.3505062240255997e+18
14113.0	1.3502530659024893e+18
14114.0	1.349989329744691e+18
14115.0	1.3497429311619067e+18
14116.0	1.3494646181199867e+18
14117.0	1.3487150146256896e+18
14118.0	1.3489780713062397e+18
14119.0	1.3487129711607805e+18
14120.0	1.3484614060343293e+18
14121.0	1.34820348821504e+18
14122.0	1.3479440587685885e+18
14123.0	1.34769549508608e+18
14124.0	1.3474378750623744e+18
14125.0	1.3467879903068157e+18
14126.0	1.3469369854066685e+18
14127.0	1.3466840067997693e+18
14128.0	1.3464280561090557e+18
14129.0	1.3461657409814525e+18
14130.0	1.3459019033214973e+18
14131.0	1.3456656742481917e+18
14132.0	1.3454064536780797e+18
14133.0	1.3446837759377388e+18
14134.0	1.3449022421336064e+18
14135.0	1.344634632116633e+18
14136.0	1.3443727884288e+18
14137.0	1.3441367791370237e+18
14138.0	1.3438761786408957e+18
14139.0	1.3436284018098173e+18
14140.0	1.3433649441538045e+18
14141.0	1.3431204674011136e+18
14142.0	1.3428256749387776e+18
14143.0	1.3426054706233341e+18
14144.0	1.342359388291072e+18
14145.0	1.342103753012019e+18
14146.0	1.3418495672844285e+18
14147.0	1.3415974829031421e+18
14148.0	1.3413432980144125e+18
14149.0	1.341089511584563e+18
14150.0	1.3408378181124093e+18
14151.0	1.3405787611201536e+18
14152.0	1.3403296018464765e+18
14153.0	1.3400776936259581e+18
14154.0	1.3398046108811261e+18
14155.0	1.339411295056691e+18
14156.0	1.3393140593459197e+18
14157.0	1.3390651718631421e+18
14158.0	1.338808422576947e+18
14159.0	1.3385583632056317e+18
14160.0	1.3383036187967485e+18
14161.0	1.3379930658177021e+18
14162.0	1.3377065654943741e+18
14163.0	1.3375435010211837e+18
14164.0	1.3372697564151803e+18
14165.0	1.3369337188450304e+18
14166.0	1.3367852899762173e+18
14167.0	1.336523479003955e+18
14168.0	1.3362780987981821e+18
14169.0	1.3360298614325245e+18
14170.0	1.3357740374097917e+18
14171.0	1.3355205127045117e+18
14172.0	1.3352729028067325e+18
14173.0	1.3349624026759165e+18
14174.0	1.3347660522061821e+18
14175.0	1.3345164735021053e+18
14176.0	1.3342639680126973e+18
14177.0	1.334012349199155e+18
14178.0	1.3337595534639101e+18
14179.0	1.3334963877314557e+18
14180.0	1.3330778347798523e+18
14181.0	1.332711599059763e+18
14182.0	1.3324591380299773e+18
14183.0	1.3322082582527997e+18
14184.0	1.3319522438086653e+18
14185.0	1.3317050650853373e+18
14186.0	1.331351071699763e+18
14187.0	1.3311805388488701e+18
14188.0	1.3309446360924157e+18
14189.0	1.3306948384456701e+18
14190.0	1.330444439335731e+18
14191.0	1.330193066308403e+18
14192.0	1.3299344010641408e+18
14193.0	1.3296773237833725e+18
14194.0	1.3294392139841536e+18
14195.0	1.3291897585926141e+18
14196.0	1.328938474484531e+18
14197.0	1.3286863179612157e+18
14198.0	1.3284313621594112e+18
14199.0	1.3281823303925757e+18
14200.0	1.327875655467008e+18
14201.0	1.3276841586458621e+18
14202.0	1.3274322445533181e+18
14203.0	1.3271695527772157e+18
14204.0	1.3269300840235005e+18
14205.0	1.3266797344063485e+18
14206.0	1.3263229836853245e+18
14207.0	1.326181130646323e+18
14208.0	1.3259309144080381e+18
14209.0	1.3255538263457787e+18
14210.0	1.3253606702579704e+18
14211.0	1.3251746411315197e+18
14212.0	1.3249295427829757e+18
14213.0	1.3246795127717885e+18
14214.0	1.3244294315900925e+18
14215.0	1.3241670652919805e+18
14216.0	1.3239294445486077e+18
14217.0	1.323680738259763e+18
14218.0	1.3234217752199168e+18
14219.0	1.3231798645424123e+18
14220.0	1.3229283438755837e+18
14221.0	1.322678030329446e+18
14222.0	1.3224174071840765e+18
14223.0	1.3221800615870461e+18
14224.0	1.3219307748065277e+18
14225.0	1.3214945596407808e+18
14226.0	1.3214319890137085e+18
14227.0	1.3211817937469437e+18
14228.0	1.3203490272706563e+18
14229.0	1.3206320647766008e+18
14230.0	1.3204351724027901e+18
14231.0	1.320179857568563e+18
14232.0	1.319937047632281e+18
14233.0	1.3196817579638781e+18
14234.0	1.3194390923116544e+18
14235.0	1.319187837563699e+18
14236.0	1.318941233460019e+18
14237.0	1.3186652214132733e+18
14238.0	1.3183840864436221e+18
14239.0	1.3181301339193341e+18
14240.0	1.3163271771127818e+18
14241.0	1.3176371085836285e+18
14242.0	1.3173896614248445e+18
14243.0	1.3170069412511744e+18
14244.0	1.3168931841769472e+18
14245.0	1.3166291854557181e+18
14246.0	1.3163702182215677e+18
14247.0	1.316144429609779e+18
14248.0	1.3158828736512e+18
14249.0	1.3156481327169533e+18
14250.0	1.315401690513408e+18
14251.0	1.315154754220851e+18
14252.0	1.3149077231370237e+18
14253.0	1.314659242501734e+18
14254.0	1.314409669669683e+18
14255.0	1.3141317106270205e+18
14256.0	1.313737877225472e+18
14257.0	1.3136582382977021e+18
14258.0	1.313418215895859e+18
14259.0	1.3131551432769533e+18
14260.0	1.3129120607109117e+18
14261.0	1.3126599587135485e+18
14262.0	1.3124405857091581e+18
14263.0	1.3119305365323776e+18
14264.0	1.3119051651874813e+18
14265.0	1.3116943384969216e+18
14266.0	1.311449518650163e+18
14267.0	1.3112042021978112e+18
14268.0	1.3109557962211325e+18
14269.0	1.3107025475010557e+18
14270.0	1.3104629319467003e+18
14271.0	1.3102130705465341e+18
14272.0	1.3099689419210752e+18
14273.0	1.3097217103495165e+18
14274.0	1.3090932073168896e+18
14275.0	1.3091945551233021e+18
14276.0	1.3089656157503485e+18
14277.0	1.308717147697971e+18
14278.0	1.3084881529602045e+18
14279.0	1.308241438126899e+18
14280.0	1.3079878152749056e+18
14281.0	1.307748456411955e+18
14282.0	1.3075023287812093e+18
14283.0	1.3072559452979197e+18
14284.0	1.3070096146628608e+18
14285.0	1.3067633049993213e+18
14286.0	1.3065160658780157e+18
14287.0	1.3062702754693117e+18
14288.0	1.3060238533984253e+18
14289.0	1.3047738325270487e+18
14290.0	1.30553026183168e+18
14291.0	1.3052858563821563e+18
14292.0	1.3050390341746685e+18
14293.0	1.3047928696340475e+18
14294.0	1.3044287310659584e+18
14295.0	1.3042917090263037e+18
14296.0	1.3032455078412296e+18
14297.0	1.3038093196066813e+18
14298.0	1.3033961764683776e+18
14299.0	1.3033056088621053e+18
14300.0	1.3030644699365373e+18
14301.0	1.3028234174136317e+18
14302.0	1.3025771178164221e+18
14303.0	1.3023082293755904e+18
14304.0	1.3020745613443067e+18
14305.0	1.301843723629363e+18
14306.0	1.3015744308576253e+18
14307.0	1.301348433369497e+18
14308.0	1.3011104812761085e+18
14309.0	1.300864400621568e+18
14310.0	1.3005137492574205e+18
14311.0	1.3002823151124477e+18
14312.0	1.3001045017886717e+18
14313.0	1.299721737155379e+18
14314.0	1.2996390565183485e+18
14315.0	1.2993950562385917e+18
14316.0	1.2991061735505917e+18
14317.0	1.298896516231987e+18
14318.0	1.2986622593204221e+18
14319.0	1.2984181046902781e+18
14320.0	1.2981731699195901e+18
14321.0	1.2979259660304384e+18
14322.0	1.297643652461363e+18
14323.0	1.2974300415918075e+18
14324.0	1.2971960489213952e+18
14325.0	1.2969449669787648e+18
14326.0	1.2967079040778237e+18
14327.0	1.2964585829040125e+18
14328.0	1.2962121046294528e+18
14329.0	1.2959756968787965e+18
14330.0	1.2957317267980285e+18
14331.0	1.295487503381299e+18
14332.0	1.2952431499411453e+18
14333.0	1.2949998954086397e+18
14334.0	1.294756360696627e+18
14335.0	1.294493725963059e+18
14336.0	1.2942459801698301e+18
14337.0	1.2940228599742461e+18
14338.0	1.293779498906419e+18
14339.0	1.293529392558899e+18
14340.0	1.2932948395294717e+18
14341.0	1.2930487244816381e+18
14342.0	1.2928058012991485e+18
14343.0	1.292559757554483e+18
14344.0	1.292316261430067e+18
14345.0	1.2920767758991357e+18
14346.0	1.2918304536526845e+18
14347.0	1.2915738461339645e+18
14348.0	1.2913463353409536e+18
14349.0	1.2911034247413757e+18
14350.0	1.2908464858726397e+18
14351.0	1.2905983575588861e+18
14352.0	1.290365083792179e+18
14353.0	1.2901298680627197e+18
14354.0	1.2898862813413373e+18
14355.0	1.2896410479362045e+18
14356.0	1.2894004534312957e+18
14357.0	1.2891611331559421e+18
14358.0	1.2889185698447355e+18
14359.0	1.2886647951589373e+18
14360.0	1.2884318904909821e+18
14361.0	1.2881908841054208e+18
14362.0	1.2879488341770237e+18
14363.0	1.2877062574440445e+18
14364.0	1.287418128053043e+18
14365.0	1.2872178206769147e+18
14366.0	1.2869697326284797e+18
14367.0	1.2867368606760957e+18
14368.0	1.2864942512275453e+18
14369.0	1.2862537481584637e+18
14370.0	1.2860118139928573e+18
14371.0	1.2857699586801661e+18
14372.0	1.2855232597852157e+18
14373.0	1.2852855081795581e+18
14374.0	1.2850441628942336e+18
14375.0	1.284797808771072e+18
14376.0	1.2845605051170816e+18
14377.0	1.284318883846553e+18
14378.0	1.2840754883854333e+18
14379.0	1.2838362570293245e+18
14380.0	1.2835946198204413e+18
14381.0	1.2833431243194365e+18
14382.0	1.2831106835415037e+18
14383.0	1.2828628723171325e+18
14384.0	1.2826145728757757e+18
14385.0	1.2823881265971197e+18
14386.0	1.2821330592268288e+18
14387.0	1.2819045275402237e+18
14388.0	1.2816613015289856e+18
14389.0	1.2814236027715581e+18
14390.0	1.281180317201203e+18
14391.0	1.280941631943475e+18
14392.0	1.2806970226507773e+18
14393.0	1.280460111583641e+18
14394.0	1.280187655467827e+18
14395.0	1.2799694526742528e+18
14396.0	1.2797378490793981e+18
14397.0	1.2794972881289216e+18
14398.0	1.279255593038643e+18
14399.0	1.2790151939883005e+18
14400.0	1.2787561428680701e+18
14401.0	1.2785275063238653e+18
14402.0	1.2782901296889853e+18
14403.0	1.2761643322703828e+18
14404.0	1.2706089564897252e+18
14405.0	1.2761989738659763e+18
14406.0	1.2773296047128573e+18
14407.0	1.2740516009476114e+18
14408.0	1.2768436509736957e+18
14409.0	1.2765910263660541e+18
14410.0	1.2763665925144573e+18
14411.0	1.2761296889970685e+18
14412.0	1.2758870376054781e+18
14413.0	1.275651020763955e+18
14414.0	1.2754089565749245e+18
14415.0	1.2751702042083325e+18
14416.0	1.2749286374637565e+18
14417.0	1.2746832044097533e+18
14418.0	1.2744344100405245e+18
14419.0	1.274210919907328e+18
14420.0	1.273966982542131e+18
14421.0	1.2737327658958845e+18
14422.0	1.2734909021945853e+18
14423.0	1.2732476065579005e+18
14424.0	1.2611195894759327e+18
14425.0	1.272772740880793e+18
14426.0	1.272536653574963e+18
14427.0	1.2722963065339901e+18
14428.0	1.2720373711765501e+18
14429.0	1.271817880731648e+18
14430.0	1.2715805166796795e+18
14431.0	1.271261123785523e+18
14432.0	1.2710946468265981e+18
14433.0	1.268569149014014e+18
14434.0	1.2706120980234237e+18
14435.0	1.2703668579074045e+18
14436.0	1.270146722378547e+18
14437.0	1.2699083525324797e+18
14438.0	1.2696115107332093e+18
14439.0	1.2694181860343808e+18
14440.0	1.2691917145899008e+18
14441.0	1.2689446273023995e+18
14442.0	1.2686951794606077e+18
14443.0	1.2684203200086013e+18
14444.0	1.2682338437693437e+18
14445.0	1.2680001312784381e+18
14446.0	1.264787218916968e+18
14447.0	1.2675178718822395e+18
14448.0	1.2672856383029245e+18
14449.0	1.2670475167596544e+18
14450.0	1.2668042689380352e+18
14451.0	1.266568628745011e+18
14452.0	1.266331709289267e+18
14453.0	1.2660591181168637e+18
14454.0	1.2658566724845565e+18
14455.0	1.2656112511746045e+18
14456.0	1.2653736463695867e+18
14457.0	1.2651306460119037e+18
14458.0	1.2649046342631421e+18
14459.0	1.2646645120368637e+18
14460.0	1.264429286241075e+18
14461.0	1.2641777630576637e+18
14462.0	1.2638785414103037e+18
14463.0	1.2637146657587197e+18
14464.0	1.2634791614611453e+18
14465.0	1.2632148305510397e+18
14466.0	1.2630005620146173e+18
14467.0	1.2627254248996861e+18
14468.0	1.2625236662943744e+18
14469.0	1.2622696315617275e+18
14470.0	1.2620212708835325e+18
14471.0	1.2618035588235261e+18
14472.0	1.2615730038046717e+18
14473.0	1.2613401217859584e+18
14474.0	1.2611050637623293e+18
14475.0	1.2608647326597117e+18
14476.0	1.2604804429774848e+18
14477.0	1.2603946275176443e+18
14478.0	1.2601552803987453e+18
14479.0	1.2599157613133821e+18
14480.0	1.259668260467507e+18
14481.0	1.2594480561520637e+18
14482.0	1.2592085622325245e+18
14483.0	1.2589645871185917e+18
14484.0	1.2587344548855808e+18
14485.0	1.2584613989842944e+18
14486.0	1.2579841081606144e+18
14487.0	1.2580286491525117e+18
14488.0	1.2577856538279933e+18
14489.0	1.2575488224526333e+18
14490.0	1.2573145563135997e+18
14491.0	1.2569382190317563e+18
14492.0	1.256495034610483e+18
14493.0	1.2562537455288317e+18
14494.0	1.2560048983113725e+18
14495.0	1.2557871745073152e+18
14496.0	1.2554252748587008e+18
14497.0	1.2553133255294973e+18
14498.0	1.2550777943883773e+18
14499.0	1.2548431113355261e+18
14500.0	1.2546071968350205e+18
14501.0	1.2543105110638592e+18
14502.0	1.2538618841137152e+18
14503.0	1.253882780136243e+18
14504.0	1.2536590031126525e+18
14505.0	1.2533794460401661e+18
14506.0	1.2530689786249213e+18
14507.0	1.2527275698290688e+18
14508.0	1.252721759040307e+18
14509.0	1.2524858453786621e+18
14510.0	1.2522476382715901e+18
14511.0	1.2520159440797693e+18
14512.0	1.2517664207405053e+18
14513.0	1.251545298711347e+18
14514.0	1.2512726765010944e+18
14515.0	1.2510731777867773e+18
14516.0	1.2483170293252114e+18
14517.0	1.2506041900072957e+18
14518.0	1.2503693047889917e+18
14519.0	1.2501332543930365e+18
14520.0	1.2498979413557245e+18
14521.0	1.2496608633552893e+18
14522.0	1.2494284351602685e+18
14523.0	1.2490637362331645e+18
14524.0	1.2488226803548157e+18
14525.0	1.248719650632499e+18
14526.0	1.2484878666825725e+18
14527.0	1.248246428283699e+18
14528.0	1.2478687580520445e+18
14529.0	1.2477768876949501e+18
14530.0	1.2475330870640637e+18
14531.0	1.2473148700098557e+18
14532.0	1.246875444523827e+18
14533.0	1.2468472529289216e+18
14534.0	1.2466135387602941e+18
14535.0	1.2463695133147133e+18
14536.0	1.2461415788969981e+18
14537.0	1.2458972481060864e+18
14538.0	1.2456760824561661e+18
14539.0	1.2454408960868352e+18
14540.0	1.245207748149248e+18
14541.0	1.2449550077788157e+18
14542.0	1.244738023011123e+18
14543.0	1.2444126406508541e+18
14544.0	1.244267438879539e+18
14545.0	1.2440288383467517e+18
14546.0	1.226854851254669e+18
14547.0	1.2285611041881958e+18
14548.0	1.2433207819501565e+18
14549.0	1.2429855949848573e+18
14550.0	1.2428578331295741e+18
14551.0	1.2426314707369981e+18
14552.0	1.2423969940439037e+18
14553.0	1.2421524719927293e+18
14554.0	1.2419303030652928e+18
14555.0	1.2416965016551421e+18
14556.0	1.2414596736352256e+18
14557.0	1.2412275776290813e+18
14558.0	1.2409931084857344e+18
14559.0	1.238878514891974e+18
14560.0	1.240521577280307e+18
14561.0	1.2402856552300541e+18
14562.0	1.240037785285427e+18
14563.0	1.239824907580211e+18
14564.0	1.2395849808084992e+18
14565.0	1.239359625048883e+18
14566.0	1.2391264066469885e+18
14567.0	1.2388917353381888e+18
14568.0	1.2386464113360893e+18
14569.0	1.2384268940476416e+18
14570.0	1.2376677535449085e+18
14571.0	1.2379576881643517e+18
14572.0	1.237688241881088e+18
14573.0	1.2374495415238656e+18
14574.0	1.2372442018217984e+18
14575.0	1.2370279636402176e+18
14576.0	1.2367922647269373e+18
14577.0	1.2365561539330045e+18
14578.0	1.2363274175643645e+18
14579.0	1.2360977492213757e+18
14580.0	1.2358651004059645e+18
14581.0	1.2356283520778237e+18
14582.0	1.2353995251122173e+18
14583.0	1.2351671187275773e+18
14584.0	1.2349228416237563e+18
14585.0	1.2347018731061245e+18
14586.0	1.2344660567523325e+18
14587.0	1.2342338156232701e+18
14588.0	1.2340040248066048e+18
14589.0	1.2337788192030717e+18
14590.0	1.2335535951446016e+18
14591.0	1.233325024031539e+18
14592.0	1.233096526738227e+18
14593.0	1.2327684927389693e+18
14594.0	1.2326512619421693e+18
14595.0	1.2324195501342717e+18
14596.0	1.2321486912094203e+18
14597.0	1.231923312800563e+18
14598.0	1.2317457905614845e+18
14599.0	1.2315270248923133e+18
14600.0	1.2313010668306432e+18
14601.0	1.2310772092764155e+18
14602.0	1.2308443406794752e+18
14603.0	1.2306271612960768e+18
14604.0	1.2303620762501117e+18
14605.0	1.230165786178355e+18
14606.0	1.2298690282651645e+18
14607.0	1.2297251065954301e+18
14608.0	1.2294989430128637e+18
14609.0	1.2292685775765501e+18
14610.0	1.2290319701770237e+18
14611.0	1.2288251666628608e+18
14612.0	1.2286027561435133e+18
14613.0	1.2283794102943741e+18
14614.0	1.2281504633716733e+18
14615.0	1.2279277701562365e+18
14616.0	1.2277053596368893e+18
14617.0	1.2274797186646013e+18
14618.0	1.227250627457843e+18
14619.0	1.2270139521105917e+18
14620.0	1.2266945189511165e+18
14621.0	1.2265824555368445e+18
14622.0	1.2263552702218235e+18
14623.0	1.226133390701363e+18
14624.0	1.2258551858724864e+18
14625.0	1.2256815920185344e+18
14626.0	1.225455104635699e+18
14627.0	1.2252257936474112e+18
14628.0	1.2250109370695675e+18
14629.0	1.224786616464179e+18
14630.0	1.2245611281645568e+18
14631.0	1.2243370172743677e+18
14632.0	1.223044158298522e+18
14633.0	1.2238049068974075e+18
14634.0	1.2236576088129536e+18
14635.0	1.223305180741631e+18
14636.0	1.222640299671552e+18
14637.0	1.222988992295731e+18
14638.0	1.2227611627356157e+18
14639.0	1.2225287085359101e+18
14640.0	1.2223126934913024e+18
14641.0	1.2181404037152727e+18
14642.0	1.221862637122355e+18
14643.0	1.2216425586360317e+18
14644.0	1.2214087538704384e+18
14645.0	1.2211712614727677e+18
14646.0	1.2209590338846717e+18
