# Flux units: erg / (cm m2 s)
# Wavelength units: Angstrom
wave	flux
14000.0	1.8315556683775997e+18
14001.0	1.8311274165174272e+18
14002.0	1.830830582267904e+18
14003.0	1.830459580979609e+18
14004.0	1.8300857678299133e+18
14005.0	1.829711880860467e+18
14006.0	1.829332118509977e+18
14007.0	1.8289576242053115e+18
14008.0	1.8285141554102272e+18
14009.0	1.8282155310317565e+18
14010.0	1.8278334098046976e+18
14011.0	1.8269812916486144e+18
14012.0	1.8270968044584955e+18
14013.0	1.826723806681497e+18
14014.0	1.8263462824116224e+18
14015.0	1.8259758381268987e+18
14016.0	1.8256047110094843e+18
14017.0	1.825231926303129e+18
14018.0	1.8248589604028413e+18
14019.0	1.8244865062076413e+18
14020.0	1.82411336917975e+18
14021.0	1.8237402891943933e+18
14022.0	1.823366217675571e+18
14023.0	1.822981499335475e+18
14024.0	1.8226096054992896e+18
14025.0	1.8222517189607421e+18
14026.0	1.8218742919987192e+18
14027.0	1.821496349976166e+18
14028.0	1.821124462850867e+18
14029.0	1.8207523207118843e+18
14030.0	1.8197030568460288e+18
14031.0	1.8199755087675387e+18
14032.0	1.8196349514153981e+18
14033.0	1.8192289981530107e+18
14034.0	1.8188936249606144e+18
14035.0	1.8185235464191997e+18
14036.0	1.818152427690393e+18
14037.0	1.8177813525823485e+18
14038.0	1.8174103345168381e+18
14039.0	1.8170361875005437e+18
14040.0	1.8166041372786685e+18
14041.0	1.816203284289945e+18
14042.0	1.8158261509292027e+18
14043.0	1.8154344096464893e+18
14044.0	1.8150859485478912e+18
14045.0	1.814721690022707e+18
14046.0	1.8143513564676093e+18
14047.0	1.8139777211564032e+18
14048.0	1.8136121456197627e+18
14049.0	1.8132443185807355e+18
14050.0	1.8128744312995837e+18
14051.0	1.8124978012553213e+18
14052.0	1.812134710424371e+18
14053.0	1.8117651284885504e+18
14054.0	1.8113956304388093e+18
14055.0	1.8110261575548925e+18
14056.0	1.810656728291737e+18
14057.0	1.8102874584121344e+18
14058.0	1.809918205309747e+18
14059.0	1.8095490780364797e+18
14060.0	1.8091800312938493e+18
14061.0	1.8088058037469181e+18
14062.0	1.808442194499993e+18
14063.0	1.8080611520479227e+18
14064.0	1.8075835768504317e+18
14065.0	1.8073293735067643e+18
14066.0	1.8069618283249661e+18
14067.0	1.8065781568831485e+18
14068.0	1.8062209179451387e+18
14069.0	1.8058509769768955e+18
14070.0	1.8054842924662781e+18
14071.0	1.805114343109427e+18
14072.0	1.8047485377249275e+18
14073.0	1.8043805781458941e+18
14074.0	1.8040127779504125e+18
14075.0	1.8036313110347776e+18
14076.0	1.8032659821232128e+18
14077.0	1.8027527586971643e+18
14078.0	1.8025303850876925e+18
14079.0	1.8021668781817853e+18
14080.0	1.8018073994854392e+18
14081.0	1.8014401462272e+18
14082.0	1.801068148372275e+18
14083.0	1.8007047253524477e+18
14084.0	1.8003387370962936e+18
14085.0	1.7997144635998208e+18
14086.0	1.7995923925762048e+18
14087.0	1.7992383295651835e+18
14088.0	1.7988612515692536e+18
14089.0	1.798496763196211e+18
14090.0	1.798135950711193e+18
14091.0	1.7977721988579323e+18
14092.0	1.7974059052564475e+18
14093.0	1.7970396754083835e+18
14094.0	1.7966735109914621e+18
14095.0	1.7963073868398587e+18
14096.0	1.7959077300666363e+18
14097.0	1.7955602772787197e+18
14098.0	1.7951950876180477e+18
14099.0	1.7948439589421053e+18
14100.0	1.794468889178931e+18
14101.0	1.794112888399462e+18
14102.0	1.7937472189104125e+18
14103.0	1.7933703153975293e+18
14104.0	1.7930167271817213e+18
14105.0	1.792650958707097e+18
14106.0	1.7922862639742976e+18
14107.0	1.791919658316595e+18
14108.0	1.791547472556851e+18
14109.0	1.791187500610355e+18
14110.0	1.790820185276416e+18
14111.0	1.790449105135206e+18
14112.0	1.7897122296758264e+18
14113.0	1.7893224983035904e+18
14114.0	1.7889467540963325e+18
14115.0	1.7885830911623163e+18
14116.0	1.7881839091843064e+18
14117.0	1.7866886800736256e+18
14118.0	1.787491060495155e+18
14119.0	1.7871051761385472e+18
14120.0	1.7867476134002688e+18
14121.0	1.786388032362905e+18
14122.0	1.7860084008747003e+18
14123.0	1.785651346486067e+18
14124.0	1.7852845713784832e+18
14125.0	1.7845832652947453e+18
14126.0	1.784576849687347e+18
14127.0	1.7842181158993915e+18
14128.0	1.7838538120757248e+18
14129.0	1.783482226940313e+18
14130.0	1.7831127288905725e+18
14131.0	1.7827655210500093e+18
14132.0	1.7823984087203835e+18
14133.0	1.7816166240092152e+18
14134.0	1.781676530414387e+18
14135.0	1.7812992913571837e+18
14136.0	1.780911623582515e+18
14137.0	1.7805862697435133e+18
14138.0	1.78021247001559e+18
14139.0	1.7798635995529213e+18
14140.0	1.7794922258104317e+18
14141.0	1.7791331497672704e+18
14142.0	1.7786827301715965e+18
14143.0	1.7784075720851453e+18
14144.0	1.7780532439941117e+18
14145.0	1.777690421598617e+18
14146.0	1.7773284498079741e+18
14147.0	1.776966377354035e+18
14148.0	1.7766021574164477e+18
14149.0	1.7762407057195005e+18
14150.0	1.775883408061235e+18
14151.0	1.7755137070071803e+18
14152.0	1.7751607831691261e+18
14153.0	1.7747994405240832e+18
14154.0	1.7744190255398907e+18
14155.0	1.7739601166729213e+18
14156.0	1.7736937011937275e+18
14157.0	1.7733554473533437e+18
14158.0	1.7729914153205752e+18
14159.0	1.7726335958908928e+18
14160.0	1.772266173182771e+18
14161.0	1.7718683753250816e+18
14162.0	1.7714694835929088e+18
14163.0	1.7711904399032317e+18
14164.0	1.7707873488338941e+18
14165.0	1.7703718711459837e+18
14166.0	1.770108334637056e+18
14167.0	1.7697399724048381e+18
14168.0	1.7693862315163643e+18
14169.0	1.7690248905490427e+18
14170.0	1.768655082120806e+18
14171.0	1.7682975579701243e+18
14172.0	1.7679400958951421e+18
14173.0	1.7675276683051005e+18
14174.0	1.7672158301913088e+18
14175.0	1.7668615239106557e+18
14176.0	1.7665014513008635e+18
14177.0	1.7661425346412541e+18
14178.0	1.765782084544102e+18
14179.0	1.765413838074675e+18
14180.0	1.765065546425958e+18
14181.0	1.7647065811124221e+18
14182.0	1.7643470705393661e+18
14183.0	1.7639888971104253e+18
14184.0	1.763626173700505e+18
14185.0	1.7632713657810944e+18
14186.0	1.762691063690035e+18
14187.0	1.7625355070210043e+18
14188.0	1.7621951845498875e+18
14189.0	1.761834913968947e+18
14190.0	1.76147763644334e+18
14191.0	1.7611187634044923e+18
14192.0	1.7607566859173885e+18
14193.0	1.7603698200936443e+18
14194.0	1.7600447363678205e+18
14195.0	1.7596895543164925e+18
14196.0	1.759331592280473e+18
14197.0	1.7589739053907965e+18
14198.0	1.7586126566981627e+18
14199.0	1.758256285142221e+18
14200.0	1.7577743814230013e+18
14201.0	1.7575346987597821e+18
14202.0	1.7571868131196925e+18
14203.0	1.7568176053157885e+18
14204.0	1.7564702246699005e+18
14205.0	1.7561133514751997e+18
14206.0	1.7556604371075064e+18
14207.0	1.7554015243993085e+18
14208.0	1.7550448961519613e+18
14209.0	1.7545865325445117e+18
14210.0	1.7542564693409787e+18
14211.0	1.753971211370496e+18
14212.0	1.753617752339251e+18
14213.0	1.7532600688050176e+18
14214.0	1.7529050931134461e+18
14215.0	1.7525399017750525e+18
14216.0	1.75219359654871e+18
14217.0	1.751837402831257e+18
14218.0	1.7514725436817403e+18
14219.0	1.7511255187128315e+18
14220.0	1.7507698065014781e+18
14221.0	1.750410953595289e+18
14222.0	1.7500376185962493e+18
14223.0	1.7497020809871357e+18
14224.0	1.7493471455608827e+18
14225.0	1.7485958198853635e+18
14226.0	1.748633660896051e+18
14227.0	1.7482810809909243e+18
14228.0	1.7469731829186557e+18
14229.0	1.7473342806163443e+18
14230.0	1.7472157495853053e+18
14231.0	1.746845461328691e+18
14232.0	1.7465022280105984e+18
14233.0	1.746135402571366e+18
14234.0	1.7457850389364733e+18
14235.0	1.7454283922341888e+18
14236.0	1.7450756126801915e+18
14237.0	1.7447201840037885e+18
14238.0	1.7443664615702525e+18
14239.0	1.7440072865415165e+18
14240.0	1.742413922461286e+18
14241.0	1.7433005362511864e+18
14242.0	1.742948072108851e+18
14243.0	1.7424743774814203e+18
14244.0	1.742241556699545e+18
14245.0	1.7418726324305917e+18
14246.0	1.7415147341479933e+18
14247.0	1.7411766128476157e+18
14248.0	1.7408138290397181e+18
14249.0	1.7404713926393853e+18
14250.0	1.740117725570662e+18
14251.0	1.73976625128407e+18
14252.0	1.7394128358735872e+18
14253.0	1.7390588919807997e+18
14254.0	1.73870451523584e+18
14255.0	1.7383271386054653e+18
14256.0	1.7376059582316544e+18
14257.0	1.7376212808630264e+18
14258.0	1.7372943063449597e+18
14259.0	1.736926544737075e+18
14260.0	1.7365737601499139e+18
14261.0	1.73622122554327e+18
14262.0	1.735899259024179e+18
14263.0	1.7349743730491395e+18
14264.0	1.735067115821465e+18
14265.0	1.73483827962839e+18
14266.0	1.7344892262940672e+18
14267.0	1.734138454972825e+18
14268.0	1.7337863834173435e+18
14269.0	1.7334323304726523e+18
14270.0	1.7330823409696763e+18
14271.0	1.732728923881472e+18
14272.0	1.7323784528723965e+18
14273.0	1.73202537971712e+18
14274.0	1.7307876540284928e+18
14275.0	1.73124351950848e+18
14276.0	1.7309558791733243e+18
14277.0	1.7306057369976832e+18
14278.0	1.7302689729740797e+18
14279.0	1.729916711836057e+18
14280.0	1.7295613066477565e+18
14281.0	1.7292155584249853e+18
14282.0	1.7288647283834877e+18
14283.0	1.7285137490247672e+18
14284.0	1.7281628166422528e+18
14285.0	1.727811800373657e+18
14286.0	1.7274594587049981e+18
14287.0	1.7271104909344765e+18
14288.0	1.726759736390451e+18
14289.0	1.7256121882378225e+18
14290.0	1.7260567207084027e+18
14291.0	1.7257077059616765e+18
14292.0	1.7253581929316344e+18
14293.0	1.7250061700300795e+18
14294.0	1.7245495411867643e+18
14295.0	1.7242975323029504e+18
14296.0	1.72331481694208e+18
14297.0	1.7236051902857208e+18
14298.0	1.723051449883033e+18
14299.0	1.7228957824843768e+18
14300.0	1.7225527974690813e+18
14301.0	1.7222049168621563e+18
14302.0	1.721857245970432e+18
14303.0	1.7214822147948541e+18
14304.0	1.7211460060971005e+18
14305.0	1.7208085290418176e+18
14306.0	1.7204339323961341e+18
14307.0	1.7200992453918715e+18
14308.0	1.7197606258081784e+18
14309.0	1.719068988434022e+18
14310.0	1.7184497296474107e+18
14311.0	1.7180522069360637e+18
14312.0	1.7178220839305213e+18
14313.0	1.7174461316857856e+18
14314.0	1.717171443361382e+18
14315.0	1.7168285086777341e+18
14316.0	1.716439715151872e+18
14317.0	1.716111589716787e+18
14318.0	1.7157840045080576e+18
14319.0	1.715436170877337e+18
14320.0	1.715087538651136e+18
14321.0	1.7147397939396605e+18
14322.0	1.7143614308089853e+18
14323.0	1.7140275390447613e+18
14324.0	1.7136956521578493e+18
14325.0	1.713340324144742e+18
14326.0	1.7129998590672893e+18
14327.0	1.7126469738168312e+18
14328.0	1.7122991502524413e+18
14329.0	1.711956693719449e+18
14330.0	1.7116091050360827e+18
14331.0	1.7112613183815677e+18
14332.0	1.710914090408345e+18
14333.0	1.710566743316889e+18
14334.0	1.7102194364907515e+18
14335.0	1.709860046713651e+18
14336.0	1.7094797911130107e+18
14337.0	1.7091774774247421e+18
14338.0	1.7088292444962813e+18
14339.0	1.7084753542905853e+18
14340.0	1.7081365937782774e+18
14341.0	1.7077871898001403e+18
14342.0	1.7074435152412672e+18
14343.0	1.7070920929640448e+18
14344.0	1.7067451233599485e+18
14345.0	1.7064037774786557e+18
14346.0	1.7060543718227965e+18
14347.0	1.7056863803670525e+18
14348.0	1.7053638149013504e+18
14349.0	1.7050184491991037e+18
14350.0	1.7046404568449021e+18
14351.0	1.7042876420587515e+18
14352.0	1.703973339371929e+18
14353.0	1.703632617603072e+18
14354.0	1.7032835911122941e+18
14355.0	1.7029307780038653e+18
14356.0	1.7025877074247675e+18
14357.0	1.7022510776188923e+18
14358.0	1.701905069349273e+18
14359.0	1.7015485417652221e+18
14360.0	1.7012112542924797e+18
14361.0	1.700867608254873e+18
14362.0	1.7005234874220536e+18
14363.0	1.7001779388481533e+18
14364.0	1.6997348156637181e+18
14365.0	1.699464638732697e+18
14366.0	1.6991241300344832e+18
14367.0	1.6987977829842941e+18
14368.0	1.698452407215718e+18
14369.0	1.698107917284147e+18
14370.0	1.6977631689834493e+18
14371.0	1.697418541478707e+18
14372.0	1.6970693757370363e+18
14373.0	1.6967289542803453e+18
14374.0	1.6963841606811643e+18
14375.0	1.6960387295477757e+18
14376.0	1.695695695878553e+18
14377.0	1.695350825104179e+18
14378.0	1.6950048721993725e+18
14379.0	1.6946626706800635e+18
14380.0	1.694317194248192e+18
14381.0	1.693965795459072e+18
14382.0	1.6936290431795197e+18
14383.0	1.6932794949173243e+18
14384.0	1.6929275642904568e+18
14385.0	1.692598526174822e+18
14386.0	1.6922434934407165e+18
14387.0	1.6919109354651648e+18
14388.0	1.6915657140469752e+18
14389.0	1.6912235242717181e+18
14390.0	1.6908787424165885e+18
14391.0	1.690536503987404e+18
14392.0	1.690191344644915e+18
14393.0	1.6898503192084477e+18
14394.0	1.6894779757428733e+18
14395.0	1.6891519139053563e+18
14396.0	1.6888205471121403e+18
14397.0	1.688477753357107e+18
14398.0	1.6881300019347456e+18
14399.0	1.6877804217958395e+18
14400.0	1.6874218255810557e+18
14401.0	1.6870893800128512e+18
14402.0	1.68675083592663e+18
14403.0	1.6845105591746534e+18
14404.0	1.6805816724094963e+18
14405.0	1.684344263409662e+18
14406.0	1.6853807631695872e+18
14407.0	1.6824665188073475e+18
14408.0	1.6846663524024315e+18
14409.0	1.6843386564640763e+18
14410.0	1.6840041254879232e+18
14411.0	1.683669134816051e+18
14412.0	1.6833250710257661e+18
14413.0	1.6829860269785085e+18
14414.0	1.6826419111788541e+18
14415.0	1.6823008874201085e+18
14416.0	1.681956113953587e+18
14417.0	1.6816052067368957e+18
14418.0	1.681252123515289e+18
14419.0	1.6809329839570936e+18
14420.0	1.6805882692108285e+18
14421.0	1.6802503626588157e+18
14422.0	1.679905451619123e+18
14423.0	1.6795585810006016e+18
14424.0	1.6687875076653007e+18
14425.0	1.67887657542615e+18
14426.0	1.6785433564282877e+18
14427.0	1.678201834386227e+18
14428.0	1.6778448722722816e+18
14429.0	1.677515347617382e+18
14430.0	1.6771792127393784e+18
14431.0	1.676659773354803e+18
14432.0	1.6764891926888443e+18
14433.0	1.674211803057356e+18
14434.0	1.6758006758768637e+18
14435.0	1.67544350572544e+18
14436.0	1.675133927502643e+18
14437.0	1.6747933449846781e+18
14438.0	1.6743900207120384e+18
14439.0	1.674096947914342e+18
14440.0	1.6737709062094848e+18
14441.0	1.673423535629926e+18
14442.0	1.6730795976687613e+18
14443.0	1.6727064572854272e+18
14444.0	1.6724056082481147e+18
14445.0	1.6720694549151741e+18
14446.0	1.669251973146215e+18
14447.0	1.6713721837518843e+18
14448.0	1.6709623264313344e+18
14449.0	1.670428185172377e+18
14450.0	1.6700840559509504e+18
14451.0	1.6697466980139005e+18
14452.0	1.6694058856480765e+18
14453.0	1.6690356158463995e+18
14454.0	1.6687281297424381e+18
14455.0	1.6683840407863293e+18
14456.0	1.6680412923297787e+18
14457.0	1.6676982267838456e+18
14458.0	1.6673662962761728e+18
14459.0	1.6670251735318523e+18
14460.0	1.666685386253926e+18
14461.0	1.6663156399013888e+18
14462.0	1.6658567796883456e+18
14463.0	1.6656593990975485e+18
14464.0	1.665330144555827e+18
14465.0	1.664973778033049e+18
14466.0	1.664654447214592e+18
14467.0	1.6642795150245888e+18
14468.0	1.6639703864311803e+18
14469.0	1.663607334187827e+18
14470.0	1.6632746285727741e+18
14471.0	1.6629492025917432e+18
14472.0	1.6626145390755837e+18
14473.0	1.662280180904755e+18
14474.0	1.6619424840679421e+18
14475.0	1.6615989303050235e+18
14476.0	1.6611420397371392e+18
14477.0	1.660926762890035e+18
14478.0	1.6605887254757376e+18
14479.0	1.6602481714790395e+18
14480.0	1.6598976853704704e+18
14481.0	1.6595737911492603e+18
14482.0	1.6592320711360507e+18
14483.0	1.6588886348136443e+18
14484.0	1.6585488039149563e+18
14485.0	1.6581908905328635e+18
14486.0	1.6576350093574141e+18
14487.0	1.657541665960755e+18
14488.0	1.6571870123917307e+18
14489.0	1.6568503809081341e+18
14490.0	1.6565236429488123e+18
14491.0	1.656190459183104e+18
14492.0	1.6558535877853184e+18
14493.0	1.6555121143971837e+18
14494.0	1.6551605595799552e+18
14495.0	1.654840156697395e+18
14496.0	1.6543911396769792e+18
14497.0	1.6541636037181437e+18
14498.0	1.653826720576307e+18
14499.0	1.6534895354445821e+18
14500.0	1.6531516624470013e+18
14501.0	1.652756602630963e+18
14502.0	1.6522477110820861e+18
14503.0	1.652118093666713e+18
14504.0	1.6517964694028288e+18
14505.0	1.6514092781010941e+18
14506.0	1.6510172079849472e+18
14507.0	1.6505861694291963e+18
14508.0	1.650452297311846e+18
14509.0	1.650108478468915e+18
14510.0	1.6497644750766077e+18
14511.0	1.6494295280254976e+18
14512.0	1.6490795200675837e+18
14513.0	1.648755411098009e+18
14514.0	1.6483867938521088e+18
14515.0	1.6480799587041275e+18
14516.0	1.6457249543159816e+18
14517.0	1.6474060179374083e+18
14518.0	1.6470702286700541e+18
14519.0	1.6467334512246781e+18
14520.0	1.6463965781491712e+18
14521.0	1.6460584434270203e+18
14522.0	1.6457208724193277e+18
14523.0	1.645250580211302e+18
14524.0	1.6449225973825528e+18
14525.0	1.6447078003638267e+18
14526.0	1.644375754093363e+18
14527.0	1.6440126716510203e+18
14528.0	1.6435959742595067e+18
14529.0	1.6433556473511933e+18
14530.0	1.6430144541425661e+18
14531.0	1.642690044860825e+18
14532.0	1.6421799856177147e+18
14533.0	1.642016922822246e+18
14534.0	1.6416829186506747e+18
14535.0	1.6413373365223421e+18
14536.0	1.6410095701196797e+18
14537.0	1.6406631726186493e+18
14538.0	1.640336983274291e+18
14539.0	1.6400007108231165e+18
14540.0	1.639664315898265e+18
14541.0	1.6393112762974205e+18
14542.0	1.6389914740391928e+18
14543.0	1.638569902866432e+18
14544.0	1.6383183016689661e+18
14545.0	1.6379766118547453e+18
14546.0	1.6243896287756234e+18
14547.0	1.6252140947242941e+18
14548.0	1.6369616070639613e+18
14549.0	1.6365372844277757e+18
14550.0	1.636296278042214e+18
14551.0	1.6359651914285053e+18
14552.0	1.6356272328671232e+18
14553.0	1.6352862980276221e+18
14554.0	1.6349568488701947e+18
14555.0	1.634620188865331e+18
14556.0	1.634281490428723e+18
14557.0	1.6339484358475776e+18
14558.0	1.633611831207526e+18
14559.0	1.6317848997593065e+18
14560.0	1.6329291646107643e+18
14561.0	1.632598364887449e+18
14562.0	1.632246081939046e+18
14563.0	1.631930507539251e+18
14564.0	1.6315796020002813e+18
14565.0	1.6312602342719485e+18
14566.0	1.6309242503888888e+18
14567.0	1.6305873135599616e+18
14568.0	1.630226605093683e+18
14569.0	1.6299157333475325e+18
14570.0	1.6291562522673147e+18
14571.0	1.6292414318706685e+18
14572.0	1.6288676774412285e+18
14573.0	1.6285303731912701e+18
14574.0	1.628195093951283e+18
14575.0	1.627895377376051e+18
14576.0	1.6275576486625275e+18
14577.0	1.6272230287671293e+18
14578.0	1.6268910412169213e+18
14579.0	1.6265568088752128e+18
14580.0	1.6262211051716605e+18
14581.0	1.62588023408558e+18
14582.0	1.6255483304214528e+18
14583.0	1.6252132088872957e+18
14584.0	1.624863278104576e+18
14585.0	1.6245408384679933e+18
14586.0	1.6242020980883453e+18
14587.0	1.6238664581382141e+18
14588.0	1.6235325932175357e+18
14589.0	1.623205779760742e+18
14590.0	1.622879115621171e+18
14591.0	1.6225502553440253e+18
14592.0	1.6222205645946883e+18
14593.0	1.6218008456265723e+18
14594.0	1.6215711806390267e+18
14595.0	1.6212397920354301e+18
14596.0	1.6208157596450808e+18
14597.0	1.620478500693606e+18
14598.0	1.6202525283713021e+18
14599.0	1.6199367476117496e+18
14600.0	1.619606927677849e+18
14601.0	1.6192818003312637e+18
14602.0	1.6189459372441597e+18
14603.0	1.6186277388877821e+18
14604.0	1.6182588112633853e+18
14605.0	1.6179499477499896e+18
14606.0	1.6175907156787197e+18
14607.0	1.617307766253158e+18
14608.0	1.616989648427417e+18
14609.0	1.6166539346575357e+18
14610.0	1.6162948753915901e+18
14611.0	1.6160023075880957e+18
14612.0	1.6156823895670781e+18
14613.0	1.6153558730670075e+18
14614.0	1.615025556527513e+18
14615.0	1.6146987095162877e+18
14616.0	1.614373241592217e+18
14617.0	1.614045235275366e+18
14618.0	1.6137085568155643e+18
14619.0	1.6133146009403384e+18
14620.0	1.6128282328039421e+18
14621.0	1.6127339180064765e+18
14622.0	1.6124034269839357e+18
14623.0	1.612077762766438e+18
14624.0	1.6117005606191101e+18
14625.0	1.6114187151343613e+18
14626.0	1.6110894337490941e+18
14627.0	1.6107563305140221e+18
14628.0	1.6104359611858944e+18
14629.0	1.6101074196758525e+18
14630.0	1.6097763179626493e+18
14631.0	1.6094493216342013e+18
14632.0	1.60828724609024e+18
14633.0	1.6086597590056952e+18
14634.0	1.6084580868030461e+18
14635.0	1.6079409475747835e+18
14636.0	1.6074042578567163e+18
14637.0	1.6074763394875392e+18
14638.0	1.6071417414025213e+18
14639.0	1.6068050881085435e+18
14640.0	1.6064842490183677e+18
14641.0	1.6028335586934766e+18
14642.0	1.6058234783662075e+18
14643.0	1.6054947070083072e+18
14644.0	1.6051477860581376e+18
14645.0	1.6048065089634301e+18
14646.0	1.6044819990183933e+18
14647.0	1.6041425036640253e+18
14648.0	1.6038316319178747e+18
