# Flux units: erg / (cm m2 s)
# Wavelength units: Angstrom
wave	flux
14000.0	2.2101795337666552e+18
14001.0	2.209743743903334e+18
14002.0	2.2093296637575163e+18
14003.0	2.208866874320486e+18
14004.0	2.2084032460226555e+18
14005.0	2.207939418075955e+18
14006.0	2.2074705787748352e+18
14007.0	2.2070047761498112e+18
14008.0	2.20647540129792e+18
14009.0	2.2060824587665405e+18
14010.0	2.2056100006199293e+18
14011.0	2.2047376994729984e+18
14012.0	2.2046933287698427e+18
14013.0	2.2042316583731195e+18
14014.0	2.203764340765491e+18
14015.0	2.2033042642042877e+18
14016.0	2.2028432447635453e+18
14017.0	2.202380688529817e+18
14018.0	2.201918033310515e+18
14019.0	2.201455737123635e+18
14020.0	2.2009928067579901e+18
14021.0	2.2005298831032315e+18
14022.0	2.2000630319022077e+18
14023.0	2.199585856002457e+18
14024.0	2.1991269672681467e+18
14025.0	2.198681654657024e+18
14026.0	2.1982200329142267e+18
14027.0	2.1977599026659323e+18
14028.0	2.1972980443643896e+18
14029.0	2.1968338506743805e+18
14030.0	2.194775868440577e+18
14031.0	2.1958530177171453e+18
14032.0	2.195449592781209e+18
14033.0	2.1949510578077693e+18
14034.0	2.1945277988470781e+18
14035.0	2.1940712589230077e+18
14036.0	2.193605811974963e+18
14037.0	2.1931515789180923e+18
14038.0	2.1926915308781565e+18
14039.0	2.192228117328691e+18
14040.0	2.1917662036623355e+18
14041.0	2.191309408724582e+18
14042.0	2.1908436916633595e+18
14043.0	2.1903648279756795e+18
14044.0	2.1899251256655867e+18
14045.0	2.1894711224565755e+18
14046.0	2.1890096449978365e+18
14047.0	2.1885435269611512e+18
14048.0	2.1880932818485245e+18
14049.0	2.1876364667781115e+18
14050.0	2.1871777844035581e+18
14051.0	2.186712652867174e+18
14052.0	2.186256896439091e+18
14053.0	2.185801737279897e+18
14054.0	2.185343580032204e+18
14055.0	2.1848852852113403e+18
14056.0	2.1844270725988347e+18
14057.0	2.1839690260807675e+18
14058.0	2.1835110517047293e+18
14059.0	2.183053198124646e+18
14060.0	2.1825954401746944e+18
14061.0	2.1821332295516157e+18
14062.0	2.181680125601382e+18
14063.0	2.1812103568424957e+18
14064.0	2.1805202982043648e+18
14065.0	2.180302238017126e+18
14066.0	2.1798512496738301e+18
14067.0	2.1793755736571901e+18
14068.0	2.1789373963960315e+18
14069.0	2.1784771570958333e+18
14070.0	2.1780226824470528e+18
14071.0	2.177565588874854e+18
14072.0	2.177111174624051e+18
14073.0	2.1766548477706237e+18
14074.0	2.1761985293058045e+18
14075.0	2.1757277505585147e+18
14076.0	2.1752642984214528e+18
14077.0	2.1744663236968448e+18
14078.0	2.1743465847062525e+18
14079.0	2.1739106874687483e+18
14080.0	2.1734637676003325e+18
14081.0	2.173008561464934e+18
14082.0	2.1725502716772347e+18
14083.0	2.172096808694579e+18
14084.0	2.1716409616695293e+18
14085.0	2.170829248082739e+18
14086.0	2.170699912524595e+18
14087.0	2.1702777407275005e+18
14088.0	2.1698106881998843e+18
14089.0	2.1693520427352061e+18
14090.0	2.1689097869328376e+18
14091.0	2.1684605383868416e+18
14092.0	2.1680067365044224e+18
14093.0	2.1675526091440125e+18
14094.0	2.167098250258022e+18
14095.0	2.16664258946007e+18
14096.0	2.166120762677657e+18
14097.0	2.1657032868233216e+18
14098.0	2.1652500905983992e+18
14099.0	2.1647111661551608e+18
14100.0	2.164032309664153e+18
14101.0	2.16358776209408e+18
14102.0	2.163134644722073e+18
14103.0	2.1626723703455744e+18
14104.0	2.1622291699859456e+18
14105.0	2.1617760962347003e+18
14106.0	2.1613237388705787e+18
14107.0	2.160870254077542e+18
14108.0	2.1604094779064312e+18
14109.0	2.1599622896025595e+18
14110.0	2.1595091051216896e+18
14111.0	2.1590528839647224e+18
14112.0	2.1586032344432637e+18
14113.0	2.1581476910858237e+18
14114.0	2.1576940133548027e+18
14115.0	2.1572473384337403e+18
14116.0	2.1567370426318843e+18
14117.0	2.153654952289895e+18
14118.0	2.1558865082449917e+18
14119.0	2.1553949106503675e+18
14120.0	2.154955626092953e+18
14121.0	2.154525401232179e+18
14122.0	2.154064824709939e+18
14123.0	2.153601562155417e+18
14124.0	2.153148350831001e+18
14125.0	2.152398857227468e+18
14126.0	2.1522815475777533e+18
14127.0	2.1518426589626365e+18
14128.0	2.151392303120384e+18
14129.0	2.15093424989143e+18
14130.0	2.1504769281490944e+18
14131.0	2.150043894782361e+18
14132.0	2.1495880863449083e+18
14133.0	2.1487456217989112e+18
14134.0	2.148692125967974e+18
14135.0	2.1482211156951037e+18
14136.0	2.147734653606297e+18
14137.0	2.1473359028027387e+18
14138.0	2.1468668151988221e+18
14139.0	2.1464468512833533e+18
14140.0	2.1459906603253755e+18
14141.0	2.145511667453132e+18
14142.0	2.1448995205283837e+18
14143.0	2.1446436277190653e+18
14144.0	2.1442051451125755e+18
14145.0	2.143758027273011e+18
14146.0	2.1433053662412795e+18
14147.0	2.1428589094240256e+18
14148.0	2.1424060890087421e+18
14149.0	2.141957999768371e+18
14150.0	2.14151936952238e+18
14151.0	2.1410571857428477e+18
14152.0	2.140624419133849e+18
14153.0	2.1401768969633787e+18
14154.0	2.1397096347205627e+18
14155.0	2.1392101249908733e+18
14156.0	2.138823767516774e+18
14157.0	2.1383882175676408e+18
14158.0	2.1379384069849088e+18
14159.0	2.1374946747875325e+18
14160.0	2.1370422889021437e+18
14161.0	2.1365571874455552e+18
14162.0	2.136075193129369e+18
14163.0	2.1357024872759293e+18
14164.0	2.1351719313080315e+18
14165.0	2.1347467077353467e+18
14166.0	2.1343660394151933e+18
14167.0	2.1339121637130237e+18
14168.0	2.1334719933186045e+18
14169.0	2.133032772514611e+18
14170.0	2.1325822002462715e+18
14171.0	2.1321402061684733e+18
14172.0	2.1316968128708605e+18
14173.0	2.131213462955622e+18
14174.0	2.130801073953177e+18
14175.0	2.1303616283344893e+18
14176.0	2.1299159902453755e+18
14177.0	2.1294717933191165e+18
14178.0	2.1290263112581115e+18
14179.0	2.1285753749241853e+18
14180.0	2.1281383905230845e+18
14181.0	2.1276939973033981e+18
14182.0	2.1269562846609403e+18
14183.0	2.1264246599843837e+18
14184.0	2.1259757889257467e+18
14185.0	2.1255314074501117e+18
14186.0	2.1245679389114363e+18
14187.0	2.1246183578009592e+18
14188.0	2.1242015664570365e+18
14189.0	2.123754188570624e+18
14190.0	2.123311400930508e+18
14191.0	2.1228654994391037e+18
14192.0	2.1224205039173627e+18
14193.0	2.1218968198971387e+18
14194.0	2.1215365728043005e+18
14195.0	2.121098383799091e+18
14196.0	2.1206553461784573e+18
14197.0	2.120212337079091e+18
14198.0	2.1197658550960125e+18
14199.0	2.1193241764298747e+18
14200.0	2.1184268789088253e+18
14201.0	2.1182274129100795e+18
14202.0	2.117803601978982e+18
14203.0	2.1173528149622781e+18
14204.0	2.1169159463239675e+18
14205.0	2.116473163717017e+18
14206.0	2.11593961972695e+18
14207.0	2.1155894423191547e+18
14208.0	2.115147671378329e+18
14209.0	2.1146063679258621e+18
14210.0	2.1141935460712443e+18
14211.0	2.1138172347940861e+18
14212.0	2.1133786381025277e+18
14213.0	2.112934040200806e+18
14214.0	2.1124949586477053e+18
14215.0	2.1120458812293115e+18
14216.0	2.1116126213701627e+18
14217.0	2.111171118864793e+18
14218.0	2.110720231184793e+18
14219.0	2.1102883051143163e+18
14220.0	2.1096600940052475e+18
14221.0	2.1092021380841467e+18
14222.0	2.1087280978460667e+18
14223.0	2.108323122695372e+18
14224.0	2.107880653822361e+18
14225.0	2.1065501434183688e+18
14226.0	2.1069891276636157e+18
14227.0	2.1065567720964093e+18
14228.0	2.1041059026960387e+18
14229.0	2.1052928085196785e+18
14230.0	2.1052357307531261e+18
14231.0	2.1047646684708861e+18
14232.0	2.104355774162534e+18
14233.0	2.103912078875033e+18
14234.0	2.1034752370802688e+18
14235.0	2.1030332211920893e+18
14236.0	2.10259472851927e+18
14237.0	2.102153767917977e+18
14238.0	2.1017142048587773e+18
14239.0	2.1012675618144253e+18
14240.0	2.0997789043392512e+18
14241.0	2.1003825150164984e+18
14242.0	2.0999238393528315e+18
14243.0	2.0991988086079483e+18
14244.0	2.0988733809491965e+18
14245.0	2.0984225972879355e+18
14246.0	2.0979799908417536e+18
14247.0	2.0975508648886267e+18
14248.0	2.0971048358903803e+18
14249.0	2.0966742402531328e+18
14250.0	2.0962347560468477e+18
14251.0	2.0957973085945848e+18
14252.0	2.0953579384733693e+18
14253.0	2.094917952628326e+18
14254.0	2.0944768611647483e+18
14255.0	2.0940127698157565e+18
14256.0	2.0926275472326656e+18
14257.0	2.0930846575820797e+18
14258.0	2.092721445955174e+18
14259.0	2.0922694828556288e+18
14260.0	2.0918160198729725e+18
14261.0	2.091390655371673e+18
14262.0	2.090985485605273e+18
14263.0	2.0891352371822597e+18
14264.0	2.089786761910681e+18
14265.0	2.0896687543287805e+18
14266.0	2.0892410225623037e+18
14267.0	2.0888044743688192e+18
14268.0	2.0881667522559997e+18
14269.0	2.0877206578266104e+18
14270.0	2.0872841498984445e+18
14271.0	2.086844518052659e+18
14272.0	2.0864048425861117e+18
14273.0	2.0859516832710648e+18
14274.0	2.0833413380440072e+18
14275.0	2.0848587432787965e+18
14276.0	2.0846378594861053e+18
14277.0	2.0842077889757181e+18
14278.0	2.0837831257620475e+18
14279.0	2.0833457672290301e+18
14280.0	2.0829045818130427e+18
14281.0	2.082473044973977e+18
14282.0	2.082036453159731e+18
14283.0	2.0815996298199037e+18
14284.0	2.0811627897028605e+18
14285.0	2.0807255519657981e+18
14286.0	2.080287716959846e+18
14287.0	2.0798526267064315e+18
14288.0	2.0794149460508667e+18
14289.0	2.0783013180735475e+18
14290.0	2.0785413983567867e+18
14291.0	2.0781069959692288e+18
14292.0	2.077671821829734e+18
14293.0	2.0772338945490944e+18
14294.0	2.0766975336644605e+18
14295.0	2.0761765876858872e+18
14296.0	2.0747316533133315e+18
14297.0	2.074838249032908e+18
14298.0	2.0740569256951803e+18
14299.0	2.0739546501087227e+18
14300.0	2.0735292033990648e+18
14301.0	2.073095604640153e+18
14302.0	2.0726614673326075e+18
14303.0	2.072198797013811e+18
14304.0	2.0717768248655867e+18
14305.0	2.0713500846325755e+18
14306.0	2.070885969795481e+18
14307.0	2.0704570854342653e+18
14308.0	2.0700308267073533e+18
14309.0	2.0695798903734264e+18
14310.0	2.0690411974557696e+18
14311.0	2.068574040909414e+18
14312.0	2.0682076114124797e+18
14313.0	2.067794257720115e+18
14314.0	2.067411718740377e+18
14315.0	2.066994675738214e+18
14316.0	2.0665260025315325e+18
14317.0	2.066093739239014e+18
14318.0	2.0656998706053117e+18
14319.0	2.0652689092247547e+18
14320.0	2.064835614133452e+18
14321.0	2.0644027233730555e+18
14322.0	2.0639394054537208e+18
14323.0	2.0635211830132736e+18
14324.0	2.0631027240140797e+18
14325.0	2.062661226541875e+18
14326.0	2.06223608685527e+18
14327.0	2.0617344548077565e+18
14328.0	2.0611472119824376e+18
14329.0	2.060718104484249e+18
14330.0	2.0602843396308987e+18
14331.0	2.0598467260841981e+18
14332.0	2.0594169407864827e+18
14333.0	2.0589833789374461e+18
14334.0	2.058549785211699e+18
14335.0	2.058107059647283e+18
14336.0	2.0575834158923773e+18
14337.0	2.057248955380531e+18
14338.0	2.0568148012957693e+18
14339.0	2.0563737115099133e+18
14340.0	2.055948632221286e+18
14341.0	2.0555107955376128e+18
14342.0	2.0550839814848507e+18
14343.0	2.0546483174506493e+18
14344.0	2.0542130510364667e+18
14345.0	2.053573439809126e+18
14346.0	2.0531246861910008e+18
14347.0	2.0526655474761725e+18
14348.0	2.0522609615568893e+18
14349.0	2.0518328036491261e+18
14350.0	2.051322611866009e+18
14351.0	2.0508826528645115e+18
14352.0	2.0505314939895803e+18
14353.0	2.0501054634328061e+18
14354.0	2.049664234396057e+18
14355.0	2.04921352790999e+18
14356.0	2.0487883244699645e+18
14357.0	2.048379753961881e+18
14358.0	2.0479484134162427e+18
14359.0	2.047504374195814e+18
14360.0	2.047078613752217e+18
14361.0	2.0466509256065021e+18
14362.0	2.0462228264189947e+18
14363.0	2.045790539638374e+18
14364.0	2.0449696136822784e+18
14365.0	2.0446559720177656e+18
14366.0	2.0442407946420221e+18
14367.0	2.0438517461024763e+18
14368.0	2.0434201220218875e+18
14369.0	2.042989205939814e+18
14370.0	2.042558112019251e+18
14371.0	2.0421272680792061e+18
14372.0	2.0416919899209725e+18
14373.0	2.0412647111393275e+18
14374.0	2.0408336977494016e+18
14375.0	2.0404020887683072e+18
14376.0	2.039971971281715e+18
14377.0	2.0395406374469627e+18
14378.0	2.0391083171119096e+18
14379.0	2.038679530058547e+18
14380.0	2.0382480552951805e+18
14381.0	2.037808893211443e+18
14382.0	2.037386491566489e+18
14383.0	2.036952785433395e+18
14384.0	2.0365115396194296e+18
14385.0	2.036096580347494e+18
14386.0	2.0356543010570237e+18
14387.0	2.035235942721126e+18
14388.0	2.0348044511805437e+18
14389.0	2.0343755450089472e+18
14390.0	2.0339443118374912e+18
14391.0	2.0335158150299643e+18
14392.0	2.0330847831851005e+18
14393.0	2.0326561219608573e+18
14394.0	2.0321962970578944e+18
14395.0	2.0317821514809336e+18
14396.0	2.0313662761730043e+18
14397.0	2.030937368323686e+18
14398.0	2.0305070562213883e+18
14399.0	2.0300775209041915e+18
14400.0	2.0296336561668093e+18
14401.0	2.0292130295513088e+18
14402.0	2.0287847055491072e+18
14403.0	2.0272784470966252e+18
14404.0	2.024200475561163e+18
14405.0	2.0262042204110817e+18
14406.0	2.0268533711634427e+18
14407.0	2.0249294338523136e+18
14408.0	2.0259643515207677e+18
14409.0	2.0255579419181048e+18
14410.0	2.0251244756991997e+18
14411.0	2.0247128869699576e+18
14412.0	2.0237944988106752e+18
14413.0	2.023307597158809e+18
14414.0	2.022876390830899e+18
14415.0	2.0224479779094525e+18
14416.0	2.0220124917137403e+18
14417.0	2.0215639931092992e+18
14418.0	2.0211275774558203e+18
14419.0	2.0207295061295101e+18
14420.0	2.0202982998015992e+18
14421.0	2.0198715478245373e+18
14422.0	2.0194350415740928e+18
14423.0	2.018967868250521e+18
14424.0	2.0125835721703396e+18
14425.0	2.0181228904775675e+18
14426.0	2.0177255741259773e+18
14427.0	2.017301204513587e+18
14428.0	2.0168562157027325e+18
14429.0	2.016442234542489e+18
14430.0	2.016014944016793e+18
14431.0	2.015173960898969e+18
14432.0	2.0151510901981176e+18
14433.0	2.0136035295952886e+18
14434.0	2.0142857532735483e+18
14435.0	2.0138193483464701e+18
14436.0	2.0134455603625981e+18
14437.0	2.0130199760797693e+18
14438.0	2.012524563346227e+18
14439.0	2.0121519732555773e+18
14440.0	2.0117363596722173e+18
14441.0	2.0113045376204797e+18
14442.0	2.010873483965235e+18
14443.0	2.0104166152077312e+18
14444.0	2.0100217818841083e+18
14445.0	2.0095952295559163e+18
14446.0	2.0075850707763205e+18
14447.0	2.0087241095249915e+18
14448.0	2.0083146867343355e+18
14449.0	2.0078878374494208e+18
14450.0	2.00745571844096e+18
14451.0	2.007031404193382e+18
14452.0	2.0066019309518843e+18
14453.0	2.0061576316846075e+18
14454.0	2.0056459786059779e+18
14455.0	2.005095375542681e+18
14456.0	2.0046647597727744e+18
14457.0	2.0042362176667643e+18
14458.0	2.0038083164504056e+18
14459.0	2.0033744542892027e+18
14460.0	2.0029345741406205e+18
14461.0	2.002449767963033e+18
14462.0	2.0019345128161277e+18
14463.0	2.0016271659630587e+18
14464.0	2.0012326178521083e+18
14465.0	2.000800435090227e+18
14466.0	2.0003910005555197e+18
14467.0	1.999941693289267e+18
14468.0	1.9995375737765888e+18
14469.0	1.9990738481709053e+18
14470.0	1.9986654689230845e+18
14471.0	1.9982573279117307e+18
14472.0	1.9978336579092475e+18
14473.0	1.9974105667207168e+18
14474.0	1.9969862356959227e+18
14475.0	1.9965563883225083e+18
14476.0	1.9960608514375677e+18
14477.0	1.9957040889724928e+18
14478.0	1.995279450924646e+18
14479.0	1.9948501974646781e+18
14480.0	1.9944111326887933e+18
14481.0	1.9939990590980096e+18
14482.0	1.9935691597152256e+18
14483.0	1.993137072583475e+18
14484.0	1.992709329072947e+18
14485.0	1.9922606626963453e+18
14486.0	1.9916343843225597e+18
14487.0	1.9914340945625083e+18
14488.0	1.9909688841732093e+18
14489.0	1.9905439323914237e+18
14490.0	1.9901477870895096e+18
14491.0	1.9897300696432637e+18
14492.0	1.989304379663974e+18
14493.0	1.9888681519153147e+18
14494.0	1.9884333602963456e+18
14495.0	1.9880230416023547e+18
14496.0	1.9874932489977853e+18
14497.0	1.9871700912963581e+18
14498.0	1.9867446965960701e+18
14499.0	1.9863183606939645e+18
14500.0	1.985832042889216e+18
14501.0	1.9853003175493627e+18
14502.0	1.984718151509606e+18
14503.0	1.984463495181107e+18
14504.0	1.9840549380947965e+18
14505.0	1.983597493878783e+18
14506.0	1.9831367915274235e+18
14507.0	1.982591597438566e+18
14508.0	1.9823546192625656e+18
14509.0	1.981929172552908e+18
14510.0	1.981418628448256e+18
14511.0	1.9808652403671037e+18
14512.0	1.9804263114866683e+18
14513.0	1.9800114478448637e+18
14514.0	1.979558197932851e+18
14515.0	1.9791556034691072e+18
14516.0	1.9770379782324234e+18
14517.0	1.978297594832486e+18
14518.0	1.9778777416466427e+18
14519.0	1.9774515970047992e+18
14520.0	1.977024870193561e+18
14521.0	1.976597480682291e+18
14522.0	1.9761659136442365e+18
14523.0	1.9756300275548155e+18
14524.0	1.9752333135052792e+18
14525.0	1.9748853792112635e+18
14526.0	1.9744635530248187e+18
14527.0	1.97401913631703e+18
14528.0	1.973511477893529e+18
14529.0	1.9731737189810168e+18
14530.0	1.9727412442955773e+18
14531.0	1.9723261155737597e+18
14532.0	1.9717985476280317e+18
14533.0	1.971472760936857e+18
14534.0	1.9710481748983803e+18
14535.0	1.9706121182773245e+18
14536.0	1.9701907501088765e+18
14537.0	1.9697574684393472e+18
14538.0	1.9693402173997056e+18
14539.0	1.9689133362380797e+18
14540.0	1.9684862352949243e+18
14541.0	1.968039798610329e+18
14542.0	1.967629328921395e+18
14543.0	1.9671467507580925e+18
14544.0	1.9667748099457021e+18
14545.0	1.9663367920680955e+18
14546.0	1.9591477600452572e+18
14547.0	1.9590464608927693e+18
14548.0	1.9643985756684283e+18
14549.0	1.9638950461177853e+18
14550.0	1.9635570623905784e+18
14551.0	1.9631365230166016e+18
14552.0	1.9627089221124096e+18
14553.0	1.9622780362293243e+18
14554.0	1.96185619997655e+18
14555.0	1.961428786977177e+18
14556.0	1.960999994890649e+18
14557.0	1.9605741186842621e+18
14558.0	1.9601432126685181e+18
14559.0	1.958465393760663e+18
14560.0	1.9592771526459384e+18
14561.0	1.9588583648133115e+18
14562.0	1.9584102034309115e+18
14563.0	1.9580026663993344e+18
14564.0	1.9575479149264893e+18
14565.0	1.957154774423961e+18
14566.0	1.9567277355565053e+18
14567.0	1.9562955829936128e+18
14568.0	1.9558398735417341e+18
14569.0	1.9554399516884987e+18
14570.0	1.9546492549201912e+18
14571.0	1.9545840653697021e+18
14572.0	1.9541186519760893e+18
14573.0	1.9536857511493632e+18
14574.0	1.9532303839526907e+18
14575.0	1.9527238529581056e+18
14576.0	1.952218011507097e+18
14577.0	1.951803884385075e+18
14578.0	1.9513789443473405e+18
14579.0	1.9509534489837563e+18
14580.0	1.9505250075410427e+18
14581.0	1.9500891304361981e+18
14582.0	1.9496594726453243e+18
14583.0	1.949237748799897e+18
14584.0	1.9487860340031483e+18
14585.0	1.9483791496052733e+18
14586.0	1.9479482586890235e+18
14587.0	1.9475202551316477e+18
14588.0	1.9470921844654075e+18
14589.0	1.946670361634406e+18
14590.0	1.9462488743477243e+18
14591.0	1.9458231994679293e+18
14592.0	1.9453985026998264e+18
14593.0	1.9448920874680315e+18
14594.0	1.944560349898342e+18
14595.0	1.944133725428121e+18
14596.0	1.9435023518138363e+18
14597.0	1.9430380541050872e+18
14598.0	1.942846179796582e+18
14599.0	1.94244760347607e+18
14600.0	1.9419903924633597e+18
14601.0	1.9415590837944317e+18
14602.0	1.9411295451217915e+18
14603.0	1.9407112404729848e+18
14604.0	1.9402471524794365e+18
14605.0	1.939829633004339e+18
14606.0	1.9393898384195581e+18
14607.0	1.9390149515280381e+18
14608.0	1.9385951721619453e+18
14609.0	1.9381617931845627e+18
14610.0	1.937711980924108e+18
14611.0	1.9373117335928827e+18
14612.0	1.9369037871972352e+18
14613.0	1.9364844339724283e+18
14614.0	1.9360598781329405e+18
14615.0	1.9356374546776061e+18
14616.0	1.9352162576367616e+18
14617.0	1.9347919786213373e+18
14618.0	1.9343465804464125e+18
14619.0	1.9337591010623478e+18
14620.0	1.9329303451795456e+18
14621.0	1.9330931647053821e+18
14622.0	1.9326682112458747e+18
14623.0	1.9322463229837307e+18
14624.0	1.9317759200460797e+18
14625.0	1.931393568971161e+18
14626.0	1.9309694862491645e+18
14627.0	1.930540801536819e+18
14628.0	1.9301209114411003e+18
14629.0	1.9296947550552061e+18
14630.0	1.929264394298982e+18
14631.0	1.9288424070512637e+18
14632.0	1.9279381134311424e+18
14633.0	1.927911023260467e+18
14634.0	1.9275554050015227e+18
14635.0	1.927045032024473e+18
14636.0	1.9264687682093046e+18
14637.0	1.9262842138001405e+18
14638.0	1.9258430082514936e+18
14639.0	1.9254091913887741e+18
14640.0	1.9249928580628475e+18
14641.0	1.9226960756473843e+18
14642.0	1.9241351161839616e+18
14643.0	1.9237141590573053e+18
14644.0	1.9232747402821627e+18
14645.0	1.9228403597049853e+18
14646.0	1.9224018167005181e+18
14647.0	1.9219520782598144e+18
14648.0	1.921553914658816e+18
