# Flux units: erg / (cm m2 s)
# Wavelength units: Angstrom
wave	flux
14000.0	1.750581321190604e+18
14001.0	1.7507411426279421e+18
14002.0	1.7506477522550781e+18
14003.0	1.750351228384051e+18
14004.0	1.7500464132128765e+18
14005.0	1.749738163745587e+18
14006.0	1.7494192909451261e+18
14007.0	1.7491059512705021e+18
14008.0	1.7486979545432061e+18
14009.0	1.7484785354014717e+18
14010.0	1.7481581140639741e+18
14011.0	1.7472077434978304e+18
14012.0	1.7475387512586237e+18
14013.0	1.7472580483022843e+18
14014.0	1.7469454837350395e+18
14015.0	1.7466412205342715e+18
14016.0	1.7463334727057403e+18
14017.0	1.7460246024814587e+18
14018.0	1.7456855986995197e+18
14019.0	1.7454055836090365e+18
14020.0	1.7450951883358203e+18
14021.0	1.7447845263048704e+18
14022.0	1.7444722217844733e+18
14023.0	1.7441508693114877e+18
14024.0	1.743842556090777e+18
14025.0	1.7435455456804856e+18
14026.0	1.7432357107662843e+18
14027.0	1.7429252332847104e+18
14028.0	1.7426020353179643e+18
14029.0	1.742257790333747e+18
14030.0	1.740384340698727e+18
14031.0	1.7413536057655288e+18
14032.0	1.7413558086139896e+18
14033.0	1.7410208582074365e+18
14034.0	1.7407628699238395e+18
14035.0	1.7404577477296125e+18
14036.0	1.7401320633794557e+18
14037.0	1.7398402539061243e+18
14038.0	1.739538874708787e+18
14039.0	1.7392267765481472e+18
14040.0	1.7389212567339005e+18
14041.0	1.7386142974345213e+18
14042.0	1.738296588972851e+18
14043.0	1.7379603836305405e+18
14044.0	1.7376632826232835e+18
14045.0	1.7373624017092603e+18
14046.0	1.7370718303944696e+18
14047.0	1.736757665280819e+18
14048.0	1.7364590794899453e+18
14049.0	1.736155078013747e+18
14050.0	1.7358479089991675e+18
14051.0	1.7355316081459197e+18
14052.0	1.7352283280900093e+18
14053.0	1.734926782798233e+18
14054.0	1.7346199795269627e+18
14055.0	1.7343130672037885e+18
14056.0	1.7340061716578304e+18
14057.0	1.733699363353395e+18
14058.0	1.733392487940096e+18
14059.0	1.7330558833000448e+18
14060.0	1.732778705236787e+18
14061.0	1.732464754871501e+18
14062.0	1.7321627112964093e+18
14063.0	1.7318296281939965e+18
14064.0	1.7311683726802944e+18
14065.0	1.731231896253235e+18
14066.0	1.7309369980944381e+18
14067.0	1.730628142969651e+18
14068.0	1.730328010319462e+18
14069.0	1.7300201651830781e+18
14070.0	1.729715135263539e+18
14071.0	1.7294073387810816e+18
14072.0	1.729104535198105e+18
14073.0	1.728798554010419e+18
14074.0	1.7284920174968832e+18
14075.0	1.72816539362263e+18
14076.0	1.7278638164541437e+18
14077.0	1.7272004637884416e+18
14078.0	1.7272123990999035e+18
14079.0	1.7269489397661693e+18
14080.0	1.7266447084421115e+18
14081.0	1.726351481294028e+18
14082.0	1.7260478875041787e+18
14083.0	1.72573878910976e+18
14084.0	1.7254145677328381e+18
14085.0	1.7247807463227387e+18
14086.0	1.7247603536166904e+18
14087.0	1.7244971660738557e+18
14088.0	1.7242028819611643e+18
14089.0	1.723911181539737e+18
14090.0	1.7236087755767803e+18
14091.0	1.7233066648928253e+18
14092.0	1.7230028697763835e+18
14093.0	1.722698140169011e+18
14094.0	1.7223922713886715e+18
14095.0	1.7220820942192637e+18
14096.0	1.7217413992939515e+18
14097.0	1.721434950021939e+18
14098.0	1.7211532421103616e+18
14099.0	1.7208675814866936e+18
14100.0	1.7205561057607677e+18
14101.0	1.7202661233262587e+18
14102.0	1.7199605934456832e+18
14103.0	1.7196426199039995e+18
14104.0	1.7193527532322813e+18
14105.0	1.7190526172266493e+18
14106.0	1.7187489949155325e+18
14107.0	1.7184225807564797e+18
14108.0	1.718124610689433e+18
14109.0	1.7178333615751165e+18
14110.0	1.7175315780468733e+18
14111.0	1.7172228521066493e+18
14112.0	1.7169129802825725e+18
14113.0	1.7166168238325757e+18
14114.0	1.716290622744166e+18
14115.0	1.7159726424915963e+18
14116.0	1.715433731470131e+18
14117.0	1.7123377680482304e+18
14118.0	1.714961550147584e+18
14119.0	1.7147306956554235e+18
14120.0	1.7144543128322043e+18
14121.0	1.7141655819780093e+18
14122.0	1.7138676773421053e+18
14123.0	1.7135675262369787e+18
14124.0	1.7132399829712893e+18
14125.0	1.7125493639741437e+18
14126.0	1.7126605717503997e+18
14127.0	1.7123827242762237e+18
14128.0	1.7120838297845757e+18
14129.0	1.7117719379836928e+18
14130.0	1.711454071816192e+18
14131.0	1.711170417747558e+18
14132.0	1.7108404552073213e+18
14133.0	1.7100674265251835e+18
14134.0	1.7102198995419139e+18
14135.0	1.709954809462784e+18
14136.0	1.709662786918809e+18
14137.0	1.7093587133005821e+18
14138.0	1.7090512221634557e+18
14139.0	1.7087629694599165e+18
14140.0	1.7084547350921208e+18
14141.0	1.708101344847462e+18
14142.0	1.7077441881178112e+18
14143.0	1.7075449234456576e+18
14144.0	1.7072612240785403e+18
14145.0	1.70696268358615e+18
14146.0	1.7066579757891581e+18
14147.0	1.706363926557491e+18
14148.0	1.7060634315194365e+18
14149.0	1.7057646678900728e+18
14150.0	1.705466415965798e+18
14151.0	1.7051618994290685e+18
14152.0	1.704864400801792e+18
14153.0	1.7045662428299261e+18
14154.0	1.7042385032708093e+18
14155.0	1.703920214317465e+18
14156.0	1.7036610415624187e+18
14157.0	1.703364542857216e+18
14158.0	1.7030619053686781e+18
14159.0	1.7027637759180797e+18
14160.0	1.702444039090995e+18
14161.0	1.7021087917277181e+18
14162.0	1.7017639612186621e+18
14163.0	1.7015253573304315e+18
14164.0	1.7012013322469376e+18
14165.0	1.7009398576578557e+18
14166.0	1.7006626477178877e+18
14167.0	1.7003521769471995e+18
14168.0	1.7000662948642808e+18
14169.0	1.6997680127410168e+18
14170.0	1.6994691383820285e+18
14171.0	1.6991676484550653e+18
14172.0	1.6988738475261947e+18
14173.0	1.6985602176057341e+18
14174.0	1.6982674702860285e+18
14175.0	1.697976895615795e+18
14176.0	1.6976796939452408e+18
14177.0	1.6973811081543675e+18
14178.0	1.6970820140138493e+18
14179.0	1.6967800996233213e+18
14180.0	1.6964849179295744e+18
14181.0	1.6961860049829885e+18
14182.0	1.69588598809559e+18
14183.0	1.6955860584497147e+18
14184.0	1.695277525447475e+18
14185.0	1.6949519367274493e+18
14186.0	1.6942216563916797e+18
14187.0	1.694287610983219e+18
14188.0	1.694074557117235e+18
14189.0	1.6937878160408576e+18
14190.0	1.6934954478862339e+18
14191.0	1.69319577157632e+18
14192.0	1.6928819923386365e+18
14193.0	1.6925338265190397e+18
14194.0	1.6923032538841085e+18
14195.0	1.6920136942354424e+18
14196.0	1.691717492486963e+18
14197.0	1.6914200022482941e+18
14198.0	1.6911166131404797e+18
14199.0	1.690811182245478e+18
14200.0	1.690219862556672e+18
14201.0	1.690144234222387e+18
14202.0	1.689924813402931e+18
14203.0	1.6896318865670136e+18
14204.0	1.6893364850917376e+18
14205.0	1.6890348458475515e+18
14206.0	1.6886304545439744e+18
14207.0	1.6884382614683648e+18
14208.0	1.6881479535558653e+18
14209.0	1.6877294509359096e+18
14210.0	1.687454972326707e+18
14211.0	1.6872527716417533e+18
14212.0	1.6869675019272187e+18
14213.0	1.6866727010762747e+18
14214.0	1.6863755296047104e+18
14215.0	1.6860649481043965e+18
14216.0	1.685785110852403e+18
14217.0	1.685489358733312e+18
14218.0	1.6851799986143232e+18
14219.0	1.6848955878932477e+18
14220.0	1.6845953159921661e+18
14221.0	1.6843023086256125e+18
14222.0	1.6839910040272893e+18
14223.0	1.6837030751240187e+18
14224.0	1.6833854119608315e+18
14225.0	1.682017077323367e+18
14226.0	1.6826936621793275e+18
14227.0	1.6824662939926525e+18
14228.0	1.679164358367642e+18
14229.0	1.6810080838090732e+18
14230.0	1.681613085317529e+18
14231.0	1.6813328017915904e+18
14232.0	1.6810504764784637e+18
14233.0	1.6807569406296061e+18
14234.0	1.6804640205045752e+18
14235.0	1.6801671225016315e+18
14236.0	1.6798740799029243e+18
14237.0	1.6795745478770688e+18
14238.0	1.6792742910754813e+18
14239.0	1.678935438288486e+18
14240.0	1.6769059555115005e+18
14241.0	1.6783003938193403e+18
14242.0	1.6780709268029435e+18
14243.0	1.677669889264844e+18
14244.0	1.6775110358728704e+18
14245.0	1.6772010348642304e+18
14246.0	1.676905952156057e+18
14247.0	1.6766119163461632e+18
14248.0	1.676304881549312e+18
14249.0	1.6760242473795581e+18
14250.0	1.6757327549956096e+18
14251.0	1.6754395815346176e+18
14252.0	1.6751425526693885e+18
14253.0	1.6748389437800443e+18
14254.0	1.674533249482752e+18
14255.0	1.6741538797191163e+18
14256.0	1.6729430864953344e+18
14257.0	1.6732708411539453e+18
14258.0	1.6733329470521344e+18
14259.0	1.6730432280199165e+18
14260.0	1.6727305342681085e+18
14261.0	1.6724392566325243e+18
14262.0	1.672113444775526e+18
14263.0	1.6703957598470144e+18
14264.0	1.6707842950037496e+18
14265.0	1.6712381287628795e+18
14266.0	1.6710104032215037e+18
14267.0	1.6707325976903675e+18
14268.0	1.6704407982833661e+18
14269.0	1.6701423165112315e+18
14270.0	1.6698548053606397e+18
14271.0	1.6695492234706941e+18
14272.0	1.6692245994405888e+18
14273.0	1.668754709885747e+18
14274.0	1.6661284883791872e+18
14275.0	1.6677297411063803e+18
14276.0	1.6680074241638395e+18
14277.0	1.6677828896489472e+18
14278.0	1.667514012952166e+18
14279.0	1.6672280167841787e+18
14280.0	1.6669368767217661e+18
14281.0	1.6666529508622333e+18
14282.0	1.6663627805229053e+18
14283.0	1.6660559738961915e+18
14284.0	1.665759985218355e+18
14285.0	1.6654672915857405e+18
14286.0	1.6651735476994043e+18
14287.0	1.664877862689177e+18
14288.0	1.664551143184793e+18
14289.0	1.663150658368306e+18
14290.0	1.6639709199466496e+18
14291.0	1.6637100929581053e+18
14292.0	1.663419823633203e+18
14293.0	1.6631241738551293e+18
14294.0	1.6627138132180992e+18
14295.0	1.6624958201397243e+18
14296.0	1.661361062936576e+18
14297.0	1.661862263809638e+18
14298.0	1.6612924357345277e+18
14299.0	1.6613290570416125e+18
14300.0	1.6610798801518584e+18
14301.0	1.660797522962022e+18
14302.0	1.6605074868404221e+18
14303.0	1.6601791483346944e+18
14304.0	1.6599087281340413e+18
14305.0	1.659630513238835e+18
14306.0	1.6593093419597821e+18
14307.0	1.659010477667123e+18
14308.0	1.6587207754121213e+18
14309.0	1.6584142556758013e+18
14310.0	1.6580840599322621e+18
14311.0	1.6577415211909115e+18
14312.0	1.6574834842533885e+18
14313.0	1.6571023277162496e+18
14314.0	1.6569740541558781e+18
14315.0	1.656691144995635e+18
14316.0	1.6563659723505661e+18
14317.0	1.6561045682257915e+18
14318.0	1.6558387449823232e+18
14319.0	1.655556292162355e+18
14320.0	1.6552686702821368e+18
14321.0	1.6549762350186493e+18
14322.0	1.6546570602283003e+18
14323.0	1.654378875532083e+18
14324.0	1.6541121597407232e+18
14325.0	1.653816137508454e+18
14326.0	1.653537967911731e+18
14327.0	1.6532412225814525e+18
14328.0	1.6529514616061952e+18
14329.0	1.6526713005539323e+18
14330.0	1.6523825445339133e+18
14331.0	1.6520808935456765e+18
14332.0	1.6517840710402048e+18
14333.0	1.6514948553244667e+18
14334.0	1.6512047588048893e+18
14335.0	1.6508942880342013e+18
14336.0	1.6505189632573435e+18
14337.0	1.650331546655129e+18
14338.0	1.6500469614510077e+18
14339.0	1.649749209487769e+18
14340.0	1.6494710013034493e+18
14341.0	1.6491794032230397e+18
14342.0	1.64888721794007e+18
14343.0	1.648606372377395e+18
14344.0	1.6483008206864381e+18
14345.0	1.648020886126592e+18
14346.0	1.6477334420848637e+18
14347.0	1.6474280816541693e+18
14348.0	1.6471549955538944e+18
14349.0	1.646868940665651e+18
14350.0	1.6464882421465085e+18
14351.0	1.6461956860870653e+18
14352.0	1.6459943896940547e+18
14353.0	1.6457190319587325e+18
14354.0	1.6454242311077888e+18
14355.0	1.6451159514415104e+18
14356.0	1.6448271635447805e+18
14357.0	1.6445650665209853e+18
14358.0	1.6442881149501437e+18
14359.0	1.6439680643891195e+18
14360.0	1.6436840680652797e+18
14361.0	1.6433994358849533e+18
14362.0	1.643114132615987e+18
14363.0	1.642815335432192e+18
14364.0	1.6422851586293757e+18
14365.0	1.6421158580649981e+18
14366.0	1.6419029568716797e+18
14367.0	1.6416788233322493e+18
14368.0	1.6413929999695872e+18
14369.0	1.641109597559193e+18
14370.0	1.6408235040833533e+18
14371.0	1.6405373770530816e+18
14372.0	1.6402426550550525e+18
14373.0	1.6399589020008443e+18
14374.0	1.6396740231954432e+18
14375.0	1.6393831717011456e+18
14376.0	1.6391042521628667e+18
14377.0	1.6388169943482363e+18
14378.0	1.6385285705170941e+18
14379.0	1.638244478563123e+18
14380.0	1.6379570932416512e+18
14381.0	1.6376591617622016e+18
14382.0	1.6373838208040957e+18
14383.0	1.637098282654105e+18
14384.0	1.636793210791526e+18
14385.0	1.6365272650743803e+18
14386.0	1.6362211580575744e+18
14387.0	1.6359546503036925e+18
14388.0	1.6356656224927741e+18
14389.0	1.6353818929266685e+18
14390.0	1.635095109907251e+18
14391.0	1.634797107963494e+18
14392.0	1.6345038942371835e+18
14393.0	1.6342186043899904e+18
14394.0	1.633888616683929e+18
14395.0	1.6336351297273853e+18
14396.0	1.6333577268494339e+18
14397.0	1.6330747539357693e+18
14398.0	1.6327881353330685e+18
14399.0	1.6324978676858877e+18
14400.0	1.632193460201062e+18
14401.0	1.6319130944667648e+18
14402.0	1.6316145992728576e+18
14403.0	1.6310662812663805e+18
14404.0	1.6281548756090865e+18
14405.0	1.6285880230608865e+18
14406.0	1.6304259486187515e+18
14407.0	1.6299279387721725e+18
14408.0	1.6298946678751232e+18
14409.0	1.6296214978887672e+18
14410.0	1.6293428836958203e+18
14411.0	1.6290755337256957e+18
14412.0	1.6287927638163453e+18
14413.0	1.6285130406494203e+18
14414.0	1.6282265277431805e+18
14415.0	1.6279424055902203e+18
14416.0	1.6276545488289787e+18
14417.0	1.6273620045135867e+18
14418.0	1.627072366012006e+18
14419.0	1.6267986809651197e+18
14420.0	1.626511189947187e+18
14421.0	1.626228493857587e+18
14422.0	1.625927743805849e+18
14423.0	1.625579131712307e+18
14424.0	1.6242645814738941e+18
14425.0	1.6250165245509624e+18
14426.0	1.624800132018995e+18
14427.0	1.6245245964451835e+18
14428.0	1.6241985799061504e+18
14429.0	1.6239310739079165e+18
14430.0	1.6236130617786368e+18
14431.0	1.622885041333862e+18
14432.0	1.6230574540718077e+18
14433.0	1.622577568651673e+18
14434.0	1.6224868341121016e+18
14435.0	1.6221970832031741e+18
14436.0	1.6219477620293632e+18
14437.0	1.621670776904089e+18
14438.0	1.6213385410510843e+18
14439.0	1.6210863560065021e+18
14440.0	1.620823988869529e+18
14441.0	1.620529236672512e+18
14442.0	1.6202382106951683e+18
14443.0	1.619912601842483e+18
14444.0	1.6196760816844797e+18
14445.0	1.619384354419507e+18
14446.0	1.6181016339152896e+18
14447.0	1.618754504176435e+18
14448.0	1.618551785075507e+18
14449.0	1.6182754827829243e+18
14450.0	1.617987273700147e+18
14451.0	1.6177074263818237e+18
14452.0	1.6174277485133821e+18
14453.0	1.617142967015833e+18
14454.0	1.6168582425608192e+18
14455.0	1.6165673122136061e+18
14456.0	1.616284889592627e+18
14457.0	1.6160028629139453e+18
14458.0	1.6157157393170432e+18
14459.0	1.6154228477132797e+18
14460.0	1.6151239850983421e+18
14461.0	1.6147928229871613e+18
14462.0	1.6144741599019003e+18
14463.0	1.614253636819353e+18
14464.0	1.6140016161914877e+18
14465.0	1.6137068103073792e+18
14466.0	1.6134572727074813e+18
14467.0	1.6131609283526653e+18
14468.0	1.6128950413557757e+18
14469.0	1.6125476489658365e+18
14470.0	1.6122811261124605e+18
14471.0	1.6120295131709435e+18
14472.0	1.611755953953177e+18
14473.0	1.6114808076107776e+18
14474.0	1.6112044180766715e+18
14475.0	1.610921611257446e+18
14476.0	1.6106299594899456e+18
14477.0	1.61035854104494e+18
14478.0	1.610077319672627e+18
14479.0	1.6097955865952253e+18
14480.0	1.6094965494972413e+18
14481.0	1.6092367912173565e+18
14482.0	1.608949602189312e+18
14483.0	1.6086634818699261e+18
14484.0	1.6083695970549757e+18
14485.0	1.6080477194551293e+18
14486.0	1.607524246827827e+18
14487.0	1.607534516161741e+18
14488.0	1.6072562442239997e+18
14489.0	1.6069450855874557e+18
14490.0	1.6066933736603648e+18
14491.0	1.606426919593574e+18
14492.0	1.6061483355996157e+18
14493.0	1.6058524643622912e+18
14494.0	1.6055597623410685e+18
14495.0	1.6052893085859835e+18
14496.0	1.6048938394058747e+18
14497.0	1.604735293036953e+18
14498.0	1.604463416573952e+18
14499.0	1.6041847654711293e+18
14500.0	1.6039029082423293e+18
14501.0	1.603594036340326e+18
14502.0	1.603096915686195e+18
14503.0	1.603039901673062e+18
14504.0	1.6027714662170624e+18
14505.0	1.6024933939281915e+18
14506.0	1.6021887448514557e+18
14507.0	1.601690607498035e+18
14508.0	1.6016483675013115e+18
14509.0	1.6013801535045632e+18
14510.0	1.6010981670911997e+18
14511.0	1.6008200444706813e+18
14512.0	1.6005280252821504e+18
14513.0	1.6002525618503677e+18
14514.0	1.5999406398504957e+18
14515.0	1.5996325061459965e+18
14516.0	1.596452903269172e+18
14517.0	1.5989581040058363e+18
14518.0	1.598836521199206e+18
14519.0	1.5985412489084925e+18
14520.0	1.5982801618731e+18
14521.0	1.5980031700369405e+18
14522.0	1.5977201904123901e+18
14523.0	1.5974138434813947e+18
14524.0	1.5971465790750715e+18
14525.0	1.5968807860305915e+18
14526.0	1.5966021382832125e+18
14527.0	1.5962783464030205e+18
14528.0	1.595908957405184e+18
14529.0	1.5957572225859581e+18
14530.0	1.595474630515097e+18
14531.0	1.5952119915872256e+18
14532.0	1.5949229453213693e+18
14533.0	1.5946543756476408e+18
14534.0	1.594378506207232e+18
14535.0	1.594088485185126e+18
14536.0	1.5938168553472e+18
14537.0	1.5935283946061821e+18
14538.0	1.5932643413590013e+18
14539.0	1.5929864334868475e+18
14540.0	1.5927070223761405e+18
14541.0	1.5923995010400253e+18
14542.0	1.592145213810278e+18
14543.0	1.5918471598571515e+18
14544.0	1.591581756044083e+18
14545.0	1.591272770057011e+18
14546.0	1.5893261046513656e+18
14547.0	1.589023535949413e+18
14548.0	1.5904161723842557e+18
14549.0	1.5900626395332603e+18
14550.0	1.589897305102745e+18
14551.0	1.589641586776473e+18
14552.0	1.5893614525677563e+18
14553.0	1.5890776491819003e+18
14554.0	1.5888101985484797e+18
14555.0	1.588531128015257e+18
14556.0	1.5882491365687293e+18
14557.0	1.587962959206809e+18
14558.0	1.5876203265130493e+18
14559.0	1.585205586847332e+18
14560.0	1.5870569996091387e+18
14561.0	1.5868415398903805e+18
14562.0	1.586545094872268e+18
14563.0	1.586292040767897e+18
14564.0	1.585987881585868e+18
14565.0	1.5857507373154301e+18
14566.0	1.5854762603839488e+18
14567.0	1.585195109475942e+18
14568.0	1.5849099119034363e+18
14569.0	1.5846155187388416e+18
14570.0	1.583759538467635e+18
14571.0	1.5840662930849787e+18
14572.0	1.5837637982027776e+18
14573.0	1.5834666485415933e+18
14574.0	1.5832168894824448e+18
14575.0	1.5829377786839037e+18
14576.0	1.5826542655438843e+18
14577.0	1.5823950810447872e+18
14578.0	1.5821241810157565e+18
14579.0	1.581853445403443e+18
14580.0	1.581575467066982e+18
14581.0	1.5812941332873216e+18
14582.0	1.581011651946086e+18
14583.0	1.5807446257762301e+18
14584.0	1.5804445149364224e+18
14585.0	1.5801867112022013e+18
14586.0	1.579913504305971e+18
14587.0	1.579639515591475e+18
14588.0	1.5793635404546043e+18
14589.0	1.579087385801523e+18
14590.0	1.5788108133957632e+18
14591.0	1.5785277750509565e+18
14592.0	1.5782366937087997e+18
14593.0	1.577861424296755e+18
14594.0	1.5776916942356475e+18
14595.0	1.5774104544083965e+18
14596.0	1.5768462383120381e+18
14597.0	1.5765142792830976e+18
14598.0	1.5765471609487357e+18
14599.0	1.5763187055984635e+18
14600.0	1.5760437387722747e+18
14601.0	1.5757676109627387e+18
14602.0	1.5754843729690621e+18
14603.0	1.5752103238565885e+18
14604.0	1.5748839969390592e+18
14605.0	1.5746082147401723e+18
14606.0	1.574277282476851e+18
14607.0	1.5741045560049664e+18
14608.0	1.5738144309641216e+18
14609.0	1.5735208951152637e+18
14610.0	1.5732299664457723e+18
14611.0	1.5729534124949504e+18
14612.0	1.572735652619878e+18
14613.0	1.5724657239916541e+18
14614.0	1.5721665090551803e+18
14615.0	1.5719003402010621e+18
14616.0	1.5716421623349243e+18
14617.0	1.571311664601497e+18
14618.0	1.5710221569622016e+18
14619.0	1.5704264953298941e+18
14620.0	1.569893808655565e+18
14621.0	1.570231599444787e+18
14622.0	1.5699830366011392e+18
14623.0	1.5697159450001405e+18
14624.0	1.5693918964285437e+18
14625.0	1.5691637850111997e+18
14626.0	1.5688775120191488e+18
14627.0	1.5686042799570941e+18
14628.0	1.5683516402499584e+18
14629.0	1.568076195273113e+18
14630.0	1.5677814330097664e+18
14631.0	1.567507388930457e+18
14632.0	1.5671254186983421e+18
14633.0	1.5669423356510203e+18
14634.0	1.5666956971540475e+18
14635.0	1.5663800204132347e+18
14636.0	1.5659901548232701e+18
14637.0	1.5658795359272952e+18
14638.0	1.5655852987908093e+18
14639.0	1.5653013947416576e+18
14640.0	1.5650138030604288e+18
14641.0	1.5644113433001981e+18
14642.0	1.564459842876211e+18
14643.0	1.5642021582602237e+18
14644.0	1.5639135733678075e+18
14645.0	1.5636151134060541e+18
14646.0	1.5633431513792507e+18
14647.0	1.563073407300403e+18
