# Flux units: erg / (cm m2 s)
# Wavelength units: Angstrom
wave	flux
14000.0	1.6362782526013437e+18
14001.0	1.6359865337249792e+18
14002.0	1.6357277367795707e+18
14003.0	1.6354466110373885e+18
14004.0	1.6351653493997565e+18
14005.0	1.6348840038760448e+18
14006.0	1.6346019100884992e+18
14007.0	1.6343208665546747e+18
14008.0	1.6340329913384957e+18
14009.0	1.6337568551403515e+18
14010.0	1.633475935757926e+18
14011.0	1.6331277984595963e+18
14012.0	1.632912290086912e+18
14013.0	1.6326354962219003e+18
14014.0	1.632355246250393e+18
14015.0	1.6320745751707643e+18
14016.0	1.6317941926592507e+18
14017.0	1.6315137581383683e+18
14018.0	1.6312333286506493e+18
14019.0	1.630952941105971e+18
14020.0	1.6306725451726843e+18
14021.0	1.630392228092313e+18
14022.0	1.6301120620068861e+18
14023.0	1.6298317164052477e+18
14024.0	1.6295513003393021e+18
14025.0	1.629271835541504e+18
14026.0	1.6289917969629181e+18
14027.0	1.628711947966873e+18
14028.0	1.6284320150847488e+18
14029.0	1.6281514899668992e+18
14030.0	1.6278490756153344e+18
14031.0	1.6275855055519741e+18
14032.0	1.6273129328345085e+18
14033.0	1.627029792148685e+18
14034.0	1.6267545921191933e+18
14035.0	1.6264753068376061e+18
14036.0	1.626196041688678e+18
14037.0	1.6259168201605115e+18
14038.0	1.625637647286272e+18
14039.0	1.6253585297768443e+18
14040.0	1.6250794659545085e+18
14041.0	1.6248004021321725e+18
14042.0	1.6245203803308032e+18
14043.0	1.624238648931123e+18
14044.0	1.6239624338800637e+18
14045.0	1.623685135020851e+18
14046.0	1.6234064755294205e+18
14047.0	1.6231278076493821e+18
14048.0	1.6228493327073275e+18
14049.0	1.6225708476989437e+18
14050.0	1.6222924130222083e+18
14051.0	1.6220133894651901e+18
14052.0	1.6217355906449405e+18
14053.0	1.6214575451996157e+18
14054.0	1.6211793923801085e+18
14055.0	1.6209012882145275e+18
14056.0	1.620623246124646e+18
14057.0	1.6203452677881853e+18
14058.0	1.620067344816537e+18
14059.0	1.6197894839205885e+18
14060.0	1.6195116632899581e+18
14061.0	1.6192332068028408e+18
14062.0	1.6189560773935101e+18
14063.0	1.618677117589913e+18
14064.0	1.6183946110828544e+18
14065.0	1.6181226373119997e+18
14066.0	1.6178462008016893e+18
14067.0	1.617568898587033e+18
14068.0	1.6172916030832637e+18
14069.0	1.6170143478448123e+18
14070.0	1.616737201658265e+18
14071.0	1.616459810524364e+18
14072.0	1.6161830753796093e+18
14073.0	1.6159061154201595e+18
14074.0	1.6156291588161533e+18
14075.0	1.6153504372490235e+18
14076.0	1.6150752825180157e+18
14077.0	1.6147932541616125e+18
14078.0	1.6145210304102397e+18
14079.0	1.614244956287795e+18
14080.0	1.6139688905539584e+18
14081.0	1.613692457399091e+18
14082.0	1.6134159588130816e+18
14083.0	1.6131392991657984e+18
14084.0	1.6128618476339197e+18
14085.0	1.6125653271183357e+18
14086.0	1.6123076525686781e+18
14087.0	1.6120344322506747e+18
14088.0	1.6117587305824253e+18
14089.0	1.6114828946964475e+18
14090.0	1.6112070151897085e+18
14091.0	1.6109312111804408e+18
14092.0	1.6106554390478848e+18
14093.0	1.6103797004697597e+18
14094.0	1.6101040088678397e+18
14095.0	1.609828312232755e+18
14096.0	1.6095522028781563e+18
14097.0	1.6092754543116285e+18
14098.0	1.6090016551796733e+18
14099.0	1.608726448439295e+18
14100.0	1.6084500119289853e+18
14101.0	1.608176073546137e+18
14102.0	1.6079008651280384e+18
14103.0	1.6076240444194813e+18
14104.0	1.6073507586703357e+18
14105.0	1.6070758186876925e+18
14106.0	1.6068008938045437e+18
14107.0	1.6065260209307643e+18
14108.0	1.606251200066355e+18
14109.0	1.6059760923115515e+18
14110.0	1.6057016187355133e+18
14111.0	1.6054268700131323e+18
14112.0	1.6051522739634168e+18
14113.0	1.6048779027283965e+18
14114.0	1.604603351977164e+18
14115.0	1.6043282844876797e+18
14116.0	1.6040495981527037e+18
14117.0	1.603734688130662e+18
14118.0	1.6035035903688701e+18
14119.0	1.6032312005230592e+18
14120.0	1.6029575087652861e+18
14121.0	1.6026837582872576e+18
14122.0	1.602409526303129e+18
14123.0	1.6021352557314043e+18
14124.0	1.6018577119248381e+18
14125.0	1.6015463788052475e+18
14126.0	1.601311774605312e+18
14127.0	1.601040804111974e+18
14128.0	1.600767541850931e+18
14129.0	1.6004929776779261e+18
14130.0	1.6002189839302653e+18
14131.0	1.5999467719229437e+18
14132.0	1.5996697213665275e+18
14133.0	1.5993512713519101e+18
14134.0	1.5991231179915261e+18
14135.0	1.5988528034873341e+18
14136.0	1.5985811635830781e+18
14137.0	1.598308342562816e+18
14138.0	1.5980353822916605e+18
14139.0	1.5977626451574781e+18
14140.0	1.597489730184806e+18
14141.0	1.5972162682748928e+18
14142.0	1.596942930516377e+18
14143.0	1.5966715271708667e+18
14144.0	1.5963992463769595e+18
14145.0	1.5961267558678525e+18
14146.0	1.595854236837478e+18
14147.0	1.595581905711923e+18
14148.0	1.595309634984345e+18
14149.0	1.5950373944557565e+18
14150.0	1.594765133794508e+18
14151.0	1.594492795958067e+18
14152.0	1.5942209027178493e+18
14153.0	1.5939488551272443e+18
14154.0	1.5936741080825853e+18
14155.0	1.5934042096533501e+18
14156.0	1.593132980790886e+18
14157.0	1.5928611462709243e+18
14158.0	1.5925891154575357e+18
14159.0	1.592317546017587e+18
14160.0	1.5920438056058877e+18
14161.0	1.5917692431106043e+18
14162.0	1.5914941135454203e+18
14163.0	1.5912307448086528e+18
14164.0	1.5909598397464576e+18
14165.0	1.5906882652733435e+18
14166.0	1.5904180933754875e+18
14167.0	1.5901471128158205e+18
14168.0	1.5898759309295613e+18
14169.0	1.589604953725337e+18
14170.0	1.5893336258772992e+18
14171.0	1.589062630218137e+18
14172.0	1.588791980169625e+18
14173.0	1.588519875536486e+18
14174.0	1.588249599619891e+18
14175.0	1.5879796995129341e+18
14176.0	1.5877091065069563e+18
14177.0	1.587438518534144e+18
14178.0	1.5871679490162685e+18
14179.0	1.586897163072307e+18
14180.0	1.5866270733828093e+18
14181.0	1.5863567068692477e+18
14182.0	1.5860863202230272e+18
14183.0	1.5858160828940285e+18
14184.0	1.5855453942579197e+18
14185.0	1.5852750763982848e+18
14186.0	1.584997160137523e+18
14187.0	1.584731524798873e+18
14188.0	1.5844655069396987e+18
14189.0	1.5841958199033853e+18
14190.0	1.5839260087156733e+18
14191.0	1.5836561455185915e+18
14192.0	1.583385765583257e+18
14193.0	1.5831159711727613e+18
14194.0	1.5828472404377595e+18
14195.0	1.5825779040452605e+18
14196.0	1.5823084552454144e+18
14197.0	1.5820390316113915e+18
14198.0	1.5817691986132992e+18
14199.0	1.5814999729504253e+18
14200.0	1.581226663713177e+18
14201.0	1.5809605233803264e+18
14202.0	1.580692696937267e+18
14203.0	1.5804233722888187e+18
14204.0	1.580154374796083e+18
14205.0	1.5798848353992701e+18
14206.0	1.5796062346280957e+18
14207.0	1.5793465048694781e+18
14208.0	1.5790784871661563e+18
14209.0	1.5787984284549115e+18
14210.0	1.578531296588595e+18
14211.0	1.5782727731118075e+18
14212.0	1.5780047788965885e+18
14213.0	1.5777365917433853e+18
14214.0	1.5774680422023165e+18
14215.0	1.5771985447485437e+18
14216.0	1.576931639374643e+18
14217.0	1.5766634572546048e+18
14218.0	1.576395305333555e+18
14219.0	1.5761271886446587e+18
14220.0	1.5758591373869056e+18
14221.0	1.5755911230390272e+18
14222.0	1.5753231355346944e+18
14223.0	1.5750551765516285e+18
14224.0	1.5747869038346235e+18
14225.0	1.5745028622123005e+18
14226.0	1.5742494943739901e+18
14227.0	1.5739832886099965e+18
14228.0	1.573666709254963e+18
14229.0	1.5734323500023805e+18
14230.0	1.573181213533798e+18
14231.0	1.5729142863495163e+18
14232.0	1.5726470588530685e+18
14233.0	1.5723797978021885e+18
14234.0	1.5721125233295357e+18
14235.0	1.5718450794070013e+18
14236.0	1.5715780599480315e+18
14237.0	1.5713105640161272e+18
14238.0	1.5710427744829437e+18
14239.0	1.5707702034431995e+18
14240.0	1.5703226728841213e+18
14241.0	1.570231149815398e+18
14242.0	1.569972523997593e+18
14243.0	1.5696961394966525e+18
14244.0	1.5694423505502203e+18
14245.0	1.5691764232880125e+18
14246.0	1.5689098769465344e+18
14247.0	1.5686438657982464e+18
14248.0	1.5683755930812416e+18
14249.0	1.568111033162137e+18
14250.0	1.5678448206872576e+18
14251.0	1.5675787726290941e+18
14252.0	1.567312551765606e+18
14253.0	1.5670462101061632e+18
14254.0	1.566779712418611e+18
14255.0	1.566509275440742e+18
14256.0	1.5662245442748416e+18
14257.0	1.5659666247778304e+18
14258.0	1.5657066886594557e+18
14259.0	1.565439731276185e+18
14260.0	1.5651743878610941e+18
14261.0	1.564908423689011e+18
14262.0	1.5646629210095613e+18
14263.0	1.5643764483686395e+18
14264.0	1.5641197905182715e+18
14265.0	1.5638669578731512e+18
14266.0	1.563602812351283e+18
14267.0	1.5633378011250685e+18
14268.0	1.5630726036717565e+18
14269.0	1.562807152882483e+18
14270.0	1.5625420896468992e+18
14271.0	1.5622767814639613e+18
14272.0	1.5620110219739133e+18
14273.0	1.5617423868690432e+18
14274.0	1.561435261475225e+18
14275.0	1.5611955855228928e+18
14276.0	1.5609406305599485e+18
14277.0	1.5606768507813885e+18
14278.0	1.560412624728883e+18
14279.0	1.5601479020707837e+18
14280.0	1.5598830737162235e+18
14281.0	1.5596190758338557e+18
14282.0	1.559354619933491e+18
14283.0	1.5590901422227453e+18
14284.0	1.5588256913555453e+18
14285.0	1.558561228744294e+18
14286.0	1.5582966923132928e+18
14287.0	1.5580320149536765e+18
14288.0	1.5577633462943741e+18
14289.0	1.557384075516313e+18
14290.0	1.5572355468230653e+18
14291.0	1.5569758539743224e+18
14292.0	1.5567124147732475e+18
14293.0	1.5564477474799616e+18
14294.0	1.5561635582181373e+18
14295.0	1.555906371885465e+18
14296.0	1.5555547315044355e+18
14297.0	1.555371833006489e+18
14298.0	1.5551021359038464e+18
14299.0	1.5548544152764413e+18
14300.0	1.5545928769339392e+18
14301.0	1.5543296440926205e+18
14302.0	1.5540659918209021e+18
14303.0	1.5537987609690107e+18
14304.0	1.5535382309371901e+18
14305.0	1.553276091970355e+18
14306.0	1.5530128238968832e+18
14307.0	1.5527494954254333e+18
14308.0	1.552486542763622e+18
14309.0	1.5522232260362237e+18
14310.0	1.5519593808265213e+18
14311.0	1.551696097653555e+18
14312.0	1.5514308817453053e+18
14313.0	1.5511529302523901e+18
14314.0	1.5509088955793405e+18
14315.0	1.5506457868894203e+18
14316.0	1.5503796163575803e+18
14317.0	1.5501114292043773e+18
14318.0	1.549849353990963e+18
14319.0	1.5495869985980416e+18
14320.0	1.5493245391863805e+18
14321.0	1.5490620160212992e+18
14322.0	1.5487966726062072e+18
14323.0	1.5485351090978816e+18
14324.0	1.548275219955712e+18
14325.0	1.5480132185620477e+18
14326.0	1.5477511383154685e+18
14327.0	1.547489001026355e+18
14328.0	1.5472264443068413e+18
14329.0	1.5469651173572603e+18
14330.0	1.5467032350818301e+18
14331.0	1.546441364550451e+18
14332.0	1.5461795879714816e+18
14333.0	1.5459178449469437e+18
14334.0	1.5456561136664573e+18
14335.0	1.545393139194265e+18
14336.0	1.5451311679995901e+18
14337.0	1.5448712721465341e+18
14338.0	1.544609745548083e+18
14339.0	1.5443483246460925e+18
14340.0	1.5440871218479104e+18
14341.0	1.543825838519091e+18
14342.0	1.5435579298676733e+18
14343.0	1.5432937021374456e+18
14344.0	1.543032501016985e+18
14345.0	1.5427713200291837e+18
14346.0	1.5425099914018813e+18
14347.0	1.5422483540738043e+18
14348.0	1.5419880824111101e+18
14349.0	1.5417272587780093e+18
14350.0	1.541465047669145e+18
14351.0	1.5412043230216187e+18
14352.0	1.5409442778513405e+18
14353.0	1.5406839575347197e+18
14354.0	1.5404233754935293e+18
14355.0	1.5401625619267584e+18
14356.0	1.5399021426245632e+18
14357.0	1.5396420353785853e+18
14358.0	1.5393816697634813e+18
14359.0	1.5391212320063485e+18
14360.0	1.5388608512917504e+18
14361.0	1.5386006031171581e+18
14362.0	1.5383404337954816e+18
14363.0	1.5380800295927805e+18
14364.0	1.537816422619545e+18
14365.0	1.5375578941095933e+18
14366.0	1.5372991525289981e+18
14367.0	1.5370401995554816e+18
14368.0	1.5367803238350843e+18
14369.0	1.5365205806546944e+18
14370.0	1.536252531074662e+18
14371.0	1.535991309821542e+18
14372.0	1.5357315884515325e+18
14373.0	1.5354719107022848e+18
14374.0	1.5352122614743037e+18
14375.0	1.5349522918014976e+18
14376.0	1.534693258297344e+18
14377.0	1.5344337231544315e+18
14378.0	1.5341741276135421e+18
14379.0	1.5339150135787515e+18
14380.0	1.5336556629852157e+18
14381.0	1.533396287225856e+18
14382.0	1.533137132925747e+18
14383.0	1.5328780843220992e+18
14384.0	1.5326170996277248e+18
14385.0	1.532360079389491e+18
14386.0	1.5320994184953856e+18
14387.0	1.5318421214330877e+18
14388.0	1.5315831885922301e+18
14389.0	1.5313243245379581e+18
14390.0	1.5310654806163453e+18
14391.0	1.5308069453955067e+18
14392.0	1.5305482457579515e+18
14393.0	1.5302896719495165e+18
14394.0	1.530026620302131e+18
14395.0	1.5297714052923392e+18
14396.0	1.5295140511875067e+18
14397.0	1.5292555746869248e+18
14398.0	1.528997084764569e+18
14399.0	1.528738554576896e+18
14400.0	1.5284780245450747e+18
14401.0	1.5282201436356605e+18
14402.0	1.5279539177390077e+18
14403.0	1.5276710303891453e+18
14404.0	1.5271419390722043e+18
14405.0	1.5269401980829688e+18
14406.0	1.526911904985907e+18
14407.0	1.5266425266503677e+18
14408.0	1.5264027097694205e+18
14409.0	1.526145568735232e+18
14410.0	1.525890113811251e+18
14411.0	1.5256329207676925e+18
14412.0	1.5253751723982843e+18
14413.0	1.5251180699516928e+18
14414.0	1.5248603819802621e+18
14415.0	1.524602965799731e+18
14416.0	1.5243456234389504e+18
14417.0	1.5240881133060093e+18
14418.0	1.5238305662631936e+18
14419.0	1.5235732306132987e+18
14420.0	1.5233155392864253e+18
14421.0	1.5230586130006013e+18
14422.0	1.5228007639678973e+18
14423.0	1.522539284345651e+18
14424.0	1.5222140781461504e+18
14425.0	1.5220244486291453e+18
14426.0	1.5217727719342077e+18
14427.0	1.5215165737795581e+18
14428.0	1.5212570856128507e+18
14429.0	1.5210027832836093e+18
14430.0	1.520745601984102e+18
14431.0	1.520482359076454e+18
14432.0	1.5202315598299136e+18
14433.0	1.5199610590986235e+18
14434.0	1.5197172291076093e+18
14435.0	1.5194618463256573e+18
14436.0	1.5192069031067643e+18
14437.0	1.5189506579759101e+18
14438.0	1.5186934984867835e+18
14439.0	1.518429099628953e+18
14440.0	1.5181718176661501e+18
14441.0	1.5179140776853501e+18
14442.0	1.5176569920159741e+18
14443.0	1.5173966381449213e+18
14444.0	1.517145097345433e+18
14445.0	1.516887853970227e+18
14446.0	1.516536131380838e+18
14447.0	1.5163681914486781e+18
14448.0	1.5161221837750272e+18
14449.0	1.515867240556134e+18
14450.0	1.5156116816134141e+18
14451.0	1.5153560371068925e+18
14452.0	1.515100384211763e+18
14453.0	1.514844665885491e+18
14454.0	1.514589098554163e+18
14455.0	1.514333091659776e+18
14456.0	1.5140780964315128e+18
14457.0	1.5138226180194301e+18
14458.0	1.5135670708207616e+18
14459.0	1.5133115001339901e+18
14460.0	1.513055919380889e+18
14461.0	1.5127990820143104e+18
14462.0	1.5125445162827776e+18
14463.0	1.5122899287408637e+18
14464.0	1.5120351147065344e+18
14465.0	1.5117776280616957e+18
14466.0	1.5115256510545915e+18
14467.0	1.5112700065480704e+18
14468.0	1.5110155632902141e+18
14469.0	1.5107581739532285e+18
14470.0	1.5105028935122941e+18
14471.0	1.5102502789709821e+18
14472.0	1.509996904421785e+18
14473.0	1.5097423554674688e+18
14474.0	1.5094877796696064e+18
14475.0	1.509233069654016e+18
14476.0	1.5089778512887805e+18
14477.0	1.5087241378398205e+18
14478.0	1.5084697885343741e+18
14479.0	1.5082153385656315e+18
14480.0	1.5079516175073275e+18
14481.0	1.507696635700838e+18
14482.0	1.507441700870553e+18
14483.0	1.5071869338124285e+18
14484.0	1.506931285950464e+18
14485.0	1.5066726550994941e+18
14486.0	1.5063957572157437e+18
14487.0	1.5061695097470976e+18
14488.0	1.505917197195673e+18
14489.0	1.5056629888188416e+18
14490.0	1.5054095589048315e+18
14491.0	1.505155818612326e+18
14492.0	1.504902192404889e+18
14493.0	1.5046483749371904e+18
14494.0	1.5043918848589821e+18
14495.0	1.5041388928303101e+18
14496.0	1.5038746818772992e+18
14497.0	1.5036327108018176e+18
14498.0	1.5033801247817725e+18
14499.0	1.5031267150004221e+18
14500.0	1.502873056916275e+18
14501.0	1.5026171422965757e+18
14502.0	1.5023414490169344e+18
14503.0	1.5021112018599936e+18
14504.0	1.5018588674981888e+18
14505.0	1.5016058100383741e+18
14506.0	1.5013496991252477e+18
14507.0	1.5010759100596221e+18
14508.0	1.5008456394145792e+18
14509.0	1.5005940449279997e+18
14510.0	1.5003412122828797e+18
14511.0	1.5000879350415352e+18
14512.0	1.499833886048256e+18
14513.0	1.4995811188342784e+18
14514.0	1.4993249710112765e+18
14515.0	1.4990668652871677e+18
14516.0	1.4985111887937536e+18
14517.0	1.4985456710057981e+18
14518.0	1.498315811402547e+18
14519.0	1.4980655674818557e+18
14520.0	1.4978136995266557e+18
14521.0	1.4975614993825787e+18
14522.0	1.4973090912010237e+18
14523.0	1.4970558777131003e+18
14524.0	1.49680356851712e+18
14525.0	1.4965516317753341e+18
14526.0	1.4962996900003837e+18
14527.0	1.496041869488947e+18
14528.0	1.4957812572487675e+18
14529.0	1.4955395361538043e+18
14530.0	1.4952799221579773e+18
14531.0	1.4950291463995387e+18
14532.0	1.4947764915929088e+18
14533.0	1.4945252863377405e+18
14534.0	1.4942735626665981e+18
14535.0	1.4940215974035453e+18
14536.0	1.4937695969083387e+18
14537.0	1.493516937068544e+18
14538.0	1.4932661143339005e+18
14539.0	1.4930144426721277e+18
14540.0	1.4927626921574397e+18
14541.0	1.4925105641553915e+18
14542.0	1.492259160929075e+18
14543.0	1.4920070933250045e+18
14544.0	1.4917552471801853e+18
14545.0	1.491501451522867e+18
14546.0	1.4911204912791547e+18
14547.0	1.4908635498938365e+18
14548.0	1.4907440256516093e+18
14549.0	1.4904863058034688e+18
14550.0	1.490246079558451e+18
14551.0	1.489996367475507e+18
14552.0	1.489745145443123e+18
14553.0	1.4894931835355136e+18
14554.0	1.489243233216102e+18
14555.0	1.4889920195723264e+18
14556.0	1.4887405525925888e+18
14557.0	1.4884882970836992e+18
14558.0	1.4882282955341821e+18
14559.0	1.4877545086320635e+18
14560.0	1.4877257357066235e+18
14561.0	1.4874839743463421e+18
14562.0	1.4872322171207677e+18
14563.0	1.4869848672698363e+18
14564.0	1.4867342894825472e+18
14565.0	1.4864839583203323e+18
14566.0	1.486233404021145e+18
14567.0	1.485982742347776e+18
14568.0	1.485731783717683e+18
14569.0	1.4854779259846653e+18
14570.0	1.4851678914215936e+18
14571.0	1.4849780253458432e+18
14572.0	1.4847259761967101e+18
14573.0	1.484476012455526e+18
14574.0	1.4842293823471613e+18
14575.0	1.4839795679232e+18
14576.0	1.483729498485555e+18
14577.0	1.4834795515215867e+18
14578.0	1.4832292925014013e+18
14579.0	1.4829794260680701e+18
14580.0	1.482729411995238e+18
14581.0	1.4824791680745467e+18
14582.0	1.4822293939159037e+18
14583.0	1.481979369776742e+18
14584.0	1.4817285906628603e+18
14585.0	1.4814795698012157e+18
14586.0	1.4812211889307645e+18
14587.0	1.480970064206233e+18
14588.0	1.4807204091658235e+18
14589.0	1.4804710292717565e+18
14590.0	1.4802217030647803e+18
14591.0	1.4799722560618493e+18
14592.0	1.4797216900186107e+18
14593.0	1.4794625206190072e+18
14594.0	1.479223700304691e+18
14595.0	1.4789750099542016e+18
14596.0	1.4787219743047675e+18
14597.0	1.4784721347149821e+18
14598.0	1.4782278450282493e+18
14599.0	1.4779798559653883e+18
14600.0	1.4777310330748928e+18
14601.0	1.4774821715968e+18
14602.0	1.4772332664979453e+18
14603.0	1.4769842255036416e+18
14604.0	1.4767318710091776e+18
14605.0	1.47648604620718e+18
14606.0	1.4762268650635264e+18
14607.0	1.4759890698371072e+18
14608.0	1.4757411176841213e+18
14609.0	1.4754924273336323e+18
14610.0	1.4752436430307323e+18
14611.0	1.4749950751539195e+18
14612.0	1.4747470022049792e+18
14613.0	1.4744986624983037e+18
14614.0	1.4742499234938877e+18
14615.0	1.4740017867915264e+18
14616.0	1.4737535645253632e+18
14617.0	1.4735051342217213e+18
14618.0	1.4732564287717376e+18
14619.0	1.4730024703754237e+18
14620.0	1.4727508423344125e+18
14621.0	1.4725116596322301e+18
14622.0	1.4722641017438203e+18
14623.0	1.4720157184163837e+18
14624.0	1.4717629411360765e+18
14625.0	1.4715193393151997e+18
14626.0	1.4712720867721213e+18
14627.0	1.4710240775766013e+18
14628.0	1.470776325072486e+18
14629.0	1.4705284584833021e+18
14630.0	1.470280521429811e+18
14631.0	1.4700324719689725e+18
14632.0	1.469778424653414e+18
14633.0	1.4695350895902715e+18
14634.0	1.4692891305705472e+18
14635.0	1.4690408512618499e+18
14636.0	1.4687912616525821e+18
14637.0	1.4685462706782203e+18
14638.0	1.4682983101366267e+18
14639.0	1.4680496415965184e+18
14640.0	1.4678013455106045e+18
14641.0	1.467532052738867e+18
14642.0	1.4673062565773307e+18
14643.0	1.467060512305971e+18
14644.0	1.4668131876208637e+18
14645.0	1.4665639805321213e+18
14646.0	1.466317615503769e+18
14647.0	1.466070876343501e+18
