# Flux units: erg / (cm m2 s)
# Wavelength units: Angstrom
wave	flux
14000.0	2.321181691818803e+18
14001.0	2.320700762855833e+18
14002.0	2.3202228336590843e+18
14003.0	2.319740923228979e+18
14004.0	2.3192590564196347e+18
14005.0	2.3187772617523195e+18
14006.0	2.3182951483179003e+18
14007.0	2.317813622086041e+18
14008.0	2.317326970414694e+18
14009.0	2.316850250855219e+18
14010.0	2.3163695081193467e+18
14011.0	2.315852338692096e+18
14012.0	2.3154070478913536e+18
14013.0	2.314927172537549e+18
14014.0	2.314446560663961e+18
14015.0	2.313965873292902e+18
14016.0	2.3134855298547707e+18
14017.0	2.313005213260185e+18
14018.0	2.312524983907123e+18
14019.0	2.312044871994573e+18
14020.0	2.3115648204799995e+18
14021.0	2.3110849031831547e+18
14022.0	2.310605173791129e+18
14023.0	2.3101253722570747e+18
14024.0	2.309645547234918e+18
14025.0	2.309166636571033e+18
14026.0	2.3086872578228214e+18
14027.0	2.3082081777090555e+18
14028.0	2.3077291043061755e+18
14029.0	2.307249889974681e+18
14030.0	2.306751958981017e+18
14031.0	2.306290062091878e+18
14032.0	2.305813983422054e+18
14033.0	2.3053326467727357e+18
14034.0	2.3048573650206715e+18
14035.0	2.3043791472558075e+18
14036.0	2.3039011559833595e+18
14037.0	2.3034231663886333e+18
14038.0	2.302945317722521e+18
14039.0	2.302467578108313e+18
14040.0	2.3019899643232256e+18
14041.0	2.3015124394573821e+18
14042.0	2.3010346394451968e+18
14043.0	2.3005562555858941e+18
14044.0	2.3000800175325176e+18
14045.0	2.2996036469391352e+18
14046.0	2.2991267361193976e+18
14047.0	2.298649872275865e+18
14048.0	2.2981732684791803e+18
14049.0	2.2976967133364224e+18
14050.0	2.2972202773118973e+18
14051.0	2.2967434537336827e+18
14052.0	2.296267673698304e+18
14053.0	2.295791672203673e+18
14054.0	2.2953157176852477e+18
14055.0	2.2948398688632827e+18
14056.0	2.294364140837273e+18
14057.0	2.2938885302517755e+18
14058.0	2.2934130303959037e+18
14059.0	2.292937646302822e+18
14060.0	2.292462381327974e+18
14061.0	2.291986859661721e+18
14062.0	2.2915121500127227e+18
14063.0	2.2910362894467067e+18
14064.0	2.2905591689117688e+18
14065.0	2.2900873097117693e+18
14066.0	2.2896132795400187e+18
14067.0	2.289138853425971e+18
14068.0	2.288664526297497e+18
14069.0	2.2881902562115581e+18
14070.0	2.2877162176511995e+18
14071.0	2.287242096882483e+18
14072.0	2.2867684139991037e+18
14073.0	2.2862946740731896e+18
14074.0	2.28582105326551e+18
14075.0	2.2853475247325176e+18
14076.0	2.28487406330839e+18
14077.0	2.2843965015326715e+18
14078.0	2.2839271236829181e+18
14079.0	2.2834542259732477e+18
14080.0	2.2829817057509373e+18
14081.0	2.282508917093171e+18
14082.0	2.2820361133359101e+18
14083.0	2.2815634756730877e+18
14084.0	2.2810906618494973e+18
14085.0	2.2806031495069693e+18
14086.0	2.280145225462579e+18
14087.0	2.2796743896727552e+18
14088.0	2.2792024851742717e+18
14089.0	2.2787306981163005e+18
14090.0	2.2782589311909883e+18
14091.0	2.277787330360115e+18
14092.0	2.2773158150930427e+18
14093.0	2.2768444072001533e+18
14094.0	2.2763730982928381e+18
14095.0	2.2759018564943872e+18
14096.0	2.275430282507059e+18
14097.0	2.2749595859681277e+18
14098.0	2.274488785410457e+18
14099.0	2.27401832375255e+18
14100.0	2.2735470936981501e+18
14101.0	2.273077336683315e+18
14102.0	2.2726069673000955e+18
14103.0	2.2721359100510203e+18
14104.0	2.271666624475955e+18
14105.0	2.2711965721821181e+18
14106.0	2.2707267279257595e+18
14107.0	2.2702569121906685e+18
14108.0	2.269787228995584e+18
14109.0	2.2693174048718843e+18
14110.0	2.268848016955801e+18
14111.0	2.2683785099214843e+18
14112.0	2.2679095129145344e+18
14113.0	2.2674405393956861e+18
14114.0	2.2669715172229117e+18
14115.0	2.2665023339888637e+18
14116.0	2.2660316038955005e+18
14117.0	2.2655288662294523e+18
14118.0	2.2650957321994237e+18
14119.0	2.2646277082710008e+18
14120.0	2.2641596256223227e+18
14121.0	2.26369169564631e+18
14122.0	2.2632235509219323e+18
14123.0	2.2627553759985664e+18
14124.0	2.2622863118827515e+18
14125.0	2.2617911810064376e+18
14126.0	2.2613517437763581e+18
14127.0	2.260885144233574e+18
14128.0	2.26041783165911e+18
14129.0	2.259950691889971e+18
14130.0	2.2594835319881723e+18
14131.0	2.2590163469205501e+18
14132.0	2.258548193807564e+18
14133.0	2.2580486522011645e+18
14134.0	2.2576146642108413e+18
14135.0	2.257148492487065e+18
14136.0	2.256682753615462e+18
14137.0	2.2562166389342205e+18
14138.0	2.2557503480922112e+18
14139.0	2.2552843927945213e+18
14140.0	2.2548181690613757e+18
14141.0	2.2543518077550587e+18
14142.0	2.2538851528474621e+18
14143.0	2.2534208282951675e+18
14144.0	2.2529556766261245e+18
14145.0	2.25249030349783e+18
14146.0	2.252024937080422e+18
14147.0	2.25155979715543e+18
14148.0	2.2510947662823421e+18
14149.0	2.2506298327171067e+18
14150.0	2.2501649729716221e+18
14151.0	2.249700106515251e+18
14152.0	2.2492356326457344e+18
14153.0	2.2487711118000123e+18
14154.0	2.2483067151056893e+18
14155.0	2.2478420415873021e+18
14156.0	2.2473781817638904e+18
14157.0	2.2469141407465467e+18
14158.0	2.2464499705446395e+18
14159.0	2.24598632211415e+18
14160.0	2.2455215127003133e+18
14161.0	2.245055444995276e+18
14162.0	2.2445887816990712e+18
14163.0	2.2441315287433213e+18
14164.0	2.243667965876633e+18
14165.0	2.2432030876762104e+18
14166.0	2.2427422276190203e+18
14167.0	2.2422797636599805e+18
14168.0	2.2418169373130747e+18
14169.0	2.241354319003648e+18
14170.0	2.240891564798771e+18
14171.0	2.240429082384793e+18
14172.0	2.239966841562726e+18
14173.0	2.2395028089339901e+18
14174.0	2.2390418784124923e+18
14175.0	2.238580473095782e+18
14176.0	2.2381186030501883e+18
14177.0	2.2376568152129533e+18
14178.0	2.2371950592524285e+18
14179.0	2.236733167396454e+18
14180.0	2.2362720305151995e+18
14181.0	2.2358107594162173e+18
14182.0	2.235349469862297e+18
14183.0	2.234888348080537e+18
14184.0	2.2344269696073723e+18
14185.0	2.2339660910952445e+18
14186.0	2.2334980487118843e+18
14187.0	2.2330424550227965e+18
14188.0	2.2325842709315576e+18
14189.0	2.232123900769075e+18
14190.0	2.23166357087191e+18
14191.0	2.2312032980172795e+18
14192.0	2.2307426694856701e+18
14193.0	2.2302822808682493e+18
14194.0	2.2298233116033021e+18
14195.0	2.2293636695719928e+18
14196.0	2.2289040023748603e+18
14197.0	2.2284444442296315e+18
14198.0	2.2279847116013568e+18
14199.0	2.2275254604791805e+18
14200.0	2.2270626660089848e+18
14201.0	2.2266065773920253e+18
14202.0	2.2261482657939448e+18
14203.0	2.2256687142404096e+18
14204.0	2.2250739602554875e+18
14205.0	2.2246147863085053e+18
14206.0	2.224148784034611e+18
14207.0	2.2236969786408955e+18
14208.0	2.2232386066448376e+18
14209.0	2.2227721027321856e+18
14210.0	2.222315103112396e+18
14211.0	2.2218633363062784e+18
14212.0	2.2214052713332733e+18
14213.0	2.2209472650805245e+18
14214.0	2.220489223595622e+18
14215.0	2.2200307257704445e+18
14216.0	2.219573664074956e+18
14217.0	2.219116005110579e+18
14218.0	2.2186584417763323e+18
14219.0	2.2182009958825981e+18
14220.0	2.217743662396211e+18
14221.0	2.217271392154419e+18
14222.0	2.2166625184645117e+18
14223.0	2.2162051329687547e+18
14224.0	2.2157477357289467e+18
14225.0	2.215279060844544e+18
14226.0	2.2148328506523643e+18
14227.0	2.2143765187657728e+18
14228.0	2.213893839939174e+18
14229.0	2.213456377387417e+18
14230.0	2.2130064745299965e+18
14231.0	2.212550073856819e+18
14232.0	2.21209371344896e+18
14233.0	2.2116374184722427e+18
14234.0	2.21118123254743e+18
14235.0	2.210725001324134e+18
14236.0	2.210269154299084e+18
14237.0	2.2098131613122555e+18
14238.0	2.2093572639555576e+18
14239.0	2.208900224070451e+18
14240.0	2.2083531509334008e+18
14241.0	2.207943820417433e+18
14242.0	2.2073566883217405e+18
14243.0	2.2068927060246523e+18
14244.0	2.2064465444863992e+18
14245.0	2.2059909373755387e+18
14246.0	2.2055353185206272e+18
14247.0	2.2050810149994496e+18
14248.0	2.204625065633382e+18
14249.0	2.2041708510314493e+18
14250.0	2.203716022383411e+18
14251.0	2.2032614051282944e+18
14252.0	2.2028067459301373e+18
14253.0	2.20235209679831e+18
14254.0	2.201897481220915e+18
14255.0	2.2014409329082365e+18
14256.0	2.2009774707048443e+18
14257.0	2.2005315826352123e+18
14258.0	2.200080758708633e+18
14259.0	2.1996270709112827e+18
14260.0	2.1991728982523896e+18
14261.0	2.1987205727649787e+18
14262.0	2.198290691837132e+18
14263.0	2.1978205892116475e+18
14264.0	2.1973028225155067e+18
14265.0	2.1967421598334973e+18
14266.0	2.1962890206511101e+18
14267.0	2.1958356113555448e+18
14268.0	2.1953822440030203e+18
14269.0	2.1949287927644152e+18
14270.0	2.1944757055913976e+18
14271.0	2.194022522788249e+18
14272.0	2.1935692795871227e+18
14273.0	2.193114942511513e+18
14274.0	2.192635130911129e+18
14275.0	2.192205251661004e+18
14276.0	2.1917579224285176e+18
14277.0	2.1913058184003581e+18
14278.0	2.1908538066468861e+18
14279.0	2.1904014996144123e+18
14280.0	2.1899491288285181e+18
14281.0	2.189497491206963e+18
14282.0	2.189045571728179e+18
14283.0	2.1885937277468672e+18
14284.0	2.1881419810734077e+18
14285.0	2.1876903216414715e+18
14286.0	2.1872387309961216e+18
14287.0	2.1867871588057083e+18
14288.0	2.1863347292995581e+18
14289.0	2.1857868022022136e+18
14290.0	2.1852326960562173e+18
14291.0	2.1847821120438267e+18
14292.0	2.1843308351324155e+18
14293.0	2.183879199188582e+18
14294.0	2.1834198356590587e+18
14295.0	2.1829758585143293e+18
14296.0	2.1824786271305723e+18
14297.0	2.1820724020772856e+18
14298.0	2.1816142783840253e+18
14299.0	2.1811731349110781e+18
14300.0	2.1807232135987195e+18
14301.0	2.1802727621263355e+18
14302.0	2.1798222200569853e+18
14303.0	2.179369293945241e+18
14304.0	2.1789210352549885e+18
14305.0	2.1784715635720187e+18
14306.0	2.1780210550571005e+18
14307.0	2.177571259573862e+18
14308.0	2.177121787890892e+18
14309.0	2.176671812891443e+18
14310.0	2.1762199252893693e+18
14311.0	2.1757722840006648e+18
14312.0	2.175322312356659e+18
14313.0	2.174870245238374e+18
14314.0	2.1744250433568763e+18
14315.0	2.173975796488601e+18
14316.0	2.173523979350835e+18
14317.0	2.1729833369206776e+18
14318.0	2.1724192130990075e+18
14319.0	2.171970093737574e+18
14320.0	2.1715209508880376e+18
14321.0	2.171071888569139e+18
14322.0	2.1706206485676024e+18
14323.0	2.1701725391945728e+18
14324.0	2.1697253542461432e+18
14325.0	2.1692767650447355e+18
14326.0	2.1688282077200384e+18
14327.0	2.1683797107933176e+18
14328.0	2.167930958852915e+18
14329.0	2.1674830759723005e+18
14330.0	2.1670348944572408e+18
14331.0	2.166586788439654e+18
14332.0	2.1661388048957432e+18
14333.0	2.165690922015129e+18
14334.0	2.1652431179874301e+18
14335.0	2.164794721724006e+18
14336.0	2.1643465150431227e+18
14337.0	2.1639002478084096e+18
14338.0	2.163452757514649e+18
14339.0	2.1630054500925437e+18
14340.0	2.1625583137980416e+18
14341.0	2.162111159048601e+18
14342.0	2.1616641519386621e+18
14343.0	2.1612171481841656e+18
14344.0	2.1607703155572733e+18
14345.0	2.160323598693171e+18
14346.0	2.1598767895543805e+18
14347.0	2.1594298109657085e+18
14348.0	2.1589838641758205e+18
14349.0	2.1584435069583355e+18
14350.0	2.1578711153246203e+18
14351.0	2.157424381683302e+18
14352.0	2.156978750305075e+18
14353.0	2.1565321961799675e+18
14354.0	2.156085531325235e+18
14355.0	2.155638920157593e+18
14356.0	2.15519265292288e+18
14357.0	2.1547467245879293e+18
14358.0	2.1543005882155005e+18
14359.0	2.1538544921083901e+18
14360.0	2.1534084597547003e+18
14361.0	2.1529626270498816e+18
14362.0	2.1525168681648125e+18
14363.0	2.1520710656589821e+18
14364.0	2.1516224831684605e+18
14365.0	2.1511786536632317e+18
14366.0	2.1507340205293565e+18
14367.0	2.1502892984762365e+18
14368.0	2.149844052973977e+18
14369.0	2.1493989433671675e+18
14370.0	2.148953880736563e+18
14371.0	2.1485089271578624e+18
14372.0	2.1480640440434685e+18
14373.0	2.1476192297156605e+18
14374.0	2.147174563027353e+18
14375.0	2.1467299097608187e+18
14376.0	2.1462854192332792e+18
14377.0	2.145840950516121e+18
14378.0	2.145396486832128e+18
14379.0	2.144952397280051e+18
14380.0	2.1445082171310077e+18
14381.0	2.144064043692851e+18
14382.0	2.143620125268377e+18
14383.0	2.14317621355479e+18
14384.0	2.1427325551771645e+18
14385.0	2.1422889219653624e+18
14386.0	2.1416795785134077e+18
14387.0	2.1411742051467261e+18
14388.0	2.1407301072060416e+18
14389.0	2.140286175359795e+18
14390.0	2.139842231769497e+18
14391.0	2.1393985733918715e+18
14392.0	2.1389548227395581e+18
14393.0	2.138511246570291e+18
14394.0	2.1380676955668477e+18
14395.0	2.1376242066391037e+18
14396.0	2.1371808552845304e+18
14397.0	2.1367375626502144e+18
14398.0	2.1362942817599488e+18
14399.0	2.1358510897889277e+18
14400.0	2.1354068291092475e+18
14401.0	2.134964106900275e+18
14402.0	2.1345203495370752e+18
14403.0	2.1340248009080827e+18
14404.0	2.1334145011548155e+18
14405.0	2.133085372442214e+18
14406.0	2.1327480832917501e+18
14407.0	2.1322462532730877e+18
14408.0	2.1318625130446843e+18
14409.0	2.131422965084979e+18
14410.0	2.1309820715925496e+18
14411.0	2.130540339239321e+18
14412.0	2.1300982881189888e+18
14413.0	2.129656612808294e+18
14414.0	2.1292146187304952e+18
14415.0	2.128772919931699e+18
14416.0	2.1283313016635387e+18
14417.0	2.1278895458222077e+18
14418.0	2.1274476675071995e+18
14419.0	2.1270064619585533e+18
14420.0	2.1265647379939325e+18
14421.0	2.12612347372503e+18
14422.0	2.1256813806616573e+18
14423.0	2.1252339843203072e+18
14424.0	2.124541100399001e+18
14425.0	2.124350234401177e+18
14426.0	2.1239173620957184e+18
14427.0	2.1232790309699581e+18
14428.0	2.1228029321674752e+18
14429.0	2.1223617400406016e+18
14430.0	2.1219202341797883e+18
14431.0	2.1214737337417725e+18
14432.0	2.121036509426483e+18
14433.0	2.1205494987227136e+18
14434.0	2.1201540949737467e+18
14435.0	2.119714515137331e+18
14436.0	2.1192748027609083e+18
14437.0	2.1188341877702653e+18
14438.0	2.1183923983745021e+18
14439.0	2.1179525819793403e+18
14440.0	2.1175126783426552e+18
14441.0	2.1170719626887163e+18
14442.0	2.1166314181623803e+18
14443.0	2.1161886623989757e+18
14444.0	2.1157510203310075e+18
14445.0	2.1153102711226368e+18
14446.0	2.1147831746166784e+18
14447.0	2.1144257377075195e+18
14448.0	2.1139840556859387e+18
14449.0	2.1135446385885181e+18
14450.0	2.1131050067427325e+18
14451.0	2.112665391674163e+18
14452.0	2.112225675942297e+18
14453.0	2.111785854513971e+18
14454.0	2.111346927311257e+18
14455.0	2.110907364252057e+18
14456.0	2.110468292765286e+18
14457.0	2.1100290870607867e+18
14458.0	2.1095900793274365e+18
14459.0	2.1091509591867387e+18
14460.0	2.1087119917187064e+18
14461.0	2.1082721619017725e+18
14462.0	2.1078339963846653e+18
14463.0	2.1073955271999488e+18
14464.0	2.106957210687897e+18
14465.0	2.106517521799577e+18
14466.0	2.1060804233134075e+18
14467.0	2.105641197476249e+18
14468.0	2.1052035587637245e+18
14469.0	2.104764025903513e+18
14470.0	2.1043255281975296e+18
14471.0	2.1038887920992253e+18
14472.0	2.1034515006750717e+18
14473.0	2.1030136505696248e+18
14474.0	2.1025758239522808e+18
14475.0	2.1021377523875835e+18
14476.0	2.1015947041046525e+18
14477.0	2.1010232402509821e+18
14478.0	2.1005850160136187e+18
14479.0	2.1001467498332155e+18
14480.0	2.0997080390565883e+18
14481.0	2.0992704104103933e+18
14482.0	2.0988319831687165e+18
14483.0	2.0983936297467901e+18
14484.0	2.0979550280220667e+18
14485.0	2.097515010300313e+18
14486.0	2.097060909783449e+18
14487.0	2.0966424658837501e+18
14488.0	2.0962053187436544e+18
14489.0	2.0957672757002235e+18
14490.0	2.095330017830502e+18
14491.0	2.0948925636673533e+18
14492.0	2.094455237011046e+18
14493.0	2.0940178197577725e+18
14494.0	2.0935804377366528e+18
14495.0	2.0931425154891773e+18
14496.0	2.0926972766978043e+18
14497.0	2.092268583596851e+18
14498.0	2.0918318860861435e+18
14499.0	2.0913949218177021e+18
14500.0	2.090957875340902e+18
14501.0	2.0905193205923837e+18
14502.0	2.0900706089172987e+18
14503.0	2.089646287958835e+18
14504.0	2.0892102749585405e+18
14505.0	2.0887724315639803e+18
14506.0	2.0883341653835768e+18
14507.0	2.0878849352925181e+18
14508.0	2.087464427795251e+18
14509.0	2.0870286161215483e+18
14510.0	2.0865924202496e+18
14511.0	2.086156004596121e+18
14512.0	2.085719003417804e+18
14513.0	2.0852835038003197e+18
14514.0	2.0848454607568893e+18
14515.0	2.0844098587983867e+18
14516.0	2.083825708013977e+18
14517.0	2.0835346820366333e+18
14518.0	2.0831039236603901e+18
14519.0	2.082668700866969e+18
14520.0	2.0822331928608765e+18
14521.0	2.0817976294899712e+18
14522.0	2.0813619788775421e+18
14523.0	2.0809232513236987e+18
14524.0	2.0804878590803963e+18
14525.0	2.0800554749919227e+18
14526.0	2.0796206397521915e+18
14527.0	2.0791831285465083e+18
14528.0	2.078742414570291e+18
14529.0	2.0783141258002427e+18
14530.0	2.077878872807833e+18
14531.0	2.0774445190742016e+18
14532.0	2.0769452224151547e+18
14533.0	2.0763310135705597e+18
14534.0	2.0758958276870144e+18
14535.0	2.0754602609606648e+18
14536.0	2.0750246992674816e+18
14537.0	2.074588525205913e+18
14538.0	2.074153829217075e+18
14539.0	2.0737184621395965e+18
14540.0	2.0732830799626237e+18
14541.0	2.072847437738803e+18
14542.0	2.0724122703101947e+18
14543.0	2.0719752959754237e+18
14544.0	2.0715412358430717e+18
14545.0	2.071104263186022e+18
14546.0	2.070374533142937e+18
14547.0	2.0699550440226808e+18
14548.0	2.0697982877827067e+18
14549.0	2.0693590602678272e+18
14550.0	2.0689321237413883e+18
14551.0	2.068498055220428e+18
14552.0	2.0680634833829883e+18
14553.0	2.0676286531764221e+18
14554.0	2.067194562845081e+18
14555.0	2.066760051405619e+18
14556.0	2.0663254678241277e+18
14557.0	2.0658908490104827e+18
14558.0	2.0654545507975165e+18
14559.0	2.0649105395023872e+18
14560.0	2.0645856269041661e+18
14561.0	2.064153054910873e+18
14562.0	2.0637193756213243e+18
14563.0	2.063285261801881e+18
14564.0	2.0628510422859773e+18
14565.0	2.0624172052905981e+18
14566.0	2.0619831854235643e+18
14567.0	2.0615490732818427e+18
14568.0	2.0611148822872061e+18
14569.0	2.0606801745543165e+18
14570.0	2.0602160764944376e+18
14571.0	2.059812305947852e+18
14572.0	2.0593765244731387e+18
14573.0	2.058942878738022e+18
14574.0	2.058510929179443e+18
14575.0	2.058077451216486e+18
14576.0	2.057643839035801e+18
14577.0	2.0572102989971448e+18
14578.0	2.0567765744091133e+18
14579.0	2.0563431081902075e+18
14580.0	2.0559095798956027e+18
14581.0	2.0554758536298493e+18
14582.0	2.0550425937707005e+18
14583.0	2.0546091594285053e+18
14584.0	2.054175082518937e+18
14585.0	2.0537423595307e+18
14586.0	2.0533088916340733e+18
14587.0	2.0528757458599933e+18
14588.0	2.0524428483887101e+18
14589.0	2.052012769489715e+18
14590.0	2.0515832660492283e+18
14591.0	2.0511537139548155e+18
14592.0	2.0507237894062077e+18
14593.0	2.0502870566633467e+18
14594.0	2.0498651080032253e+18
14595.0	2.0494356783824896e+18
14596.0	2.0490036935917563e+18
14597.0	2.0484764628680701e+18
14598.0	2.047897299949977e+18
14599.0	2.0474677713436672e+18
14600.0	2.0470377763307515e+18
14601.0	2.0466077930618875e+18
14602.0	2.046177787982643e+18
14603.0	2.0457478030360573e+18
14604.0	2.0453153434501115e+18
14605.0	2.04488769053655e+18
14606.0	2.044453685769011e+18
14607.0	2.0440281568509947e+18
14608.0	2.043598844670771e+18
14609.0	2.0431689939419133e+18
14610.0	2.042739307629772e+18
14611.0	2.0423095625973755e+18
14612.0	2.041880097744486e+18
14613.0	2.041450429887283e+18
14614.0	2.0410205103718397e+18
14615.0	2.0405909599551483e+18
14616.0	2.040161310552883e+18
14617.0	2.0397315906863101e+18
14618.0	2.0393017953222653e+18
14619.0	2.0388684683542525e+18
14620.0	2.038435273926246e+18
14621.0	2.038012931001548e+18
14622.0	2.037583545001574e+18
14623.0	2.03715385533399e+18
14624.0	2.0367206692945917e+18
14625.0	2.03629465215959e+18
14626.0	2.035865309780377e+18
14627.0	2.035435692254822e+18
14628.0	2.0350064589275133e+18
14629.0	2.0345770108518397e+18
14630.0	2.0341475040559101e+18
14631.0	2.0337178479427576e+18
14632.0	2.033268835955507e+18
14633.0	2.032854626625126e+18
14634.0	2.0324295053934587e+18
14635.0	2.0319998291476477e+18
14636.0	2.0315695254339576e+18
14637.0	2.0311413272608765e+18
14638.0	2.0307116040388605e+18
14639.0	2.0302813691117565e+18
14640.0	2.0298502953238525e+18
14641.0	2.029342863392768e+18
14642.0	2.0289911038935037e+18
14643.0	2.0285639761068027e+18
14644.0	2.0281346706374653e+18
14645.0	2.0277038350860283e+18
14646.0	2.0272752309043197e+18
14647.0	2.0268459740889083e+18
14648.0	2.0264166115770365e+18
14649.0	2.0259872809418747e+18
