# Flux units: erg / (cm m2 s)
# Wavelength units: Angstrom
wave	flux
14000.0	2.3220136823488507e+18
14001.0	2.3214512781918203e+18
14002.0	2.320904587575296e+18
14003.0	2.320349603980902e+18
14004.0	2.3197947294384123e+18
14005.0	2.3192398800617467e+18
14006.0	2.318683829436416e+18
14007.0	2.318129520286105e+18
14008.0	2.3175555398500347e+18
14009.0	2.317016120478925e+18
14010.0	2.316454006567731e+18
14011.0	2.315794823040205e+18
14012.0	2.3153492134723584e+18
14013.0	2.314795775059558e+18
14014.0	2.314242282959667e+18
14015.0	2.3136885358460923e+18
14016.0	2.3131359245500416e+18
14017.0	2.31258297770967e+18
14018.0	2.3120298714857467e+18
14019.0	2.311443938960998e+18
14020.0	2.310883303122534e+18
14021.0	2.310330745513574e+18
14022.0	2.309777005110886e+18
14023.0	2.3092160723156987e+18
14024.0	2.3086681368297467e+18
14025.0	2.3081225635758075e+18
14026.0	2.3075708733489147e+18
14027.0	2.3070198357557243e+18
14028.0	2.3064685397934075e+18
14029.0	2.305917025727283e+18
14030.0	2.3048747663491075e+18
14031.0	2.3048089124208632e+18
14032.0	2.304264438074572e+18
14033.0	2.3036999954857976e+18
14034.0	2.3031626111909883e+18
14035.0	2.3026131254902784e+18
14036.0	2.3020552830582781e+18
14037.0	2.3014642150277117e+18
14038.0	2.300915291363737e+18
14039.0	2.300365663056691e+18
14040.0	2.2998137329156088e+18
14041.0	2.299265981979033e+18
14042.0	2.2987156624506877e+18
14043.0	2.298161068087705e+18
14044.0	2.2976179124305915e+18
14045.0	2.297070517170995e+18
14046.0	2.296521147233075e+18
14047.0	2.2959720541192187e+18
14048.0	2.2954250665459712e+18
14049.0	2.2948778038263805e+18
14050.0	2.294329925382963e+18
14051.0	2.2937803641847803e+18
14052.0	2.2932345728270333e+18
14053.0	2.292687014828441e+18
14054.0	2.292139869549363e+18
14055.0	2.2915927444029437e+18
14056.0	2.291029348712448e+18
14057.0	2.2904588394823675e+18
14058.0	2.2899120834347005e+18
14059.0	2.2893654850928632e+18
14060.0	2.2888190511677437e+18
14061.0	2.288271580410675e+18
14062.0	2.2877266295914493e+18
14063.0	2.2871772948856827e+18
14064.0	2.2865725249028093e+18
14065.0	2.2860876415500285e+18
14066.0	2.2855435849564157e+18
14067.0	2.284984012793446e+18
14068.0	2.284453139736166e+18
14069.0	2.2839066873561083e+18
14070.0	2.283362885776179e+18
14071.0	2.2828179819331584e+18
14072.0	2.2822739068846077e+18
14073.0	2.2817294946140152e+18
14074.0	2.281185229982924e+18
14075.0	2.2806368280903677e+18
14076.0	2.2800814317764605e+18
14077.0	2.279434435218636e+18
14078.0	2.2790006384885755e+18
14079.0	2.2784305319116795e+18
14080.0	2.2778834436751355e+18
14081.0	2.2773401789661176e+18
14082.0	2.2767928675926008e+18
14083.0	2.276253798865305e+18
14084.0	2.275711242154803e+18
14085.0	2.2750431214043128e+18
14086.0	2.2746167234265083e+18
14087.0	2.2740838001934333e+18
14088.0	2.2735378528075773e+18
14089.0	2.2729862632439805e+18
14090.0	2.2724556183568381e+18
14091.0	2.2719159674601467e+18
14092.0	2.27137444422615e+18
14093.0	2.270833023333171e+18
14094.0	2.2702917433688061e+18
14095.0	2.2697505372241917e+18
14096.0	2.2691843531603965e+18
14097.0	2.268657184512409e+18
14098.0	2.2681161780166656e+18
14099.0	2.2675876101488632e+18
14100.0	2.267045330262425e+18
14101.0	2.2665073000447992e+18
14102.0	2.2659671458316283e+18
14103.0	2.2654249968074747e+18
14104.0	2.26484932355031e+18
14105.0	2.2643084412059643e+18
14106.0	2.263769713056153e+18
14107.0	2.2632281294241787e+18
14108.0	2.2626885003378683e+18
14109.0	2.2621509499486205e+18
14110.0	2.2616081583570944e+18
14111.0	2.2610650580647933e+18
14112.0	2.2605354634313723e+18
14113.0	2.2599898834665464e+18
14114.0	2.2594553949192187e+18
14115.0	2.2589203325911037e+18
14116.0	2.258344399287091e+18
14117.0	2.2570632357085184e+18
14118.0	2.2573067234443261e+18
14119.0	2.2567553368850427e+18
14120.0	2.2562186303897595e+18
14121.0	2.255688190184652e+18
14122.0	2.2551447258267645e+18
14123.0	2.254595480040243e+18
14124.0	2.2540558358544381e+18
14125.0	2.2534539834294264e+18
14126.0	2.2530042298892283e+18
14127.0	2.2524748919472123e+18
14128.0	2.2519385209962496e+18
14129.0	2.251400317973299e+18
14130.0	2.2508636014116864e+18
14131.0	2.2503081061122045e+18
14132.0	2.2497576137785336e+18
14133.0	2.249113336807423e+18
14134.0	2.2486866217402365e+18
14135.0	2.2481442747449336e+18
14136.0	2.2475610550960123e+18
14137.0	2.2470798476312573e+18
14138.0	2.246535066261913e+18
14139.0	2.246012008031846e+18
14140.0	2.2454697264676856e+18
14141.0	2.24493913023447e+18
14142.0	2.2443322043793405e+18
14143.0	2.2438655024955387e+18
14144.0	2.243341410788966e+18
14145.0	2.2428077845905403e+18
14146.0	2.242273866468556e+18
14147.0	2.2417397453422592e+18
14148.0	2.2412030069702653e+18
14149.0	2.2406674446811133e+18
14150.0	2.2401414739263483e+18
14151.0	2.2395985783160827e+18
14152.0	2.2390760955445243e+18
14153.0	2.2385435430879227e+18
14154.0	2.2380055984340987e+18
14155.0	2.2373829540052987e+18
14156.0	2.236941540419174e+18
14157.0	2.236414740869939e+18
14158.0	2.2358812035907576e+18
14159.0	2.2353515988910075e+18
14160.0	2.234819720878489e+18
14161.0	2.2342757783699453e+18
14162.0	2.233735895947673e+18
14163.0	2.2331891147341821e+18
14164.0	2.2326277641863165e+18
14165.0	2.232046987300044e+18
14166.0	2.2315957909192696e+18
14167.0	2.2310630874677243e+18
14168.0	2.2305304075042808e+18
14169.0	2.2300056816189432e+18
14170.0	2.2294719715344376e+18
14171.0	2.228944341513011e+18
14172.0	2.228415938061926e+18
14173.0	2.2278494503305213e+18
14174.0	2.2273549385334776e+18
14175.0	2.2268274477629437e+18
14176.0	2.226296331436032e+18
14177.0	2.2257686057844736e+18
14178.0	2.2252393081077763e+18
14179.0	2.224703776017612e+18
14180.0	2.2241828719820795e+18
14181.0	2.223654408133017e+18
14182.0	2.2231259728052221e+18
14183.0	2.2225979149647867e+18
14184.0	2.22206880687063e+18
14185.0	2.2215418177388544e+18
14186.0	2.220856669791846e+18
14187.0	2.22048129468334e+18
14188.0	2.219958937740902e+18
14189.0	2.2194295914102776e+18
14190.0	2.2189034579165181e+18
14191.0	2.218375755753062e+18
14192.0	2.217849030023577e+18
14193.0	2.2172975260237821e+18
14194.0	2.216795828545126e+18
14195.0	2.2162710993043453e+18
14196.0	2.215744774550323e+18
14197.0	2.215218646089727e+18
14198.0	2.214691675412889e+18
14199.0	2.2141366012215293e+18
14200.0	2.2135144835973115e+18
14201.0	2.2130773079359485e+18
14202.0	2.2125534142005245e+18
14203.0	2.2120193702494205e+18
14204.0	2.2115021655900155e+18
14205.0	2.2109771813355512e+18
14206.0	2.2104286435475453e+18
14207.0	2.2099279694790656e+18
14208.0	2.2094034197544955e+18
14209.0	2.2088512681541627e+18
14210.0	2.208337519601254e+18
14211.0	2.2078302034329592e+18
14212.0	2.207306066427904e+18
14213.0	2.206779548735897e+18
14214.0	2.2062584014307323e+18
14215.0	2.2057324373868536e+18
14216.0	2.2052114494652416e+18
14217.0	2.2046880858898424e+18
14218.0	2.2041622325755901e+18
14219.0	2.2036417865580536e+18
14220.0	2.2031188927447037e+18
14221.0	2.202592829715251e+18
14222.0	2.2020503887675387e+18
14223.0	2.2015500603097085e+18
14224.0	2.2010284918964224e+18
14225.0	2.2002636605620224e+18
14226.0	2.1999838115659773e+18
14227.0	2.1994623387828221e+18
14228.0	2.1984084695711744e+18
14229.0	2.1983530108059643e+18
14230.0	2.197897443960422e+18
14231.0	2.1973549275152384e+18
14232.0	2.1968548758814715e+18
14233.0	2.1963337856188408e+18
14234.0	2.1958128463511547e+18
14235.0	2.1952915698614272e+18
14236.0	2.1947710684790776e+18
14237.0	2.194250593940275e+18
14238.0	2.1937303844814843e+18
14239.0	2.19319228212183e+18
14240.0	2.1923925525004283e+18
14241.0	2.192132009046835e+18
14242.0	2.1916137625223165e+18
14243.0	2.191063605732966e+18
14244.0	2.1905752192974845e+18
14245.0	2.190052538554777e+18
14246.0	2.1895301077925885e+18
14247.0	2.1890172803088381e+18
14248.0	2.1884958024925181e+18
14249.0	2.1879789635764221e+18
14250.0	2.1874600962949115e+18
14251.0	2.186941965533184e+18
14252.0	2.1864234337959933e+18
14253.0	2.1859049154805755e+18
14254.0	2.1853863183122424e+18
14255.0	2.1848628960165885e+18
14256.0	2.1841108606648317e+18
14257.0	2.1838292097957883e+18
14258.0	2.1833151928074237e+18
14259.0	2.1827943726579704e+18
14260.0	2.182273782356377e+18
14261.0	2.181758285617561e+18
14262.0	2.1812529172840443e+18
14263.0	2.180382344190361e+18
14264.0	2.18016703882199e+18
14265.0	2.1796997228920827e+18
14266.0	2.1791859575619574e+18
14267.0	2.1786693887590395e+18
14268.0	2.1781532242870272e+18
14269.0	2.1776366051524605e+18
14270.0	2.177121034593894e+18
14271.0	2.1766038081241085e+18
14272.0	2.1760889522749437e+18
14273.0	2.1755731048923133e+18
14274.0	2.1745421600686077e+18
14275.0	2.1744957375119355e+18
14276.0	2.1740183233757181e+18
14277.0	2.17350702932951e+18
14278.0	2.1729975790993403e+18
14279.0	2.1724827098284027e+18
14280.0	2.171966531934617e+18
14281.0	2.1714535853326333e+18
14282.0	2.1709392227336187e+18
14283.0	2.1704249389875195e+18
14284.0	2.169910762615603e+18
14285.0	2.1693965929545725e+18
14286.0	2.1688820072185853e+18
14287.0	2.168369110948249e+18
14288.0	2.1678328742150136e+18
14289.0	2.16713939470254e+18
14290.0	2.16678255338455e+18
14291.0	2.166270745955532e+18
14292.0	2.1657578178084861e+18
14293.0	2.1652443813117947e+18
14294.0	2.1647036281520125e+18
14295.0	2.1642159765585917e+18
14296.0	2.1635700839415805e+18
14297.0	2.1631940260003837e+18
14298.0	2.1625765003001848e+18
14299.0	2.1621634737635325e+18
14300.0	2.1616557096435704e+18
14301.0	2.1611447024877565e+18
14302.0	2.1606330796081142e+18
14303.0	2.1601136167354365e+18
14304.0	2.1596075102044155e+18
14305.0	2.1590970600521725e+18
14306.0	2.1585634573418493e+18
14307.0	2.1580664558059515e+18
14308.0	2.157560961643315e+18
14309.0	2.1570445891338237e+18
14310.0	2.1564351735398392e+18
14311.0	2.1559403865964536e+18
14312.0	2.155485636801331e+18
14313.0	2.1549928329248765e+18
14314.0	2.154493851677491e+18
14315.0	2.1539897399574525e+18
14316.0	2.153470184810086e+18
14317.0	2.1529492019216381e+18
14318.0	2.152461981502668e+18
14319.0	2.1519528349401083e+18
14320.0	2.1514432437813245e+18
14321.0	2.1509340854747133e+18
14322.0	2.1504157517086717e+18
14323.0	2.149913002298572e+18
14324.0	2.149406160925491e+18
14325.0	2.1488960010190845e+18
14326.0	2.1483896931614717e+18
14327.0	2.147879571842662e+18
14328.0	2.147371495666483e+18
14329.0	2.1468644429004795e+18
14330.0	2.1463562744496128e+18
14331.0	2.1458453193031675e+18
14332.0	2.1453403032911864e+18
14333.0	2.1448325223940093e+18
14334.0	2.1443248438378493e+18
14335.0	2.143813638710886e+18
14336.0	2.1432800376782845e+18
14337.0	2.1428024809357312e+18
14338.0	2.1422950288719872e+18
14339.0	2.1417857078263808e+18
14340.0	2.141281322637721e+18
14341.0	2.1407723052597245e+18
14342.0	2.140268054288793e+18
14343.0	2.1397515056185344e+18
14344.0	2.139219162877132e+18
14345.0	2.138714828020121e+18
14346.0	2.1382070806773757e+18
14347.0	2.1376901008326653e+18
14348.0	2.1371957299642365e+18
14349.0	2.1366906787201021e+18
14350.0	2.1361644311412733e+18
14351.0	2.135657809549721e+18
14352.0	2.1351726997045243e+18
14353.0	2.1346687305908221e+18
14354.0	2.1341608557412347e+18
14355.0	2.133650870317875e+18
14356.0	2.1331483121680376e+18
14357.0	2.1326484870266877e+18
14358.0	2.1321437411278843e+18
14359.0	2.1316354804023293e+18
14360.0	2.1311326823383037e+18
14361.0	2.1306296661704701e+18
14362.0	2.1301259671699453e+18
14363.0	2.1296217229099005e+18
14364.0	2.1290417764958205e+18
14365.0	2.1286039800774653e+18
14366.0	2.1280990563401728e+18
14367.0	2.127606549420441e+18
14368.0	2.1271028957183992e+18
14369.0	2.1265995372953595e+18
14370.0	2.1260962828910587e+18
14371.0	2.1255932432351227e+18
14372.0	2.1250898395135995e+18
14373.0	2.1245871337242621e+18
14374.0	2.1240843390156795e+18
14375.0	2.1235816147714043e+18
14376.0	2.12307900628992e+18
14377.0	2.1225763843866621e+18
14378.0	2.1220735930335227e+18
14379.0	2.1215718469009405e+18
14380.0	2.1210696209399803e+18
14381.0	2.1205649203396605e+18
14382.0	2.1200653334347773e+18
14383.0	2.1195582873796603e+18
14384.0	2.1190574119845888e+18
14385.0	2.11856068223959e+18
14386.0	2.1180558910423035e+18
14387.0	2.1175578426081275e+18
14388.0	2.1170561635844096e+18
14389.0	2.116555481127321e+18
14390.0	2.116054127581593e+18
14391.0	2.1155535826976765e+18
14392.0	2.1150512107749373e+18
14393.0	2.11455230166958e+18
14394.0	2.1140434906513405e+18
14395.0	2.1135314013650936e+18
14396.0	2.1130500261281787e+18
14397.0	2.112550851942809e+18
14398.0	2.1120492417056763e+18
14399.0	2.11154956755927e+18
14400.0	2.1110383020343293e+18
14401.0	2.1105493434957824e+18
14402.0	2.1100511457443837e+18
14403.0	2.1083696308158436e+18
14404.0	2.1059149328547835e+18
14405.0	2.1083099945238518e+18
14406.0	2.1080538768998397e+18
14407.0	2.105782193199514e+18
14408.0	2.107006359542169e+18
14409.0	2.1065209426739197e+18
14410.0	2.1060202149183488e+18
14411.0	2.105526276902092e+18
14412.0	2.1050279885537277e+18
14413.0	2.1045301649342461e+18
14414.0	2.1040312390516728e+18
14415.0	2.1035332141055992e+18
14416.0	2.103031486427955e+18
14417.0	2.1025200497754104e+18
14418.0	2.1020216674746363e+18
14419.0	2.1015410556010493e+18
14420.0	2.101042696788377e+18
14421.0	2.10054585295831e+18
14422.0	2.1000480897368056e+18
14423.0	2.099545612117606e+18
14424.0	2.0918604711067597e+18
14425.0	2.0985535199707133e+18
14426.0	2.0980593604952061e+18
14427.0	2.097562712958566e+18
14428.0	2.097059778999091e+18
14429.0	2.0965686025125888e+18
14430.0	2.0960724398374904e+18
14431.0	2.095462182027264e+18
14432.0	2.0950665551413245e+18
14433.0	2.0932570166329334e+18
14434.0	2.0940683812536317e+18
14435.0	2.0935559446790136e+18
14436.0	2.0930786093957115e+18
14437.0	2.0925827403218944e+18
14438.0	2.092037393560371e+18
14439.0	2.0915806606983165e+18
14440.0	2.0910951129677821e+18
14441.0	2.0905987808428027e+18
14442.0	2.090102304433766e+18
14443.0	2.0895996170993661e+18
14444.0	2.089112445334323e+18
14445.0	2.0886179184377856e+18
14446.0	2.086705701689754e+18
14447.0	2.0876246854402045e+18
14448.0	2.0871329737605115e+18
14449.0	2.0866380827983872e+18
14450.0	2.0861419352227837e+18
14451.0	2.0856483663052797e+18
14452.0	2.0851526129942525e+18
14453.0	2.0846314807885821e+18
14454.0	2.0841646564311037e+18
14455.0	2.083669335972249e+18
14456.0	2.0831697641668603e+18
14457.0	2.0826717157326843e+18
14458.0	2.0821781484929021e+18
14459.0	2.0816871280345083e+18
14460.0	2.0811932856483835e+18
14461.0	2.0806770305794043e+18
14462.0	2.0801219849093115e+18
14463.0	2.0797042741739517e+18
14464.0	2.0792211356516347e+18
14465.0	2.0787266775416827e+18
14466.0	2.0782379756945403e+18
14467.0	2.0777239016636416e+18
14468.0	2.0772503513202688e+18
14469.0	2.076748113615257e+18
14470.0	2.0762606180499456e+18
14471.0	2.075770538793369e+18
14472.0	2.0752789814640637e+18
14473.0	2.0747888736862203e+18
14474.0	2.074296526150041e+18
14475.0	2.0738028347588605e+18
14476.0	2.0732258008694776e+18
14477.0	2.0728185574391805e+18
14478.0	2.0723263457984512e+18
14479.0	2.0718220361072635e+18
14480.0	2.0713271501783035e+18
14481.0	2.0708389248040955e+18
14482.0	2.0703462031359997e+18
14483.0	2.0698526275076093e+18
14484.0	2.0693619442712568e+18
14485.0	2.068844498019942e+18
14486.0	2.0682875565244408e+18
14487.0	2.0678551506255867e+18
14488.0	2.0673316763205627e+18
14489.0	2.066860929449983e+18
14490.0	2.0663781398937597e+18
14491.0	2.065889842377523e+18
14492.0	2.0653981709631488e+18
14493.0	2.06490634855383e+18
14494.0	2.064410724427366e+18
14495.0	2.0639247706882045e+18
14496.0	2.0634058748854264e+18
14497.0	2.0629425552883707e+18
14498.0	2.0624513133707261e+18
14499.0	2.0619607760961536e+18
14500.0	2.061469800936243e+18
14501.0	2.060936298889216e+18
14502.0	2.0603945256747005e+18
14503.0	2.05998651384791e+18
14504.0	2.0595059556614136e+18
14505.0	2.0589762637201405e+18
14506.0	2.0584344686952443e+18
14507.0	2.0579856295133181e+18
14508.0	2.057544954124697e+18
14509.0	2.0570545628119037e+18
14510.0	2.05656422350848e+18
14511.0	2.0560739009822717e+18
14512.0	2.0555801961693181e+18
14513.0	2.0550934589341693e+18
14514.0	2.0545921691418621e+18
14515.0	2.0541125890670587e+18
14516.0	2.0532135232274435e+18
14517.0	2.0531331184197627e+18
14518.0	2.0526432337788925e+18
14519.0	2.0521533977919483e+18
14520.0	2.0516635450277888e+18
14521.0	2.0511732979990525e+18
14522.0	2.0506814873337853e+18
14523.0	2.0500858525450237e+18
14524.0	2.0496043665784824e+18
14525.0	2.0492135446872056e+18
14526.0	2.0487250877874173e+18
14527.0	2.0482291935477752e+18
14528.0	2.047713544136294e+18
14529.0	2.0472540933652475e+18
14530.0	2.046763358119526e+18
14531.0	2.046276877575782e+18
14532.0	2.045651674621542e+18
14533.0	2.0452980629176317e+18
14534.0	2.0448090439811067e+18
14535.0	2.0443172115054584e+18
14536.0	2.0438302981095421e+18
14537.0	2.0433384018804733e+18
14538.0	2.0428515874701312e+18
14539.0	2.0423625953771515e+18
14540.0	2.041873361692262e+18
14541.0	2.0413794303868925e+18
14542.0	2.040894909421977e+18
14543.0	2.0403438231748605e+18
14544.0	2.0399164001091581e+18
14545.0	2.0394264483594237e+18
14546.0	2.031579866909896e+18
14547.0	2.0319277374504896e+18
14548.0	2.037957062872268e+18
14549.0	2.037446396293939e+18
14550.0	2.0369804611289083e+18
14551.0	2.036492787725107e+18
14552.0	2.0360026816249853e+18
14553.0	2.035512496671948e+18
14554.0	2.0350254205370365e+18
14555.0	2.0345359754592256e+18
14556.0	2.0340445489922045e+18
14557.0	2.0335578503446525e+18
14558.0	2.0330680764334077e+18
14559.0	2.0322493835247603e+18
14560.0	2.0320621095288827e+18
14561.0	2.031599737844531e+18
14562.0	2.0311046002573307e+18
14563.0	2.030622916319641e+18
14564.0	2.0301220426022912e+18
14565.0	2.029645645165363e+18
14566.0	2.0291566279065592e+18
14567.0	2.0286665184509947e+18
14568.0	2.0281491493748733e+18
14569.0	2.0276889453068283e+18
14570.0	2.0270966206627837e+18
14571.0	2.0267106490646525e+18
14572.0	2.026202054472499e+18
14573.0	2.025719508185907e+18
14574.0	2.0252102878035963e+18
14575.0	2.0247447871684605e+18
14576.0	2.0242314932781048e+18
14577.0	2.0237451217862653e+18
14578.0	2.02325670011863e+18
14579.0	2.0227673808699384e+18
14580.0	2.0222778049298427e+18
14581.0	2.021783840070041e+18
14582.0	2.0212963931586555e+18
14583.0	2.0208082952912893e+18
14584.0	2.0203126980083707e+18
14585.0	2.0198284337348608e+18
14586.0	2.0193377052000253e+18
14587.0	2.0188463911403515e+18
14588.0	2.0183590314704893e+18
14589.0	2.0178848721141755e+18
14590.0	2.0174122680057853e+18
14591.0	2.0169378871902203e+18
14592.0	2.0164659122274301e+18
14593.0	2.0159691858378747e+18
14594.0	2.0155204305420283e+18
14595.0	2.0150458634993661e+18
14596.0	2.0145127188070397e+18
14597.0	2.014034467487743e+18
14598.0	2.013622227802521e+18
14599.0	2.0131533532692475e+18
14600.0	2.0126774390161403e+18
14601.0	2.0122045178183675e+18
14602.0	2.011724843791155e+18
14603.0	2.0112559340257275e+18
14604.0	2.0107686230097915e+18
14605.0	2.0102933144141821e+18
14606.0	2.009812080105881e+18
14607.0	2.009346641546444e+18
14608.0	2.0088714873012221e+18
14609.0	2.0083863875223547e+18
14610.0	2.007899792893542e+18
14611.0	2.0074419896451072e+18
14612.0	2.0069727107809277e+18
14613.0	2.006498428950937e+18
14614.0	2.0060224693993472e+18
14615.0	2.0055437533511677e+18
14616.0	2.0050715888058363e+18
14617.0	2.004595357463347e+18
14618.0	2.0041031860879355e+18
14619.0	2.0036065435844603e+18
14620.0	2.0029915797651453e+18
14621.0	2.0026888080588797e+18
14622.0	2.0022117395333115e+18
14623.0	2.001734372373299e+18
14624.0	2.001244494443315e+18
14625.0	2.0007786112876544e+18
14626.0	2.0002978584854528e+18
14627.0	1.9998162835996672e+18
14628.0	1.9993430587342843e+18
14629.0	1.9988640306298877e+18
14630.0	1.9983833768132603e+18
14631.0	1.9979045265473536e+18
14632.0	1.9968522729816064e+18
14633.0	1.9968772005691384e+18
14634.0	1.9964622110982144e+18
14635.0	1.995896342446079e+18
14636.0	1.9951875419799544e+18
14637.0	1.99502332994519e+18
14638.0	1.994525653965209e+18
14639.0	1.9940348113453056e+18
14640.0	1.9935564509741048e+18
14641.0	1.9908768712097772e+18
14642.0	1.9925918986272763e+18
14643.0	1.9921098724343805e+18
14644.0	1.9916238079655936e+18
14645.0	1.9911391393611773e+18
14646.0	1.990642652885811e+18
14647.0	1.990159011047014e+18
14648.0	1.989689864722841e+18
