# Flux units: erg / (cm m2 s)
# Wavelength units: Angstrom
wave	flux
14000.0	2.39818989675479e+18
14001.0	2.397665149059071e+18
14002.0	2.3971451459600384e+18
14003.0	2.396622332677325e+18
14004.0	2.396099599925248e+18
14005.0	2.3955769930022907e+18
14006.0	2.395054126032486e+18
14007.0	2.3945318529761275e+18
14008.0	2.3940041088696315e+18
14009.0	2.393487623952793e+18
14010.0	2.39296585924608e+18
14011.0	2.3924111457648635e+18
14012.0	2.391922321444045e+18
14013.0	2.3914009543573494e+18
14014.0	2.390879563782553e+18
14015.0	2.390358178240921e+18
14016.0	2.389837178575257e+18
14017.0	2.389316192331366e+18
14018.0	2.3887953151393787e+18
14019.0	2.3882746006863867e+18
14020.0	2.3877539583754235e+18
14021.0	2.3872334452490235e+18
14022.0	2.3867131401601024e+18
14023.0	2.3861928082276347e+18
14024.0	2.3856723185893366e+18
14025.0	2.385153005033881e+18
14026.0	2.3846331042758656e+18
14027.0	2.3841135659057147e+18
14028.0	2.3835940308910075e+18
14029.0	2.3830745730514944e+18
14030.0	2.3825349976522747e+18
14031.0	2.3820354325577723e+18
14032.0	2.381517222943129e+18
14033.0	2.38099807380439e+18
14034.0	2.3804796427304955e+18
14035.0	2.3799610925383675e+18
14036.0	2.379442653075865e+18
14037.0	2.37892432602071e+18
14038.0	2.3784061382164475e+18
14039.0	2.3778880695304187e+18
14040.0	2.3773701568724987e+18
14041.0	2.376852353266483e+18
14042.0	2.3763343500115963e+18
14043.0	2.375815786397695e+18
14044.0	2.3752991941066747e+18
14045.0	2.374782512896409e+18
14046.0	2.3742653535354875e+18
14047.0	2.3737482679943163e+18
14048.0	2.3732314777321467e+18
14049.0	2.372714762967449e+18
14050.0	2.3721981656432635e+18
14051.0	2.3716811723767803e+18
14052.0	2.3711653367382006e+18
14053.0	2.3706491554889723e+18
14054.0	2.370133084969369e+18
14055.0	2.369617138601165e+18
14056.0	2.3691013516165115e+18
14057.0	2.368585677039206e+18
14058.0	2.3680701316464635e+18
14059.0	2.3675547187937275e+18
14060.0	2.3670394418364406e+18
14061.0	2.3665239367090176e+18
14062.0	2.366009270442393e+18
14063.0	2.3654934163488763e+18
14064.0	2.364976646219366e+18
14065.0	2.364464555255398e+18
14066.0	2.363950539944755e+18
14067.0	2.363436192445234e+18
14068.0	2.3629219674193915e+18
14069.0	2.3624078044692475e+18
14070.0	2.361893903243673e+18
14071.0	2.361379928198349e+18
14072.0	2.360866391038361e+18
14073.0	2.360352827034829e+18
14074.0	2.3598393838272507e+18
14075.0	2.35932607315968e+18
14076.0	2.3588128950321147e+18
14077.0	2.3582955024678907e+18
14078.0	2.357786580720025e+18
14079.0	2.357273763302605e+18
14080.0	2.356761531410022e+18
14081.0	2.3562490176602107e+18
14082.0	2.355736334460518e+18
14083.0	2.3552242669846523e+18
14084.0	2.3547121424662523e+18
14085.0	2.3541848328896507e+18
14086.0	2.3536877659226107e+18
14087.0	2.353176663136665e+18
14088.0	2.3526650117357563e+18
14089.0	2.352153600249037e+18
14090.0	2.351642190440038e+18
14091.0	2.351131062488269e+18
14092.0	2.350619991579033e+18
14093.0	2.350109043143475e+18
14094.0	2.349598208792985e+18
14095.0	2.3490874918830075e+18
14096.0	2.3485761357611003e+18
14097.0	2.348066304688128e+18
14098.0	2.347555800848793e+18
14099.0	2.347046048628736e+18
14100.0	2.3465354038607867e+18
14101.0	2.3460261633458176e+18
14102.0	2.345516379249049e+18
14103.0	2.345006011305165e+18
14104.0	2.344497235519078e+18
14105.0	2.343987820521062e+18
14106.0	2.343478593427865e+18
14107.0	2.3429693696901115e+18
14108.0	2.342460468074905e+18
14109.0	2.341951287957913e+18
14110.0	2.3414424601624576e+18
14111.0	2.3409334494953467e+18
14112.0	2.340425656854118e+18
14113.0	2.3399174179389435e+18
14114.0	2.339409192445542e+18
14115.0	2.3389009535303675e+18
14116.0	2.3383917146931195e+18
14117.0	2.337848837537792e+18
14118.0	2.3373773390479355e+18
14119.0	2.3368693887008763e+18
14120.0	2.3363620607885307e+18
14121.0	2.335854987889869e+18
14122.0	2.33534777238487e+18
14123.0	2.3348403941408763e+18
14124.0	2.3343332641996795e+18
14125.0	2.3337992672247803e+18
14126.0	2.3333204572241915e+18
14127.0	2.3328141091012603e+18
14128.0	2.332307665348198e+18
14129.0	2.331801458153881e+18
14130.0	2.3312953298124795e+18
14131.0	2.330789265224499e+18
14132.0	2.3302831184281595e+18
14133.0	2.3297448432631803e+18
14134.0	2.3292716821512187e+18
14135.0	2.3287654816677883e+18
14136.0	2.328260264329216e+18
14137.0	2.3277556811694075e+18
14138.0	2.327250366522982e+18
14139.0	2.3267456709558267e+18
14140.0	2.3262402254471163e+18
14141.0	2.325735459415654e+18
14142.0	2.3252288982220795e+18
14143.0	2.3247264759676923e+18
14144.0	2.3242226981142523e+18
14145.0	2.3237185075412987e+18
14146.0	2.323214316968345e+18
14147.0	2.3227104082526203e+18
14148.0	2.322206564968038e+18
14149.0	2.3217029297209344e+18
14150.0	2.321199356549529e+18
14151.0	2.320695717946982e+18
14152.0	2.3201925491064827e+18
14153.0	2.3196893551001595e+18
14154.0	2.3191862953115643e+18
14155.0	2.3186826550312955e+18
14156.0	2.318180397193625e+18
14157.0	2.317677844076953e+18
14158.0	2.3171750158139387e+18
14159.0	2.316672851928678e+18
14160.0	2.3161699817226235e+18
14161.0	2.3156647727726587e+18
14162.0	2.315159775215616e+18
14163.0	2.314664137667379e+18
14164.0	2.314161446977536e+18
14165.0	2.3136547398221814e+18
14166.0	2.3131589227577344e+18
14167.0	2.3126579315998715e+18
14168.0	2.312156554566041e+18
14169.0	2.311655519787417e+18
14170.0	2.311154317236633e+18
14171.0	2.3106534317752315e+18
14172.0	2.3101166732705787e+18
14173.0	2.3093705820864507e+18
14174.0	2.308872352458342e+18
14175.0	2.308371737110118e+18
14176.0	2.3078707962839035e+18
14177.0	2.30736996115415e+18
14178.0	2.306869136090726e+18
14179.0	2.306367995615641e+18
14180.0	2.3058682224836603e+18
14181.0	2.305367885637222e+18
14182.0	2.3048676444209152e+18
14183.0	2.304367589431705e+18
14184.0	2.3038672995614715e+18
14185.0	2.303367694201651e+18
14186.0	2.3028598914940923e+18
14187.0	2.302366755428761e+18
14188.0	2.301868943553331e+18
14189.0	2.3013695713968123e+18
14190.0	2.3008331148820475e+18
14191.0	2.3000840121876477e+18
14192.0	2.2995838833786877e+18
14193.0	2.2990837092712443e+18
14194.0	2.2985853454254077e+18
14195.0	2.29808616285143e+18
14196.0	2.297586981955174e+18
14197.0	2.2970879084331008e+18
14198.0	2.2965886923046904e+18
14199.0	2.2960899912368123e+18
14200.0	2.2955874381201403e+18
14201.0	2.29509256225751e+18
14202.0	2.2945943728947195e+18
14203.0	2.2940952926617595e+18
14204.0	2.2935976183595005e+18
14205.0	2.2930994877169661e+18
14206.0	2.2925944280842237e+18
14207.0	2.2921037398147072e+18
14208.0	2.2916060571238392e+18
14209.0	2.291100586449305e+18
14210.0	2.2905073004707837e+18
14211.0	2.289816659663257e+18
14212.0	2.289318644783513e+18
14213.0	2.2888207641214973e+18
14214.0	2.2883229572792315e+18
14215.0	2.2878247041630205e+18
14216.0	2.2873278083235832e+18
14217.0	2.286830373935513e+18
14218.0	2.2863330485993472e+18
14219.0	2.285835847414579e+18
14220.0	2.2853387821252605e+18
14221.0	2.284841783944806e+18
14222.0	2.2843449417924603e+18
14223.0	2.2838482019811323e+18
14224.0	2.2833515796103165e+18
14225.0	2.2828436863057917e+18
14226.0	2.2823585445838845e+18
14227.0	2.2818624473399293e+18
14228.0	2.2813418905927677e+18
14229.0	2.2808654260469755e+18
14230.0	2.280374397199974e+18
14231.0	2.279878627111731e+18
14232.0	2.2793829560090621e+18
14233.0	2.2787035290927101e+18
14234.0	2.2780444260958205e+18
14235.0	2.2775481896009728e+18
14236.0	2.277052345692979e+18
14237.0	2.2765564011216893e+18
14238.0	2.2760606880759805e+18
14239.0	2.2755645958651901e+18
14240.0	2.274987266696806e+18
14241.0	2.274573745232281e+18
14242.0	2.2740786328109048e+18
14243.0	2.2735742811766776e+18
14244.0	2.27308862439424e+18
14245.0	2.2725936965222395e+18
14246.0	2.2720988273704955e+18
14247.0	2.271604094114201e+18
14248.0	2.2711086713143293e+18
14249.0	2.270614835639091e+18
14250.0	2.2701204161167357e+18
14251.0	2.2696262868402173e+18
14252.0	2.2691321055543293e+18
14253.0	2.268637988021862e+18
14254.0	2.268143930887372e+18
14255.0	2.2676483721920512e+18
14256.0	2.267144032301875e+18
14257.0	2.2666615246028795e+18
14258.0	2.2660542984355837e+18
14259.0	2.2653644495126523e+18
14260.0	2.2648699746254843e+18
14261.0	2.264377343554355e+18
14262.0	2.2639052276629496e+18
14263.0	2.263393170253414e+18
14264.0	2.2629126456213501e+18
14265.0	2.262424230664601e+18
14266.0	2.2619308580405245e+18
14267.0	2.2614375122599933e+18
14268.0	2.2609442352660475e+18
14269.0	2.260450904585011e+18
14270.0	2.2599579732017147e+18
14271.0	2.259464947866009e+18
14272.0	2.2589720869470203e+18
14273.0	2.2584789441708027e+18
14274.0	2.2579578572636155e+18
14275.0	2.2574897360273405e+18
14276.0	2.2569981082337277e+18
14277.0	2.2565059737681917e+18
14278.0	2.256014089283174e+18
14279.0	2.2555218893864955e+18
14280.0	2.2550294646751227e+18
14281.0	2.2545379358670845e+18
14282.0	2.2540461000359933e+18
14283.0	2.253554336346931e+18
14284.0	2.2530626749988861e+18
14285.0	2.2525711025700861e+18
14286.0	2.2517532468445176e+18
14287.0	2.2511146170843133e+18
14288.0	2.250622452419788e+18
14289.0	2.2500779193532408e+18
14290.0	2.2496386566062075e+18
14291.0	2.2491471714189304e+18
14292.0	2.248655652677222e+18
14293.0	2.2481639997177848e+18
14294.0	2.247664424556953e+18
14295.0	2.2471812424138747e+18
14296.0	2.246647584338739e+18
14297.0	2.246198733412761e+18
14298.0	2.245698777409126e+18
14299.0	2.245217120314982e+18
14300.0	2.2447266451161083e+18
14301.0	2.2442359568465912e+18
14302.0	2.2437452618661883e+18
14303.0	2.2432548890083328e+18
14304.0	2.2427638148628477e+18
14305.0	2.2422741298708475e+18
14306.0	2.2417826530721787e+18
14307.0	2.2412933136908283e+18
14308.0	2.2408039189446648e+18
14309.0	2.2403137675460605e+18
14310.0	2.2398178414297083e+18
14311.0	2.2393335251468283e+18
14312.0	2.2388437680127995e+18
14313.0	2.2383524321427453e+18
14314.0	2.237866189835468e+18
14315.0	2.2373770115153917e+18
14316.0	2.2368847646425083e+18
14317.0	2.2363980743835643e+18
14318.0	2.2356756474626043e+18
14319.0	2.235099365192499e+18
14320.0	2.2346095476604928e+18
14321.0	2.2341198777679872e+18
14322.0	2.233627833899417e+18
14323.0	2.2331394692743168e+18
14324.0	2.2326513395302395e+18
14325.0	2.2321620622245883e+18
14326.0	2.2316728419614717e+18
14327.0	2.2311837072621565e+18
14328.0	2.2306943058051064e+18
14329.0	2.2302057448865787e+18
14330.0	2.229716908821709e+18
14331.0	2.2292281381879805e+18
14332.0	2.2287395017719803e+18
14333.0	2.2282509324648445e+18
14334.0	2.2277624352997368e+18
14335.0	2.2272733828087803e+18
14336.0	2.2267843638722557e+18
14337.0	2.2262973431021565e+18
14338.0	2.2258090808180733e+18
14339.0	2.2253209980502008e+18
14340.0	2.2248330528555003e+18
14341.0	2.2243450506182653e+18
14342.0	2.2238572648071165e+18
14343.0	2.2233692843802621e+18
14344.0	2.222881684796211e+18
14345.0	2.222394249628876e+18
14346.0	2.2219065896468477e+18
14347.0	2.2214186612293627e+18
14348.0	2.220931922316492e+18
14349.0	2.220444723707904e+18
14350.0	2.2199565352435704e+18
14351.0	2.219469433942835e+18
14352.0	2.2189834852368384e+18
14353.0	2.218496593651302e+18
14354.0	2.2179680626933757e+18
14355.0	2.2172025904693243e+18
14356.0	2.2167150647050232e+18
14357.0	2.2162278694518776e+18
14358.0	2.2157404544172027e+18
14359.0	2.2152530796478464e+18
14360.0	2.2147657669541883e+18
14361.0	2.2142786488762368e+18
14362.0	2.2137916130066427e+18
14363.0	2.2133045838479357e+18
14364.0	2.2128144139943933e+18
14365.0	2.2123300171808765e+18
14366.0	2.2118436037459965e+18
14367.0	2.2113575292108795e+18
14368.0	2.2108709261934584e+18
14369.0	2.21038445068288e+18
14370.0	2.209898043958886e+18
14371.0	2.2094117546754043e+18
14372.0	2.208925510690406e+18
14373.0	2.208439348913766e+18
14374.0	2.2079533028999165e+18
14375.0	2.2074673172840443e+18
14376.0	2.2069814004547576e+18
14377.0	2.2064954953695227e+18
14378.0	2.2060095785402363e+18
14379.0	2.2055240157102077e+18
14380.0	2.2050383572500477e+18
14381.0	2.2045526467805176e+18
14382.0	2.204067214812774e+18
14383.0	2.203581500987801e+18
14384.0	2.2030964481851387e+18
14385.0	2.2026112477429755e+18
14386.0	2.20212601374638e+18
14387.0	2.2016408367923195e+18
14388.0	2.2011556615159803e+18
14389.0	2.200670746286489e+18
14390.0	2.2001857605926904e+18
14391.0	2.1997010383011837e+18
14392.0	2.199216165014732e+18
14393.0	2.1987315249315837e+18
14394.0	2.198246854649446e+18
14395.0	2.197657860282777e+18
14396.0	2.1969197332430843e+18
14397.0	2.196427080361574e+18
14398.0	2.1959416517492733e+18
14399.0	2.1954564026531837e+18
14400.0	2.1949701301469181e+18
14401.0	2.1944854464430077e+18
14402.0	2.1940001520484347e+18
14403.0	2.193412592133734e+18
14404.0	2.1927064894439414e+18
14405.0	2.1924581564481533e+18
14406.0	2.1920598368190461e+18
14407.0	2.191437527934566e+18
14408.0	2.1910887900119032e+18
14409.0	2.1906051901161467e+18
14410.0	2.1901214459363323e+18
14411.0	2.1896371095207933e+18
14412.0	2.1891524677599227e+18
14413.0	2.1886682101972987e+18
14414.0	2.1881836389007357e+18
14415.0	2.1876993763049467e+18
14416.0	2.1872151875289083e+18
14417.0	2.1867307085070333e+18
14418.0	2.1862459207843832e+18
14419.0	2.1857625826131963e+18
14420.0	2.1852783334391803e+18
14421.0	2.1847945489940475e+18
14422.0	2.1843102964645885e+18
14423.0	2.1838235558739963e+18
14424.0	2.1827683847503867e+18
14425.0	2.18285554574295e+18
14426.0	2.182375519394201e+18
14427.0	2.181892382549606e+18
14428.0	2.1814089957244928e+18
14429.0	2.1809256491646973e+18
14430.0	2.1804422052970493e+18
14431.0	2.179953443051929e+18
14432.0	2.1794745944637437e+18
14433.0	2.1788880093052925e+18
14434.0	2.1785077788704763e+18
14435.0	2.1780248903286781e+18
14436.0	2.1775428775575547e+18
14437.0	2.177059775945113e+18
14438.0	2.176573823883673e+18
14439.0	2.1760926852055037e+18
14440.0	2.1756108569837568e+18
14441.0	2.17512775033815e+18
14442.0	2.174644746033561e+18
14443.0	2.1741597032972285e+18
14444.0	2.1736764355903483e+18
14445.0	2.17288581096407e+18
14446.0	2.1722631480803328e+18
14447.0	2.171917064313241e+18
14448.0	2.17143575618519e+18
14449.0	2.1709524851228667e+18
14450.0	2.1704691117195261e+18
14451.0	2.1699857483825147e+18
14452.0	2.1695021249986555e+18
14453.0	2.1690174060625917e+18
14454.0	2.168535836209971e+18
14455.0	2.1680523436883963e+18
14456.0	2.167569032360755e+18
14457.0	2.1670857478766587e+18
14458.0	2.1666030925381627e+18
14459.0	2.166119883551539e+18
14460.0	2.16563692118999e+18
14461.0	2.1651527961673725e+18
14462.0	2.16467009217495e+18
14463.0	2.1641879418306555e+18
14464.0	2.1637056321028093e+18
14465.0	2.1632218560462845e+18
14466.0	2.1627403818237947e+18
14467.0	2.1622561074839547e+18
14468.0	2.1617748429766653e+18
14469.0	2.161291224625971e+18
14470.0	2.1608083880935421e+18
14471.0	2.1603270665437181e+18
14472.0	2.1598452567769083e+18
14473.0	2.1593629621485565e+18
14474.0	2.1588806205439995e+18
14475.0	2.158398047413862e+18
14476.0	2.157909382476595e+18
14477.0	2.1574336192184315e+18
14478.0	2.1569514118316027e+18
14479.0	2.1564691474022395e+18
14480.0	2.1559835778613243e+18
14481.0	2.1554082149826555e+18
14482.0	2.1549257156722683e+18
14483.0	2.154443083821875e+18
14484.0	2.1539605912223744e+18
14485.0	2.1534765114982395e+18
14486.0	2.1529780453113848e+18
14487.0	2.1525144388239355e+18
14488.0	2.152032280091033e+18
14489.0	2.15154955428823e+18
14490.0	2.15106762875863e+18
14491.0	2.1505855639781373e+18
14492.0	2.1501035411406845e+18
14493.0	2.1496213975072768e+18
14494.0	2.149139285750579e+18
14495.0	2.148657053197926e+18
14496.0	2.1481666199420925e+18
14497.0	2.1476929370587133e+18
14498.0	2.1472109796524027e+18
14499.0	2.1467289467486205e+18
14500.0	2.1462468651909117e+18
14501.0	2.145473245950771e+18
14502.0	2.1449642587717624e+18
14503.0	2.1444943943827448e+18
14504.0	2.144012269204275e+18
14505.0	2.143526275199795e+18
14506.0	2.1430403902472187e+18
14507.0	2.1425489872683005e+18
14508.0	2.142081654561177e+18
14509.0	2.1415990495543293e+18
14510.0	2.1411163036188667e+18
14511.0	2.1406335157403643e+18
14512.0	2.140149783304601e+18
14513.0	2.139667945016524e+18
14514.0	2.1391829794553848e+18
14515.0	2.1387020840468477e+18
14516.0	2.138088851636224e+18
14517.0	2.1377359848407035e+18
14518.0	2.1372540240789496e+18
14519.0	2.1367713502855165e+18
14520.0	2.1362886228049917e+18
14521.0	2.135805886935859e+18
14522.0	2.1353230269153277e+18
14523.0	2.1348326339248128e+18
14524.0	2.1343496044543992e+18
14525.0	2.133874153252454e+18
14526.0	2.1333916958851067e+18
14527.0	2.132907304104755e+18
14528.0	2.1324185603145725e+18
14529.0	2.1317662890000384e+18
14530.0	2.1312570585513981e+18
14531.0	2.1307751028228093e+18
14532.0	2.1302828760825853e+18
14533.0	2.129809621018214e+18
14534.0	2.1293272223711227e+18
14535.0	2.1288444328148987e+18
14536.0	2.128361582860697e+18
14537.0	2.127877927600128e+18
14538.0	2.1273958141657083e+18
14539.0	2.1269129256239107e+18
14540.0	2.126430015271731e+18
14541.0	2.1259467895078912e+18
14542.0	2.1254640821600248e+18
14543.0	2.1249766486704125e+18
14544.0	2.1244978588024824e+18
14545.0	2.1240142538735608e+18
14546.0	2.1229280432226296e+18
14547.0	2.1224988501606392e+18
14548.0	2.122564636980019e+18
14549.0	2.1220757673607163e+18
14550.0	2.1215999906807803e+18
14551.0	2.1211170752954365e+18
14552.0	2.1206338931523581e+18
14553.0	2.120150479483699e+18
14554.0	2.1196677117378555e+18
14555.0	2.1191844977180672e+18
14556.0	2.118701152835993e+18
14557.0	2.1182180512235517e+18
14558.0	2.1177344379060221e+18
14559.0	2.1171549092446205e+18
14560.0	2.1167675803697147e+18
14561.0	2.1162843227291643e+18
14562.0	2.1158012563488768e+18
14563.0	2.115317903078195e+18
14564.0	2.1148342293626875e+18
14565.0	2.114272479517081e+18
14566.0	2.1135522638331901e+18
14567.0	2.1130677848113147e+18
14568.0	2.1125829316575227e+18
14569.0	2.112098397270835e+18
14570.0	2.1115869270638587e+18
14571.0	2.1111287631052795e+18
14572.0	2.110641799377715e+18
14573.0	2.110157259957862e+18
14574.0	2.1096734302142461e+18
14575.0	2.1091888471736315e+18
14576.0	2.1087038145036283e+18
14577.0	2.1082187264688128e+18
14578.0	2.107733232425369e+18
14579.0	2.1072478524669947e+18
14580.0	2.1067622829260797e+18
14581.0	2.1062763728076797e+18
14582.0	2.1057909525839864e+18
14583.0	2.1053052538585078e+18
14584.0	2.1048187682816e+18
14585.0	2.1043336768913403e+18
14586.0	2.1038476291997693e+18
14587.0	2.103361848265932e+18
14588.0	2.1028768525058045e+18
14589.0	2.102398591120179e+18
14590.0	2.1019215074951165e+18
14591.0	2.1014443064295421e+18
14592.0	2.1009669459804155e+18
14593.0	2.1004823612620797e+18
14594.0	2.1000122619920384e+18
14595.0	2.099534374738329e+18
14596.0	2.099054026267033e+18
14597.0	2.098576194378137e+18
14598.0	2.098101316956979e+18
14599.0	2.097623874299494e+18
14600.0	2.097145891415654e+18
14601.0	2.0966678095462397e+18
14602.0	2.0961895716487163e+18
14603.0	2.095711333751193e+18
14604.0	2.0952304081436667e+18
14605.0	2.0947540526497787e+18
14606.0	2.0942721791295488e+18
14607.0	2.0937966692073467e+18
14608.0	2.093318256826777e+18
14609.0	2.0928389351211005e+18
14610.0	2.0923602224283643e+18
14611.0	2.0918812127789053e+18
14612.0	2.0914023172145147e+18
14613.0	2.0909230089306112e+18
14614.0	2.0904432375955453e+18
14615.0	2.0899637112078333e+18
14616.0	2.08948393148416e+18
14617.0	2.0890039990878205e+18
14618.0	2.0885238603317243e+18
14619.0	2.0880410489651197e+18
14620.0	2.0875556371300347e+18
14621.0	2.0870828937707517e+18
14622.0	2.0866023808827387e+18
14623.0	2.0861216616349693e+18
14624.0	2.085637078594355e+18
14625.0	2.085159681235353e+18
14626.0	2.0846782590222333e+18
14627.0	2.0841965297860605e+18
14628.0	2.0837154548613117e+18
14629.0	2.0832337155588093e+18
14630.0	2.0827517598302205e+18
14631.0	2.0822696849833981e+18
14632.0	2.0817437310058493e+18
14633.0	2.081298868024115e+18
14634.0	2.0808228900175867e+18
14635.0	2.080339650831974e+18
14636.0	2.0798553060278272e+18
14637.0	2.0793747260309496e+18
14638.0	2.0788913694048253e+18
14639.0	2.0784074658414587e+18
14640.0	2.0779236394532861e+18
14641.0	2.077266722527641e+18
14642.0	2.0769561510936573e+18
14643.0	2.0764733195943933e+18
14644.0	2.0757770097655803e+18
14645.0	2.075227055980544e+18
14646.0	2.0747426256125947e+18
14647.0	2.0742569302425592e+18
14648.0	2.0737713724456955e+18
14649.0	2.073285606611353e+18
