# Flux units: erg / (cm m2 s)
# Wavelength units: Angstrom
wave	flux
14000.0	1.7941456945676285e+18
14001.0	1.7936682753982461e+18
14002.0	1.7935213841612797e+18
14003.0	1.7932015382822912e+18
14004.0	1.792880910585036e+18
14005.0	1.792560168802713e+18
14006.0	1.7922294261219325e+18
14007.0	1.791907578721075e+18
14008.0	1.7914760435597312e+18
14009.0	1.7912741146656763e+18
14010.0	1.7909393706188797e+18
14011.0	1.7898072507940867e+18
14012.0	1.7903135888506877e+18
14013.0	1.7899968954105856e+18
14014.0	1.7896700785983485e+18
14015.0	1.7893544052129787e+18
14016.0	1.7890374567591939e+18
14017.0	1.7887177752969213e+18
14018.0	1.788397964650086e+18
14019.0	1.7880783637184507e+18
14020.0	1.787757821584998e+18
14021.0	1.7874374707118077e+18
14022.0	1.787118705285529e+18
14023.0	1.7867876119609344e+18
14024.0	1.7864645331124221e+18
14025.0	1.7861614527053821e+18
14026.0	1.7858401253982203e+18
14027.0	1.785523338005708e+18
14028.0	1.7851966218567675e+18
14029.0	1.7848808880734205e+18
14030.0	1.784304114230886e+18
14031.0	1.784219493308825e+18
14032.0	1.7839269892587517e+18
14033.0	1.7835596806356987e+18
14034.0	1.7832910052655104e+18
14035.0	1.7829731038658555e+18
14036.0	1.7826547176046587e+18
14037.0	1.782336368253337e+18
14038.0	1.782018060845056e+18
14039.0	1.7816946766512125e+18
14040.0	1.781375661244416e+18
14041.0	1.7810610716671995e+18
14042.0	1.7807317315616763e+18
14043.0	1.780375244242944e+18
14044.0	1.7800930212708352e+18
14045.0	1.7797865401221117e+18
14046.0	1.7794686102011904e+18
14047.0	1.7791472157851643e+18
14048.0	1.778837239942348e+18
14049.0	1.7785211773255677e+18
14050.0	1.7782036987117563e+18
14051.0	1.777875294774886e+18
14052.0	1.7775640740626427e+18
14053.0	1.777251521239449e+18
14054.0	1.7769345560084477e+18
14055.0	1.7766174498488315e+18
14056.0	1.7763003520778235e+18
14057.0	1.7759834053017595e+18
14058.0	1.7756664904024061e+18
14059.0	1.7753496510005243e+18
14060.0	1.7750328552194043e+18
14061.0	1.7747071373148155e+18
14062.0	1.7743993458655227e+18
14063.0	1.774057744970547e+18
14064.0	1.7736921459458048e+18
14065.0	1.7734159292170235e+18
14066.0	1.7731108992974848e+18
14067.0	1.7727946823303165e+18
14068.0	1.772478446908211e+18
14069.0	1.7721610538582013e+18
14070.0	1.7718460951822333e+18
14071.0	1.7715263784878077e+18
14072.0	1.7712142534836224e+18
14073.0	1.7708984072929277e+18
14074.0	1.770582710419456e+18
14075.0	1.770245533676339e+18
14076.0	1.7699511589666813e+18
14077.0	1.7695772250210304e+18
14078.0	1.769315664868147e+18
14079.0	1.7689922152431608e+18
14080.0	1.7686893730725885e+18
14081.0	1.7683741056958461e+18
14082.0	1.7680569424936955e+18
14083.0	1.7677416147189755e+18
14084.0	1.7674271677480957e+18
14085.0	1.7667996981919741e+18
14086.0	1.7667909203525632e+18
14087.0	1.7664833923055613e+18
14088.0	1.7661550202454008e+18
14089.0	1.7658541846298621e+18
14090.0	1.765537754592051e+18
14091.0	1.7652250390298621e+18
14092.0	1.7649105736040448e+18
14093.0	1.7645961132113915e+18
14094.0	1.7642816830177272e+18
14095.0	1.7639671672602621e+18
14096.0	1.7636400434249723e+18
14097.0	1.763320477725491e+18
14098.0	1.7630197259960315e+18
14099.0	1.7627105437155325e+18
14100.0	1.7623805929193464e+18
14101.0	1.7620829198090235e+18
14102.0	1.7617687899275261e+18
14103.0	1.761434772334182e+18
14104.0	1.7611379984826365e+18
14105.0	1.7608278347350008e+18
14106.0	1.7605142937337856e+18
14107.0	1.7602003249135613e+18
14108.0	1.759873187656499e+18
14109.0	1.7595679698321403e+18
14110.0	1.7592581097521147e+18
14111.0	1.7589355275091965e+18
14112.0	1.7586242732425213e+18
14113.0	1.758321051906867e+18
14114.0	1.7579917319340032e+18
14115.0	1.7576927921438723e+18
14116.0	1.7573663578521597e+18
14117.0	1.7566076367798272e+18
14118.0	1.7567545984811005e+18
14119.0	1.7564306337955835e+18
14120.0	1.7561254109380605e+18
14121.0	1.755805147306393e+18
14122.0	1.755497521951539e+18
14123.0	1.7551883547705341e+18
14124.0	1.754872411271987e+18
14125.0	1.7539759056355323e+18
14126.0	1.7542541171752957e+18
14127.0	1.753944631227187e+18
14128.0	1.753631232832307e+18
14129.0	1.7533062564806653e+18
14130.0	1.7529827565240317e+18
14131.0	1.7526968543084544e+18
14132.0	1.752374711628595e+18
14133.0	1.7513790291574766e+18
14134.0	1.751757761386905e+18
14135.0	1.751434137278873e+18
14136.0	1.7511341807894525e+18
14137.0	1.750826552079155e+18
14138.0	1.7505118349950976e+18
14139.0	1.7502044310994944e+18
14140.0	1.7498900042612733e+18
14141.0	1.7495779480436733e+18
14142.0	1.7492397529235453e+18
14143.0	1.7489575383400443e+18
14144.0	1.7486497385021435e+18
14145.0	1.7483367813480448e+18
14146.0	1.7480260840849403e+18
14147.0	1.747716479018598e+18
14148.0	1.7474063941238781e+18
14149.0	1.7470963998261243e+18
14150.0	1.746785774705049e+18
14151.0	1.7464720944529405e+18
14152.0	1.7461649237606397e+18
14153.0	1.7458544412459005e+18
14154.0	1.745512665867878e+18
14155.0	1.7452194202648576e+18
14156.0	1.7449219719692285e+18
14157.0	1.744613772833587e+18
14158.0	1.744298601086976e+18
14159.0	1.7439937154514944e+18
14160.0	1.7436748292292605e+18
14161.0	1.743297378779136e+18
14162.0	1.7429287699218427e+18
14163.0	1.7427510807494653e+18
14164.0	1.7424185630392317e+18
14165.0	1.742088677674188e+18
14166.0	1.7418240137363453e+18
14167.0	1.741498747138867e+18
14168.0	1.7412059276771325e+18
14169.0	1.7408982201139197e+18
14170.0	1.7405852763815933e+18
14171.0	1.7402758659309565e+18
14172.0	1.7399706078412797e+18
14173.0	1.739623582872371e+18
14174.0	1.739346574258995e+18
14175.0	1.7390439602585597e+18
14176.0	1.7387352645173243e+18
14177.0	1.7384265805201405e+18
14178.0	1.738117222078873e+18
14179.0	1.737801835583897e+18
14180.0	1.7375008036749307e+18
14181.0	1.737192359591936e+18
14182.0	1.7368829189423096e+18
14183.0	1.7365755704115197e+18
14184.0	1.736260720787456e+18
14185.0	1.7359584658194427e+18
14186.0	1.7355441826693115e+18
14187.0	1.735310004610662e+18
14188.0	1.7350296053219328e+18
14189.0	1.7347258873806843e+18
14190.0	1.7344180791541757e+18
14191.0	1.7341102038188027e+18
14192.0	1.7337927050723323e+18
14193.0	1.7334824356282365e+18
14194.0	1.7331864670830587e+18
14195.0	1.732880796273868e+18
14196.0	1.7325729763033088e+18
14197.0	1.7322655606636547e+18
14198.0	1.7319514475593725e+18
14199.0	1.7316486490095616e+18
14200.0	1.73129216336855e+18
14201.0	1.7310340006019072e+18
14202.0	1.7307274909319163e+18
14203.0	1.7304138895327232e+18
14204.0	1.730111787237376e+18
14205.0	1.7298045544693757e+18
14206.0	1.7293402013958141e+18
14207.0	1.7291933890117627e+18
14208.0	1.7288878893301757e+18
14209.0	1.7284079837773821e+18
14210.0	1.7281546830479352e+18
14211.0	1.727959342566604e+18
14212.0	1.7276613288787965e+18
14213.0	1.727356298959257e+18
14214.0	1.7270488094998528e+18
14215.0	1.726726671853158e+18
14216.0	1.726438045017702e+18
14217.0	1.7261320017543165e+18
14218.0	1.7258110435459072e+18
14219.0	1.725519858185011e+18
14220.0	1.7252141722763261e+18
14221.0	1.7249077414592507e+18
14222.0	1.7245923985850365e+18
14223.0	1.724296534058598e+18
14224.0	1.723990874993459e+18
14225.0	1.7235234734997504e+18
14226.0	1.723371963495219e+18
14227.0	1.7230183903789053e+18
14228.0	1.7222734031355904e+18
14229.0	1.7223327760252923e+18
14230.0	1.7221022033903613e+18
14231.0	1.7217949320347643e+18
14232.0	1.7214917945851904e+18
14233.0	1.7211829612707835e+18
14234.0	1.720881384102297e+18
14235.0	1.7205728913653757e+18
14236.0	1.720271028984217e+18
14237.0	1.719964098206105e+18
14238.0	1.7196596890435581e+18
14239.0	1.719344339458457e+18
14240.0	1.7168737585070085e+18
14241.0	1.7187363197288448e+18
14242.0	1.7184379151319037e+18
14243.0	1.7179370095378427e+18
14244.0	1.717829163915673e+18
14245.0	1.7174582834233341e+18
14246.0	1.717151691544985e+18
14247.0	1.7168573319348221e+18
14248.0	1.7165360448929787e+18
14249.0	1.716248558908211e+18
14250.0	1.7159472166207485e+18
14251.0	1.715646105858867e+18
14252.0	1.7153417218621437e+18
14253.0	1.7150364822274048e+18
14254.0	1.7147299977232381e+18
14255.0	1.7143834811039736e+18
14256.0	1.7139566066532352e+18
14257.0	1.713802524701491e+18
14258.0	1.713517102314291e+18
14259.0	1.7131888124624893e+18
14260.0	1.7128982310813693e+18
14261.0	1.712580707169075e+18
14262.0	1.7123271631699963e+18
14263.0	1.711773803610112e+18
14264.0	1.7116475668037627e+18
14265.0	1.71135571370967e+18
14266.0	1.7110575976808448e+18
14267.0	1.7107554970632187e+18
14268.0	1.7104520861450237e+18
14269.0	1.7101370117062653e+18
14270.0	1.7098452039106557e+18
14271.0	1.7095412494106621e+18
14272.0	1.7092381237051387e+18
14273.0	1.7089313288224763e+18
14274.0	1.7082457211797504e+18
14275.0	1.70828855508992e+18
14276.0	1.7080091121025021e+18
14277.0	1.7077092109778936e+18
14278.0	1.7074199768072187e+18
14279.0	1.7071160072077307e+18
14280.0	1.706805335110451e+18
14281.0	1.7065120660193275e+18
14282.0	1.7062098781601787e+18
14283.0	1.7059072792592381e+18
14284.0	1.7056047172681728e+18
14285.0	1.705302049580646e+18
14286.0	1.704999022860697e+18
14287.0	1.704680710419251e+18
14288.0	1.704335163523072e+18
14289.0	1.7026375290453988e+18
14290.0	1.7037298969346043e+18
14291.0	1.703430556169011e+18
14292.0	1.703127056331571e+18
14293.0	1.7028241923506176e+18
14294.0	1.7023462463766525e+18
14295.0	1.7022026703175675e+18
14296.0	1.7007943421526026e+18
14297.0	1.7016090504724472e+18
14298.0	1.7011058094899197e+18
14299.0	1.7009952392478715e+18
14300.0	1.7007026680889341e+18
14301.0	1.7004068253728765e+18
14302.0	1.700106904115609e+18
14303.0	1.699763440949657e+18
14304.0	1.6994835248447485e+18
14305.0	1.6992034141241341e+18
14306.0	1.698893186623078e+18
14307.0	1.6985957383274493e+18
14308.0	1.698299868767846e+18
14309.0	1.6979956777091072e+18
14310.0	1.697646040527667e+18
14311.0	1.6973491072925693e+18
14312.0	1.6970532981309437e+18
14313.0	1.6965652086521853e+18
14314.0	1.6964358563168253e+18
14315.0	1.696135914926899e+18
14316.0	1.695768737166131e+18
14317.0	1.6955288028446715e+18
14318.0	1.6952347116699648e+18
14319.0	1.694934683038515e+18
14320.0	1.6946332115664893e+18
14321.0	1.694329243644723e+18
14322.0	1.6939802892959741e+18
14323.0	1.6937069330825213e+18
14324.0	1.6934312398028797e+18
14325.0	1.6931187809320957e+18
14326.0	1.6928304208543741e+18
14327.0	1.69252152714199e+18
14328.0	1.6922207468912637e+18
14329.0	1.6919292830285821e+18
14330.0	1.6916290228715515e+18
14331.0	1.6913283986489344e+18
14332.0	1.6910285310787581e+18
14333.0	1.6907284722483195e+18
14334.0	1.6904283832188925e+18
14335.0	1.6901117065560061e+18
14336.0	1.689809906250547e+18
14337.0	1.6895246516355067e+18
14338.0	1.6892246683025403e+18
14339.0	1.688914291484262e+18
14340.0	1.688615217476403e+18
14341.0	1.6882736987897853e+18
14342.0	1.6879716535369725e+18
14343.0	1.6876719654830075e+18
14344.0	1.6873695930744832e+18
14345.0	1.6870755153215488e+18
14346.0	1.6867723157962752e+18
14347.0	1.6864363503681533e+18
14348.0	1.6861455492055037e+18
14349.0	1.68584675369943e+18
14350.0	1.6855342260420605e+18
14351.0	1.685226927842918e+18
14352.0	1.68493562504151e+18
14353.0	1.6846466525954048e+18
14354.0	1.6843473671946237e+18
14355.0	1.6840462262337533e+18
14356.0	1.6837483534745597e+18
14357.0	1.6834531348709376e+18
14358.0	1.6831540893843453e+18
14359.0	1.6828361007431675e+18
14360.0	1.6825545572483072e+18
14361.0	1.6822568086405115e+18
14362.0	1.6819584594083835e+18
14363.0	1.6816591974957053e+18
14364.0	1.681319249156505e+18
14365.0	1.6810532078092285e+18
14366.0	1.680755838366515e+18
14367.0	1.6804650992795643e+18
14368.0	1.6801659111866365e+18
14369.0	1.6798681290244093e+18
14370.0	1.679569727782912e+18
14371.0	1.6792713936502781e+18
14372.0	1.67895710606295e+18
14373.0	1.6786217026715643e+18
14374.0	1.678322949108531e+18
14375.0	1.678021725939302e+18
14376.0	1.677726883145318e+18
14377.0	1.6774276849860603e+18
14378.0	1.6771266463662077e+18
14379.0	1.676831991477043e+18
14380.0	1.6765327211757565e+18
14381.0	1.67622015493079e+18
14382.0	1.6759354573193213e+18
14383.0	1.6756356115595261e+18
14384.0	1.6753180339601405e+18
14385.0	1.6750436073603072e+18
14386.0	1.6747227733032957e+18
14387.0	1.674447376980377e+18
14388.0	1.6741473131167744e+18
14389.0	1.6738516079738877e+18
14390.0	1.6735513612386304e+18
14391.0	1.6732566946054144e+18
14392.0	1.6729576809955325e+18
14393.0	1.6726616470192128e+18
14394.0	1.6723143502594043e+18
14395.0	1.672052991433113e+18
14396.0	1.6717690538295293e+18
14397.0	1.6714716005007357e+18
14398.0	1.671173722708377e+18
14399.0	1.6708764539289597e+18
14400.0	1.6705526016507904e+18
14401.0	1.670272187262566e+18
14402.0	1.6699783980777472e+18
14403.0	1.6688929927331825e+18
14404.0	1.6645686384656353e+18
14405.0	1.6668129014841283e+18
14406.0	1.668784970950246e+18
14407.0	1.6673702808649728e+18
14408.0	1.6681865125560315e+18
14409.0	1.6678548857159677e+18
14410.0	1.6675534914191357e+18
14411.0	1.6672594153439235e+18
14412.0	1.6669589874147325e+18
14413.0	1.666667629248512e+18
14414.0	1.666367486531993e+18
14415.0	1.6660722477957115e+18
14416.0	1.6657768714862587e+18
14417.0	1.6654772991950848e+18
14418.0	1.6651746717728765e+18
14419.0	1.6648841575006203e+18
14420.0	1.664582174323507e+18
14421.0	1.6642913932935165e+18
14422.0	1.6639878951337981e+18
14423.0	1.663670223582003e+18
14424.0	1.6587926909485025e+18
14425.0	1.6630778804830203e+18
14426.0	1.6628077924712448e+18
14427.0	1.66251262419927e+18
14428.0	1.662188610859827e+18
14429.0	1.6619173702533115e+18
14430.0	1.6616262167691261e+18
14431.0	1.6611902641668093e+18
14432.0	1.660917417980723e+18
14433.0	1.6597648786063357e+18
14434.0	1.6603083429642237e+18
14435.0	1.660014602433331e+18
14436.0	1.6597407160598528e+18
14437.0	1.6594450260164605e+18
14438.0	1.6591239436566525e+18
14439.0	1.6588458545905661e+18
14440.0	1.6585563536621565e+18
14441.0	1.658248330687283e+18
14442.0	1.6579429081808896e+18
14443.0	1.657591148681625e+18
14444.0	1.6573660806512635e+18
14445.0	1.6570745412911104e+18
14446.0	1.6549256231911432e+18
14447.0	1.656462345712435e+18
14448.0	1.6561912762335232e+18
14449.0	1.6558969854099453e+18
14450.0	1.6555706501038077e+18
14451.0	1.6552510558830592e+18
14452.0	1.654959026628198e+18
14453.0	1.6546519364665341e+18
14454.0	1.654369018917683e+18
14455.0	1.6540618113155067e+18
14456.0	1.653775508124467e+18
14457.0	1.6534788299030525e+18
14458.0	1.653186077550182e+18
14459.0	1.6528882467340285e+18
14460.0	1.6525925315248125e+18
14461.0	1.6522713183027197e+18
14462.0	1.651966637349273e+18
14463.0	1.6517012083703805e+18
14464.0	1.651414007598284e+18
14465.0	1.6510849761935357e+18
14466.0	1.6508216124899325e+18
14467.0	1.65049582747648e+18
14468.0	1.650229193893478e+18
14469.0	1.649909604705894e+18
14470.0	1.6496022796632061e+18
14471.0	1.649335567227289e+18
14472.0	1.649047495717683e+18
14473.0	1.6487582162485248e+18
14474.0	1.6484664235524093e+18
14475.0	1.6481690910195707e+18
14476.0	1.6478232152899584e+18
14477.0	1.6475824454631421e+18
14478.0	1.6472842287710203e+18
14479.0	1.6469896997109757e+18
14480.0	1.6466738669420544e+18
14481.0	1.6464042923130875e+18
14482.0	1.6461042922029056e+18
14483.0	1.6458002018074621e+18
14484.0	1.6455046745030653e+18
14485.0	1.6451685547245565e+18
14486.0	1.6445089651884032e+18
14487.0	1.6446349771800576e+18
14488.0	1.6443397367660544e+18
14489.0	1.6440415922159608e+18
14490.0	1.643749737444147e+18
14491.0	1.643457426332057e+18
14492.0	1.6431654859964416e+18
14493.0	1.6428620616564733e+18
14494.0	1.642548044182323e+18
14495.0	1.642280311691673e+18
14496.0	1.6417989330993147e+18
14497.0	1.6416918793617405e+18
14498.0	1.6414000682106877e+18
14499.0	1.641106176684851e+18
14500.0	1.6407637889384443e+18
14501.0	1.640435213873971e+18
14502.0	1.6398536786575363e+18
14503.0	1.6398557305110525e+18
14504.0	1.6395771817492477e+18
14505.0	1.6392672897925115e+18
14506.0	1.6389472258097147e+18
14507.0	1.6383554145484797e+18
14508.0	1.638407876902912e+18
14509.0	1.6381151044173821e+18
14510.0	1.6378160857743357e+18
14511.0	1.6375262811783165e+18
14512.0	1.6372109097828347e+18
14513.0	1.6369180668329984e+18
14514.0	1.6365589136146432e+18
14515.0	1.636302926852915e+18
14516.0	1.6324034035712028e+18
14517.0	1.6357017622937597e+18
14518.0	1.6354269347184637e+18
14519.0	1.6351347444023293e+18
14520.0	1.634839710348083e+18
14521.0	1.634546872431411e+18
14522.0	1.6342530312372221e+18
14523.0	1.6339032782929912e+18
14524.0	1.6336093163028475e+18
14525.0	1.6333635888087035e+18
14526.0	1.6330741214347261e+18
14527.0	1.6327538091491323e+18
14528.0	1.6322922612260861e+18
14529.0	1.6321800887599104e+18
14530.0	1.6318762617667581e+18
14531.0	1.631578437661491e+18
14532.0	1.631194665556377e+18
14533.0	1.6309729865236477e+18
14534.0	1.63068147400704e+18
14535.0	1.630372784976691e+18
14536.0	1.6300884682080253e+18
14537.0	1.6297801013002237e+18
14538.0	1.6295063558553597e+18
14539.0	1.6292128518832125e+18
14540.0	1.628919034177126e+18
14541.0	1.6285943229054968e+18
14542.0	1.6283281607622653e+18
14543.0	1.6279876956848123e+18
14544.0	1.6277406478237693e+18
14545.0	1.6274338294530048e+18
14546.0	1.6210177942355927e+18
14547.0	1.621156117348347e+18
14548.0	1.6265389277183997e+18
14549.0	1.6261006799929341e+18
14550.0	1.6259673313247232e+18
14551.0	1.625687752441856e+18
14552.0	1.6253928828043261e+18
14553.0	1.6250878864392192e+18
14554.0	1.624807513994035e+18
14555.0	1.624513496639078e+18
14556.0	1.624185413147033e+18
14557.0	1.6238770563055613e+18
14558.0	1.6235757458948093e+18
14559.0	1.620622618656763e+18
14560.0	1.622985998231142e+18
14561.0	1.622691083295129e+18
14562.0	1.6223752136163325e+18
14563.0	1.6221138967330816e+18
14564.0	1.6218154300604413e+18
14565.0	1.6215273199632381e+18
14566.0	1.6212334586363904e+18
14567.0	1.6209390436614141e+18
14568.0	1.6206364497936381e+18
14569.0	1.6203482289668093e+18
14570.0	1.6193171717357563e+18
14571.0	1.619756954576486e+18
14572.0	1.6194161891868672e+18
14573.0	1.6191077568479232e+18
14574.0	1.6188696646647805e+18
14575.0	1.6185856767295485e+18
14576.0	1.6182913708064763e+18
14577.0	1.6179905804894203e+18
14578.0	1.6177030357843965e+18
14579.0	1.6174123940052987e+18
14580.0	1.6171186299863035e+18
14581.0	1.6168205273792512e+18
14582.0	1.6165302244999165e+18
14583.0	1.616236378272563e+18
14584.0	1.6159276691095547e+18
14585.0	1.6156478603788285e+18
14586.0	1.6153490766168061e+18
14587.0	1.6150583274635261e+18
14588.0	1.614765318419251e+18
14589.0	1.6144747655593981e+18
14590.0	1.6141840331833341e+18
14591.0	1.6138922874634235e+18
14592.0	1.6135903529402365e+18
14593.0	1.6131440253075453e+18
14594.0	1.6130188186222592e+18
14595.0	1.6127173739937787e+18
14596.0	1.6123957212086272e+18
14597.0	1.6120989322575872e+18
14598.0	1.6118500842012667e+18
14599.0	1.6115654704758781e+18
14600.0	1.6112740837883901e+18
14601.0	1.6109833178578941e+18
14602.0	1.6106873962889213e+18
14603.0	1.6104005746819067e+18
14604.0	1.6100505533022203e+18
14605.0	1.6098101659959293e+18
14606.0	1.609418844143616e+18
14607.0	1.609224726721331e+18
14608.0	1.6089403126448128e+18
14609.0	1.6086490937294843e+18
14610.0	1.608351341766246e+18
14611.0	1.608064144349593e+18
14612.0	1.607779104482918e+18
14613.0	1.6074885667225597e+18
14614.0	1.6071915680563197e+18
14615.0	1.6069050517946365e+18
14616.0	1.606613968774758e+18
14617.0	1.6063218086576125e+18
14618.0	1.60602722926592e+18
14619.0	1.6057085175267325e+18
14620.0	1.6053439939215357e+18
14621.0	1.6051210230431741e+18
14622.0	1.6048125219176448e+18
14623.0	1.6045243765882875e+18
14624.0	1.6041498554400765e+18
14625.0	1.6039349057486843e+18
14626.0	1.6036438579609597e+18
14627.0	1.6033499110703096e+18
14628.0	1.6030633981640701e+18
14629.0	1.602770991421849e+18
14630.0	1.602477497516032e+18
14631.0	1.6021849263570941e+18
14632.0	1.6015081972170755e+18
14633.0	1.601551074748006e+18
14634.0	1.6013046543548413e+18
14635.0	1.6009961733619707e+18
14636.0	1.6006682140213248e+18
14637.0	1.6004283853963261e+18
14638.0	1.600130765973094e+18
14639.0	1.5998260380434432e+18
14640.0	1.5995375823355901e+18
14641.0	1.5977913308413942e+18
14642.0	1.598948458784358e+18
14643.0	1.5986668397920253e+18
14644.0	1.5983588101062656e+18
14645.0	1.598047325991731e+18
14646.0	1.5977781355610112e+18
14647.0	1.5974807241752576e+18
