# Flux units: erg / (cm m2 s)
# Wavelength units: Angstrom
wave	flux
14000.0	2.3757940766801915e+18
14001.0	2.3752646162644987e+18
14002.0	2.3747398333366267e+18
14003.0	2.3742126026129403e+18
14004.0	2.3736854624862203e+18
14005.0	2.3731584448331776e+18
14006.0	2.3726312292089856e+18
14007.0	2.372104547100262e+18
14008.0	2.371572898935603e+18
14009.0	2.3710516107018235e+18
14010.0	2.3705254050660347e+18
14011.0	2.3699697101176827e+18
14012.0	2.3694731296899067e+18
14013.0	2.368947301541478e+18
14014.0	2.368421522046976e+18
14015.0	2.3678957710737403e+18
14016.0	2.367370404298752e+18
14017.0	2.3668450475900923e+18
14018.0	2.366319804966502e+18
14019.0	2.3657947435368443e+18
14020.0	2.3652697508937723e+18
14021.0	2.364744902534758e+18
14022.0	2.364220245436006e+18
14023.0	2.3636955480719355e+18
14024.0	2.3631708070871035e+18
14025.0	2.362647114678272e+18
14026.0	2.362122887076249e+18
14027.0	2.3615990117957627e+18
14028.0	2.361075163358822e+18
14029.0	2.3605514222960635e+18
14030.0	2.3600093504471035e+18
14031.0	2.3595038982275067e+18
14032.0	2.358981118499225e+18
14033.0	2.3584576525828096e+18
14034.0	2.357934911442125e+18
14035.0	2.3574120662827003e+18
14036.0	2.356889325142015e+18
14037.0	2.356366718219059e+18
14038.0	2.3558442455138304e+18
14039.0	2.355321901993165e+18
14040.0	2.354799699401113e+18
14041.0	2.3542776310267904e+18
14042.0	2.3537553881694203e+18
14043.0	2.3532326738722806e+18
14044.0	2.352711727893709e+18
14045.0	2.352190728228045e+18
14046.0	2.351669344364134e+18
14047.0	2.3511480192204795e+18
14048.0	2.350626962512281e+18
14049.0	2.3501060031119355e+18
14050.0	2.3495851628298235e+18
14051.0	2.3490639786147835e+18
14052.0	2.3485438748524544e+18
14053.0	2.3480234540007424e+18
14054.0	2.347503155622707e+18
14055.0	2.34698303340544e+18
14056.0	2.34646297158615e+18
14057.0	2.3459430926385147e+18
14058.0	2.3454233445531643e+18
14059.0	2.3449037239746555e+18
14060.0	2.3443842392915963e+18
14061.0	2.3438645767700475e+18
14062.0	2.343345675934105e+18
14063.0	2.3428257131003904e+18
14064.0	2.3423049801924603e+18
14065.0	2.341788444943974e+18
14066.0	2.3412701950640123e+18
14067.0	2.340751666682265e+18
14068.0	2.340233267485081e+18
14069.0	2.3397149337190395e+18
14070.0	2.3391968700661755e+18
14071.0	2.3386787460153344e+18
14072.0	2.3381610279731195e+18
14073.0	2.337643306575462e+18
14074.0	2.3371257244286976e+18
14075.0	2.3366082513338363e+18
14076.0	2.336090934267084e+18
14077.0	2.335569844004454e+18
14078.0	2.3350563672424443e+18
14079.0	2.334539447795712e+18
14080.0	2.334023038376345e+18
14081.0	2.3335063856873467e+18
14082.0	2.3329895065059323e+18
14083.0	2.332473410820505e+18
14084.0	2.331957224538112e+18
14085.0	2.3314272742277115e+18
14086.0	2.330924729499647e+18
14087.0	2.330409345168179e+18
14088.0	2.3298936085151744e+18
14089.0	2.3293780681555963e+18
14090.0	2.3288626066489344e+18
14091.0	2.32834736324608e+18
14092.0	2.3278322137956347e+18
14093.0	2.327317175074816e+18
14094.0	2.326802275604889e+18
14095.0	2.32628748854231e+18
14096.0	2.325772028713369e+18
14097.0	2.325258209696153e+18
14098.0	2.3247435769839616e+18
14099.0	2.324229783132569e+18
14100.0	2.323715148742655e+18
14101.0	2.323201764255334e+18
14102.0	2.3226879234277376e+18
14103.0	2.3221735876722683e+18
14104.0	2.3216606981128187e+18
14105.0	2.3211472247062523e+18
14106.0	2.3206339710812155e+18
14107.0	2.3201207006789627e+18
14108.0	2.3196078044086267e+18
14109.0	2.319094631314227e+18
14110.0	2.318581679679078e+18
14111.0	2.3180685887930363e+18
14112.0	2.317556922292633e+18
14113.0	2.317044670267391e+18
14114.0	2.3165324417302523e+18
14115.0	2.3160202450698235e+18
14116.0	2.3155069042032635e+18
14117.0	2.314963595873485e+18
14118.0	2.314484715408589e+18
14119.0	2.3139726915534843e+18
14120.0	2.313461389118668e+18
14121.0	2.3129502628446203e+18
14122.0	2.3124262483132406e+18
14123.0	2.3118423407984635e+18
14124.0	2.3113313873297403e+18
14125.0	2.3107962880917504e+18
14126.0	2.310310711839948e+18
14127.0	2.30980030866391e+18
14128.0	2.3092899021324283e+18
14129.0	2.308779753970073e+18
14130.0	2.308194292885094e+18
14131.0	2.307516191368806e+18
14132.0	2.307005705984409e+18
14133.0	2.306466279902413e+18
14134.0	2.305985362683494e+18
14135.0	2.3054746357071872e+18
14136.0	2.3049646670610427e+18
14137.0	2.304455859398246e+18
14138.0	2.3039460484579323e+18
14139.0	2.3034369270611965e+18
14140.0	2.3029269164720123e+18
14141.0	2.302417967880601e+18
14142.0	2.3019067191328765e+18
14143.0	2.301399822394982e+18
14144.0	2.3008916958871547e+18
14145.0	2.3003830341861373e+18
14146.0	2.299874395973222e+18
14147.0	2.299366007740825e+18
14148.0	2.2987764295270395e+18
14149.0	2.298129526921625e+18
14150.0	2.297620955817574e+18
14151.0	2.297112393102131e+18
14152.0	2.296604214584934e+18
14153.0	2.2960960310345723e+18
14154.0	2.2955879833796603e+18
14155.0	2.295079132096102e+18
14156.0	2.2945720877187067e+18
14157.0	2.2940645534466045e+18
14158.0	2.2935567356395515e+18
14159.0	2.2930495083905021e+18
14160.0	2.2925417392373755e+18
14161.0	2.2920317605249021e+18
14162.0	2.291522040181555e+18
14163.0	2.2910207587778552e+18
14164.0	2.2905129678143483e+18
14165.0	2.2899998265966587e+18
14166.0	2.289500392364441e+18
14167.0	2.2889942841556987e+18
14168.0	2.288347337929523e+18
14169.0	2.28775827645399e+18
14170.0	2.287251423336857e+18
14171.0	2.2867449074417661e+18
14172.0	2.2862385895178237e+18
14173.0	2.285728347403059e+18
14174.0	2.285225735566131e+18
14175.0	2.2847200568541181e+18
14176.0	2.2842141315170301e+18
14177.0	2.283708315231846e+18
14178.0	2.2832025106907133e+18
14179.0	2.2826962934300667e+18
14180.0	2.2821916364505083e+18
14181.0	2.2816863251595261e+18
14182.0	2.2811810860105723e+18
14183.0	2.280676059932262e+18
14184.0	2.2801708308496376e+18
14185.0	2.2796662510452733e+18
14186.0	2.279155386495795e+18
14187.0	2.2786568984985595e+18
14188.0	2.278152506599014e+18
14189.0	2.277648107988582e+18
14190.0	2.2771439593586685e+18
14191.0	2.2764407188619264e+18
14192.0	2.2759111225507837e+18
14193.0	2.2754060478185472e+18
14194.0	2.2749026810068987e+18
14195.0	2.274398550831923e+18
14196.0	2.273894430723276e+18
14197.0	2.2733904465100795e+18
14198.0	2.2728863381454848e+18
14199.0	2.272382657599897e+18
14200.0	2.271875566246297e+18
14201.0	2.2713754709917693e+18
14202.0	2.2708723340279805e+18
14203.0	2.2703681585545213e+18
14204.0	2.2698657312669693e+18
14205.0	2.2693627067105277e+18
14206.0	2.2688534611623933e+18
14207.0	2.268357124004249e+18
14208.0	2.267854512167321e+18
14209.0	2.2673449830842365e+18
14210.0	2.266844366058291e+18
14211.0	2.2663471497740285e+18
14212.0	2.2658449523343355e+18
14213.0	2.2653428589133821e+18
14214.0	2.2648408980324347e+18
14215.0	2.2643385311428603e+18
14216.0	2.26365278257152e+18
14217.0	2.2631127860641787e+18
14218.0	2.2626106607665147e+18
14219.0	2.262108644520755e+18
14220.0	2.2616067725590523e+18
14221.0	2.2611049576398845e+18
14222.0	2.260603273583001e+18
14223.0	2.2601017086443515e+18
14224.0	2.2596002561130493e+18
14225.0	2.259088619811635e+18
14226.0	2.2585975473438715e+18
14227.0	2.2580964857217021e+18
14228.0	2.2575736657281021e+18
14229.0	2.257090033955635e+18
14230.0	2.2565937035083773e+18
14231.0	2.2560929925300221e+18
14232.0	2.2555923922812923e+18
14233.0	2.2550918876626936e+18
14234.0	2.2545915004846077e+18
14235.0	2.2540910998847483e+18
14236.0	2.2535910616727547e+18
14237.0	2.2530909580296187e+18
14238.0	2.252591070812569e+18
14239.0	2.25209093193728e+18
14240.0	2.251518333943807e+18
14241.0	2.2510918101368827e+18
14242.0	2.2505924128145405e+18
14243.0	2.2500340603551744e+18
14244.0	2.2493733165465595e+18
14245.0	2.248873571935846e+18
14246.0	2.248373912888934e+18
14247.0	2.2478743628939261e+18
14248.0	2.247374220663193e+18
14249.0	2.24687547261911e+18
14250.0	2.2463762145476603e+18
14251.0	2.245877256788377e+18
14252.0	2.2453782268870648e+18
14253.0	2.2448792859049984e+18
14254.0	2.2443804019654656e+18
14255.0	2.243880227858022e+18
14256.0	2.2433719637770237e+18
14257.0	2.2428839296630776e+18
14258.0	2.2423864331993085e+18
14259.0	2.241888210282086e+18
14260.0	2.2413897524838395e+18
14261.0	2.2408928935542781e+18
14262.0	2.240413732909875e+18
14263.0	2.2398993350787067e+18
14264.0	2.2394141094707195e+18
14265.0	2.2389206378610683e+18
14266.0	2.2384231950843896e+18
14267.0	2.2379258194165755e+18
14268.0	2.2374285494452221e+18
14269.0	2.2369312442417147e+18
14270.0	2.2364342863265787e+18
14271.0	2.2359371975491581e+18
14272.0	2.2354404006952955e+18
14273.0	2.23494344278016e+18
14274.0	2.234421308974694e+18
14275.0	2.2337325304381432e+18
14276.0	2.2330347207262205e+18
14277.0	2.232538101710848e+18
14278.0	2.2320416840220667e+18
14279.0	2.2315449643433984e+18
14280.0	2.2310480836034555e+18
14281.0	2.230551999781273e+18
14282.0	2.2300556408127483e+18
14283.0	2.2295593774743547e+18
14284.0	2.2290632047329277e+18
14285.0	2.2285671326547965e+18
14286.0	2.2280711562067965e+18
14287.0	2.2275753139765243e+18
14288.0	2.2270794818125821e+18
14289.0	2.2265369402015736e+18
14290.0	2.226088136251801e+18
14291.0	2.2255928174706683e+18
14292.0	2.2250975221776384e+18
14293.0	2.2246021094440955e+18
14294.0	2.224099588204134e+18
14295.0	2.2236118711795704e+18
14296.0	2.2230788707713024e+18
14297.0	2.2226217755213821e+18
14298.0	2.2221186737897467e+18
14299.0	2.2216322200895483e+18
14300.0	2.221137783789977e+18
14301.0	2.220643167974195e+18
14302.0	2.2201486024900605e+18
14303.0	2.219654297052774e+18
14304.0	2.2191593792471032e+18
14305.0	2.2186656492683261e+18
14306.0	2.2181699093790715e+18
14307.0	2.2176768840433661e+18
14308.0	2.2171835432959995e+18
14309.0	2.216689419052646e+18
14310.0	2.2161879396777976e+18
14311.0	2.2157008165666813e+18
14312.0	2.2150218610900987e+18
14313.0	2.2144986602536957e+18
14314.0	2.2140074854449147e+18
14315.0	2.2135137705656315e+18
14316.0	2.2130172253700093e+18
14317.0	2.2125255455670267e+18
14318.0	2.2120328272543736e+18
14319.0	2.2115393875214333e+18
14320.0	2.2110459595325437e+18
14321.0	2.2105526691168253e+18
14322.0	2.2100572597387261e+18
14323.0	2.2095652091592701e+18
14324.0	2.2090732944752637e+18
14325.0	2.2085803597365243e+18
14326.0	2.20808751391703e+18
14327.0	2.2075947603722237e+18
14328.0	2.2071017635577856e+18
14329.0	2.2066095401730043e+18
14330.0	2.2061170768740347e+18
14331.0	2.2056246722953208e+18
14332.0	2.2051323700576248e+18
14333.0	2.204640155061453e+18
14334.0	2.2041480239513595e+18
14335.0	2.2036553828139003e+18
14336.0	2.2031628540837883e+18
14337.0	2.2026721205157885e+18
14338.0	2.2021802679074816e+18
14339.0	2.2016885981708285e+18
14340.0	2.2011970727182333e+18
14341.0	2.2007054784790523e+18
14342.0	2.200214114087731e+18
14343.0	2.1997224628060155e+18
14344.0	2.1992313081298944e+18
14345.0	2.1987403195482104e+18
14346.0	2.1982490675642365e+18
14347.0	2.19775753036759e+18
14348.0	2.1972672095191037e+18
14349.0	2.1967764054867963e+18
14350.0	2.196284725683814e+18
14351.0	2.1957940038598653e+18
14352.0	2.1952692142211072e+18
14353.0	2.194606785980006e+18
14354.0	2.1941155994271736e+18
14355.0	2.1936244346847224e+18
14356.0	2.193133675950899e+18
14357.0	2.1926431739084795e+18
14358.0	2.1921524520845304e+18
14359.0	2.19166182253527e+18
14360.0	2.1911712198295547e+18
14361.0	2.1906808436162555e+18
14362.0	2.190190522767769e+18
14363.0	2.1897002203742203e+18
14364.0	2.1892070725648376e+18
14365.0	2.1887192196448256e+18
14366.0	2.1882293417148416e+18
14367.0	2.1877397808742392e+18
14368.0	2.1872497938923515e+18
14369.0	2.1867599193178104e+18
14370.0	2.1862700850085885e+18
14371.0	2.1857803161305083e+18
14372.0	2.1852906177167355e+18
14373.0	2.184800994800435e+18
14374.0	2.184311449059328e+18
14375.0	2.1838219586830333e+18
14376.0	2.183332533737881e+18
14377.0	2.1828431658352637e+18
14378.0	2.182353755989606e+18
14379.0	2.1818646967877627e+18
14380.0	2.1813755553775616e+18
14381.0	2.18088636195799e+18
14382.0	2.180397452073369e+18
14383.0	2.179908144568729e+18
14384.0	2.1794197346451453e+18
14385.0	2.1789311049400317e+18
14386.0	2.1784424567799803e+18
14387.0	2.1779538404966395e+18
14388.0	2.177465210791526e+18
14389.0	2.176976779057561e+18
14390.0	2.1764882416271352e+18
14391.0	2.1759998921015293e+18
14392.0	2.1755114066804733e+18
14393.0	2.1750232148606973e+18
14394.0	2.1745349525766136e+18
14395.0	2.174046618150502e+18
14396.0	2.1735586276573181e+18
14397.0	2.1730705834770427e+18
14398.0	2.1725825023868925e+18
14399.0	2.1720946528223227e+18
14400.0	2.1716058754777083e+18
14401.0	2.1711165830725627e+18
14402.0	2.1704289638416381e+18
14403.0	2.169817081996902e+18
14404.0	2.169096411650457e+18
14405.0	2.1688870806487032e+18
14406.0	2.168476392855961e+18
14407.0	2.16782044397568e+18
14408.0	2.1674991703556093e+18
14409.0	2.1670121059647483e+18
14410.0	2.1665250885500925e+18
14411.0	2.166037584596172e+18
14412.0	2.1655498105290747e+18
14413.0	2.165062397172121e+18
14414.0	2.164574717057433e+18
14415.0	2.1640873137668093e+18
14416.0	2.1635999809404925e+18
14417.0	2.163112341091123e+18
14418.0	2.1626243103326205e+18
14419.0	2.162138002594201e+18
14420.0	2.1616506513129464e+18
14421.0	2.161163724495257e+18
14422.0	2.160676488976793e+18
14423.0	2.160187701565849e+18
14424.0	2.15900245500887e+18
14425.0	2.1592135895613432e+18
14426.0	2.158728873980723e+18
14427.0	2.158242301162291e+18
14428.0	2.1577555672825853e+18
14429.0	2.1572689592319995e+18
14430.0	2.156782228707737e+18
14431.0	2.156290740165017e+18
14432.0	2.1558081771012096e+18
14433.0	2.155195813750374e+18
14434.0	2.154835024753459e+18
14435.0	2.1543486415175677e+18
14436.0	2.1537264181968896e+18
14437.0	2.153232953298124e+18
14438.0	2.152742942828134e+18
14439.0	2.1522590895964157e+18
14440.0	2.1517739982061563e+18
14441.0	2.1512875294064637e+18
14442.0	2.150801068995379e+18
14443.0	2.150312766445977e+18
14444.0	2.1498288041623547e+18
14445.0	2.1493427094945784e+18
14446.0	2.1486992227303421e+18
14447.0	2.1483690907402237e+18
14448.0	2.147884541254041e+18
14449.0	2.1473985455718395e+18
14450.0	2.1469125465341947e+18
14451.0	2.1464265592406008e+18
14452.0	2.14594031190016e+18
14453.0	2.1454524455583744e+18
14454.0	2.144968879217049e+18
14455.0	2.144482809715097e+18
14456.0	2.1439967385354237e+18
14457.0	2.1434533614190587e+18
14458.0	2.1425838234796024e+18
14459.0	2.1420976063381501e+18
14460.0	2.1416116727316477e+18
14461.0	2.141124547942809e+18
14462.0	2.140638436497817e+18
14463.0	2.1401536303202301e+18
14464.0	2.139668293982617e+18
14465.0	2.139181612112281e+18
14466.0	2.1386969468633083e+18
14467.0	2.1382092919144443e+18
14468.0	2.137725237356134e+18
14469.0	2.1372386511159293e+18
14470.0	2.1367527829405693e+18
14471.0	2.136268156279193e+18
14472.0	2.1357831722631163e+18
14473.0	2.135297698352332e+18
14474.0	2.1348121288114173e+18
14475.0	2.134326279090995e+18
14476.0	2.1338328980783101e+18
14477.0	2.1333552356392957e+18
14478.0	2.1328696224776187e+18
14479.0	2.1323840411926525e+18
14480.0	2.131898070676275e+18
14481.0	2.1314128769449984e+18
14482.0	2.1309270993666043e+18
14483.0	2.1304412043476987e+18
14484.0	2.1299556197072893e+18
14485.0	2.1294686140366845e+18
14486.0	2.128968720108748e+18
14487.0	2.1284999781154816e+18
14488.0	2.1280145931239421e+18
14489.0	2.1275286930718715e+18
14490.0	2.1270434070659067e+18
14491.0	2.126558025429811e+18
14492.0	2.1260726253387773e+18
14493.0	2.1255870725750776e+18
14494.0	2.1251015818870776e+18
14495.0	2.1246160308011008e+18
14496.0	2.1241230239203325e+18
14497.0	2.1236450829795325e+18
14498.0	2.12315970469888e+18
14499.0	2.12267429789696e+18
14500.0	2.122188837407948e+18
14501.0	2.1216995886235645e+18
14502.0	2.1212043721834493e+18
14503.0	2.1207315969474555e+18
14504.0	2.1202468863999992e+18
14505.0	2.1197576225161216e+18
14506.0	2.1192682529357821e+18
14507.0	2.118777339851571e+18
14508.0	2.1183056450682877e+18
14509.0	2.117820283564851e+18
14510.0	2.1173348952178683e+18
14511.0	2.1168494917713915e+18
14512.0	2.1163631353790461e+18
14513.0	2.115878512073113e+18
14514.0	2.1153909561098237e+18
14515.0	2.114907289105203e+18
14516.0	2.1143058628214784e+18
14517.0	2.113935710460313e+18
14518.0	2.1134502952697856e+18
14519.0	2.1129645713784827e+18
14520.0	2.1124788189659128e+18
14521.0	2.111993043065241e+18
14522.0	2.111396324468326e+18
14523.0	2.1108301286604797e+18
14524.0	2.1103435138990077e+18
14525.0	2.1098663078002688e+18
14526.0	2.1093803121180667e+18
14527.0	2.108892450809446e+18
14528.0	2.1084010025320443e+18
14529.0	2.107920336971366e+18
14530.0	2.1074336886554621e+18
14531.0	2.1069479194656765e+18
14532.0	2.106449475089203e+18
14533.0	2.105974809060966e+18
14534.0	2.1054884308582397e+18
14535.0	2.1050018781724672e+18
14536.0	2.1045153389084667e+18
14537.0	2.104028115134054e+18
14538.0	2.1035422738022397e+18
14539.0	2.103055729505075e+18
14540.0	2.1025690157580283e+18
14541.0	2.102082000021094e+18
14542.0	2.1015954070700027e+18
14543.0	2.1011030243016701e+18
14544.0	2.1006214460604416e+18
14545.0	2.1001341669212155e+18
14546.0	2.0989091432628214e+18
14547.0	2.098491014774783e+18
14548.0	2.0986726583369725e+18
14549.0	2.09818005578711e+18
14550.0	2.0976993516388352e+18
14551.0	2.097212111087206e+18
14552.0	2.0967246222327805e+18
14553.0	2.096236923663155e+18
14554.0	2.0957497334431744e+18
14555.0	2.0952620197740544e+18
14556.0	2.0947740829679616e+18
14557.0	2.09428644144087e+18
14558.0	2.093798417393254e+18
14559.0	2.0932250711359483e+18
14560.0	2.0928221981704187e+18
14561.0	2.0923340717817853e+18
14562.0	2.0918460963880957e+18
14563.0	2.091357840814899e+18
14564.0	2.0908691037356027e+18
14565.0	2.0903810545221627e+18
14566.0	2.0898925154140157e+18
14567.0	2.089403756524339e+18
14568.0	2.0889145597493243e+18
14569.0	2.0884259518545915e+18
14570.0	2.0879131092713467e+18
14571.0	2.0874477948633088e+18
14572.0	2.0869567358173176e+18
14573.0	2.0864679668613115e+18
14574.0	2.0859796240465912e+18
14575.0	2.0854909909860347e+18
14576.0	2.0850017472348152e+18
14577.0	2.0845124313415672e+18
14578.0	2.08402281178071e+18
14579.0	2.0835332828168187e+18
14580.0	2.083043572658995e+18
14581.0	2.0825534111940603e+18
14582.0	2.0820637547233277e+18
14583.0	2.0815737459310587e+18
14584.0	2.0810829972635643e+18
14585.0	2.0805934699773947e+18
14586.0	2.0801030518210555e+18
14587.0	2.0796127846596605e+18
14588.0	2.079123629827686e+18
14589.0	2.0786426253672443e+18
14590.0	2.0781629228187643e+18
14591.0	2.0776830558535675e+18
14592.0	2.0772030429265915e+18
14593.0	2.0767162754924544e+18
14594.0	2.0762422755196925e+18
14595.0	2.075761178784563e+18
14596.0	2.0752775688224765e+18
14597.0	2.0747965022863355e+18
14598.0	2.0743178063708155e+18
14599.0	2.0738367431901181e+18
14600.0	2.0732924919807992e+18
14601.0	2.0727037358505981e+18
14602.0	2.0722211862085627e+18
14603.0	2.071738760717926e+18
14604.0	2.0712537649577981e+18
14605.0	2.070772859482931e+18
14606.0	2.0702871540465661e+18
14607.0	2.0698066042486781e+18
14608.0	2.0693235462569984e+18
14609.0	2.068839406134886e+18
14610.0	2.0683560193097725e+18
14611.0	2.0678723053289467e+18
14612.0	2.0673886265802752e+18
14613.0	2.0669044629700603e+18
14614.0	2.0664198765740027e+18
14615.0	2.0659354948599803e+18
14616.0	2.0654507826348024e+18
14617.0	2.064965852305817e+18
14618.0	2.064480690451251e+18
14619.0	2.0639932754165755e+18
14620.0	2.063503043487334e+18
14621.0	2.063024342538649e+18
14622.0	2.0625385448275965e+18
14623.0	2.0620523545296893e+18
14624.0	2.061562629272371e+18
14625.0	2.0610794320297981e+18
14626.0	2.060592439780966e+18
14627.0	2.0601052327837693e+18
14628.0	2.0596187337850877e+18
14629.0	2.0591313590157307e+18
14630.0	2.058643687289651e+18
14631.0	2.0581558226255867e+18
14632.0	2.0576145409835003e+18
14633.0	2.057171624158822e+18
14634.0	2.0566038177382397e+18
14635.0	2.055921578960486e+18
14636.0	2.055430887335526e+18
14637.0	2.0549449537290237e+18
14638.0	2.0544554650304507e+18
14639.0	2.0539654243614715e+18
14640.0	2.0534755447537661e+18
14641.0	2.052774944990822e+18
14642.0	2.052495055729459e+18
14643.0	2.0520052230979576e+18
14644.0	2.0515145247621117e+18
14645.0	2.0510223449980925e+18
14646.0	2.050532158367334e+18
14647.0	2.0500404785643515e+18
14648.0	2.0495488591593464e+18
14649.0	2.0490567095943163e+18
