# Flux units: erg / (cm m2 s)
# Wavelength units: Angstrom
wave	flux
14000.0	2.2872095742492664e+18
14001.0	2.2866165214740477e+18
14002.0	2.2861884055093243e+18
14003.0	2.285654561207091e+18
14004.0	2.285109603676979e+18
14005.0	2.2845766686998523e+18
14006.0	2.2840209754292221e+18
14007.0	2.2834744878170104e+18
14008.0	2.2827086313947133e+18
14009.0	2.2824212024524795e+18
14010.0	2.2818465995816957e+18
14011.0	2.2800148564279299e+18
14012.0	2.2807991107452928e+18
14013.0	2.28026884334551e+18
14014.0	2.2797128396963832e+18
14015.0	2.2791874108456955e+18
14016.0	2.2786519710302205e+18
14017.0	2.278115063208345e+18
14018.0	2.2775781738414075e+18
14019.0	2.277043973862195e+18
14020.0	2.2765021670932475e+18
14021.0	2.275966046122803e+18
14022.0	2.275398043408793e+18
14023.0	2.2746839581196283e+18
14024.0	2.274213472973619e+18
14025.0	2.2737733025791995e+18
14026.0	2.273241449732505e+18
14027.0	2.272707063526195e+18
14028.0	2.2721570996748285e+18
14029.0	2.2716254447992827e+18
14030.0	2.2621384895103053e+18
14031.0	2.2704618777608184e+18
14032.0	2.2700113390469117e+18
14033.0	2.2692858335068157e+18
14034.0	2.2689351645265917e+18
14035.0	2.2684132840570875e+18
14036.0	2.2678592953516027e+18
14037.0	2.267337493735014e+18
14038.0	2.2668188227469304e+18
14039.0	2.2662780293218296e+18
14040.0	2.2657247888801787e+18
14041.0	2.265178599902412e+18
14042.0	2.2646088188035064e+18
14043.0	2.2640077565853693e+18
14044.0	2.2635432139292667e+18
14045.0	2.2630221689651195e+18
14046.0	2.262483328407961e+18
14047.0	2.2619072256540667e+18
14048.0	2.2614148563075067e+18
14049.0	2.2608998310084605e+18
14050.0	2.2603654733234173e+18
14051.0	2.2598013847339005e+18
14052.0	2.2592857856540667e+18
14053.0	2.258768176663756e+18
14054.0	2.258238576997171e+18
14055.0	2.257700479670681e+18
14056.0	2.2571751330283515e+18
14057.0	2.2566377135013883e+18
14058.0	2.256111640405606e+18
14059.0	2.2555667667615736e+18
14060.0	2.2550490067763195e+18
14061.0	2.2544692499447805e+18
14062.0	2.2539485942120443e+18
14063.0	2.2533770129178621e+18
14064.0	2.251672816871015e+18
14065.0	2.2523374798372861e+18
14066.0	2.2518190001094656e+18
14067.0	2.2510288536338427e+18
14068.0	2.2507626008936443e+18
14069.0	2.250204109183385e+18
14070.0	2.2496996166205437e+18
14071.0	2.2491689398566904e+18
14072.0	2.2486425983254523e+18
14073.0	2.248112797332275e+18
14074.0	2.2475853350830075e+18
14075.0	2.247001612117606e+18
14076.0	2.2462451844907008e+18
14077.0	2.2437614183251973e+18
14078.0	2.2452924617588733e+18
14079.0	2.2449149609771005e+18
14080.0	2.2444156592848893e+18
14081.0	2.2438874873593853e+18
14082.0	2.2433133743833083e+18
14083.0	2.2428113480712184e+18
14084.0	2.24226391925719e+18
14085.0	2.2396910006435832e+18
14086.0	2.241024935277363e+18
14087.0	2.2406825475309565e+18
14088.0	2.24009726763991e+18
14089.0	2.2393883967094784e+18
14090.0	2.2390575097446395e+18
14091.0	2.2385740792987645e+18
14092.0	2.238044046780006e+18
14093.0	2.237521449923379e+18
14094.0	2.2369947644592123e+18
14095.0	2.2364667988934653e+18
14096.0	2.2354660010491901e+18
14097.0	2.2352064759726075e+18
14098.0	2.2346590270259195e+18
14099.0	2.23436327658455e+18
14100.0	2.2337858484305915e+18
14101.0	2.2333157994921976e+18
14102.0	2.2327849331458045e+18
14103.0	2.2322361957089277e+18
14104.0	2.231733135920332e+18
14105.0	2.231208217097011e+18
14106.0	2.2306910795464701e+18
14107.0	2.2301447295074301e+18
14108.0	2.229566734283571e+18
14109.0	2.2290658320449533e+18
14110.0	2.2284960073252861e+18
14111.0	2.2279170960654333e+18
14112.0	2.2274706191155195e+18
14113.0	2.2268181095645184e+18
14114.0	2.226406982208716e+18
14115.0	2.2259004864462843e+18
14116.0	2.224767329789541e+18
14117.0	2.2109158337675315e+18
14118.0	2.2243438745354232e+18
14119.0	2.223555638984703e+18
14120.0	2.2230609040506875e+18
14121.0	2.222697986025062e+18
14122.0	2.2220114053038075e+18
14123.0	2.2212905839624187e+18
14124.0	2.2207060221362176e+18
14125.0	2.2195690687954934e+18
14126.0	2.220061669667635e+18
14127.0	2.2196553221406715e+18
14128.0	2.219139941164646e+18
14129.0	2.2185922590146552e+18
14130.0	2.2180407164272632e+18
14131.0	2.217557364834304e+18
14132.0	2.2170403967336445e+18
14133.0	2.215225600245756e+18
14134.0	2.2160173992771581e+18
14135.0	2.2153755180924918e+18
14136.0	2.213942050947072e+18
14137.0	2.2143886218493947e+18
14138.0	2.2136748335169533e+18
14139.0	2.2133780848312315e+18
14140.0	2.21277276120023e+18
14141.0	2.212260289393459e+18
14142.0	2.210394889466676e+18
14143.0	2.2112015363342328e+18
14144.0	2.210783298794291e+18
14145.0	2.210263297372979e+18
14146.0	2.2097172627455995e+18
14147.0	2.209205383174553e+18
14148.0	2.2086230007087101e+18
14149.0	2.2080657807114237e+18
14150.0	2.2076701555032061e+18
14151.0	2.2069723306917885e+18
14152.0	2.206632082040422e+18
14153.0	2.2061188468703227e+18
14154.0	2.2055335250362365e+18
14155.0	2.203389359921562e+18
14156.0	2.204453253519768e+18
14157.0	2.204040919882137e+18
14158.0	2.2034998613770232e+18
14159.0	2.2030128070524923e+18
14160.0	2.202490857796403e+18
14161.0	2.2018145984184317e+18
14162.0	2.2011976699871227e+18
14163.0	2.2009368832638973e+18
14164.0	2.1998677132312566e+18
14165.0	2.1990360632786947e+18
14166.0	2.1993659419328504e+18
14167.0	2.1988131158884347e+18
14168.0	2.1982087888240637e+18
14169.0	2.1977858503081981e+18
14170.0	2.1972193642545147e+18
14171.0	2.1967376887054333e+18
14172.0	2.1962539881463808e+18
14173.0	2.1953338887110659e+18
14174.0	2.1951907270492155e+18
14175.0	2.1947004397551608e+18
14176.0	2.1941632349765627e+18
14177.0	2.1936684044124155e+18
14178.0	2.1931540669792253e+18
14179.0	2.1925655255973885e+18
14180.0	2.1921363342131195e+18
14181.0	2.1916197150785533e+18
14182.0	2.1911057433886715e+18
14183.0	2.1905926223036408e+18
14184.0	2.1900652271632381e+18
14185.0	2.1895590182911995e+18
14186.0	2.1861243413331978e+18
14187.0	2.1884717640974333e+18
14188.0	2.1880131572203515e+18
14189.0	2.187474333440409e+18
14190.0	2.1869752565628923e+18
14191.0	2.186449458613452e+18
14192.0	2.185948059769241e+18
14193.0	2.1849573936857085e+18
14194.0	2.1849191516995581e+18
14195.0	2.1844378737704957e+18
14196.0	2.1839255143710715e+18
14197.0	2.1834098834145277e+18
14198.0	2.1828899860119547e+18
14199.0	2.1823640538447867e+18
14200.0	2.1801618076860424e+18
14201.0	2.1813321527197686e+18
14202.0	2.1808495057698816e+18
14203.0	2.1802419876790267e+18
14204.0	2.1797674776788987e+18
14205.0	2.1792798294409216e+18
14206.0	2.1784684883083264e+18
14207.0	2.1782656383451136e+18
14208.0	2.1777554432065533e+18
14209.0	2.1768989763960822e+18
14210.0	2.1765262638317555e+18
14211.0	2.1762061612613627e+18
14212.0	2.1757117534830587e+18
14213.0	2.1751480641912827e+18
14214.0	2.1746940978921467e+18
14215.0	2.1741476807442427e+18
14216.0	2.1736711407009787e+18
14217.0	2.1731681698316283e+18
14218.0	2.1726272807763968e+18
14219.0	2.1721453032374267e+18
14220.0	2.171628590150451e+18
14221.0	2.171073259267686e+18
14222.0	2.1701849660784643e+18
14223.0	2.1701006924447744e+18
14224.0	2.1696053451423736e+18
14225.0	2.1645094654312486e+18
14226.0	2.1685808696131581e+18
14227.0	2.1680787090833405e+18
14228.0	2.1577948528115753e+18
14229.0	2.1657459126960044e+18
14230.0	2.166557414889881e+18
14231.0	2.1656364816269312e+18
14232.0	2.1655456967557115e+18
14233.0	2.1650160064921595e+18
14234.0	2.1645315207593981e+18
14235.0	2.1640187687731195e+18
14236.0	2.163514459081932e+18
14237.0	2.1629967041298427e+18
14238.0	2.16249573310464e+18
14239.0	2.1619431301971963e+18
14240.0	2.158307965507995e+18
14241.0	2.1609389014122493e+18
14242.0	2.160462185208217e+18
14243.0	2.1595917060669437e+18
14244.0	2.159441830163251e+18
14245.0	2.1588779244453883e+18
14246.0	2.158340999846297e+18
14247.0	2.1579044734631933e+18
14248.0	2.1573811384090621e+18
14249.0	2.156895493370675e+18
14250.0	2.1563975506329595e+18
14251.0	2.1558930563923963e+18
14252.0	2.155392058523648e+18
14253.0	2.15488771695575e+18
14254.0	2.1543784646967293e+18
14255.0	2.1538075142258685e+18
14256.0	2.1487470747058212e+18
14257.0	2.1527830990946296e+18
14258.0	2.152366878176051e+18
14259.0	2.151791820642713e+18
14260.0	2.1512210664652795e+18
14261.0	2.1507957942386683e+18
14262.0	2.1503575347691515e+18
14263.0	2.1431379917013046e+18
14264.0	2.1483196986163192e+18
14265.0	2.14879139004416e+18
14266.0	2.1483455439175675e+18
14267.0	2.1478461214294016e+18
14268.0	2.147334374398361e+18
14269.0	2.1468184901058557e+18
14270.0	2.1463404904448e+18
14271.0	2.1458191787229181e+18
14272.0	2.1453296380149757e+18
14273.0	2.1448220903211008e+18
14274.0	2.134660214475988e+18
14275.0	2.1428995471966208e+18
14276.0	2.143223644422144e+18
14277.0	2.1427608952504315e+18
14278.0	2.142325763053977e+18
14279.0	2.141823860893286e+18
14280.0	2.1413047805411325e+18
14281.0	2.1408230076841976e+18
14282.0	2.1403214729445373e+18
14283.0	2.1398220890439675e+18
14284.0	2.1393209586352125e+18
14285.0	2.138817170715443e+18
14286.0	2.1383004744056827e+18
14287.0	2.1378156917161984e+18
14288.0	2.1373164017680381e+18
14289.0	2.134772391975316e+18
14290.0	2.1362982227279867e+18
14291.0	2.1358154247831547e+18
14292.0	2.1353137893801981e+18
14293.0	2.134782396229222e+18
14294.0	2.1339417855655933e+18
14295.0	2.1337418665820157e+18
14296.0	2.1316211962806287e+18
14297.0	2.1327894072524795e+18
14298.0	2.1304161626750966e+18
14299.0	2.1316900382310392e+18
14300.0	2.1312704132153336e+18
14301.0	2.1307748696195072e+18
14302.0	2.1302862264926205e+18
14303.0	2.129693653545779e+18
14304.0	2.1292505823707133e+18
14305.0	2.1287717035835387e+18
14306.0	2.1279892175847421e+18
14307.0	2.1276475529363448e+18
14308.0	2.1272112614342656e+18
14309.0	2.1266239414337533e+18
14310.0	2.1248990993448952e+18
14311.0	2.1239740791521275e+18
14312.0	2.124625868960563e+18
14313.0	2.1245004861145088e+18
14314.0	2.1241692904488955e+18
14315.0	2.1237646793637883e+18
14316.0	2.1231802534330363e+18
14317.0	2.1224784457105403e+18
14318.0	2.1223306468261883e+18
14319.0	2.121842243613491e+18
14320.0	2.1213487250276347e+18
14321.0	2.120842438980403e+18
14322.0	2.120247273953689e+18
14323.0	2.119830566495846e+18
14324.0	2.119355653842534e+18
14325.0	2.118851503534899e+18
14326.0	2.1183850549870587e+18
14327.0	2.1178709054586877e+18
14328.0	2.117374388784332e+18
14329.0	2.1169013987999744e+18
14330.0	2.1164044996050936e+18
14331.0	2.1158583475372027e+18
14332.0	2.1154149307514875e+18
14333.0	2.1149228180963328e+18
14334.0	2.1144296702869501e+18
14335.0	2.1138926332805117e+18
14336.0	2.1128912432005117e+18
14337.0	2.1129378050080765e+18
14338.0	2.1124443384315901e+18
14339.0	2.1119031675191293e+18
14340.0	2.1114634568204283e+18
14341.0	2.110922983840153e+18
14342.0	2.1104684454379515e+18
14343.0	2.1099457865056253e+18
14344.0	2.1094583731486715e+18
14345.0	2.1089962262790136e+18
14346.0	2.1084798906793981e+18
14347.0	2.1077821279436797e+18
14348.0	2.1074846343495677e+18
14349.0	2.106997333399961e+18
14350.0	2.1061031279198195e+18
14351.0	2.1055708690644984e+18
14352.0	2.1054994786549752e+18
14353.0	2.105028988475801e+18
14354.0	2.1044885792489464e+18
14355.0	2.1039025779376125e+18
14356.0	2.1034572636487675e+18
14357.0	2.1030674836226045e+18
14358.0	2.1025744415096824e+18
14359.0	2.102041729669529e+18
14360.0	2.1015567271985144e+18
14361.0	2.1010915268755456e+18
14362.0	2.10060948054999e+18
14363.0	2.1001197435486203e+18
14364.0	2.0981940312080387e+18
14365.0	2.0989438301569009e+18
14366.0	2.0984311771561984e+18
14367.0	2.0981574015123453e+18
14368.0	2.0976663089119227e+18
14369.0	2.097180922242662e+18
14370.0	2.0966893481361405e+18
14371.0	2.0962043657977853e+18
14372.0	2.0956930314862587e+18
14373.0	2.095219358669209e+18
14374.0	2.094731906724659e+18
14375.0	2.0942393763168248e+18
14376.0	2.0937411466887168e+18
14377.0	2.093248663257088e+18
14378.0	2.092754455127654e+18
14379.0	2.092271736035737e+18
14380.0	2.0917816517459965e+18
14381.0	2.0912608752173053e+18
14382.0	2.090800291984179e+18
14383.0	2.090252027664793e+18
14384.0	2.089767107402137e+18
14385.0	2.0893390719680512e+18
14386.0	2.0888019376537592e+18
14387.0	2.0883576266424315e+18
14388.0	2.0878619857387517e+18
14389.0	2.0873851135066112e+18
14390.0	2.08689260658688e+18
14391.0	2.0863891709886461e+18
14392.0	2.0859038665277437e+18
14393.0	2.085434396403302e+18
14394.0	2.0848458617323515e+18
14395.0	2.0841641816358904e+18
14396.0	2.0839567699476477e+18
14397.0	2.0834849526906875e+18
14398.0	2.0829822066360317e+18
14399.0	2.0824873559392253e+18
14400.0	2.0818448791633917e+18
14401.0	2.0815128916131837e+18
14402.0	2.081037269283635e+18
14403.0	2.0688148140916547e+18
14404.0	2.0495758335672259e+18
14405.0	2.0765677467991951e+18
14406.0	2.0790965161689088e+18
14407.0	2.0602799070904412e+18
14408.0	2.0778210434220027e+18
14409.0	2.0776023960322045e+18
14410.0	2.07705818005504e+18
14411.0	2.0766621370941437e+18
14412.0	2.0761629176102904e+18
14413.0	2.0756704811548664e+18
14414.0	2.0751811853942781e+18
14415.0	2.0746992464429053e+18
14416.0	2.0741315155197944e+18
14417.0	2.0734160427548667e+18
14418.0	2.0729684132102144e+18
14419.0	2.072754423175577e+18
14420.0	2.072258314187571e+18
14421.0	2.0717858140979192e+18
14422.0	2.07128362001367e+18
14423.0	2.0707222073901053e+18
14424.0	2.007786846997675e+18
14425.0	2.0698072652709883e+18
14426.0	2.0693617966317565e+18
14427.0	2.0688822048129021e+18
14428.0	2.0683274342891517e+18
14429.0	2.067909161517056e+18
14430.0	2.067432230564659e+18
14431.0	2.0647813834604557e+18
14432.0	2.0663952744644605e+18
14433.0	2.05210559279267e+18
14434.0	2.0654531532554237e+18
14435.0	2.0646634933190643e+18
14436.0	2.0645278059069437e+18
14437.0	2.064035966720409e+18
14438.0	2.0629229913767933e+18
14439.0	2.0629315930554365e+18
14440.0	2.062570309130649e+18
14441.0	2.062076854298214e+18
14442.0	2.0615837954080763e+18
14443.0	2.0610063135670267e+18
14444.0	2.0606272843808765e+18
14445.0	2.060156579453337e+18
14446.0	2.0447155680444477e+18
14447.0	2.0591550367006712e+18
14448.0	2.0587116165595128e+18
14449.0	2.058226429539123e+18
14450.0	2.057730469868339e+18
14451.0	2.057250683433779e+18
14452.0	2.056763677763174e+18
14453.0	2.0559919694479363e+18
14454.0	2.0558018768797693e+18
14455.0	2.0553062393315325e+18
14456.0	2.0547594950279165e+18
14457.0	2.0542409532243965e+18
14458.0	2.0537426548097021e+18
14459.0	2.0533056603422717e+18
14460.0	2.052791673552896e+18
14461.0	2.051901006387609e+18
14462.0	2.0501875476398077e+18
14463.0	2.0511952862183421e+18
14464.0	2.0509049162301435e+18
14465.0	2.0504318708809728e+18
14466.0	2.050002295298457e+18
14467.0	2.0493022760271872e+18
14468.0	2.04903770268631e+18
14469.0	2.048380732073574e+18
14470.0	2.0480335812755453e+18
14471.0	2.047596816655974e+18
14472.0	2.0471295292473336e+18
14473.0	2.0466723316563965e+18
14474.0	2.046202294462054e+18
14475.0	2.0457039037726715e+18
14476.0	2.0442962903171077e+18
14477.0	2.0447530617667581e+18
14478.0	2.0442749580869627e+18
14479.0	2.0437774498791421e+18
14480.0	2.0432804634427387e+18
14481.0	2.0428500909424637e+18
14482.0	2.0423625467232253e+18
14483.0	2.0418626980937725e+18
14484.0	2.0413993281650683e+18
14485.0	2.0408264902574075e+18
14486.0	2.0397175548674053e+18
14487.0	2.0399540884471803e+18
14488.0	2.0389106076876803e+18
14489.0	2.038781949929062e+18
14490.0	2.0384639042453501e+18
14491.0	2.038030020273766e+18
14492.0	2.0375473884233725e+18
14493.0	2.0370164918779901e+18
14494.0	2.036528459441766e+18
14495.0	2.0361172414889976e+18
14496.0	2.0353041739808768e+18
14497.0	2.035156802915532e+18
14498.0	2.0346792092631037e+18
14499.0	2.034209356618137e+18
14500.0	2.033731023090483e+18
14501.0	2.0327861353185277e+18
14502.0	2.0315987060457475e+18
14503.0	2.0321180112125944e+18
14504.0	2.0318018428993533e+18
14505.0	2.0309017821708278e+18
14506.0	2.0298745971212283e+18
14507.0	2.0297808259055616e+18
14508.0	2.0299074536210427e+18
14509.0	2.0294285429571581e+18
14510.0	2.0289476945248256e+18
14511.0	2.0284764929916928e+18
14512.0	2.0279530975395837e+18
14513.0	2.0275204567597053e+18
14514.0	2.0269124118642688e+18
14515.0	2.0265583941517307e+18
14516.0	2.021175929392337e+18
14517.0	2.0256097700937725e+18
14518.0	2.0251332803821563e+18
14519.0	2.0246523900067837e+18
14520.0	2.024177807864627e+18
14521.0	2.023695483037286e+18
14522.0	2.0231769831768061e+18
14523.0	2.0214375985971187e+18
14524.0	2.0211788184289267e+18
14525.0	2.021756931093299e+18
14526.0	2.0212819563642877e+18
14527.0	2.0207511218946043e+18
14528.0	2.0199141418205181e+18
14529.0	2.0198380806340603e+18
14530.0	2.0193360559996925e+18
14531.0	2.0189044587626493e+18
14532.0	2.0169606790381565e+18
14533.0	2.0179538700926973e+18
14534.0	2.0174817374240765e+18
14535.0	2.0169736394375165e+18
14536.0	2.0165162807853056e+18
14537.0	2.0160117261467645e+18
14538.0	2.0155726613708797e+18
14539.0	2.0150949033017344e+18
14540.0	2.0146217338011643e+18
14541.0	2.0140798733451261e+18
14542.0	2.0136556228509696e+18
14543.0	2.0125127706411003e+18
14544.0	2.01270760612823e+18
14545.0	2.012204863429017e+18
14546.0	1.958256002360912e+18
14547.0	1.9627521737752287e+18
14548.0	2.0107685860999163e+18
14549.0	2.0100286957748221e+18
14550.0	2.009828662706176e+18
14551.0	2.0093788303130621e+18
14552.0	2.008890115044147e+18
14553.0	2.0083991214292987e+18
14554.0	2.007946764065177e+18
14555.0	2.0074678617899005e+18
14556.0	2.0069659311079421e+18
14557.0	2.0065145266896893e+18
14558.0	2.0060265915613181e+18
14559.0	2.00143621104598e+18
14560.0	2.00462147120005e+18
14561.0	2.004583309744537e+18
14562.0	2.0040135823327227e+18
14563.0	2.0036386753085435e+18
14564.0	2.002927942107136e+18
14565.0	2.002705583597158e+18
14566.0	2.0022290200657917e+18
14567.0	2.0017270793175037e+18
14568.0	2.0007327323127808e+18
14569.0	2.000768902312755e+18
14570.0	1.9989157665308672e+18
14571.0	1.9998295896096763e+18
14572.0	1.999016631153459e+18
14573.0	1.9986948810604544e+18
14574.0	1.9977736541962237e+18
14575.0	1.9978366996185083e+18
14576.0	1.9973707191549947e+18
14577.0	1.996960964175462e+18
14578.0	1.9964993675984893e+18
14579.0	1.996029171020595e+18
14580.0	1.9955359275810808e+18
14581.0	1.9949965048545275e+18
14582.0	1.9945373090971645e+18
14583.0	1.994094442604134e+18
14584.0	1.993513719404953e+18
14585.0	1.9931405773438973e+18
14586.0	1.992654828286771e+18
14587.0	1.992165109740339e+18
14588.0	1.991700145976115e+18
14589.0	1.9912463357050875e+18
14590.0	1.990788752238182e+18
14591.0	1.9902874590904317e+18
14592.0	1.989837663607193e+18
14593.0	1.9891063665721336e+18
14594.0	1.9889351433388027e+18
14595.0	1.9884579036856317e+18
14596.0	1.9868899906420716e+18
14597.0	1.9862802227265513e+18
14598.0	1.986984213164851e+18
14599.0	1.9866252025528317e+18
14600.0	1.986122048811827e+18
14601.0	1.9856714396336125e+18
14602.0	1.9851040962641917e+18
14603.0	1.9847262314168317e+18
14604.0	1.9840813085229048e+18
14605.0	1.983535446700851e+18
14606.0	1.9831225829031933e+18
14607.0	1.9829026168242168e+18
14608.0	1.982430410335846e+18
14609.0	1.9818395419541501e+18
14610.0	1.9810601765175293e+18
14611.0	1.980940937487974e+18
14612.0	1.9805809001103355e+18
14613.0	1.9801427127828477e+18
14614.0	1.9796771366502397e+18
14615.0	1.97916085977088e+18
14616.0	1.978764751378841e+18
14617.0	1.978299057805721e+18
14618.0	1.9775571105939456e+18
14619.0	1.976669189858915e+18
14620.0	1.9736559649554435e+18
14621.0	1.9764443936194555e+18
14622.0	1.9759721216999421e+18
14623.0	1.9755142026887168e+18
14624.0	1.9749014920495101e+18
14625.0	1.9745737558458365e+18
14626.0	1.9740851915718656e+18
14627.0	1.9735920789946365e+18
14628.0	1.9731871172657147e+18
14629.0	1.972719626852761e+18
14630.0	1.9722247040139261e+18
14631.0	1.9717774855110656e+18
14632.0	1.9651259334131745e+18
14633.0	1.9700085109555172e+18
14634.0	1.970325301703475e+18
14635.0	1.968296639332342e+18
14636.0	1.9640863986548718e+18
14637.0	1.9689799535296507e+18
14638.0	1.968428689444044e+18
14639.0	1.967962130166579e+18
14640.0	1.9675588830691325e+18
14641.0	1.9447334706347866e+18
14642.0	1.9666008033722365e+18
14643.0	1.9660981076492283e+18
14644.0	1.9655723046666235e+18
14645.0	1.9650812976300027e+18
14646.0	1.9643564279463933e+18
14647.0	1.9638706537234432e+18
14648.0	1.9636741405147133e+18
