# Flux units: erg / (cm m2 s)
# Wavelength units: Angstrom
wave	flux
14000.0	1.5400490976149501e+18
14001.0	1.539699948650496e+18
14002.0	1.5393562388594685e+18
14003.0	1.5390099755761664e+18
14004.0	1.5386638213447677e+18
14005.0	1.5383177208004603e+18
14006.0	1.5379715179151357e+18
14007.0	1.5376256992280576e+18
14008.0	1.5372772616175613e+18
14009.0	1.5369343000903683e+18
14010.0	1.5365886827298813e+18
14011.0	1.5362258804670464e+18
14012.0	1.5358977047003139e+18
14013.0	1.5355523608084475e+18
14014.0	1.5352071108689915e+18
14015.0	1.5348618827399168e+18
14016.0	1.5345168827809792e+18
14017.0	1.5341719113433088e+18
14018.0	1.533826990237286e+18
14019.0	1.5334822385811453e+18
14020.0	1.5331375188017147e+18
14021.0	1.5327928946524152e+18
14022.0	1.5324483896213501e+18
14023.0	1.5321037788938235e+18
14024.0	1.5317593443270653e+18
14025.0	1.531415449986662e+18
14026.0	1.5310712385568763e+18
14027.0	1.5307272150319104e+18
14028.0	1.5303831495639037e+18
14029.0	1.530036013865369e+18
14030.0	1.5296825447677947e+18
14031.0	1.5293485724729341e+18
14032.0	1.529004988511027e+18
14033.0	1.5286602519543803e+18
14034.0	1.5283180672122877e+18
14035.0	1.5279747533635581e+18
14036.0	1.5276315200454656e+18
14037.0	1.527288385712947e+18
14038.0	1.5269453386219515e+18
14039.0	1.5266023905165307e+18
14040.0	1.526259529652633e+18
14041.0	1.5259167543525376e+18
14042.0	1.5255739236876285e+18
14043.0	1.5252307524452347e+18
14044.0	1.5248886666887165e+18
14045.0	1.5245465977094144e+18
14046.0	1.5242035975946237e+18
14047.0	1.5238586882326523e+18
14048.0	1.5235165655662592e+18
14049.0	1.5231745469186048e+18
14050.0	1.5228325937020925e+18
14051.0	1.5224904827797496e+18
14052.0	1.5221489674485757e+18
14053.0	1.5218072877006848e+18
14054.0	1.5214657035829248e+18
14055.0	1.5211242117398525e+18
14056.0	1.5207828071383037e+18
14057.0	1.5204415015223293e+18
14058.0	1.5201002730815488e+18
14059.0	1.5197591469817853e+18
14060.0	1.5194181064458235e+18
14061.0	1.5190769753128957e+18
14062.0	1.5187363089088507e+18
14063.0	1.5183951123447803e+18
14064.0	1.518053174227763e+18
14065.0	1.5177140395835392e+18
14066.0	1.5173717692776448e+18
14067.0	1.5170300794634235e+18
14068.0	1.5166897620254715e+18
14069.0	1.5163494915637248e+18
14070.0	1.5160093972627453e+18
14071.0	1.5156692811513853e+18
14072.0	1.5153294032764925e+18
14073.0	1.5149895354679293e+18
14074.0	1.5146497867775995e+18
14075.0	1.514310081708032e+18
14076.0	1.5139704974344192e+18
14077.0	1.513628988814131e+18
14078.0	1.5132914228396032e+18
14079.0	1.5129520986128381e+18
14080.0	1.5126130461769723e+18
14081.0	1.512273909855027e+18
14082.0	1.511934399401164e+18
14083.0	1.5115958687367163e+18
14084.0	1.511257042793267e+18
14085.0	1.5109112022958077e+18
14086.0	1.510579394261811e+18
14087.0	1.5102409911042043e+18
14088.0	1.5099023010562043e+18
14089.0	1.509560760559206e+18
14090.0	1.5092224127664125e+18
14091.0	1.5088842109353981e+18
14092.0	1.5085460644691965e+18
14093.0	1.508208000211353e+18
14094.0	1.5078700315836413e+18
14095.0	1.5075321485197312e+18
14096.0	1.5071938846130173e+18
14097.0	1.5068566659268605e+18
14098.0	1.5065188013178877e+18
14099.0	1.5061815306223613e+18
14100.0	1.5058437750652925e+18
14101.0	1.5055067644166141e+18
14102.0	1.5051695004319741e+18
14103.0	1.504831944523776e+18
14104.0	1.5044952828411901e+18
14105.0	1.5041582235385856e+18
14106.0	1.5038214041501693e+18
14107.0	1.503484364980224e+18
14108.0	1.5031479012687872e+18
14109.0	1.5028111338897405e+18
14110.0	1.502474232292966e+18
14111.0	1.5021371931230205e+18
14112.0	1.5018019105275901e+18
14113.0	1.5014652035465216e+18
14114.0	1.5011262417076221e+18
14115.0	1.5007901252845565e+18
14116.0	1.5004526482292736e+18
14117.0	1.500101464188518e+18
14118.0	1.4997824135495677e+18
14119.0	1.4994464397328381e+18
14120.0	1.4991107863609341e+18
14121.0	1.498775237007769e+18
14122.0	1.4984395869913085e+18
14123.0	1.4981041634672637e+18
14124.0	1.497768802018918e+18
14125.0	1.4974213190320123e+18
14126.0	1.4970990471675901e+18
14127.0	1.4967640212635648e+18
14128.0	1.496429062468403e+18
14129.0	1.4960942529904635e+18
14130.0	1.495759497199616e+18
14131.0	1.495424828650291e+18
14132.0	1.4950902590865405e+18
14133.0	1.4947407678668797e+18
14134.0	1.494421363228672e+18
14135.0	1.4940866896461821e+18
14136.0	1.4937517560168448e+18
14137.0	1.4934187031134205e+18
14138.0	1.493084440572723e+18
14139.0	1.4927507048366077e+18
14140.0	1.4924159591120893e+18
14141.0	1.4920806446399485e+18
14142.0	1.4917444392976381e+18
14143.0	1.4914115541663744e+18
14144.0	1.491079038133862e+18
14145.0	1.4907456060653563e+18
14146.0	1.4904122192953341e+18
14147.0	1.4900789751316477e+18
14148.0	1.489745816531763e+18
14149.0	1.4894127770501115e+18
14150.0	1.489079781189222e+18
14151.0	1.488746817205043e+18
14152.0	1.4884140931350525e+18
14153.0	1.4880813522878464e+18
14154.0	1.4877487171371005e+18
14155.0	1.4874090858872832e+18
14156.0	1.4870834887786499e+18
14157.0	1.4867513401671677e+18
14158.0	1.4864189516414973e+18
14159.0	1.486086819807232e+18
14160.0	1.4857547282382845e+18
14161.0	1.4854209455259645e+18
14162.0	1.4850878808784893e+18
14163.0	1.4847589182603264e+18
14164.0	1.484426667307827e+18
14165.0	1.4840862995382267e+18
14166.0	1.4837639202996221e+18
14167.0	1.4834324780089341e+18
14168.0	1.4831009535098875e+18
14169.0	1.4827697611997181e+18
14170.0	1.482438406150553e+18
14171.0	1.4821073128259581e+18
14172.0	1.4817759913312253e+18
14173.0	1.4814378868080637e+18
14174.0	1.4811112126021632e+18
14175.0	1.4807805236084736e+18
14176.0	1.480449804415795e+18
14177.0	1.480119174142361e+18
14178.0	1.4797885489020925e+18
14179.0	1.479457276061286e+18
14180.0	1.479127842003353e+18
14181.0	1.4787975707623427e+18
14182.0	1.4784673565638653e+18
14183.0	1.478137290004889e+18
14184.0	1.4778071311712253e+18
14185.0	1.4774773531803645e+18
14186.0	1.4771439747989501e+18
14187.0	1.4768170992664576e+18
14188.0	1.4764880779280381e+18
14189.0	1.476158405633638e+18
14190.0	1.4758174674386941e+18
14191.0	1.4754806950264832e+18
14192.0	1.4751511988928507e+18
14193.0	1.4748217178587136e+18
14194.0	1.4744930387755003e+18
14195.0	1.4741640593801213e+18
14196.0	1.4738350967619584e+18
14197.0	1.473506226418483e+18
14198.0	1.4731773057433597e+18
14199.0	1.4728486249824253e+18
14200.0	1.4725182547558397e+18
14201.0	1.472191639270195e+18
14202.0	1.4718632252669947e+18
14203.0	1.471533854962483e+18
14204.0	1.4712065264451581e+18
14205.0	1.4708783641001981e+18
14206.0	1.4705470660935677e+18
14207.0	1.4702223615328253e+18
14208.0	1.4698944659455997e+18
14209.0	1.4695600389881853e+18
14210.0	1.4692335006777341e+18
14211.0	1.468908073018982e+18
14212.0	1.468580502909747e+18
14213.0	1.4682529780989947e+18
14214.0	1.4679255958945787e+18
14215.0	1.467597953643315e+18
14216.0	1.4672710546227197e+18
14217.0	1.4669439173656573e+18
14218.0	1.46661691097088e+18
14219.0	1.4662899364528125e+18
14220.0	1.4659630491762685e+18
14221.0	1.4656362491412477e+18
14222.0	1.4653095262814205e+18
14223.0	1.4649829074403325e+18
14224.0	1.4646563758407677e+18
14225.0	1.464324316148531e+18
14226.0	1.4640035592667136e+18
14227.0	1.4636772826808315e+18
14228.0	1.463336171680563e+18
14229.0	1.463023422563942e+18
14230.0	1.4626989528842235e+18
14231.0	1.4623730118426621e+18
14232.0	1.462047156364902e+18
14233.0	1.461721394839552e+18
14234.0	1.461395708811673e+18
14235.0	1.4610700496273405e+18
14236.0	1.4607445968027645e+18
14237.0	1.4604191406227453e+18
14238.0	1.4600938304045053e+18
14239.0	1.4597684312670205e+18
14240.0	1.4594004632993787e+18
14241.0	1.4591183309242365e+18
14242.0	1.458793341150822e+18
14243.0	1.4584641738506235e+18
14244.0	1.4581436048736253e+18
14245.0	1.4578183919632381e+18
14246.0	1.4574932260290557e+18
14247.0	1.4571696270868477e+18
14248.0	1.4568447128109053e+18
14249.0	1.4565191811334141e+18
14250.0	1.456193271968563e+18
14251.0	1.4558691042787325e+18
14252.0	1.4555449516883965e+18
14253.0	1.455220867884646e+18
14254.0	1.4548968360902653e+18
14255.0	1.4545721181077501e+18
14256.0	1.4542440547483645e+18
14257.0	1.4539254252175357e+18
14258.0	1.4536018245976064e+18
14259.0	1.4532782642429947e+18
14260.0	1.4529546485235707e+18
14261.0	1.4526316334284797e+18
14262.0	1.452313992075673e+18
14263.0	1.4519830866558976e+18
14264.0	1.4516664250925053e+18
14265.0	1.4513445693030397e+18
14266.0	1.45102160789504e+18
14267.0	1.4506987152736253e+18
14268.0	1.4503759283486715e+18
14269.0	1.450053136390553e+18
14270.0	1.4497305843466235e+18
14271.0	1.4494078829854715e+18
14272.0	1.4490855691780093e+18
14273.0	1.4487631849062397e+18
14274.0	1.4484297343827965e+18
14275.0	1.4481177117196285e+18
14276.0	1.447795805598515e+18
14277.0	1.4474742719315963e+18
14278.0	1.447152557070745e+18
14279.0	1.4468306828263421e+18
14280.0	1.4465086810750973e+18
14281.0	1.4461871994175485e+18
14282.0	1.4458655701204987e+18
14283.0	1.445544043164467e+18
14284.0	1.4452225950613501e+18
14285.0	1.4449012224557053e+18
14286.0	1.4445799119257597e+18
14287.0	1.4442587372912637e+18
14288.0	1.4439376180215803e+18
14289.0	1.4435892340981757e+18
14290.0	1.4432954482687997e+18
14291.0	1.442974746751795e+18
14292.0	1.4426539898699773e+18
14293.0	1.4423332329881597e+18
14294.0	1.4420088958484475e+18
14295.0	1.4416921487212541e+18
14296.0	1.4413495713923072e+18
14297.0	1.4410513345675264e+18
14298.0	1.440724393603891e+18
14299.0	1.440407693452902e+18
14300.0	1.4400876915458045e+18
14301.0	1.4397675570987003e+18
14302.0	1.439447605523251e+18
14303.0	1.4391268771627008e+18
14304.0	1.4388076621070336e+18
14305.0	1.438488195393126e+18
14306.0	1.438166519119872e+18
14307.0	1.4378486831513597e+18
14308.0	1.437529701298995e+18
14309.0	1.4372102580731901e+18
14310.0	1.4368817031413757e+18
14311.0	1.4365687224991741e+18
14312.0	1.4362522421297147e+18
14313.0	1.4359309349552125e+18
14314.0	1.4356146508791803e+18
14315.0	1.4352958418321408e+18
14316.0	1.4349756285321213e+18
14317.0	1.4346575291613181e+18
14318.0	1.4343397250695165e+18
14319.0	1.4340211911688192e+18
14320.0	1.4337026975334397e+18
14321.0	1.4333843381157885e+18
14322.0	1.4330647841603581e+18
14323.0	1.432747480029593e+18
14324.0	1.4324296994258941e+18
14325.0	1.4321116554199037e+18
14326.0	1.4317936869113853e+18
14327.0	1.4314757922226173e+18
14328.0	1.4311578287472637e+18
14329.0	1.430840281346867e+18
14330.0	1.430522651738112e+18
14331.0	1.4302050657501181e+18
14332.0	1.4298876190130173e+18
14333.0	1.4295702326738941e+18
14334.0	1.429252921832243e+18
14335.0	1.4289349399019515e+18
14336.0	1.4286179729932285e+18
14337.0	1.4283014724911104e+18
14338.0	1.4279844485398525e+18
14339.0	1.427667550417715e+18
14340.0	1.427350796579635e+18
14341.0	1.4270340226088957e+18
14342.0	1.4267174080217085e+18
14343.0	1.4264004276912125e+18
14344.0	1.4260841352265725e+18
14345.0	1.4257679602024448e+18
14346.0	1.4254515637190653e+18
14347.0	1.4251348803452925e+18
14348.0	1.4248192187039741e+18
14349.0	1.4245031476985853e+18
14350.0	1.4241867193384957e+18
14351.0	1.4238707640958973e+18
14352.0	1.4235553893449725e+18
14353.0	1.4232390683590653e+18
14354.0	1.422920896846233e+18
14355.0	1.4226052217831421e+18
14356.0	1.4222897581129725e+18
14357.0	1.421974420271923e+18
14358.0	1.4216590673313792e+18
14359.0	1.4213437798219776e+18
14360.0	1.4210285577437181e+18
14361.0	1.4207134799495165e+18
14362.0	1.4203984642310141e+18
14363.0	1.420083502199603e+18
14364.0	1.4197671057162237e+18
14365.0	1.4194537022881792e+18
14366.0	1.4191388845408253e+18
14367.0	1.4188245365555197e+18
14368.0	1.4185099671109632e+18
14369.0	1.4181955167846397e+18
14370.0	1.4178811386003453e+18
14371.0	1.417566839268966e+18
14372.0	1.4172311338876925e+18
14373.0	1.416911291364147e+18
14374.0	1.4165972403355648e+18
14375.0	1.4162832648044541e+18
14376.0	1.4159693731594237e+18
14377.0	1.4156555402346493e+18
14378.0	1.4153417526083581e+18
14379.0	1.4150281780527101e+18
14380.0	1.4147146118856701e+18
14381.0	1.4144010289414141e+18
14382.0	1.4140876573900797e+18
14383.0	1.4137737389015037e+18
14384.0	1.4134610266947581e+18
14385.0	1.4131479470669821e+18
14386.0	1.4128348607283197e+18
14387.0	1.412521843176243e+18
14388.0	1.4122088507899901e+18
14389.0	1.411896061408051e+18
14390.0	1.4115832284053501e+18
14391.0	1.411270590018355e+18
14392.0	1.410957668096409e+18
14393.0	1.4106454592061437e+18
14394.0	1.4103323342798848e+18
14395.0	1.4100204290572285e+18
14396.0	1.4097083409629181e+18
14397.0	1.4093961404612608e+18
14398.0	1.4090838510403581e+18
14399.0	1.4087719491731453e+18
14400.0	1.4084593309188093e+18
14401.0	1.4081479172685821e+18
14402.0	1.4078362452492288e+18
14403.0	1.407367406786969e+18
14404.0	1.4067571506544637e+18
14405.0	1.406863449417318e+18
14406.0	1.406589784503091e+18
14407.0	1.4060349024108544e+18
14408.0	1.4059667651035133e+18
14409.0	1.4056552214298621e+18
14410.0	1.4053444402806781e+18
14411.0	1.4050334569660413e+18
14412.0	1.4047223595663357e+18
14413.0	1.4044115205357565e+18
14414.0	1.404100582519603e+18
14415.0	1.4037898248585213e+18
14416.0	1.4034791561166845e+18
14417.0	1.403167828030259e+18
14418.0	1.402853871792947e+18
14419.0	1.4025445200625661e+18
14420.0	1.4022340190928893e+18
14421.0	1.401923810046771e+18
14422.0	1.4016135884177403e+18
14423.0	1.4013032644476925e+18
14424.0	1.399985647334194e+18
14425.0	1.400683201193574e+18
14426.0	1.4003733872508925e+18
14427.0	1.4000635372371965e+18
14428.0	1.3997529867747325e+18
14429.0	1.3994440049819645e+18
14430.0	1.399134446052966e+18
14431.0	1.3988224359727101e+18
14432.0	1.3985147359592445e+18
14433.0	1.3980242876039165e+18
14434.0	1.3978964418625533e+18
14435.0	1.3975869324263421e+18
14436.0	1.397278379291443e+18
14437.0	1.3969693035462653e+18
14438.0	1.396655558701875e+18
14439.0	1.396350392048025e+18
14440.0	1.3960425049686013e+18
14441.0	1.395733570990899e+18
14442.0	1.3954246596624381e+18
14443.0	1.3951149639991293e+18
14444.0	1.3948077899513853e+18
14445.0	1.3944994616311805e+18
14446.0	1.3939920481550336e+18
14447.0	1.393882523972403e+18
14448.0	1.393574558040064e+18
14449.0	1.393266410074931e+18
14450.0	1.3929583250243581e+18
14451.0	1.3926503314096125e+18
14452.0	1.3923423428280317e+18
14453.0	1.3920314333331453e+18
14454.0	1.3917267867729917e+18
14455.0	1.3914189550583805e+18
14456.0	1.3911108448419837e+18
14457.0	1.390802931757875e+18
14458.0	1.3904963138748413e+18
14459.0	1.3901887522734077e+18
14460.0	1.3898817602584573e+18
14461.0	1.3895740451454973e+18
14462.0	1.3892646850265085e+18
14463.0	1.3889602121105405e+18
14464.0	1.3886533148868605e+18
14465.0	1.3883457423802365e+18
14466.0	1.3880395162451968e+18
14467.0	1.387730528580403e+18
14468.0	1.3874258677596157e+18
14469.0	1.3871188161855485e+18
14470.0	1.386811946644275e+18
14471.0	1.3865058740207613e+18
14472.0	1.3861998668283901e+18
14473.0	1.3858936809586685e+18
14474.0	1.3855874128805885e+18
14475.0	1.3852811372527613e+18
14476.0	1.3849633331609597e+18
14477.0	1.3846691136405501e+18
14478.0	1.384363130775142e+18
14479.0	1.3840571244216317e+18
14480.0	1.383751264868761e+18
14481.0	1.38344579203072e+18
14482.0	1.3831400675344381e+18
14483.0	1.3828342650241021e+18
14484.0	1.3825289507307517e+18
14485.0	1.3822146362998781e+18
14486.0	1.3818898629525501e+18
14487.0	1.3815930823901181e+18
14488.0	1.3812878922481661e+18
14489.0	1.3809825477558267e+18
14490.0	1.3806775539073021e+18
14491.0	1.380372737897267e+18
14492.0	1.380067862328115e+18
14493.0	1.3797630295408637e+18
14494.0	1.3794583016112125e+18
14495.0	1.3791523690774525e+18
14496.0	1.3788423538081787e+18
14497.0	1.378541659960115e+18
14498.0	1.378237161878323e+18
14499.0	1.3779328290521085e+18
14500.0	1.3776285079699453e+18
14501.0	1.3773194682957821e+18
14502.0	1.3770093607518205e+18
14503.0	1.3767154843254781e+18
14504.0	1.376411859497779e+18
14505.0	1.3761036519735293e+18
14506.0	1.3757934118895613e+18
14507.0	1.3754934126182395e+18
14508.0	1.3751966421221373e+18
14509.0	1.374892984578867e+18
14510.0	1.3745893974999037e+18
14511.0	1.374285880885248e+18
14512.0	1.3739819851055101e+18
14513.0	1.373679064920883e+18
14514.0	1.3733740232572923e+18
14515.0	1.3730724209229821e+18
14516.0	1.3727014682886141e+18
14517.0	1.3724662886301693e+18
14518.0	1.3721632702988285e+18
14519.0	1.371860335014707e+18
14520.0	1.3715574584508413e+18
14521.0	1.371254492967731e+18
14522.0	1.370930059359027e+18
14523.0	1.370597144867635e+18
14524.0	1.370293779247923e+18
14525.0	1.370002799407923e+18
14526.0	1.3697005301792765e+18
14527.0	1.3693976175443965e+18
14528.0	1.3690916531339261e+18
14529.0	1.368793404565094e+18
14530.0	1.3684910740996093e+18
14531.0	1.3681894281445373e+18
14532.0	1.3678697265496061e+18
14533.0	1.3675854970224637e+18
14534.0	1.3672836631625725e+18
14535.0	1.3669818108477437e+18
14536.0	1.3666801086889981e+18
14537.0	1.3663781104123901e+18
14538.0	1.3660768545275901e+18
14539.0	1.3657753469845501e+18
14540.0	1.365473886417715e+18
14541.0	1.365172364614041e+18
14542.0	1.364871173321523e+18
14543.0	1.364563017806643e+18
14544.0	1.3642687294996477e+18
14545.0	1.3639674845200381e+18
14546.0	1.362305509176114e+18
14547.0	1.3621736788459505e+18
14548.0	1.3630644005371901e+18
14549.0	1.362760568510873e+18
14550.0	1.3624630304571392e+18
14551.0	1.3621623307370496e+18
14552.0	1.361861600817971e+18
14553.0	1.361560793723699e+18
14554.0	1.3612605897703421e+18
14555.0	1.3609601115095037e+18
14556.0	1.3606594520547325e+18
14557.0	1.3603594385227773e+18
14558.0	1.3600591775268861e+18
14559.0	1.3597087123898365e+18
14560.0	1.3594583459954685e+18
14561.0	1.3591584062832637e+18
14562.0	1.358857615127347e+18
14563.0	1.3585584043851776e+18
14564.0	1.358258278445875e+18
14565.0	1.3579587271262208e+18
14566.0	1.357658992096051e+18
14567.0	1.357359313269555e+18
14568.0	1.3570590774394877e+18
14569.0	1.356760161137459e+18
14570.0	1.3564466402689021e+18
14571.0	1.3561611658723323e+18
14572.0	1.3558606372798464e+18
14573.0	1.3555616689684477e+18
14574.0	1.3552626847186941e+18
14575.0	1.3549641500983293e+18
14576.0	1.3546650408583165e+18
14577.0	1.3543660817743872e+18
14578.0	1.3540670270603264e+18
14579.0	1.3537681602510845e+18
14580.0	1.3534693035081725e+18
14581.0	1.3531702177562621e+18
14582.0	1.3528717494059005e+18
14583.0	1.3525730696626176e+18
14584.0	1.3522741214838781e+18
14585.0	1.3519758745927677e+18
14586.0	1.3516745541156861e+18
14587.0	1.3513759406424061e+18
14588.0	1.3510789285543933e+18
14589.0	1.35079103823872e+18
14590.0	1.3505049162416125e+18
14591.0	1.3502188068274173e+18
14592.0	1.3499327754272765e+18
14593.0	1.3496435236405245e+18
14594.0	1.3493609114370045e+18
14595.0	1.349074841449267e+18
14596.0	1.3487871423938557e+18
14597.0	1.3485018693238781e+18
14598.0	1.3482175223562237e+18
14599.0	1.3479319699455997e+18
14600.0	1.3476462891892733e+18
14601.0	1.3473607292289021e+18
14602.0	1.3470749067051005e+18
14603.0	1.3467898316062717e+18
14604.0	1.3465031383449597e+18
14605.0	1.3462185741123581e+18
14606.0	1.3459314043781117e+18
14607.0	1.3456481923891197e+18
14608.0	1.3453629428072445e+18
14609.0	1.3450768099049467e+18
14610.0	1.3447917868154877e+18
14611.0	1.3445072678813693e+18
14612.0	1.344222266602291e+18
14613.0	1.3439371915034621e+18
14614.0	1.3436520350351355e+18
14615.0	1.343367056405299e+18
14616.0	1.3430821952159741e+18
14617.0	1.342797260206899e+18
14618.0	1.3425122689941501e+18
14619.0	1.3422269262987261e+18
14620.0	1.3419391341297661e+18
14621.0	1.3416579547004925e+18
14622.0	1.3413732151459837e+18
14623.0	1.3410885125013501e+18
14624.0	1.3408021883387901e+18
14625.0	1.340519207875379e+18
14626.0	1.3402343315865597e+18
14627.0	1.339949386511155e+18
14628.0	1.3396655478931453e+18
14629.0	1.339381045736243e+18
14630.0	1.3390965385461757e+18
14631.0	1.3388120472944637e+18
14632.0	1.3384458795220992e+18
14633.0	1.3382364696674301e+18
14634.0	1.3379587631218685e+18
14635.0	1.3376686850572285e+18
14636.0	1.3373661843030013e+18
14637.0	1.3371061072560125e+18
14638.0	1.3368219658092541e+18
14639.0	1.336537492173619e+18
14640.0	1.3362534782337021e+18
14641.0	1.335658558154342e+18
14642.0	1.335685108937523e+18
14643.0	1.3354011033862144e+18
14644.0	1.3351169669726205e+18
14645.0	1.3348322525839357e+18
14646.0	1.3345486631075837e+18
