# Flux units: erg / (cm m2 s)
# Wavelength units: Angstrom
wave	flux
14000.0	1.7961300936097787e+18
14001.0	1.7956952885690368e+18
14002.0	1.7953700068720635e+18
14003.0	1.7949889962967035e+18
14004.0	1.7946072559124472e+18
14005.0	1.7942254098317312e+18
14006.0	1.7938392033525755e+18
14007.0	1.7934567952351224e+18
14008.0	1.7930218274553853e+18
14009.0	1.7926984650719227e+18
14010.0	1.7923097487212541e+18
14011.0	1.7915710411898877e+18
14012.0	1.791554911574425e+18
14013.0	1.7911739211317248e+18
14014.0	1.7907895651794944e+18
14015.0	1.790410579614105e+18
14016.0	1.79003117797376e+18
14017.0	1.7896504861655035e+18
14018.0	1.7892695863197696e+18
14019.0	1.7888893357522941e+18
14020.0	1.788508464427827e+18
14021.0	1.7881277189324797e+18
14022.0	1.787747475075891e+18
14023.0	1.787359592552857e+18
14024.0	1.7869789057777661e+18
14025.0	1.7866079833423872e+18
14026.0	1.7862270851743741e+18
14027.0	1.7858484955512827e+18
14028.0	1.7854688523190272e+18
14029.0	1.7850889540730875e+18
14030.0	1.7844994345795581e+18
14031.0	1.7843174521176061e+18
14032.0	1.7839498532487163e+18
14033.0	1.7835466178953216e+18
14034.0	1.7831925162967037e+18
14035.0	1.782813774000947e+18
14036.0	1.7824348790325243e+18
14037.0	1.782056062917017e+18
14038.0	1.7816773390761981e+18
14039.0	1.781296264747417e+18
14040.0	1.7809138901843963e+18
14041.0	1.7805389210845181e+18
14042.0	1.7801562411761661e+18
14043.0	1.7797612501467133e+18
14044.0	1.7794000098426875e+18
14045.0	1.7790266144456696e+18
14046.0	1.7786483603668987e+18
14047.0	1.778259976205107e+18
14048.0	1.7778813328949248e+18
14049.0	1.7775045635997693e+18
14050.0	1.7771269403443195e+18
14051.0	1.7767442335924221e+18
14052.0	1.7763719270367227e+18
14053.0	1.775994515174195e+18
14054.0	1.7756173918797824e+18
14055.0	1.7752402216091648e+18
14056.0	1.774863141935513e+18
14057.0	1.7744861931241462e+18
14058.0	1.7741093097439224e+18
14059.0	1.7737325404487675e+18
14060.0	1.7733558500065277e+18
14061.0	1.7729753041600507e+18
14062.0	1.7726027526569981e+18
14063.0	1.7722171451244544e+18
14064.0	1.7718140993535997e+18
14065.0	1.7714575919022072e+18
14066.0	1.7710850286551037e+18
14067.0	1.7707053820674048e+18
14068.0	1.7703330469904381e+18
14069.0	1.7699563129274363e+18
14070.0	1.7695812733632512e+18
14071.0	1.7692039856521213e+18
14072.0	1.7688300416401405e+18
14073.0	1.7684545373470715e+18
14074.0	1.768079175660339e+18
14075.0	1.7676937308667904e+18
14076.0	1.7673242479165437e+18
14077.0	1.766904510493491e+18
14078.0	1.76657490027479e+18
14079.0	1.7661975873978365e+18
14080.0	1.7658286530625533e+18
14081.0	1.7654538936778747e+18
14082.0	1.765073787394457e+18
14083.0	1.7647037809950715e+18
14084.0	1.7643270217662461e+18
14085.0	1.7637842435964928e+18
14086.0	1.76356460635095e+18
14087.0	1.7631941838766077e+18
14088.0	1.762813297452646e+18
14089.0	1.7624425159458816e+18
14090.0	1.762071199245926e+18
14091.0	1.761698162881331e+18
14092.0	1.7613243916746747e+18
14093.0	1.7609507093872637e+18
14094.0	1.7605771109859325e+18
14095.0	1.7602036149256187e+18
14096.0	1.759818849609318e+18
14097.0	1.7594492425076733e+18
14098.0	1.7590789139857403e+18
14099.0	1.7587104980664317e+18
14100.0	1.7583304169488381e+18
14101.0	1.757964572976742e+18
14102.0	1.7575915483561981e+18
14103.0	1.7572102760562685e+18
14104.0	1.7568462909997053e+18
14105.0	1.7564730382090235e+18
14106.0	1.7561011309510656e+18
14107.0	1.7557188167860221e+18
14108.0	1.755337549519257e+18
14109.0	1.7549691101118461e+18
14110.0	1.7545932753076221e+18
14111.0	1.754214199145267e+18
14112.0	1.7538512811196413e+18
14113.0	1.7534838668001277e+18
14114.0	1.7531044802592763e+18
14115.0	1.752739595943936e+18
14116.0	1.752346822862438e+18
14117.0	1.7516436880621563e+18
14118.0	1.7516258320711677e+18
14119.0	1.7512461720616957e+18
14120.0	1.7508784070983677e+18
14121.0	1.7505035839602685e+18
14122.0	1.7501318998392827e+18
14123.0	1.7497622239510523e+18
14124.0	1.7493904341336061e+18
14125.0	1.7487563476434941e+18
14126.0	1.7486578184093693e+18
14127.0	1.7482872868831227e+18
14128.0	1.7479159752163323e+18
14129.0	1.7475393418166272e+18
14130.0	1.7471639230873597e+18
14131.0	1.746805836899942e+18
14132.0	1.746423791170355e+18
14133.0	1.7457351233634296e+18
14134.0	1.7456680077885437e+18
14135.0	1.7452239534686203e+18
14136.0	1.7448464157769725e+18
14137.0	1.7444923343110136e+18
14138.0	1.744118886904627e+18
14139.0	1.743753485851033e+18
14140.0	1.7433736798797821e+18
14141.0	1.7430138085965821e+18
14142.0	1.7426134924787707e+18
14143.0	1.7422672979820541e+18
14144.0	1.741907547494809e+18
14145.0	1.7415385712164861e+18
14146.0	1.7411686503809021e+18
14147.0	1.7408002059403256e+18
14148.0	1.7404307196346365e+18
14149.0	1.740061904417587e+18
14150.0	1.7396949833482235e+18
14151.0	1.7393226533044221e+18
14152.0	1.738958277338726e+18
14153.0	1.7385899218173947e+18
14154.0	1.7382071898996733e+18
14155.0	1.7377959836909565e+18
14156.0	1.73747804873687e+18
14157.0	1.7371178603642877e+18
14158.0	1.7367475939180544e+18
14159.0	1.7363785018769405e+18
14160.0	1.7359991488905216e+18
14161.0	1.7356003209117693e+18
14162.0	1.735205554697011e+18
14163.0	1.7348995147890685e+18
14164.0	1.7345157997264893e+18
14165.0	1.734054981612339e+18
14166.0	1.733796854077849e+18
14167.0	1.7334234335150075e+18
14168.0	1.7330626696839165e+18
14169.0	1.7326979011313661e+18
14170.0	1.7323286664839165e+18
14171.0	1.7319627604361213e+18
14172.0	1.731597842566348e+18
14173.0	1.731176001280409e+18
14174.0	1.7308619150196733e+18
14175.0	1.7304986094403581e+18
14176.0	1.7301319953940475e+18
14177.0	1.7297660423700477e+18
14178.0	1.7293986213396477e+18
14179.0	1.7290227815022587e+18
14180.0	1.7286683561033725e+18
14181.0	1.7283025607852027e+18
14182.0	1.727936393012838e+18
14183.0	1.7275712469729275e+18
14184.0	1.7272027085799421e+18
14185.0	1.7268402586386427e+18
14186.0	1.726399787932057e+18
14187.0	1.7260956404940797e+18
14188.0	1.7257438373740536e+18
14189.0	1.725377676312576e+18
14190.0	1.725013729843609e+18
14191.0	1.7246416229367805e+18
14192.0	1.7242680866111485e+18
14193.0	1.7238975047532536e+18
14194.0	1.7235424401424381e+18
14195.0	1.72317899531223e+18
14196.0	1.722814317356646e+18
14197.0	1.7224498994479104e+18
14198.0	1.7220525814185984e+18
14199.0	1.7215882283450363e+18
14200.0	1.7211871220203515e+18
14201.0	1.720860610553446e+18
14202.0	1.720498403881779e+18
14203.0	1.7201216614301693e+18
14204.0	1.7197689607290877e+18
14205.0	1.7194053951029243e+18
14206.0	1.7189697881112576e+18
14207.0	1.7186798174207997e+18
14208.0	1.7183165219078136e+18
14209.0	1.717875104966246e+18
14210.0	1.7175353613090813e+18
14211.0	1.717223855384166e+18
14212.0	1.7168631167188987e+18
14213.0	1.7164999537459195e+18
14214.0	1.7161372873785341e+18
14215.0	1.7157676198789115e+18
14216.0	1.7154123673632763e+18
14217.0	1.7150497026736128e+18
14218.0	1.7146803354861568e+18
14219.0	1.7143246249525243e+18
14220.0	1.713962346138828e+18
14221.0	1.7135987670908925e+18
14222.0	1.713227317850931e+18
14223.0	1.712875479498752e+18
14224.0	1.7125136805134333e+18
14225.0	1.7120328572469243e+18
14226.0	1.711789619491635e+18
14227.0	1.711424295613235e+18
14228.0	1.7107613623779325e+18
14229.0	1.7106346759421947e+18
14230.0	1.7103315972128765e+18
14231.0	1.709964177860198e+18
14232.0	1.7096086669754365e+18
14233.0	1.7092436635418621e+18
14234.0	1.7088862987747325e+18
14235.0	1.7085237095825405e+18
14236.0	1.7081639859388416e+18
14237.0	1.7078024319008765e+18
14238.0	1.7074421277655037e+18
14239.0	1.707078367523635e+18
14240.0	1.705800405037875e+18
14241.0	1.7063601986600957e+18
14242.0	1.7059998173495293e+18
14243.0	1.7055483810545661e+18
14244.0	1.7052790060744704e+18
14245.0	1.7049064830926848e+18
14246.0	1.7045417262841853e+18
14247.0	1.7041957129814016e+18
14248.0	1.7038291341672448e+18
14249.0	1.70347742667735e+18
14250.0	1.7031174530531325e+18
14251.0	1.7027591957381115e+18
14252.0	1.7023994972602365e+18
14253.0	1.7020394917593085e+18
14254.0	1.7016790332735488e+18
14255.0	1.701301802604953e+18
14256.0	1.7008440463327227e+18
14257.0	1.7005974548119547e+18
14258.0	1.7002434169667581e+18
14259.0	1.69987305153495e+18
14260.0	1.6995196713566203e+18
14261.0	1.6991549799792635e+18
14262.0	1.6988201134587904e+18
14263.0	1.6982879485558781e+18
14264.0	1.698068061329817e+18
14265.0	1.6977412596170747e+18
14266.0	1.6973859500589053e+18
14267.0	1.6970275534929915e+18
14268.0	1.6966591358959613e+18
14269.0	1.6962981287952381e+18
14270.0	1.695941500547891e+18
14271.0	1.6955817081176067e+18
14272.0	1.6952253667606525e+18
14273.0	1.6948668963749885e+18
14274.0	1.6942491307606016e+18
14275.0	1.6941286703497216e+18
14276.0	1.6937793435467776e+18
14277.0	1.6934237085106168e+18
14278.0	1.693079064228659e+18
14279.0	1.6927210703159296e+18
14280.0	1.6923601554898941e+18
14281.0	1.6920071729315837e+18
14282.0	1.6916502124953597e+18
14283.0	1.6912931430072315e+18
14284.0	1.6909361574051837e+18
14285.0	1.6905792137461757e+18
14286.0	1.69022183220183e+18
14287.0	1.6898657123041277e+18
14288.0	1.6895089867489275e+18
14289.0	1.6885635436511222e+18
14290.0	1.6887936414908408e+18
14291.0	1.688439006376755e+18
14292.0	1.68808328242135e+18
14293.0	1.6877257364602877e+18
14294.0	1.6872898308341757e+18
14295.0	1.6870073394266107e+18
14296.0	1.686182457402983e+18
14297.0	1.6863025000611837e+18
14298.0	1.6858439686815744e+18
14299.0	1.6855830343188475e+18
14300.0	1.685231026516787e+18
14301.0	1.6848766514495488e+18
14302.0	1.6845226773577725e+18
14303.0	1.6841485454409725e+18
14304.0	1.683803251880755e+18
14305.0	1.6834566765412347e+18
14306.0	1.6830774577725435e+18
14307.0	1.6827400209825787e+18
14308.0	1.6823928634736635e+18
14309.0	1.6820363442782205e+18
14310.0	1.6815667214811128e+18
14311.0	1.6812672431423488e+18
14312.0	1.6809492477902848e+18
14313.0	1.6805623249240061e+18
14314.0	1.6802632207171584e+18
14315.0	1.6799103304335357e+18
14316.0	1.6795254493544448e+18
14317.0	1.679181112095539e+18
14318.0	1.6788365080788987e+18
14319.0	1.6784826900152315e+18
14320.0	1.6781283669573624e+18
14321.0	1.6777747284099072e+18
14322.0	1.677397190718259e+18
14323.0	1.6770560444858363e+18
14324.0	1.6767134235361275e+18
14325.0	1.6763541998534653e+18
14326.0	1.676006262204006e+18
14327.0	1.67564893266903e+18
14328.0	1.6752955340357632e+18
14329.0	1.6749461116026877e+18
14330.0	1.6745928924856315e+18
14331.0	1.6742395206959096e+18
14332.0	1.6738866488672256e+18
14333.0	1.6735336965079037e+18
14334.0	1.6731808011911163e+18
14335.0	1.6728172791857152e+18
14336.0	1.6724582702514176e+18
14337.0	1.6721222377144315e+18
14338.0	1.6717687551950843e+18
14339.0	1.6714108871114752e+18
14340.0	1.6710649543393277e+18
14341.0	1.670711721800499e+18
14342.0	1.670360393475686e+18
14343.0	1.6700030169645056e+18
14344.0	1.6696514554363904e+18
14345.0	1.6693042811502587e+18
14346.0	1.6689507751428093e+18
14347.0	1.66859021263831e+18
14348.0	1.668248490947379e+18
14349.0	1.667896964651417e+18
14350.0	1.6675359105744893e+18
14351.0	1.6671802621165565e+18
14352.0	1.666836985177702e+18
14353.0	1.6664897957920765e+18
14354.0	1.6661378769092605e+18
14355.0	1.6657849430048765e+18
14356.0	1.6654347521753088e+18
14357.0	1.6650862575222781e+18
14358.0	1.664735160723046e+18
14359.0	1.6643756501499904e+18
14360.0	1.664032457097216e+18
14361.0	1.6636824659165181e+18
14362.0	1.6633321089925115e+18
14363.0	1.662981357803929e+18
14364.0	1.6626004915126272e+18
14365.0	1.6622748189065216e+18
14366.0	1.661924705252147e+18
14367.0	1.661580000572211e+18
14368.0	1.661229477553766e+18
14369.0	1.6608796793110525e+18
14370.0	1.660529657931366e+18
14371.0	1.6601797338595325e+18
14372.0	1.659821651027558e+18
14373.0	1.659468863084953e+18
14374.0	1.6591190128328704e+18
14375.0	1.6587685854445565e+18
14376.0	1.6584200018722813e+18
14377.0	1.6580540488482808e+18
14378.0	1.6576429919567867e+18
14379.0	1.657295220401766e+18
14380.0	1.6569452376096765e+18
14381.0	1.6565899213406205e+18
14382.0	1.656246582326067e+18
14383.0	1.6558908734701565e+18
14384.0	1.6555379798310912e+18
14385.0	1.6552005849841661e+18
14386.0	1.6548429970800632e+18
14387.0	1.6545026259550205e+18
14388.0	1.654152733759897e+18
14389.0	1.6538052574838781e+18
14390.0	1.6534556605677565e+18
14391.0	1.6531080785952765e+18
14392.0	1.6527574364585981e+18
14393.0	1.652411896273305e+18
14394.0	1.652041799276953e+18
14395.0	1.6517076424327165e+18
14396.0	1.651367348482867e+18
14397.0	1.6510194729091072e+18
14398.0	1.650670224959078e+18
14399.0	1.6503236227760125e+18
14400.0	1.6499641558237181e+18
14401.0	1.6496244205551608e+18
14402.0	1.6492798953914365e+18
14403.0	1.6469055569395679e+18
14404.0	1.642973333186149e+18
14405.0	1.647265767122532e+18
14406.0	1.647890394618265e+18
14407.0	1.6446623206866957e+18
14408.0	1.6471800187715581e+18
14409.0	1.6468374397648893e+18
14410.0	1.6464993587298296e+18
14411.0	1.646154642305843e+18
14412.0	1.6458061946290176e+18
14413.0	1.645461642621747e+18
14414.0	1.6451133409067005e+18
14415.0	1.6447673678692347e+18
14416.0	1.6444202153934848e+18
14417.0	1.644067605289369e+18
14418.0	1.6437124937023488e+18
14419.0	1.6433810346344448e+18
14420.0	1.6430325081047037e+18
14421.0	1.6426890264838141e+18
14422.0	1.6423406677262333e+18
14423.0	1.6419928760385533e+18
14424.0	1.6300917414428605e+18
14425.0	1.6413010977357821e+18
14426.0	1.6409592955142141e+18
14427.0	1.64061374358487e+18
14428.0	1.6402545668784125e+18
14429.0	1.6399192809275384e+18
14430.0	1.6395768831148024e+18
14431.0	1.6391780920459267e+18
14432.0	1.6388774393020413e+18
14433.0	1.6363717906137073e+18
14434.0	1.6381846493331453e+18
14435.0	1.6378368727449597e+18
14436.0	1.6375016102821888e+18
14437.0	1.637149084064153e+18
14438.0	1.6367463335723005e+18
14439.0	1.6364445550772221e+18
14440.0	1.6361136395911165e+18
14441.0	1.6357641030729725e+18
14442.0	1.6354163197739005e+18
14443.0	1.6350473401401344e+18
14444.0	1.6347322287915005e+18
14445.0	1.6343905591099387e+18
14446.0	1.6314905686704136e+18
14447.0	1.6336916689453053e+18
14448.0	1.6333576832286715e+18
14449.0	1.633013470121164e+18
14450.0	1.6326660374659067e+18
14451.0	1.632324176524083e+18
14452.0	1.631979228574515e+18
14453.0	1.631599726270873e+18
14454.0	1.6312928508575741e+18
14455.0	1.6309458644762621e+18
14456.0	1.630597160108032e+18
14457.0	1.63024950263808e+18
14458.0	1.6299158642098176e+18
14459.0	1.6295705807159296e+18
14460.0	1.629229499914649e+18
14461.0	1.6288735041683453e+18
14462.0	1.6284927553175547e+18
14463.0	1.6281969411227643e+18
14464.0	1.6278569927835643e+18
14465.0	1.627499960205312e+18
14466.0	1.6271710730846205e+18
14467.0	1.626793095829913e+18
14468.0	1.6264797695770621e+18
14469.0	1.6261266477678587e+18
14470.0	1.6257811394592765e+18
14471.0	1.6254476151160832e+18
14472.0	1.6251083093442557e+18
14473.0	1.624769651172966e+18
14474.0	1.6244278019751928e+18
14475.0	1.6240812635455485e+18
14476.0	1.6236033645477885e+18
14477.0	1.6234010061570048e+18
14478.0	1.6230583986290685e+18
14479.0	1.6227148482215933e+18
14480.0	1.6223638134980605e+18
14481.0	1.6220324014063613e+18
14482.0	1.6216880675028987e+18
14483.0	1.6213417975087101e+18
14484.0	1.6210001076944893e+18
14485.0	1.62064114909184e+18
14486.0	1.6201384718237696e+18
14487.0	1.619980203956633e+18
14488.0	1.619632497832755e+18
14489.0	1.619292687066726e+18
14490.0	1.6189534098161661e+18
14491.0	1.6186134832873472e+18
14492.0	1.6182729074802685e+18
14493.0	1.6179287782588413e+18
14494.0	1.6175776730710013e+18
14495.0	1.617249092973363e+18
14496.0	1.616824691484262e+18
14497.0	1.6165659868135421e+18
14498.0	1.6162251543150592e+18
14499.0	1.6158846942707707e+18
14500.0	1.615543541327462e+18
14501.0	1.6151403059740667e+18
14502.0	1.6146746409222141e+18
14503.0	1.6145098366517243e+18
14504.0	1.6141766931513341e+18
14505.0	1.6137809387585533e+18
14506.0	1.613373655062937e+18
14507.0	1.6130072540872704e+18
14508.0	1.6128181597634557e+18
14509.0	1.6124777131409403e+18
14510.0	1.612135370693017e+18
14511.0	1.6117967980855296e+18
14512.0	1.611446780061286e+18
14513.0	1.6111163393703933e+18
14514.0	1.6107438281326587e+18
14515.0	1.6104243328974843e+18
14516.0	1.6086014346919951e+18
14517.0	1.6097451005968381e+18
14518.0	1.6094053300961275e+18
14519.0	1.609065487453388e+18
14520.0	1.6087255978344443e+18
14521.0	1.6083842284650493e+18
14522.0	1.6080458185965565e+18
14523.0	1.607570684483993e+18
14524.0	1.6072248775409656e+18
14525.0	1.6070233613664253e+18
14526.0	1.6066872583651328e+18
14527.0	1.6063310428372987e+18
14528.0	1.6059266465005565e+18
14529.0	1.605661665473331e+18
14530.0	1.6053181167435776e+18
14531.0	1.6049883974729725e+18
14532.0	1.6044496424796157e+18
14533.0	1.6043100728197112e+18
14534.0	1.6039724984565757e+18
14535.0	1.603626436499865e+18
14536.0	1.6032918384148483e+18
14537.0	1.6029474139144192e+18
14538.0	1.6026161091969021e+18
14539.0	1.6022773453291515e+18
14540.0	1.601938435499622e+18
14541.0	1.6015858220400637e+18
14542.0	1.6012595018334205e+18
14543.0	1.6008302148190205e+18
14544.0	1.6005829807308797e+18
14545.0	1.6002401030897661e+18
14546.0	1.5853086140530614e+18
14547.0	1.5864142460092321e+18
14548.0	1.5992203184701437e+18
14549.0	1.5988159623987195e+18
14550.0	1.5985483892916221e+18
14551.0	1.5982138146947067e+18
14552.0	1.5978741029142525e+18
14553.0	1.5975318695182333e+18
14554.0	1.5971988988231675e+18
14555.0	1.596860134955417e+18
14556.0	1.596518836050329e+18
14557.0	1.596184196022272e+18
14558.0	1.595845853262643e+18
14559.0	1.5944158237687788e+18
14560.0	1.5951644114026493e+18
14561.0	1.5948275064504315e+18
14562.0	1.5944789631434747e+18
14563.0	1.5941555504283643e+18
14564.0	1.5938128439148541e+18
14565.0	1.593480128233472e+18
14566.0	1.5931422753685504e+18
14567.0	1.592804227887923e+18
14568.0	1.5924547886776315e+18
14569.0	1.592128765427712e+18
14570.0	1.591484917953331e+18
14571.0	1.5914513484218368e+18
14572.0	1.5910893330104315e+18
14573.0	1.590749114558054e+18
14574.0	1.590426988655411e+18
14575.0	1.5901015559634941e+18
14576.0	1.589764127562137e+18
14577.0	1.589423508134297e+18
14578.0	1.5890888748171264e+18
14579.0	1.5887526828965888e+18
14580.0	1.588415383679795e+18
14581.0	1.5880743196557312e+18
14582.0	1.5877402869628925e+18
14583.0	1.587403096798003e+18
14584.0	1.587058543113011e+18
14585.0	1.586728248383897e+18
14586.0	1.586388749674086e+18
14587.0	1.5860508330557435e+18
14588.0	1.585716125918822e+18
14589.0	1.5853897805463547e+18
14590.0	1.5850638093058043e+18
14591.0	1.5847371501993981e+18
14592.0	1.5844084073627648e+18
14593.0	1.5840131445424125e+18
14594.0	1.5837594982023163e+18
14595.0	1.5834299316043776e+18
14596.0	1.583070454585753e+18
14597.0	1.5827485081993213e+18
14598.0	1.5824521588113403e+18
14599.0	1.582129796349952e+18
14600.0	1.581803086911897e+18
14601.0	1.5814777683050493e+18
14602.0	1.5811478393192443e+18
14603.0	1.5808256429522941e+18
14604.0	1.5804724926218235e+18
14605.0	1.580156659852902e+18
14606.0	1.5797962198220797e+18
14607.0	1.5795054857682941e+18
14608.0	1.5791840410206203e+18
14609.0	1.5788492281872381e+18
14610.0	1.5785197823852541e+18
14611.0	1.5782049327611896e+18
14612.0	1.5778818170028032e+18
14613.0	1.577556068899225e+18
14614.0	1.577227706905395e+18
14615.0	1.5769027674636285e+18
14616.0	1.5765777407803387e+18
14617.0	1.5762513970855933e+18
14618.0	1.5759212013420541e+18
14619.0	1.575579654134169e+18
14620.0	1.575200629981184e+18
14621.0	1.5749467907031037e+18
14622.0	1.5746186669457403e+18
14623.0	1.574294249275392e+18
14624.0	1.5739314218467325e+18
14625.0	1.5736394177576957e+18
14626.0	1.5733113040666621e+18
14627.0	1.572979933918003e+18
14628.0	1.572662067750502e+18
14629.0	1.572335571383091e+18
14630.0	1.5720082093113344e+18
14631.0	1.5716815619489792e+18
14632.0	1.5704048460103683e+18
14633.0	1.5709083487174648e+18
14634.0	1.5706994874777597e+18
14635.0	1.5702940694085624e+18
14636.0	1.569853880559206e+18
14637.0	1.5697222817546237e+18
14638.0	1.5693938727845885e+18
14639.0	1.5690615362682877e+18
14640.0	1.5687388567175165e+18
14641.0	1.5647034715406313e+18
14642.0	1.5680837332762624e+18
14643.0	1.567759451501363e+18
14644.0	1.5674253651214333e+18
14645.0	1.567089168167731e+18
14646.0	1.566769553814323e+18
14647.0	1.5664406348169213e+18
