# Flux units: erg / (cm m2 s)
# Wavelength units: Angstrom
wave	flux
14000.0	2.15335675405271e+18
14001.0	2.1528557410844667e+18
14002.0	2.152421974553395e+18
14003.0	2.1519529792241661e+18
14004.0	2.151483522521497e+18
14005.0	2.151013988643635e+18
14006.0	2.1505406295605243e+18
14007.0	2.150014838321971e+18
14008.0	2.1494850876604416e+18
14009.0	2.149072596316979e+18
14010.0	2.148596156937011e+18
14011.0	2.1478072821743616e+18
14012.0	2.1476662545743867e+18
14013.0	2.1471978229596155e+18
14014.0	2.1467257926320125e+18
14015.0	2.1462593726054395e+18
14016.0	2.145792397253017e+18
14017.0	2.1453241971638267e+18
14018.0	2.1448558678900733e+18
14019.0	2.1443880855535608e+18
14020.0	2.1439197730570237e+18
14021.0	2.1434515964559355e+18
14022.0	2.1429842838814717e+18
14023.0	2.1425099701747704e+18
14024.0	2.1420357051219965e+18
14025.0	2.1415195372945403e+18
14026.0	2.1410511442673656e+18
14027.0	2.1405851252162555e+18
14028.0	2.1401180810772477e+18
14029.0	2.1396508775546877e+18
14030.0	2.1390549156102144e+18
14031.0	2.1387046627049467e+18
14032.0	2.1382495085789181e+18
14033.0	2.1377596189048827e+18
14034.0	2.1373177624002557e+18
14035.0	2.136851865822822e+18
14036.0	2.1363857813405693e+18
14037.0	2.135919802554777e+18
14038.0	2.1354539227545595e+18
14039.0	2.134988155361689e+18
14040.0	2.1345171987759101e+18
14041.0	2.1340545435566077e+18
14042.0	2.1335847865417725e+18
14043.0	2.133104797102899e+18
14044.0	2.1326234268991483e+18
14045.0	2.1321319651999744e+18
14046.0	2.131665555239731e+18
14047.0	2.131199813012684e+18
14048.0	2.130737949677977e+18
14049.0	2.1302739908689915e+18
14050.0	2.1298093794263035e+18
14051.0	2.129339815349452e+18
14052.0	2.1288804283318267e+18
14053.0	2.1284161457225725e+18
14054.0	2.1279520828948475e+18
14055.0	2.127488051943833e+18
14056.0	2.12702411662295e+18
14057.0	2.1265603322970104e+18
14058.0	2.1260966486343677e+18
14059.0	2.1256330807345147e+18
14060.0	2.1251696319528957e+18
14061.0	2.1247027354533888e+18
14062.0	2.124243059867648e+18
14063.0	2.1237707476828155e+18
14064.0	2.1232974942961661e+18
14065.0	2.122849512429977e+18
14066.0	2.1223913014951933e+18
14067.0	2.12186902340567e+18
14068.0	2.121404502559948e+18
14069.0	2.1209412836261883e+18
14070.0	2.120479420291481e+18
14071.0	2.1200156426764288e+18
14072.0	2.1195549252255744e+18
14073.0	2.1190928320430077e+18
14074.0	2.1186308932108283e+18
14075.0	2.11815865820119e+18
14076.0	2.1177072202285048e+18
14077.0	2.1172155957903357e+18
14078.0	2.1167817621503992e+18
14079.0	2.1163188636614656e+18
14080.0	2.1158614093791224e+18
14081.0	2.115400215455334e+18
14082.0	2.1149346913320952e+18
14083.0	2.1144773578457088e+18
14084.0	2.1140172192088061e+18
14085.0	2.1134116070096893e+18
14086.0	2.1130932979236861e+18
14087.0	2.1126355651395581e+18
14088.0	2.1121687575592957e+18
14089.0	2.1117148013264896e+18
14090.0	2.11125434056704e+18
14091.0	2.1107881487106043e+18
14092.0	2.110274292783513e+18
14093.0	2.1098143470845947e+18
14094.0	2.1093544936603643e+18
14095.0	2.1088947392217083e+18
14096.0	2.1084273259839483e+18
14097.0	2.1079675547680765e+18
14098.0	2.1075131136737275e+18
14099.0	2.1070569663365117e+18
14100.0	2.1065914657013752e+18
14101.0	2.1061388835225597e+18
14102.0	2.1056797917839355e+18
14103.0	2.1052136519368701e+18
14104.0	2.104762457233817e+18
14105.0	2.1043033151635456e+18
14106.0	2.103845318977126e+18
14107.0	2.1033854236098552e+18
14108.0	2.1029216761937915e+18
14109.0	2.1024677686149115e+18
14110.0	2.1020071048511483e+18
14111.0	2.1015432232173563e+18
14112.0	2.1010920486469627e+18
14113.0	2.1006391124688893e+18
14114.0	2.1001736655208445e+18
14115.0	2.0997233096785917e+18
14116.0	2.0992528597647352e+18
14117.0	2.0985902687846397e+18
14118.0	2.0983521547911165e+18
14119.0	2.0978440249278461e+18
14120.0	2.0973757040427003e+18
14121.0	2.0969133357137912e+18
14122.0	2.0964610756575227e+18
14123.0	2.0960032321437693e+18
14124.0	2.0955465747791867e+18
14125.0	2.0948304695132152e+18
14126.0	2.094438530259353e+18
14127.0	2.093962788811571e+18
14128.0	2.0935059787743227e+18
14129.0	2.0930435232038904e+18
14130.0	2.0925821245980667e+18
14131.0	2.092139063489331e+18
14132.0	2.0916798861869053e+18
14133.0	2.0909180915286008e+18
14134.0	2.090771938489139e+18
14135.0	2.0903089494032381e+18
14136.0	2.089853347325542e+18
14137.0	2.0894060902350843e+18
14138.0	2.088948963108454e+18
14139.0	2.0884964581048315e+18
14140.0	2.088033267692339e+18
14141.0	2.0875854250770427e+18
14142.0	2.0871118915108861e+18
14143.0	2.086670857089843e+18
14144.0	2.0862240177520637e+18
14145.0	2.085769784695193e+18
14146.0	2.0853146892894205e+18
14147.0	2.0848611289989117e+18
14148.0	2.084407447912448e+18
14149.0	2.0839540352614392e+18
14150.0	2.0834900982628352e+18
14151.0	2.0829853708189693e+18
14152.0	2.0825332030373888e+18
14153.0	2.0820796008038392e+18
14154.0	2.0816110601371643e+18
14155.0	2.0811606673850365e+18
14156.0	2.0807177472049147e+18
14157.0	2.08026673872896e+18
14158.0	2.0798113463664637e+18
14159.0	2.0793609552920573e+18
14160.0	2.078904130155315e+18
14161.0	2.0784216409112568e+18
14162.0	2.0779418326663163e+18
14163.0	2.077549705507635e+18
14164.0	2.0770846561796093e+18
14165.0	2.076555257839616e+18
14166.0	2.076191559673446e+18
14167.0	2.075733469534617e+18
14168.0	2.0752889907511296e+18
14169.0	2.0748385124351997e+18
14170.0	2.074385017575833e+18
14171.0	2.073933817839616e+18
14172.0	2.073483837807001e+18
14173.0	2.0729857021313021e+18
14174.0	2.072578133223014e+18
14175.0	2.0721302453092347e+18
14176.0	2.0716792435441656e+18
14177.0	2.0712283306983421e+18
14178.0	2.070776181371699e+18
14179.0	2.0703174939639803e+18
14180.0	2.0698763890786296e+18
14181.0	2.0694259342508024e+18
14182.0	2.068975143878656e+18
14183.0	2.0685253181964283e+18
14184.0	2.068072220957081e+18
14185.0	2.067625071240806e+18
14186.0	2.0671217480499197e+18
14187.0	2.0666534003212283e+18
14188.0	2.0662163421003773e+18
14189.0	2.065765892305715e+18
14190.0	2.0653170480906235e+18
14191.0	2.0648674925215736e+18
14192.0	2.0644136772173821e+18
14193.0	2.0639622224674816e+18
14194.0	2.0635190925721597e+18
14195.0	2.0630708724695035e+18
14196.0	2.062621696065536e+18
14197.0	2.0621727729975293e+18
14198.0	2.0617213400580093e+18
14199.0	2.061273259206246e+18
14200.0	2.0608024485822461e+18
14201.0	2.0603769867730936e+18
14202.0	2.0599298118909952e+18
14203.0	2.0594709281898493e+18
14204.0	2.059031579879014e+18
14205.0	2.0585836248563707e+18
14206.0	2.0580650209771517e+18
14207.0	2.0576892297936893e+18
14208.0	2.057241690846003e+18
14209.0	2.0567203036266493e+18
14210.0	2.056292573537894e+18
14211.0	2.055898641150771e+18
14212.0	2.0554511558901755e+18
14213.0	2.0550041437470715e+18
14214.0	2.054556878268006e+18
14215.0	2.054103804516761e+18
14216.0	2.0536634931937275e+18
14217.0	2.0532166286901243e+18
14218.0	2.0527627747983355e+18
14219.0	2.052323238582681e+18
14220.0	2.0518768203530237e+18
14221.0	2.0514301202661368e+18
14222.0	2.0509788467101693e+18
14223.0	2.0505377468579835e+18
14224.0	2.050091732959232e+18
14225.0	2.0495751993884672e+18
14226.0	2.049199488735641e+18
14227.0	2.0487163065925627e+18
14228.0	2.0480945312235515e+18
14229.0	2.0477731284189176e+18
14230.0	2.0473605146017787e+18
14231.0	2.046911542879846e+18
14232.0	2.046469428006092e+18
14233.0	2.0460207750512637e+18
14234.0	2.0455789420347387e+18
14235.0	2.0451324013314043e+18
14236.0	2.044688550015795e+18
14237.0	2.0442430511775744e+18
14238.0	2.0437986646687744e+18
14239.0	2.0433511861190653e+18
14240.0	2.042091336315699e+18
14241.0	2.0424643676471293e+18
14242.0	2.042020268028723e+18
14243.0	2.0414869991849981e+18
14244.0	2.041131981550387e+18
14245.0	2.040679281931059e+18
14246.0	2.040229518324531e+18
14247.0	2.039796924520857e+18
14248.0	2.039348001452851e+18
14249.0	2.038911131136819e+18
14250.0	2.0384673754513405e+18
14251.0	2.0380253041983483e+18
14252.0	2.0375818370809853e+18
14253.0	2.0371380511965181e+18
14254.0	2.036693912990515e+18
14255.0	2.036234601470361e+18
14256.0	2.0357338334494717e+18
14257.0	2.035362563725721e+18
14258.0	2.034923347954892e+18
14259.0	2.034468863239782e+18
14260.0	2.0340342578479101e+18
14261.0	2.0335831755522043e+18
14262.0	2.033169325254246e+18
14263.0	2.0326157257801725e+18
14264.0	2.032258926405222e+18
14265.0	2.0318401033404416e+18
14266.0	2.031400969777971e+18
14267.0	2.030959032742707e+18
14268.0	2.0305172668350461e+18
14269.0	2.0300741285511168e+18
14270.0	2.0296338860146683e+18
14271.0	2.0291909406687227e+18
14272.0	2.028750782018355e+18
14273.0	2.0283019680022525e+18
14274.0	2.0275656344469501e+18
14275.0	2.027278056187494e+18
14276.0	2.0267871649136637e+18
14277.0	2.0263448839454715e+18
14278.0	2.0259150499938301e+18
14279.0	2.0254735609102333e+18
14280.0	2.025029322040934e+18
14281.0	2.0245926882836477e+18
14282.0	2.024152242742886e+18
14283.0	2.0237117166714877e+18
14284.0	2.0232713063628797e+18
14285.0	2.0228308893433853e+18
14286.0	2.02239037669376e+18
14287.0	2.0219505116446715e+18
14288.0	2.0215101801889787e+18
14289.0	2.020545694951013e+18
14290.0	2.0206284737347581e+18
14291.0	2.0201901807108093e+18
14292.0	2.0197224168292347e+18
14293.0	2.0192326999605245e+18
14294.0	2.0187152134438912e+18
14295.0	2.0183469116096512e+18
14296.0	2.0174906645807101e+18
14297.0	2.0174755214655483e+18
14298.0	2.016952183055974e+18
14299.0	2.0165903471607803e+18
14300.0	2.016154547231129e+18
14301.0	2.015717007504179e+18
14302.0	2.0152802512732155e+18
14303.0	2.0148217903579128e+18
14304.0	2.014394432723353e+18
14305.0	2.0139641088770043e+18
14306.0	2.013506740158464e+18
14307.0	2.0130723797139453e+18
14308.0	2.0126363650359296e+18
14309.0	2.012196181219737e+18
14310.0	2.0116644760125437e+18
14311.0	2.0112981706670072e+18
14312.0	2.0108629394849787e+18
14313.0	2.010408704750387e+18
14314.0	2.0100083265568765e+18
14315.0	2.0095719008370683e+18
14316.0	2.009104771134259e+18
14317.0	2.008689743075737e+18
14318.0	2.0082603503648765e+18
14319.0	2.0078235203141627e+18
14320.0	2.0073861617811453e+18
14321.0	2.0069494995025917e+18
14322.0	2.0064893390553088e+18
14323.0	2.0060645047140347e+18
14324.0	2.0056391687340027e+18
14325.0	2.005196402904268e+18
14326.0	2.004766030403993e+18
14327.0	2.004325561375129e+18
14328.0	2.003889565152051e+18
14329.0	2.0034569528934397e+18
14330.0	2.0030207452774392e+18
14331.0	2.0025561925550077e+18
14332.0	2.002095121104896e+18
14333.0	2.001659084616499e+18
14334.0	2.0012231353696248e+18
14335.0	2.0007794417598461e+18
14336.0	2.0003402947756032e+18
14337.0	1.9999153799036925e+18
14338.0	1.9994789038522365e+18
14339.0	1.9990375204651003e+18
14340.0	1.9986089968140283e+18
14341.0	1.9981731952066555e+18
14342.0	1.9977384321089533e+18
14343.0	1.997298892537856e+18
14344.0	1.9968636496117755e+18
14345.0	1.996433228457574e+18
14346.0	1.9959967758942208e+18
14347.0	1.9955566021443581e+18
14348.0	1.9951284308148224e+18
14349.0	1.9946940250718205e+18
14350.0	1.994253493967257e+18
14351.0	1.993814979484057e+18
14352.0	1.993385437455974e+18
14353.0	1.9929551740076024e+18
14354.0	1.9925205132509181e+18
14355.0	1.9920852434812925e+18
14356.0	1.9916516866654205e+18
14357.0	1.9912193378091003e+18
14358.0	1.9907852256673787e+18
14359.0	1.9903419296776192e+18
14360.0	1.989916877232537e+18
14361.0	1.9894836492500987e+18
14362.0	1.9890502165856248e+18
14363.0	1.9886164617986043e+18
14364.0	1.9881635356868605e+18
14365.0	1.9877455766487037e+18
14366.0	1.987313112029593e+18
14367.0	1.9868831522488315e+18
14368.0	1.9864496524754944e+18
14369.0	1.986016880833331e+18
14370.0	1.9855838843764733e+18
14371.0	1.9851509768388605e+18
14372.0	1.9847150158479355e+18
14373.0	1.984285185251737e+18
14374.0	1.9838526669455355e+18
14375.0	1.983420051331481e+18
14376.0	1.9829875212812283e+18
14377.0	1.9825547144069115e+18
14378.0	1.982121144169267e+18
14379.0	1.981690375726694e+18
14380.0	1.9812573994024955e+18
14381.0	1.9808190577246203e+18
14382.0	1.9803929852248061e+18
14383.0	1.9799556854120445e+18
14384.0	1.9795180466995197e+18
14385.0	1.9790982388121597e+18
14386.0	1.9786573889404925e+18
14387.0	1.978234608130457e+18
14388.0	1.9778017844789245e+18
14389.0	1.9773713163485181e+18
14390.0	1.9769388970278912e+18
14391.0	1.9765084540633083e+18
14392.0	1.9760757361082365e+18
14393.0	1.975646177302937e+18
14394.0	1.975192705931673e+18
14395.0	1.9747476466565123e+18
14396.0	1.9743016830894075e+18
14397.0	1.9738706814435325e+18
14398.0	1.9734386362548221e+18
14399.0	1.9730085674221565e+18
14400.0	1.9725674944135168e+18
14401.0	1.9721429754839035e+18
14402.0	1.9717145441075197e+18
14403.0	1.9697357503332326e+18
14404.0	1.9665000545124337e+18
14405.0	1.9695542560882668e+18
14406.0	1.9699921330372603e+18
14407.0	1.967418585278055e+18
14408.0	1.9691184393814008e+18
14409.0	1.9686921085124605e+18
14410.0	1.9682708695285755e+18
14411.0	1.9678422536028152e+18
14412.0	1.9674108241379325e+18
14413.0	1.9669828541349883e+18
14414.0	1.9665513776939005e+18
14415.0	1.9661222165086205e+18
14416.0	1.965692417789132e+18
14417.0	1.9652581848514555e+18
14418.0	1.9648222255382528e+18
14419.0	1.964402942777753e+18
14420.0	1.96397121971159e+18
14421.0	1.963544170777804e+18
14422.0	1.9631141388550141e+18
14423.0	1.9626764867207165e+18
14424.0	1.9535259817213906e+18
14425.0	1.961816837272371e+18
14426.0	1.961397423649587e+18
14427.0	1.960969252320051e+18
14428.0	1.9605270082617341e+18
14429.0	1.9601083026374656e+18
14430.0	1.9596826848002043e+18
14431.0	1.9592210731237373e+18
14432.0	1.9588170391748605e+18
14433.0	1.9567816071970806e+18
14434.0	1.957958257108582e+18
14435.0	1.9575294968987645e+18
14436.0	1.9571104406306816e+18
14437.0	1.956681858259353e+18
14438.0	1.956208054580019e+18
14439.0	1.9558114009284605e+18
14440.0	1.955396213486387e+18
14441.0	1.954964577661747e+18
14442.0	1.9545341363748861e+18
14443.0	1.9540833778794493e+18
14444.0	1.9536811525144573e+18
14445.0	1.9532552796635133e+18
14446.0	1.9508632949358597e+18
14447.0	1.9523880200699901e+18
14448.0	1.9519723897094141e+18
14449.0	1.9515448290705403e+18
14450.0	1.9511137049509888e+18
14451.0	1.950688395814502e+18
14452.0	1.9502592245628925e+18
14453.0	1.9498039949393917e+18
14454.0	1.9494063161999352e+18
14455.0	1.9489760477183997e+18
14456.0	1.948544665229721e+18
14457.0	1.9481143497719805e+18
14458.0	1.947695077077811e+18
14459.0	1.947265998100889e+18
14460.0	1.94684046582743e+18
14461.0	1.9464012701892603e+18
14462.0	1.9459673308528637e+18
14463.0	1.945556539041382e+18
14464.0	1.9451334512082936e+18
14465.0	1.9446951833501693e+18
14466.0	1.9442806065987581e+18
14467.0	1.9438231623827453e+18
14468.0	1.9434237555900416e+18
14469.0	1.9429873416142843e+18
14470.0	1.9425570160902144e+18
14471.0	1.9421397717614587e+18
14472.0	1.941714132113817e+18
14473.0	1.9412463145451517e+18
14474.0	1.9408198125486075e+18
14475.0	1.9403904601030656e+18
14476.0	1.9398632226684925e+18
14477.0	1.9395400481898493e+18
14478.0	1.939113433785958e+18
14479.0	1.9386866633539584e+18
14480.0	1.9382504809037816e+18
14481.0	1.93783462405079e+18
14482.0	1.9374059326275581e+18
14483.0	1.9369754879852544e+18
14484.0	1.9365487276195835e+18
14485.0	1.9361058896478205e+18
14486.0	1.9355243124883453e+18
14487.0	1.93527588889559e+18
14488.0	1.9348460163563515e+18
14489.0	1.9344210528305147e+18
14490.0	1.9339954953912317e+18
14491.0	1.9335707432583165e+18
14492.0	1.9331457243676672e+18
14493.0	1.9327165984145405e+18
14494.0	1.932280972967936e+18
14495.0	1.931867337418342e+18
14496.0	1.931360417192345e+18
14497.0	1.9310147780214781e+18
14498.0	1.9305893329895421e+18
14499.0	1.9301638778912765e+18
14500.0	1.9297377869365243e+18
14501.0	1.9292604969517056e+18
14502.0	1.9287280015376384e+18
14503.0	1.9284498772393981e+18
14504.0	1.9280310155870203e+18
14505.0	1.92755933422551e+18
14506.0	1.9270820224303104e+18
14507.0	1.9266111899959293e+18
14508.0	1.926332218448281e+18
14509.0	1.9259067616722944e+18
14510.0	1.925481222687948e+18
14511.0	1.9250555880734717e+18
14512.0	1.9246202511949824e+18
14513.0	1.924204441318195e+18
14514.0	1.923755860505395e+18
14515.0	1.9233528600330235e+18
14516.0	1.9216163779117066e+18
14517.0	1.922501344178995e+18
14518.0	1.9220770735521784e+18
14519.0	1.9216518466240507e+18
14520.0	1.9212264787673083e+18
14521.0	1.920800523708006e+18
14522.0	1.9203753504669693e+18
14523.0	1.9198403451813883e+18
14524.0	1.919409405611212e+18
14525.0	1.9190955592646656e+18
14526.0	1.9186735401402363e+18
14527.0	1.9182320661561344e+18
14528.0	1.9177506758197245e+18
14529.0	1.9173898952114173e+18
14530.0	1.916960415259033e+18
14531.0	1.9165441456865277e+18
14532.0	1.9159675379384317e+18
14533.0	1.9156935760674816e+18
14534.0	1.9152697148047355e+18
14535.0	1.9148372820623352e+18
14536.0	1.9144183835000832e+18
14537.0	1.9139853300006907e+18
14538.0	1.9135672686215165e+18
14539.0	1.913141764869324e+18
14540.0	1.912716058112819e+18
14541.0	1.912277250028339e+18
14542.0	1.9118643979747325e+18
14543.0	1.9113625964773373e+18
14544.0	1.9110121741221883e+18
14545.0	1.910581375480627e+18
14546.0	1.900306731578158e+18
14547.0	1.900809796399917e+18
14548.0	1.9092999401111547e+18
14549.0	1.9088116056850427e+18
14550.0	1.908454366747033e+18
14551.0	1.908032773763891e+18
14552.0	1.9076058422706173e+18
14553.0	1.9071771072266235e+18
14554.0	1.9067554756558845e+18
14555.0	1.906329126332006e+18
14556.0	1.9059008157515773e+18
14557.0	1.9054776591319037e+18
14558.0	1.9050511068037115e+18
14559.0	1.90366137618268e+18
14560.0	1.9041966817804288e+18
14561.0	1.9037696999555072e+18
14562.0	1.9033332658470907e+18
14563.0	1.9028894464081915e+18
14564.0	1.902447722443571e+18
14565.0	1.9020246782312443e+18
14566.0	1.9015983138078717e+18
14567.0	1.9011715064659965e+18
14568.0	1.9007381358772221e+18
14569.0	1.9003181820280827e+18
14570.0	1.8996221137911805e+18
14571.0	1.899462847679692e+18
14572.0	1.8990148138041341e+18
14573.0	1.8985827853926397e+18
14574.0	1.8981766341591035e+18
14575.0	1.8977560528420861e+18
14576.0	1.8973291398037504e+18
14577.0	1.8968987354267643e+18
14578.0	1.8964747416240125e+18
14579.0	1.8960485667831805e+18
14580.0	1.895621289679257e+18
14581.0	1.8951905245921277e+18
14582.0	1.8947659955961853e+18
14583.0	1.8943384433459197e+18
14584.0	1.8939044503224317e+18
14585.0	1.8934827482873853e+18
14586.0	1.8930528103170043e+18
14587.0	1.892624838636339e+18
14588.0	1.8921989573967872e+18
14589.0	1.891781691257651e+18
14590.0	1.8913648076390397e+18
14591.0	1.8909474710355965e+18
14592.0	1.8905272772722683e+18
14593.0	1.8900428972359677e+18
14594.0	1.8896959527976955e+18
14595.0	1.8892751231778816e+18
14596.0	1.8888371539542008e+18
14597.0	1.8884239026028541e+18
14598.0	1.8880235311202304e+18
14599.0	1.8876081759059965e+18
14600.0	1.8871899081670653e+18
14601.0	1.886772061536256e+18
14602.0	1.88635185938432e+18
14603.0	1.8859352341348347e+18
14604.0	1.885491760306585e+18
14605.0	1.8850946805137408e+18
14606.0	1.8846445662633981e+18
14607.0	1.884255197279027e+18
14608.0	1.8838411557208067e+18
14609.0	1.883414194028544e+18
14610.0	1.882998400928972e+18
14611.0	1.882581794134425e+18
14612.0	1.882165207472537e+18
14613.0	1.881745889479884e+18
14614.0	1.8813239794073597e+18
14615.0	1.880905604294246e+18
14616.0	1.8804854625402877e+18
14617.0	1.880064733583769e+18
14618.0	1.8796434006474747e+18
14619.0	1.8792097599455227e+18
14620.0	1.8787559597408253e+18
14621.0	1.8783807876366333e+18
14622.0	1.8779593221603325e+18
14623.0	1.8775376218030077e+18
14624.0	1.8770799494168573e+18
14625.0	1.8766915954540541e+18
14626.0	1.8762685646635005e+18
14627.0	1.8758422639935483e+18
14628.0	1.875426841670451e+18
14629.0	1.8750041799786496e+18
14630.0	1.8745808086106107e+18
14631.0	1.8741574741524475e+18
14632.0	1.873042309382144e+18
14633.0	1.8732163260219387e+18
14634.0	1.8728854575120381e+18
14635.0	1.8724462299971581e+18
14636.0	1.871997115668889e+18
14637.0	1.8715673807028221e+18
14638.0	1.8710608077651965e+18
14639.0	1.8706307624206333e+18
14640.0	1.870207540369817e+18
14641.0	1.8670588981673966e+18
14642.0	1.869355516166144e+18
14643.0	1.8689337822543864e+18
14644.0	1.8685008612950013e+18
14645.0	1.8680672658915323e+18
14646.0	1.8676495669002235e+18
14647.0	1.867220655695462e+18
14648.0	1.8667989922480125e+18
