# Flux units: erg / (cm m2 s)
# Wavelength units: Angstrom
wave	flux
14000.0	1.6721472458326013e+18
14001.0	1.6718043463811072e+18
14002.0	1.6714805410791421e+18
14003.0	1.6711474411995133e+18
14004.0	1.67081403261911e+18
14005.0	1.6704806726926328e+18
14006.0	1.670146764151193e+18
14007.0	1.6698138068779003e+18
14008.0	1.6694732562366461e+18
14009.0	1.6691478654877693e+18
14010.0	1.668815055853977e+18
14011.0	1.6684288728629243e+18
14012.0	1.6681493577334781e+18
14013.0	1.6678166420520957e+18
14014.0	1.6674839817355261e+18
14015.0	1.667151227466547e+18
14016.0	1.666818921149235e+18
14017.0	1.6664865074577403e+18
14018.0	1.666154140742451e+18
14019.0	1.6658219032117243e+18
14020.0	1.665489662325555e+18
14021.0	1.6651574952591357e+18
14022.0	1.6648254724767741e+18
14023.0	1.6644932567564285e+18
14024.0	1.6641608631975933e+18
14025.0	1.663829932611993e+18
14026.0	1.6634980910235643e+18
14027.0	1.6631666034343933e+18
14028.0	1.6628350453809147e+18
14029.0	1.6625035343036413e+18
14030.0	1.662144827359232e+18
14031.0	1.6618399534678008e+18
14032.0	1.6615095446536187e+18
14033.0	1.66117767118848e+18
14034.0	1.6608472623742976e+18
14035.0	1.6605162747461632e+18
14036.0	1.660185332416512e+18
14037.0	1.659854468939776e+18
14038.0	1.6595236893491197e+18
14039.0	1.659192971834163e+18
14040.0	1.6588623382052861e+18
14041.0	1.6585317867847675e+18
14042.0	1.65820080586752e+18
14043.0	1.6578686253793283e+18
14044.0	1.657539543642931e+18
14045.0	1.657202069943091e+18
14046.0	1.6568684935905275e+18
14047.0	1.6565382642925565e+18
14048.0	1.6562082681978877e+18
14049.0	1.6558783358566397e+18
14050.0	1.6555484588802043e+18
14051.0	1.6552179275923456e+18
14052.0	1.6548888810881021e+18
14053.0	1.6545592289263613e+18
14054.0	1.6542296388403197e+18
14055.0	1.6539001309626363e+18
14056.0	1.6535706985824253e+18
14057.0	1.6532413416996861e+18
14058.0	1.6529120619921403e+18
14059.0	1.652582857782067e+18
14060.0	1.65225373410263e+18
14061.0	1.651924098718105e+18
14062.0	1.6515957082030075e+18
14063.0	1.6512555434377216e+18
14064.0	1.6509211030585341e+18
14065.0	1.6505969588568061e+18
14066.0	1.6502689827389437e+18
14067.0	1.64994036573143e+18
14068.0	1.6496118158327803e+18
14069.0	1.6492832458014715e+18
14070.0	1.6489549391724541e+18
14071.0	1.6486263792074747e+18
14072.0	1.6482983796015104e+18
14073.0	1.647970210545664e+18
14074.0	1.6476421304090621e+18
14075.0	1.6473140855046144e+18
14076.0	1.6469861748178944e+18
14077.0	1.6466524122382333e+18
14078.0	1.6463300497768448e+18
14079.0	1.6460023018291197e+18
14080.0	1.6456751796715515e+18
14081.0	1.645347619628646e+18
14082.0	1.6450168215830525e+18
14083.0	1.6446812588081147e+18
14084.0	1.6443540074659837e+18
14085.0	1.6440059976744957e+18
14086.0	1.643698994754355e+18
14087.0	1.6433724312780797e+18
14088.0	1.643045250400256e+18
14089.0	1.6427183362801656e+18
14090.0	1.6423913063972861e+18
14091.0	1.6420645936037885e+18
14092.0	1.641737830478643e+18
14093.0	1.6414111495618557e+18
14094.0	1.6410845458202621e+18
14095.0	1.6407580041543677e+18
14096.0	1.640430276339302e+18
14097.0	1.6401051187937277e+18
14098.0	1.6397782633938941e+18
14099.0	1.6394526260199421e+18
14100.0	1.6391254434643965e+18
14101.0	1.6388003966484475e+18
14102.0	1.6384743650099203e+18
14103.0	1.6381471522553853e+18
14104.0	1.637783880230502e+18
14105.0	1.637395135358566e+18
14106.0	1.6370656090259453e+18
14107.0	1.636739829045657e+18
14108.0	1.6364144835952637e+18
14109.0	1.636088618051174e+18
14110.0	1.635762994098995e+18
14111.0	1.635437058090598e+18
14112.0	1.6351129256329216e+18
14113.0	1.6347880046460923e+18
14114.0	1.6344630786260987e+18
14115.0	1.6341379412131835e+18
14116.0	1.633811238486016e+18
14117.0	1.633439156745011e+18
14118.0	1.6331634752094205e+18
14119.0	1.632838054261555e+18
14120.0	1.632513515795251e+18
14121.0	1.6321892507975675e+18
14122.0	1.6318638147502077e+18
14123.0	1.631539814832537e+18
14124.0	1.631215360252313e+18
14125.0	1.6308539404320768e+18
14126.0	1.6305678855438333e+18
14127.0	1.6302437732188157e+18
14128.0	1.6299196256616448e+18
14129.0	1.6295957616394237e+18
14130.0	1.6292638613307387e+18
14131.0	1.6289370478739453e+18
14132.0	1.6286132627046397e+18
14133.0	1.628244937382297e+18
14134.0	1.6279659272470523e+18
14135.0	1.6276412075868152e+18
14136.0	1.6273172529676285e+18
14137.0	1.626995405566771e+18
14138.0	1.626671610331136e+18
14139.0	1.626348870382387e+18
14140.0	1.6260247647682557e+18
14141.0	1.6257023872073723e+18
14142.0	1.625375556973363e+18
14143.0	1.6250558486675453e+18
14144.0	1.6247337261203453e+18
14145.0	1.6244109022855163e+18
14146.0	1.6240880247635965e+18
14147.0	1.62376540225536e+18
14148.0	1.6234428267233275e+18
14149.0	1.623120378698137e+18
14150.0	1.622797920606617e+18
14151.0	1.6224753433968637e+18
14152.0	1.6221532476932093e+18
14153.0	1.6218310093832187e+18
14154.0	1.6215088566370301e+18
14155.0	1.6211799628054528e+18
14156.0	1.6208633381519357e+18
14157.0	1.620539566404403e+18
14158.0	1.6202096625844221e+18
14159.0	1.6198881775714301e+18
14160.0	1.6195656708259837e+18
14161.0	1.6192401307598848e+18
14162.0	1.6189145017745403e+18
14163.0	1.618601495966515e+18
14164.0	1.618278646965862e+18
14165.0	1.6179485619519488e+18
14166.0	1.617637217088307e+18
14167.0	1.6173162370695165e+18
14168.0	1.6169948325871613e+18
14169.0	1.6166739750420475e+18
14170.0	1.6163526376685565e+18
14171.0	1.616031763346227e+18
14172.0	1.6157111339712507e+18
14173.0	1.6153848775180288e+18
14174.0	1.6150691101802493e+18
14175.0	1.6147489455341565e+18
14176.0	1.6143131623817216e+18
14177.0	1.6136811780767741e+18
14178.0	1.613360553734963e+18
14179.0	1.6130392314609656e+18
14180.0	1.612720033182515e+18
14181.0	1.6123997896835067e+18
14182.0	1.6120795512176637e+18
14183.0	1.6117595241447424e+18
14184.0	1.611439084352307e+18
14185.0	1.611119543818649e+18
14186.0	1.6107895259135995e+18
14187.0	1.610477915969945e+18
14188.0	1.6101600330252285e+18
14189.0	1.609833273255526e+18
14190.0	1.6095096508252157e+18
14191.0	1.6091900717039613e+18
14192.0	1.6088700328869885e+18
14193.0	1.6085498598522875e+18
14194.0	1.6082318124908544e+18
14195.0	1.6079126997762048e+18
14196.0	1.6075934645878781e+18
14197.0	1.607274355228672e+18
14198.0	1.606954912002867e+18
14199.0	1.6066360694013947e+18
14200.0	1.606312129881702e+18
14201.0	1.6059982483030016e+18
14202.0	1.6056798771412987e+18
14203.0	1.605359865167872e+18
14204.0	1.6050422489808893e+18
14205.0	1.6047237486346235e+18
14206.0	1.6043956399767547e+18
14207.0	1.604087051609702e+18
14208.0	1.6037687391682557e+18
14209.0	1.6034401490042877e+18
14210.0	1.6031243866996733e+18
14211.0	1.6028140820234237e+18
14212.0	1.60249600278528e+18
14213.0	1.6021780325990395e+18
14214.0	1.601860111066726e+18
14215.0	1.601541288597913e+18
14216.0	1.6012245951578107e+18
14217.0	1.6009068967624701e+18
14218.0	1.6005892520542203e+18
14219.0	1.6002716929097728e+18
14220.0	1.5999542176514043e+18
14221.0	1.5996367591702525e+18
14222.0	1.5993194181296125e+18
14223.0	1.599002150908723e+18
14224.0	1.5986849642184704e+18
14225.0	1.5983471532965885e+18
14226.0	1.5980396822921208e+18
14227.0	1.597722777459097e+18
14228.0	1.5973635000893437e+18
14229.0	1.5970782823841792e+18
14230.0	1.5967721250357243e+18
14231.0	1.5964553879748603e+18
14232.0	1.5961387163451387e+18
14233.0	1.5958221034356733e+18
14234.0	1.595505569379123e+18
14235.0	1.5951888843276285e+18
14236.0	1.5948726975594496e+18
14237.0	1.5945562775879677e+18
14238.0	1.5942400908197885e+18
14239.0	1.5939234963652603e+18
14240.0	1.5934708621770747e+18
14241.0	1.593291758685388e+18
14242.0	1.592975793376461e+18
14243.0	1.5926471881129984e+18
14244.0	1.592344065762918e+18
14245.0	1.5920269629587453e+18
14246.0	1.591710511110553e+18
14247.0	1.5913969684316152e+18
14248.0	1.59107998810112e+18
14249.0	1.5907657340682237e+18
14250.0	1.590450308985651e+18
14251.0	1.5901351573716992e+18
14252.0	1.5898198648291323e+18
14253.0	1.5895045789974525e+18
14254.0	1.5891893183315965e+18
14255.0	1.5888716149030912e+18
14256.0	1.5885431858003968e+18
14257.0	1.588243539689472e+18
14258.0	1.5879296245563392e+18
14259.0	1.5876148302970875e+18
14260.0	1.5872996166074368e+18
14261.0	1.5869859866869757e+18
14262.0	1.5866862030028797e+18
14263.0	1.5863478753427453e+18
14264.0	1.586051599774515e+18
14265.0	1.5857428620902397e+18
14266.0	1.5854187413766144e+18
14267.0	1.585103507554304e+18
14268.0	1.5847892971421693e+18
14269.0	1.5844749323796483e+18
14270.0	1.5841610776444925e+18
14271.0	1.5838469259526141e+18
14272.0	1.5835331265822715e+18
14273.0	1.5832191493734397e+18
14274.0	1.5828685844119547e+18
14275.0	1.5825884233596923e+18
14276.0	1.5822772731117568e+18
14277.0	1.5819639418257405e+18
14278.0	1.5816508789751803e+18
14279.0	1.5813373044195325e+18
14280.0	1.5810234748502016e+18
14281.0	1.5807106988900347e+18
14282.0	1.580397464911872e+18
14283.0	1.5800842560995323e+18
14284.0	1.5797711429173243e+18
14285.0	1.5794580733558781e+18
14286.0	1.579145003794432e+18
14287.0	1.5788321556922368e+18
14288.0	1.5785192857796605e+18
14289.0	1.5781190267043837e+18
14290.0	1.5778935711203323e+18
14291.0	1.5775810367520763e+18
14292.0	1.5772685376159744e+18
14293.0	1.5769558254092285e+18
14294.0	1.5766322130452475e+18
14295.0	1.5763311509372928e+18
14296.0	1.575948452574003e+18
14297.0	1.5757062868828157e+18
14298.0	1.5753801227042813e+18
14299.0	1.5750819664101376e+18
14300.0	1.5747702541254653e+18
14301.0	1.574458199585587e+18
14302.0	1.5741460963917824e+18
14303.0	1.5738316645203965e+18
14304.0	1.5735215058059264e+18
14305.0	1.5732107447894013e+18
14306.0	1.5728969068314621e+18
14307.0	1.5725867665719293e+18
14308.0	1.5722761347399677e+18
14309.0	1.5719644979527675e+18
14310.0	1.5716424173486077e+18
14311.0	1.5713343255871485e+18
14312.0	1.571027911547289e+18
14313.0	1.5707099480719357e+18
14314.0	1.5704076712935424e+18
14315.0	1.5700867432841213e+18
14316.0	1.5697714775851005e+18
14317.0	1.5694638304198653e+18
14318.0	1.5691539082641405e+18
14319.0	1.568843133825843e+18
14320.0	1.5685323291885565e+18
14321.0	1.5682216772239357e+18
14322.0	1.5679079231520765e+18
14323.0	1.5675988297908221e+18
14324.0	1.5672900065427456e+18
14325.0	1.5669795592601597e+18
14326.0	1.5666691807641597e+18
14327.0	1.5663589482299392e+18
14328.0	1.5660481402372093e+18
14329.0	1.5657385150382083e+18
14330.0	1.5654284200771581e+18
14331.0	1.56511833686016e+18
14332.0	1.5648084063158272e+18
14333.0	1.5644984925487101e+18
14334.0	1.564188645890457e+18
14335.0	1.563877455377203e+18
14336.0	1.5635674141032443e+18
14337.0	1.563259454881792e+18
14338.0	1.562949737408102e+18
14339.0	1.562640209516953e+18
14340.0	1.5623309081182203e+18
14341.0	1.562021400359731e+18
14342.0	1.5617121845247997e+18
14343.0	1.5614025224159224e+18
14344.0	1.5610934793863163e+18
14345.0	1.5607846125174781e+18
14346.0	1.5604753161519101e+18
14347.0	1.560165083617689e+18
14348.0	1.5598575471820797e+18
14349.0	1.5595486870241275e+18
14350.0	1.559238538375987e+18
14351.0	1.558929694995251e+18
14352.0	1.5586224102178816e+18
14353.0	1.5583137815855101e+18
14354.0	1.5580049616928765e+18
14355.0	1.557696217297715e+18
14356.0	1.557387890655232e+18
14357.0	1.5570798743912443e+18
14358.0	1.5567715678814203e+18
14359.0	1.5564632546607104e+18
14360.0	1.5561549666058237e+18
14361.0	1.5558469285314557e+18
14362.0	1.5555389139451901e+18
14363.0	1.5552308859371515e+18
14364.0	1.554918955548672e+18
14365.0	1.5546141252780024e+18
14366.0	1.5543064764350464e+18
14367.0	1.5539995171356667e+18
14368.0	1.5536917659516925e+18
14369.0	1.5533099936907267e+18
14370.0	1.5525765944705021e+18
14371.0	1.5522634796105723e+18
14372.0	1.5519559364640765e+18
14373.0	1.551648450360115e+18
14374.0	1.551341083374387e+18
14375.0	1.5510337398767613e+18
14376.0	1.5507264601325568e+18
14377.0	1.5504191971655675e+18
14378.0	1.5501118620565504e+18
14379.0	1.5498049933541368e+18
14380.0	1.549497938424627e+18
14381.0	1.5491907442442235e+18
14382.0	1.548883724546867e+18
14383.0	1.5485762233434107e+18
14384.0	1.5482699821088765e+18
14385.0	1.5479633600315387e+18
14386.0	1.5476566792339456e+18
14387.0	1.547350018569011e+18
14388.0	1.547043289117491e+18
14389.0	1.5467369304424448e+18
14390.0	1.5464303452749821e+18
14391.0	1.5461240788746235e+18
14392.0	1.5458175658491901e+18
14393.0	1.5455115594956797e+18
14394.0	1.54520537530368e+18
14395.0	1.5448990602493947e+18
14396.0	1.5445931126161403e+18
14397.0	1.5442870928408576e+18
14398.0	1.5439810143453181e+18
14399.0	1.5436751975743485e+18
14400.0	1.543367753413427e+18
14401.0	1.543063001995673e+18
14402.0	1.5427577170624507e+18
14403.0	1.542245912988876e+18
14404.0	1.541545626959872e+18
14405.0	1.541688439655628e+18
14406.0	1.5415353995689981e+18
14407.0	1.5409532670836733e+18
14408.0	1.5409223802290173e+18
14409.0	1.5406175868682235e+18
14410.0	1.5403136575340541e+18
14411.0	1.5400087249223675e+18
14412.0	1.5397033393258493e+18
14413.0	1.539398582874931e+18
14414.0	1.539093326462976e+18
14415.0	1.5387884357943293e+18
14416.0	1.5384836357226496e+18
14417.0	1.5381784212537341e+18
14418.0	1.537872255516672e+18
14419.0	1.537569044247347e+18
14420.0	1.5372640076169216e+18
14421.0	1.536959767904256e+18
14422.0	1.5366551590928381e+18
14423.0	1.5363500838748152e+18
14424.0	1.5348945882447862e+18
14425.0	1.5357411346874365e+18
14426.0	1.5354374486228987e+18
14427.0	1.5351331787112443e+18
14428.0	1.5348288685342715e+18
14429.0	1.534524751295283e+18
14430.0	1.534220598824141e+18
14431.0	1.533909027468083e+18
14432.0	1.5336116613808125e+18
14433.0	1.5330996710801405e+18
14434.0	1.5329993601056768e+18
14435.0	1.532688337364582e+18
14436.0	1.532386243457843e+18
14437.0	1.532082456730009e+18
14438.0	1.5317733465915392e+18
14439.0	1.5314735394193403e+18
14440.0	1.531171229086515e+18
14441.0	1.530866833345741e+18
14442.0	1.5305629073670144e+18
14443.0	1.5302559463899133e+18
14444.0	1.5299568639934464e+18
14445.0	1.5296539681357821e+18
14446.0	1.5290829388120064e+18
14447.0	1.5290456564826107e+18
14448.0	1.5287443058065403e+18
14449.0	1.5284411884896253e+18
14450.0	1.5281380879499264e+18
14451.0	1.5278350679408637e+18
14452.0	1.5275318835150848e+18
14453.0	1.5272258335408125e+18
14454.0	1.5269261823967232e+18
14455.0	1.526622917440307e+18
14456.0	1.526319887364915e+18
14457.0	1.5260168556118013e+18
14458.0	1.5257150888607741e+18
14459.0	1.5254123054104576e+18
14460.0	1.5251099531345915e+18
14461.0	1.5248057503318013e+18
14462.0	1.5244983246258176e+18
14463.0	1.524202300715827e+18
14464.0	1.523900377936691e+18
14465.0	1.5235960107171837e+18
14466.0	1.5232959334318077e+18
14467.0	1.5229908951236603e+18
14468.0	1.5226912456572925e+18
14469.0	1.522387232437043e+18
14470.0	1.5220849942462464e+18
14471.0	1.5217843800899581e+18
14472.0	1.5214834371002363e+18
14473.0	1.5211817844342781e+18
14474.0	1.5208799354748925e+18
14475.0	1.5205777107058688e+18
14476.0	1.5202630674415613e+18
14477.0	1.5199746067005437e+18
14478.0	1.5196728835702781e+18
14479.0	1.5193710933311485e+18
14480.0	1.5190688954056701e+18
14481.0	1.5187681436762107e+18
14482.0	1.5184662611623936e+18
14483.0	1.518164264563507e+18
14484.0	1.5178626471297021e+18
14485.0	1.5175592630550525e+18
14486.0	1.517234885650022e+18
14487.0	1.516959710786355e+18
14488.0	1.5166584809062397e+18
14489.0	1.516356590003814e+18
14490.0	1.5160558131085307e+18
14491.0	1.515754875151974e+18
14492.0	1.515453972427571e+18
14493.0	1.5151529136750587e+18
14494.0	1.5148519622967293e+18
14495.0	1.5145510864158715e+18
14496.0	1.5142384983605243e+18
14497.0	1.5139492608344064e+18
14498.0	1.5136485711806464e+18
14499.0	1.5133478915932157e+18
14500.0	1.5130471750959101e+18
14501.0	1.5127411603537915e+18
14502.0	1.5124221751459837e+18
14503.0	1.5121439870943232e+18
14504.0	1.511844346016563e+18
14505.0	1.5115387691597821e+18
14506.0	1.5110695137837056e+18
14507.0	1.5106358261055488e+18
14508.0	1.5103568495247357e+18
14509.0	1.510056465216307e+18
14510.0	1.5097561329172475e+18
14511.0	1.5094558241062907e+18
14512.0	1.509147999102566e+18
14513.0	1.5088447861555197e+18
14514.0	1.5085412208869373e+18
14515.0	1.5082443665047547e+18
14516.0	1.5077214341038077e+18
14517.0	1.507644116303872e+18
14518.0	1.5073441614921723e+18
14519.0	1.5070441194389501e+18
14520.0	1.5067440958406653e+18
14521.0	1.5064439095033853e+18
14522.0	1.506144107364352e+18
14523.0	1.505831475688243e+18
14524.0	1.5055312339861501e+18
14525.0	1.5052439258398715e+18
14526.0	1.5049445867519997e+18
14527.0	1.5046419257753595e+18
14528.0	1.5043338742792192e+18
14529.0	1.5040442491994107e+18
14530.0	1.5037443111649275e+18
14531.0	1.5034457857720315e+18
14532.0	1.5031277115670525e+18
14533.0	1.5028464046309373e+18
14534.0	1.5025470990974973e+18
14535.0	1.5022474764746747e+18
14536.0	1.5019479712923643e+18
14537.0	1.5016474544439293e+18
14538.0	1.5013490381029373e+18
14539.0	1.5010496201621501e+18
14540.0	1.5007502223540221e+18
14541.0	1.5004504353144832e+18
14542.0	1.500151495524352e+18
14543.0	1.4998444204621821e+18
14544.0	1.4995528592916472e+18
14545.0	1.4992535369809915e+18
14546.0	1.4973290258890744e+18
14547.0	1.4971776635240435e+18
14548.0	1.4983551757844475e+18
14549.0	1.4980468357201912e+18
14550.0	1.497757776032563e+18
14551.0	1.4974587406123005e+18
14552.0	1.4971594854105085e+18
14553.0	1.4968598812426237e+18
14554.0	1.4965616460955643e+18
14555.0	1.4962626022866941e+18
14556.0	1.4959633823170552e+18
14557.0	1.4956647747158013e+18
14558.0	1.495365851702886e+18
14559.0	1.4949030471663613e+18
14560.0	1.4947676533555197e+18
14561.0	1.4944686951104507e+18
14562.0	1.4941702888357885e+18
14563.0	1.4938716158033915e+18
14564.0	1.493572135786905e+18
14565.0	1.4932739660709883e+18
14566.0	1.492975137010483e+18
14567.0	1.4926762794287104e+18
14568.0	1.492376688682598e+18
14569.0	1.4920786951274493e+18
14570.0	1.4917344350437373e+18
14571.0	1.491481072238592e+18
14572.0	1.4911789883981821e+18
14573.0	1.490880869013913e+18
14574.0	1.4905834542727165e+18
14575.0	1.4902862979006464e+18
14576.0	1.4899876114464765e+18
14577.0	1.4896890793426944e+18
14578.0	1.4893902284718077e+18
14579.0	1.48909175341056e+18
14580.0	1.4887931239989248e+18
14581.0	1.488494098644992e+18
14582.0	1.488195799744512e+18
14583.0	1.4878971988541437e+18
14584.0	1.487597576231321e+18
14585.0	1.4872999467417595e+18
14586.0	1.4870010170179584e+18
14587.0	1.4867024194830336e+18
14588.0	1.4864048134815741e+18
14589.0	1.486113720395366e+18
14590.0	1.4858237866147837e+18
14591.0	1.485533762237235e+18
14592.0	1.4852437781250045e+18
14593.0	1.4849436723183613e+18
14594.0	1.484663913919283e+18
14595.0	1.4843734717890557e+18
14596.0	1.4840791692214267e+18
14597.0	1.4837892606066688e+18
14598.0	1.483503500997427e+18
14599.0	1.4832140738887675e+18
14600.0	1.482923974013747e+18
14601.0	1.4826340704321536e+18
14602.0	1.482343302823936e+18
14603.0	1.4820439889018875e+18
14604.0	1.4817500956983293e+18
14605.0	1.4814628596940795e+18
14606.0	1.481167964890726e+18
14607.0	1.4808824032526336e+18
14608.0	1.4805937411850237e+18
14609.0	1.4803026682314747e+18
14610.0	1.4800114795151357e+18
14611.0	1.4797227419500541e+18
14612.0	1.4794328148803581e+18
14613.0	1.4791425304559613e+18
14614.0	1.4788518568001536e+18
14615.0	1.4785617435033597e+18
14616.0	1.4782713886146557e+18
14617.0	1.4779808743423995e+18
14618.0	1.4776902946390016e+18
14619.0	1.477396736979763e+18
14620.0	1.4770996527497213e+18
14621.0	1.476818619282227e+18
14622.0	1.4765279724699645e+18
14623.0	1.4762019777413115e+18
14624.0	1.4758662891372544e+18
14625.0	1.4755805765042173e+18
14626.0	1.4752893894656e+18
14627.0	1.4749980262662141e+18
14628.0	1.4747079515570176e+18
14629.0	1.4744169943662587e+18
14630.0	1.4741258811473915e+18
14631.0	1.4738348602032125e+18
14632.0	1.473454104641536e+18
14633.0	1.473238921746841e+18
14634.0	1.4729611346706432e+18
14635.0	1.4726588578922493e+18
14636.0	1.4723555677700093e+18
14637.0	1.4720875517444093e+18
14638.0	1.4717959100432381e+18
14639.0	1.4715036459073536e+18
14640.0	1.4712127373705216e+18
14641.0	1.470560658993971e+18
14642.0	1.470629311361843e+18
14643.0	1.4703379246743547e+18
14644.0	1.470046051447603e+18
14645.0	1.46975219515392e+18
14646.0	1.4694618452983803e+18
14647.0	1.4691696365273083e+18
