# Flux units: erg / (cm m2 s)
# Wavelength units: Angstrom
wave	flux
14000.0	2.235196377766297e+18
14001.0	2.2347172691312637e+18
14002.0	2.2343105508278264e+18
14003.0	2.2338541031784445e+18
14004.0	2.2333972780417021e+18
14005.0	2.2329403102986237e+18
14006.0	2.2324783261679613e+18
14007.0	2.232018929084006e+18
14008.0	2.2315009124073467e+18
14009.0	2.2311062082682877e+18
14010.0	2.2306425363496952e+18
14011.0	2.2297732970446845e+18
14012.0	2.2297384356675581e+18
14013.0	2.2292886452174843e+18
14014.0	2.2288287347507195e+18
14015.0	2.2283762867896317e+18
14016.0	2.2279222030499837e+18
14017.0	2.2274669230948347e+18
14018.0	2.2270114804006904e+18
14019.0	2.2265562239336443e+18
14020.0	2.2261004289179643e+18
14021.0	2.2256448301957117e+18
14022.0	2.225190422655795e+18
14023.0	2.2247265712209917e+18
14024.0	2.2242713164316672e+18
14025.0	2.22382634607575e+18
14026.0	2.2233706651451387e+18
14027.0	2.2229173665792e+18
14028.0	2.222463022792704e+18
14029.0	2.2220076304302075e+18
14030.0	2.2214044375056381e+18
14031.0	2.2210738357534715e+18
14032.0	2.2206452500267003e+18
14033.0	2.2201599002673147e+18
14034.0	2.2197393894146048e+18
14035.0	2.2192861864787965e+18
14036.0	2.2188328677801984e+18
14037.0	2.218379606124134e+18
14038.0	2.217926441775923e+18
14039.0	2.2174697508569085e+18
14040.0	2.2170164288028672e+18
14041.0	2.2165657642598395e+18
14042.0	2.216106498038169e+18
14043.0	2.2156344207343613e+18
14044.0	2.2152017883430912e+18
14045.0	2.2147549288726523e+18
14046.0	2.214300271352217e+18
14047.0	2.2138472428994557e+18
14048.0	2.213399865013043e+18
14049.0	2.2129484891160573e+18
14050.0	2.212496571314995e+18
14051.0	2.212038721090355e+18
14052.0	2.2115889373511677e+18
14053.0	2.2111414822895616e+18
14054.0	2.2106902305439736e+18
14055.0	2.2102389066563581e+18
14056.0	2.2097876767211515e+18
14057.0	2.209336581003673e+18
14058.0	2.2088855641391101e+18
14059.0	2.208434664715059e+18
14060.0	2.2079838189780987e+18
14061.0	2.207528530634342e+18
14062.0	2.2070822046793723e+18
14063.0	2.2066204956950523e+18
14064.0	2.206156713046835e+18
14065.0	2.2057254446432253e+18
14066.0	2.2052813517357048e+18
14067.0	2.2048314203570173e+18
14068.0	2.2043814638125048e+18
14069.0	2.2039310609940477e+18
14070.0	2.2034818896232445e+18
14071.0	2.2030304315179003e+18
14072.0	2.2025828976033787e+18
14073.0	2.2021335416832e+18
14074.0	2.2016843132698621e+18
14075.0	2.2012207856353275e+18
14076.0	2.2007856937041917e+18
14077.0	2.2003026575228928e+18
14078.0	2.1998848125698043e+18
14079.0	2.1994317304299515e+18
14080.0	2.198990774861824e+18
14081.0	2.1985423366553595e+18
14082.0	2.1980924690300928e+18
14083.0	2.1976440408899576e+18
14084.0	2.197194336003686e+18
14085.0	2.1965694971150333e+18
14086.0	2.1962920204173304e+18
14087.0	2.1958527660589056e+18
14088.0	2.1953969844649976e+18
14089.0	2.1949583038873592e+18
14090.0	2.1945106374328317e+18
14091.0	2.1940635716026363e+18
14092.0	2.1936163447111677e+18
14093.0	2.1931691429855224e+18
14094.0	2.1927219630702587e+18
14095.0	2.1922745986056184e+18
14096.0	2.1918214023806973e+18
14097.0	2.1913680031514621e+18
14098.0	2.190931983440281e+18
14099.0	2.1904877428932605e+18
14100.0	2.1900334041399293e+18
14101.0	2.1895955087359992e+18
14102.0	2.1891491341271037e+18
14103.0	2.1886934397747195e+18
14104.0	2.1882572439027704e+18
14105.0	2.187811228326297e+18
14106.0	2.1873655315169277e+18
14107.0	2.1869193750118392e+18
14108.0	2.1864643483926523e+18
14109.0	2.18602526516183e+18
14110.0	2.185580816577331e+18
14111.0	2.185132594796953e+18
14112.0	2.1846856178860024e+18
14113.0	2.1842475396104187e+18
14114.0	2.1837914224721917e+18
14115.0	2.1833557198503933e+18
14116.0	2.182896884803174e+18
14117.0	2.1821984006471675e+18
14118.0	2.1820194783494144e+18
14119.0	2.1815704244191227e+18
14120.0	2.1811315039272952e+18
14121.0	2.180680839384268e+18
14122.0	2.18024387847127e+18
14123.0	2.1797984417087483e+18
14124.0	2.1793467252342784e+18
14125.0	2.1785736881635325e+18
14126.0	2.178464911405875e+18
14127.0	2.1780270294237176e+18
14128.0	2.1775835421736957e+18
14129.0	2.1771316126285821e+18
14130.0	2.1766798441447421e+18
14131.0	2.1762538639196155e+18
14132.0	2.1757984262586365e+18
14133.0	2.1749694824710136e+18
14134.0	2.1749167768469501e+18
14135.0	2.174472647029555e+18
14136.0	2.1740379309080573e+18
14137.0	2.173597562542489e+18
14138.0	2.1731543437279227e+18
14139.0	2.172713539154739e+18
14140.0	2.1722686459740155e+18
14141.0	2.1718241151811581e+18
14142.0	2.1713591111516157e+18
14143.0	2.1709295406022653e+18
14144.0	2.170491262677811e+18
14145.0	2.1700498709020667e+18
14146.0	2.169607428872601e+18
14147.0	2.1691667199295483e+18
14148.0	2.1687258432143355e+18
14149.0	2.1682849983758333e+18
14150.0	2.167843849869721e+18
14151.0	2.1674012232908795e+18
14152.0	2.1669621669036027e+18
14153.0	2.166521315354214e+18
14154.0	2.166059426853683e+18
14155.0	2.165636505115033e+18
14156.0	2.1651989955870715e+18
14157.0	2.164759071817728e+18
14158.0	2.1643159939317757e+18
14159.0	2.163878447493939e+18
14160.0	2.1634287107309565e+18
14161.0	2.1629562274185208e+18
14162.0	2.162479923934003e+18
14163.0	2.16211479634903e+18
14164.0	2.1616632577130496e+18
14165.0	2.1612057799426043e+18
14166.0	2.160796506469171e+18
14167.0	2.1603492594450427e+18
14168.0	2.1599217273274365e+18
14169.0	2.1594835550994427e+18
14170.0	2.159042690128281e+18
14171.0	2.1586036974944253e+18
14172.0	2.1581665134444544e+18
14173.0	2.1577043665747965e+18
14174.0	2.157283567153971e+18
14175.0	2.1568512484966395e+18
14176.0	2.1564131769319421e+18
14177.0	2.1559750047039483e+18
14178.0	2.155536077501235e+18
14179.0	2.1550941975085048e+18
14180.0	2.154660984625561e+18
14181.0	2.1542232234393595e+18
14182.0	2.1537849572589568e+18
14183.0	2.1533477631426557e+18
14184.0	2.1529063596228605e+18
14185.0	2.1524712861466621e+18
14186.0	2.1519712059916283e+18
14187.0	2.1515755740725243e+18
14188.0	2.1511602104696827e+18
14189.0	2.150723682408857e+18
14190.0	2.1502868993343485e+18
14191.0	2.1498499115778043e+18
14192.0	2.1494074997473272e+18
14193.0	2.1489694969692155e+18
14194.0	2.1485400673484795e+18
14195.0	2.148104861332275e+18
14196.0	2.1476684909772795e+18
14197.0	2.1472323538255867e+18
14198.0	2.1467928914296827e+18
14199.0	2.1463586098380792e+18
14200.0	2.1458956828278781e+18
14201.0	2.1454851258974205e+18
14202.0	2.145052820661862e+18
14203.0	2.1446124824952827e+18
14204.0	2.144175157516697e+18
14205.0	2.1435918489485304e+18
14206.0	2.143066470429491e+18
14207.0	2.1427206785859581e+18
14208.0	2.142287291219968e+18
14209.0	2.1417543394656248e+18
14210.0	2.1413433815597053e+18
14211.0	2.1409781801549824e+18
14212.0	2.1405477590007805e+18
14213.0	2.1401138465079293e+18
14214.0	2.1396785431838715e+18
14215.0	2.1392364534759421e+18
14216.0	2.1388103189004283e+18
14217.0	2.1383759517450237e+18
14218.0	2.137931479672422e+18
14219.0	2.1375072929316856e+18
14220.0	2.1370732478988288e+18
14221.0	2.1366388757102587e+18
14222.0	2.1361962172547064e+18
14223.0	2.135612737558937e+18
14224.0	2.1351781422333947e+18
14225.0	2.1346572751077373e+18
14226.0	2.1343071966855165e+18
14227.0	2.1338760121679872e+18
14228.0	2.1332426856857595e+18
14229.0	2.132965955574169e+18
14230.0	2.1325756319662075e+18
14231.0	2.132140820214579e+18
14232.0	2.131709355517542e+18
14233.0	2.131273634440806e+18
14234.0	2.130842934784819e+18
14235.0	2.1304080559243261e+18
14236.0	2.1299766499475456e+18
14237.0	2.1295424841187325e+18
14238.0	2.129109138695782e+18
14239.0	2.1286661597954045e+18
14240.0	2.127155384916377e+18
14241.0	2.1277954071855101e+18
14242.0	2.127348089697075e+18
14243.0	2.126669877451161e+18
14244.0	2.1263494661799933e+18
14245.0	2.1259095172448253e+18
14246.0	2.1254761667887096e+18
14247.0	2.1250502855491576e+18
14248.0	2.124611732478361e+18
14249.0	2.1241887486640125e+18
14250.0	2.1237568158826493e+18
14251.0	2.1233267101401083e+18
14252.0	2.1228948025245693e+18
14253.0	2.1224622640857083e+18
14254.0	2.1220292072308733e+18
14255.0	2.1215747241934843e+18
14256.0	2.1210767781003261e+18
14257.0	2.1207187019792381e+18
14258.0	2.1203047963164667e+18
14259.0	2.1198578764480512e+18
14260.0	2.119433318930841e+18
14261.0	2.1189812316798968e+18
14262.0	2.1185907621101565e+18
14263.0	2.1180269553778688e+18
14264.0	2.1176783499952125e+18
14265.0	2.117245831689011e+18
14266.0	2.1166996007682045e+18
14267.0	2.1162693423529981e+18
14268.0	2.1158387433603067e+18
14269.0	2.115400629852569e+18
14270.0	2.1149773776027643e+18
14271.0	2.1145463407247357e+18
14272.0	2.1141152669368315e+18
14273.0	2.1136783982985216e+18
14274.0	2.1130326952640504e+18
14275.0	2.1127913348792317e+18
14276.0	2.112381781226291e+18
14277.0	2.1119569754062843e+18
14278.0	2.1115360065355773e+18
14279.0	2.1111055853813757e+18
14280.0	2.1106725536923643e+18
14281.0	2.110248095160729e+18
14282.0	2.1098189943734267e+18
14283.0	2.109389688904089e+18
14284.0	2.1089604169891835e+18
14285.0	2.1085311215861752e+18
14286.0	2.1081016902877176e+18
14287.0	2.1076719318335488e+18
14288.0	2.107235999363891e+18
14289.0	2.1061143854317553e+18
14290.0	2.1063627335270397e+18
14291.0	2.1057784770461693e+18
14292.0	2.1053508258103296e+18
14293.0	2.1049191631421437e+18
14294.0	2.1043922344083453e+18
14295.0	2.1040446658576381e+18
14296.0	2.1030751709429763e+18
14297.0	2.103188989254041e+18
14298.0	2.1026672799121405e+18
14299.0	2.1023378357878781e+18
14300.0	2.1019157143224317e+18
14301.0	2.1014907340193787e+18
14302.0	2.101065089338572e+18
14303.0	2.1006088883142656e+18
14304.0	2.100197839811379e+18
14305.0	2.0997814460874747e+18
14306.0	2.099347489973862e+18
14307.0	2.0989221506383867e+18
14308.0	2.098498552777932e+18
14309.0	2.098068586286284e+18
14310.0	2.097609408983859e+18
14311.0	2.0972038617300987e+18
14312.0	2.0967699492372477e+18
14313.0	2.0963107920674808e+18
14314.0	2.09593488679895e+18
14315.0	2.0955072775061501e+18
14316.0	2.095045045072691e+18
14317.0	2.094651824039526e+18
14318.0	2.0941662981193725e+18
14319.0	2.0936220536209405e+18
14320.0	2.0931948788580347e+18
14321.0	2.0927656488861693e+18
14322.0	2.0923131908587515e+18
14323.0	2.0918977215594493e+18
14324.0	2.0914882887024635e+18
14325.0	2.0910533360222205e+18
14326.0	2.0906358383575035e+18
14327.0	2.0902037042495488e+18
14328.0	2.0897785259753464e+18
14329.0	2.08935708566487e+18
14330.0	2.088931031619993e+18
14331.0	2.088504814836121e+18
14332.0	2.088079051037081e+18
14333.0	2.0876532117405696e+18
14334.0	2.08722739593216e+18
14335.0	2.0867935589367805e+18
14336.0	2.0863663237758973e+18
14337.0	2.08594782954455e+18
14338.0	2.0855227502559224e+18
14339.0	2.0850898192302077e+18
14340.0	2.0846744036179963e+18
14341.0	2.084249050860748e+18
14342.0	2.0838222904950776e+18
14343.0	2.0833972984479744e+18
14344.0	2.082970256225075e+18
14345.0	2.082549567533875e+18
14346.0	2.0821230940585976e+18
14347.0	2.0816935537082365e+18
14348.0	2.0812751383298043e+18
14349.0	2.080851151237939e+18
14350.0	2.0803609411190781e+18
14351.0	2.0798021105090552e+18
14352.0	2.0793827623174136e+18
14353.0	2.078964304995942e+18
14354.0	2.078539333081497e+18
14355.0	2.0781134736523261e+18
14356.0	2.0776895687688192e+18
14357.0	2.07726753957806e+18
14358.0	2.076843315927449e+18
14359.0	2.0764053550923773e+18
14360.0	2.075994142172774e+18
14361.0	2.0755706097434621e+18
14362.0	2.0751469279969277e+18
14363.0	2.074722556706816e+18
14364.0	2.0742757039472637e+18
14365.0	2.073867148538675e+18
14366.0	2.073447632574873e+18
14367.0	2.0730284991315963e+18
14368.0	2.072604767053414e+18
14369.0	2.0721818235043837e+18
14370.0	2.0717585779654656e+18
14371.0	2.0713354146349053e+18
14372.0	2.0709079311712248e+18
14373.0	2.0704890225426424e+18
14374.0	2.0700663004528637e+18
14375.0	2.0696434189795325e+18
14376.0	2.06922061971456e+18
14377.0	2.0687973993414648e+18
14378.0	2.068373237766553e+18
14379.0	2.067952528942694e+18
14380.0	2.0675292011954168e+18
14381.0	2.0670976391905275e+18
14382.0	2.06668390465536e+18
14383.0	2.0662605618085883e+18
14384.0	2.0658245823627261e+18
14385.0	2.0654185586360315e+18
14386.0	2.064980760539955e+18
14387.0	2.0644543217008637e+18
14388.0	2.0639605497790461e+18
14389.0	2.063538683327283e+18
14390.0	2.0631153119592443e+18
14391.0	2.0626944454295547e+18
14392.0	2.062271506913689e+18
14393.0	2.0618501286789115e+18
14394.0	2.0613960583610368e+18
14395.0	2.0609973008465915e+18
14396.0	2.0605837676380152e+18
14397.0	2.0601616931487744e+18
14398.0	2.0597392143286264e+18
14399.0	2.05931711299584e+18
14400.0	2.0588814405730301e+18
14401.0	2.0584651995217915e+18
14402.0	2.0580389911265277e+18
14403.0	2.0569886098980854e+18
14404.0	2.0544853653848054e+18
14405.0	2.0555854457602022e+18
14406.0	2.056342948806656e+18
14407.0	2.0551357425516544e+18
14408.0	2.0554914329526267e+18
14409.0	2.055086313517875e+18
14410.0	2.0546795432050688e+18
14411.0	2.0542611093716987e+18
14412.0	2.053839023138406e+18
14413.0	2.053421114431897e+18
14414.0	2.052998617156812e+18
14415.0	2.052578800880844e+18
14416.0	2.0521588067663864e+18
14417.0	2.0517359118712824e+18
14418.0	2.0513126461997053e+18
14419.0	2.0508954253590525e+18
14420.0	2.0504715909398525e+18
14421.0	2.0500529910120443e+18
14422.0	2.049623400330035e+18
14423.0	2.0491591613415421e+18
14424.0	2.0454829042171886e+18
14425.0	2.0483085330022397e+18
14426.0	2.0479468984336381e+18
14427.0	2.0475340312805373e+18
14428.0	2.0469582472937472e+18
14429.0	2.0465037743226872e+18
14430.0	2.0460860166111227e+18
14431.0	2.0456250307248128e+18
14432.0	2.0452335998205952e+18
14433.0	2.0442093004521467e+18
14434.0	2.044385337068748e+18
14435.0	2.0439760233299963e+18
14436.0	2.0435676256272381e+18
14437.0	2.04314813482926e+18
14438.0	2.042713628422963e+18
14439.0	2.042302529588428e+18
14440.0	2.0418892513935355e+18
14441.0	2.0414655243485181e+18
14442.0	2.0410425573113853e+18
14443.0	2.0405933255426043e+18
14444.0	2.0402059329142781e+18
14445.0	2.039783712463257e+18
14446.0	2.0382721456996352e+18
14447.0	2.0389162850975736e+18
14448.0	2.0385333585641472e+18
14449.0	2.0381168742432758e+18
14450.0	2.0376934558990333e+18
14451.0	2.0372786929205245e+18
14452.0	2.036858685384294e+18
14453.0	2.036433983583027e+18
14454.0	2.0360229032034301e+18
14455.0	2.035597706474291e+18
14456.0	2.035183988716339e+18
14457.0	2.034764835140403e+18
14458.0	2.0343480102420475e+18
14459.0	2.0339282577195005e+18
14460.0	2.0335097601327096e+18
14461.0	2.0330795067506688e+18
14462.0	2.0326676512636925e+18
14463.0	2.0322526752145405e+18
14464.0	2.0318381773160445e+18
14465.0	2.0314054811713536e+18
14466.0	2.0310005311864827e+18
14467.0	2.030564545029734e+18
14468.0	2.030162666953113e+18
14469.0	2.0297335024123901e+18
14470.0	2.0293103457927165e+18
14471.0	2.0289079778213888e+18
14472.0	2.028492629318041e+18
14473.0	2.028079381322137e+18
14474.0	2.0276638986010621e+18
14475.0	2.0272435236438016e+18
14476.0	2.0267917669040125e+18
14477.0	2.0263438538244093e+18
14478.0	2.02577198228439e+18
14479.0	2.02535678813143e+18
14480.0	2.0249243922989048e+18
14481.0	2.0245215025561597e+18
14482.0	2.024100070634291e+18
14483.0	2.023677987756441e+18
14484.0	2.0232551616479227e+18
14485.0	2.0228152043241464e+18
14486.0	2.0221993764782077e+18
14487.0	2.0220121813352445e+18
14488.0	2.0215959117627387e+18
14489.0	2.021177917492428e+18
14490.0	2.020762218345267e+18
14491.0	2.020345992393523e+18
14492.0	2.0199303251230712e+18
14493.0	2.0195088562913275e+18
14494.0	2.019077792569753e+18
14495.0	2.0186739700137981e+18
14496.0	2.0181569197047803e+18
14497.0	2.0178420365262843e+18
14498.0	2.0174277164662781e+18
14499.0	2.017010948610457e+18
14500.0	2.0165931741216768e+18
14501.0	2.0161507421585405e+18
14502.0	2.0155967970738179e+18
14503.0	2.0153271989567483e+18
14504.0	2.01492018537431e+18
14505.0	2.014487638546841e+18
14506.0	2.0140519845789693e+18
14507.0	2.0134838728130555e+18
14508.0	2.0132575129370621e+18
14509.0	2.0128440971689981e+18
14510.0	2.0124256834682875e+18
14511.0	2.0120106923196416e+18
14512.0	2.0115832608653307e+18
14513.0	2.0111764184104955e+18
14514.0	2.0107355467284475e+18
14515.0	2.010333188823449e+18
14516.0	2.0081628126642184e+18
14517.0	2.009478475232051e+18
14518.0	2.00909496820695e+18
14519.0	2.0086821010538493e+18
14520.0	2.0082670377631744e+18
14521.0	2.0078512748625912e+18
14522.0	2.0074343895662587e+18
14523.0	2.0069766869811197e+18
14524.0	2.0065600969637883e+18
14525.0	2.006182958569881e+18
14526.0	2.0057700024975355e+18
14527.0	2.0053349055332347e+18
14528.0	2.0048460292030461e+18
14529.0	2.0045157512511488e+18
14530.0	2.0040953024741368e+18
14531.0	2.0036912953688061e+18
14532.0	2.003226995982336e+18
14533.0	2.0028363183751165e+18
14534.0	2.0022611903774717e+18
14535.0	2.001835428256153e+18
14536.0	2.0014252219695101e+18
14537.0	2.0010037984362493e+18
14538.0	2.0005971589857277e+18
14539.0	2.0001814162178043e+18
14540.0	1.999765245630873e+18
14541.0	1.999328262907494e+18
14542.0	1.9989292268912637e+18
14543.0	1.9984797887627261e+18
14544.0	1.9980941208322043e+18
14545.0	1.997646679192371e+18
14546.0	1.9934348346130412e+18
14547.0	1.9932734260510694e+18
14548.0	1.9963821401571325e+18
14549.0	1.9959000955092987e+18
14550.0	1.99557358068695e+18
14551.0	1.9951701909831677e+18
14552.0	1.9947548240248827e+18
14553.0	1.9943356637380605e+18
14554.0	1.9939255077830648e+18
14555.0	1.9935097801146365e+18
14556.0	1.9930933092155387e+18
14557.0	1.9926771637944315e+18
14558.0	1.9922493800185853e+18
14559.0	1.990542370432612e+18
14560.0	1.9914170170343421e+18
14561.0	1.991010761782067e+18
14562.0	1.9905819042643963e+18
14563.0	1.990186718619238e+18
14564.0	1.9897703601274877e+18
14565.0	1.9893577043673083e+18
14566.0	1.988942746773094e+18
14567.0	1.9885271365451773e+18
14568.0	1.9881060854661112e+18
14569.0	1.9876915607240701e+18
14570.0	1.9869193306374136e+18
14571.0	1.986860791575347e+18
14572.0	1.986422092542771e+18
14573.0	1.9859964646391805e+18
14574.0	1.9856169556246525e+18
14575.0	1.9852051756351483e+18
14576.0	1.9847906643148792e+18
14577.0	1.9843708497166336e+18
14578.0	1.9839609269649403e+18
14579.0	1.9835475246186496e+18
14580.0	1.983132712986214e+18
14581.0	1.9827153059184635e+18
14582.0	1.982302472319795e+18
14583.0	1.981887427484057e+18
14584.0	1.981464713782886e+18
14585.0	1.9810571801067515e+18
14586.0	1.9806400263749627e+18
14587.0	1.980227003193753e+18
14588.0	1.9798127032664061e+18
14589.0	1.979401713483776e+18
14590.0	1.9789909065727992e+18
14591.0	1.9785795510468605e+18
14592.0	1.9781613957152765e+18
14593.0	1.9776654310113275e+18
14594.0	1.9773446791626747e+18
14595.0	1.9769315720953848e+18
14596.0	1.9765021223419901e+18
14597.0	1.9760888173035517e+18
14598.0	1.975650992363929e+18
14599.0	1.9751093315567608e+18
14600.0	1.9746980985044987e+18
14601.0	1.974286786599321e+18
14602.0	1.973874729785753e+18
14603.0	1.97346313937879e+18
14604.0	1.973020519510835e+18
14605.0	1.972636900078387e+18
14606.0	1.9721764846174203e+18
14607.0	1.9718129861001208e+18
14608.0	1.9714050715811835e+18
14609.0	1.9709930634215421e+18
14610.0	1.9705821994680315e+18
14611.0	1.9701701174886392e+18
14612.0	1.9697615973122045e+18
14613.0	1.969350699804262e+18
14614.0	1.9689367555538944e+18
14615.0	1.9685275642888184e+18
14616.0	1.9681165778616317e+18
14617.0	1.9677047861280765e+18
14618.0	1.96729264710615e+18
14619.0	1.966857449478553e+18
14620.0	1.9664133548933115e+18
14621.0	1.966058124188057e+18
14622.0	1.96564462117847e+18
14623.0	1.9652350373265405e+18
14624.0	1.9647785225682941e+18
14625.0	1.9644076991184893e+18
14626.0	1.963999787954995e+18
14627.0	1.9635860584529912e+18
14628.0	1.9631777899347965e+18
14629.0	1.9627660904759293e+18
14630.0	1.9623536679190525e+18
14631.0	1.961940280672256e+18
14632.0	1.9612691215679483e+18
14633.0	1.9610702259945464e+18
14634.0	1.9607041471414264e+18
14635.0	1.9602901643034624e+18
14636.0	1.9598697625026555e+18
14637.0	1.9594704630841341e+18
14638.0	1.959056560776806e+18
14639.0	1.9586364089565181e+18
14640.0	1.9582148260397048e+18
14641.0	1.9567866470727672e+18
14642.0	1.9573888249757693e+18
14643.0	1.956994921109913e+18
14644.0	1.9565745209868288e+18
14645.0	1.9561552516481021e+18
14646.0	1.9557550160609275e+18
14647.0	1.9553417479323643e+18
14648.0	1.9549345984544765e+18
